x,y,z,signal,cytoplasm.p
93,463,18,0.0586968059737008,1
95,465,18,0.0568740981814507,1
95,466,18,0.0757144811219238,1
94,461,20,0.063065704943888,1
94,462,20,0.0603382832063825,1
95,461,20,0.0728225112591394,1
95,462,20,0.0659627520692823,1
75,455,21,0.0648380469986809,1
75,466,21,0.06075450669859,1
75,467,21,0.0584828533116678,1
76,455,21,0.0745599611387145,1
85,474,21,0.0582315317609489,1
94,461,21,0.0675612465294168,1
94,462,21,0.0620756682196525,1
95,461,21,0.0762644530383519,1
95,462,21,0.0670352928366936,1
75,454,22,0.0575613213025758,1
75,455,22,0.0972061091699443,1
75,456,22,0.0717058496103729,1
75,466,22,0.0628304879276494,1
76,454,22,0.0685188501010924,1
76,455,22,0.116712503949768,1
76,456,22,0.087887863943609,1
77,455,22,0.0653619013818929,1
85,474,22,0.0628091822948859,1
85,475,22,0.0574806571036907,1
86,473,22,0.0570748476019234,1
86,474,22,0.0698300222111664,1
86,475,22,0.0622887717227821,1
87,474,22,0.0591502745189208,1
94,461,22,0.0602223612221963,1
95,461,22,0.0669185629721618,1
75,454,23,0.0614225293933996,1
75,455,23,0.112166118974899,1
75,456,23,0.0864516119064533,1
76,454,23,0.0747387149848147,1
76,455,23,0.139018681778928,1
76,456,23,0.111610627525599,1
77,455,23,0.0718667239440072,1
77,456,23,0.0586373117780321,1
85,474,23,0.06285737795959,1
85,475,23,0.0570354442700314,1
86,473,23,0.0612205593070033,1
86,474,23,0.0763437432509558,1
86,475,23,0.0668784402139767,1
87,474,23,0.0660945250196651,1
87,475,23,0.0597411829708164,1
88,476,23,0.0606955314333623,1
89,476,23,0.0708131654162487,1
75,455,24,0.0902108796503126,1
75,456,24,0.0765515689956233,1
76,454,24,0.0597853569246031,1
76,455,24,0.115239685007335,1
76,456,24,0.103058854354435,1
77,455,24,0.05960818935451,1
86,474,24,0.0677317387670194,1
86,475,24,0.0594149231468734,1
87,474,24,0.0608792858818935,1
89,476,24,0.0690730265334795,1
89,477,24,0.0670503300256078,1
76,455,25,0.0687010418613639,1
76,456,25,0.0684854439539556,1
71,459,26,0.0628914799452727,1
71,469,26,0.0693429175382732,1
65,456,27,0.0958549971067269,1
65,457,27,0.12476690588102,1
65,458,27,0.0727563889064749,1
66,457,27,0.0581254458673936,1
70,459,27,0.0578026121637484,1
70,469,27,0.063540809350334,1
71,459,27,0.0625056964409769,1
71,469,27,0.064806922966097,1
71,470,27,0.0621234393049049,1
87,478,27,0.0584364503157597,1
64,456,28,0.140695982902846,1
64,457,28,0.196650837086694,1
64,458,28,0.109768023468488,1
65,456,28,0.116681934229246,1
65,457,28,0.167702491139734,1
65,458,28,0.0947909479283495,1
66,457,28,0.0775807495865304,1
70,469,28,0.0574859702437737,1
70,470,28,0.058341008393181,1
71,470,28,0.0573134140782809,1
84,477,28,0.0663382277280008,1
85,477,28,0.0582532737670378,1
85,478,28,0.0839755235135403,1
86,478,28,0.0759249604881645,1
87,478,28,0.0590848362109284,1
63,456,29,0.065221678121034,1
63,457,29,0.0927663997823134,1
64,456,29,0.128670607298634,1
64,457,29,0.18700697480253,1
64,458,29,0.112924535814362,1
65,456,29,0.118427545469393,1
65,457,29,0.177955648524827,1
65,458,29,0.111154546637364,1
66,456,29,0.0668699132433219,1
66,457,29,0.0967565031183474,1
66,458,29,0.0694481542729251,1
73,473,29,0.0644789825151577,1
74,473,29,0.0602649783846601,1
81,476,29,0.0584155692624479,1
82,476,29,0.0569866176330866,1
82,477,29,0.0767176916030356,1
83,477,29,0.0787179502662726,1
83,479,29,0.147711651205527,1
83,480,29,0.128699242823876,1
84,477,29,0.07663676793893,1
84,479,29,0.144989519020357,1
84,480,29,0.124421805343908,1
85,477,29,0.0647806462155865,1
85,478,29,0.10319737340055,1
86,478,29,0.0809718538733393,1
63,457,30,0.0726909034229878,1
64,456,30,0.0966592744239094,1
64,457,30,0.138967626099861,1
64,458,30,0.0976632515068089,1
65,456,30,0.102291603903602,1
65,457,30,0.154043640446118,1
65,458,30,0.111137339375696,1
65,459,30,0.0596665926168653,1
66,456,30,0.0693375808104429,1
66,457,30,0.102246810771449,1
66,458,30,0.0796447128583321,1
71,472,30,0.0580477242399863,1
72,472,30,0.0579086390879354,1
72,473,30,0.0677823226911393,1
73,472,30,0.0568725649778752,1
73,473,30,0.0714481239862576,1
74,473,30,0.0778464301784281,1
74,474,30,0.0905712886354328,1
75,473,30,0.076987659268008,1
75,474,30,0.0934001848618933,1
76,473,30,0.0621804921687264,1
76,474,30,0.0741163758596201,1
76,475,30,0.060805190870636,1
80,476,30,0.0594014427492822,1
81,476,30,0.0599190876580131,1
81,477,30,0.0820309673155908,1
82,476,30,0.0591161666363014,1
82,477,30,0.0888235662919014,1
82,479,30,0.158832424906284,1
82,480,30,0.14086980101282,1
83,476,30,0.0608606574584504,1
83,477,30,0.0928637405185511,1
83,478,30,0.146567102942496,1
83,479,30,0.180764276979406,1
83,480,30,0.162056468972724,1
83,481,30,0.134225156181551,1
84,476,30,0.0589151990291661,1
84,477,30,0.092318704338249,1
84,478,30,0.147220731214506,1
84,479,30,0.18113498201623,1
84,480,30,0.163922082877343,1
84,481,30,0.133863921625275,1
85,477,30,0.0773580989426745,1
85,478,30,0.126233497658161,1
85,479,30,0.159851804788181,1
85,480,30,0.150241307372596,1
86,477,30,0.0575054419291834,1
86,478,30,0.0903549889925418,1
64,456,31,0.0606233942051321,1
64,457,31,0.0833694658309308,1
64,458,31,0.0731056290932408,1
65,456,31,0.072192712508856,1
65,457,31,0.106605012698228,1
65,458,31,0.0920504644757675,1
65,459,31,0.0604718488255613,1
66,456,31,0.0620060371895746,1
66,457,31,0.0892036887368412,1
66,458,31,0.0784915019950988,1
70,472,31,0.0592713150442747,1
70,473,31,0.0591257668494591,1
71,472,31,0.0619384877781974,1
71,473,31,0.0661478628132842,1
72,472,31,0.0611324001014084,1
72,473,31,0.0687227131042108,1
72,474,31,0.0726839332436559,1
73,472,31,0.059418284400866,1
73,473,31,0.078424630731457,1
73,474,31,0.0961500208562862,1
74,473,31,0.0994133444189456,1
74,474,31,0.141675711781504,1
74,475,31,0.111680753898371,1
75,473,31,0.103478386028204,1
75,474,31,0.15296432409829,1
75,475,31,0.116888209079528,1
76,473,31,0.0736269595874899,1
76,474,31,0.102390165305764,1
76,475,31,0.0774131645387845,1
77,474,31,0.0583782652400671,1
80,476,31,0.0569682014993693,1
80,477,31,0.077171596521581,1
81,476,31,0.0602932600936924,1
81,477,31,0.0909898885931824,1
81,478,31,0.119253812464011,1
81,479,31,0.138455028969056,1
81,480,31,0.140075353889332,1
82,476,31,0.0667306865647871,1
82,477,31,0.106029660365687,1
82,478,31,0.153528106640772,1
82,479,31,0.18423167583491,1
82,480,31,0.180885553382233,1
82,481,31,0.162699081766737,1
83,476,31,0.0768108573079983,1
83,477,31,0.119609374167058,1
83,478,31,0.172245161044401,1
83,479,31,0.208114505870188,1
83,480,31,0.205728227825182,1
83,481,31,0.188329197772222,1
83,482,31,0.151983899381086,1
84,476,31,0.0789618652643342,1
84,477,31,0.124635215487753,1
84,478,31,0.177955094212765,1
84,479,31,0.21705492256001,1
84,480,31,0.21741046067531,1
84,481,31,0.195795167965046,1
84,482,31,0.148147092814861,1
85,476,31,0.0641533536634555,1
85,477,31,0.104158326432345,1
85,478,31,0.157030792766261,1
85,479,31,0.205058854731839,1
85,480,31,0.215494262846571,1
85,481,31,0.187088505851129,1
86,477,31,0.0679792626904203,1
86,478,31,0.107885780202011,1
86,479,31,0.154676971461562,1
86,480,31,0.171662107312362,1
87,478,31,0.0620338530405974,1
87,479,31,0.0906024834312587,1
65,457,32,0.0670700140007433,1
65,458,32,0.0694420273555597,1
66,457,32,0.0655950426763677,1
66,458,32,0.0668700724606162,1
69,472,32,0.0568712499609623,1
70,472,32,0.0628753282352978,1
70,473,32,0.0626958431690308,1
71,472,32,0.0629952601365278,1
71,473,32,0.0673147073944663,1
71,474,32,0.0702566596938141,1
72,472,32,0.0636178410361324,1
72,473,32,0.0701260661307971,1
72,474,32,0.0724689898962356,1
73,472,32,0.0622999110364522,1
73,473,32,0.0851858639007737,1
73,474,32,0.117430727267804,1
73,475,32,0.0991602360963675,1
74,473,32,0.116089374635039,1
74,474,32,0.1973732826115,1
74,475,32,0.160672611219295,1
75,473,32,0.115652718256718,1
75,474,32,0.201659081947891,1
75,475,32,0.158397631960001,1
75,476,32,0.0737359585678388,1
76,473,32,0.0728683245613646,1
76,474,32,0.116790921415721,1
76,475,32,0.0885226868840708,1
77,474,32,0.0596551643532905,1
80,477,32,0.0796285965299782,1
81,476,32,0.062347015767843,1
81,477,32,0.102505391451404,1
81,478,32,0.133589242307776,1
81,479,32,0.158614167480365,1
81,480,32,0.177013707217369,1
81,481,32,0.166453354805102,1
82,476,32,0.0768431371402008,1
82,477,32,0.126154738169872,1
82,478,32,0.168005522929508,1
82,479,32,0.196310182839952,1
82,480,32,0.216924529492846,1
82,481,32,0.211591269061377,1
82,482,32,0.177448217110684,1
83,476,32,0.0911726641502,1
83,477,32,0.144622894663819,1
83,478,32,0.187939233339715,1
83,479,32,0.214913131515938,1
83,480,32,0.235625650373163,1
83,481,32,0.234271289097753,1
83,482,32,0.201194709966474,1
83,483,32,0.12785805657908,1
84,476,32,0.0943191340126542,1
84,477,32,0.151480855287944,1
84,478,32,0.198583593514049,1
84,479,32,0.230908619840334,1
84,480,32,0.25349811010251,1
84,481,32,0.244141204558323,1
84,482,32,0.193832183839506,1
85,476,32,0.0748841629317041,1
85,477,32,0.123948328492027,1
85,478,32,0.175022170123703,1
85,479,32,0.222745749653048,1
85,480,32,0.255321183504843,1
85,481,32,0.234369650004062,1
85,482,32,0.164735919129125,1
86,477,32,0.0742876405959473,1
86,478,32,0.117823592993231,1
86,479,32,0.173372643572249,1
86,480,32,0.209041905331425,1
86,481,32,0.184822383790953,1
87,478,32,0.0621473985592415,1
87,479,32,0.0958591367563809,1
61,468,33,0.0597710214711716,1
62,468,33,0.0672132977718165,1
62,469,33,0.0740145475544554,1
63,469,33,0.0591957634896204,1
69,472,33,0.0610487756402351,1
69,473,33,0.0600992390781418,1
69,474,33,0.0620192817096928,1
70,472,33,0.0625995815722328,1
70,473,33,0.0643011957666976,1
70,474,33,0.0694450819688372,1
71,472,33,0.0613268103147898,1
71,473,33,0.0674945934524376,1
71,474,33,0.0715678435977617,1
72,472,33,0.0653593421113091,1
72,473,33,0.0757380570753665,1
72,474,33,0.078894386616199,1
72,475,33,0.0768202157467461,1
73,472,33,0.0670235284477196,1
73,473,33,0.0931447236615204,1
73,474,33,0.127575133343894,1
73,475,33,0.108633370265456,1
74,473,33,0.118138630946389,1
74,474,33,0.206547241587501,1
74,475,33,0.178459978150198,1
74,476,33,0.0894897432454834,1
75,473,33,0.106389668359103,1
75,474,33,0.193065228235515,1
75,475,33,0.165166159640176,1
75,476,33,0.0828750548533064,1
76,473,33,0.0662239863708109,1
76,474,33,0.109900468669669,1
76,475,33,0.0947127250613116,1
76,476,33,0.0608495535264012,1
77,474,33,0.0596925273450396,1
77,475,33,0.0614423254103348,1
79,477,33,0.0570521326012577,1
80,477,33,0.0753476739603441,1
80,480,33,0.140008789266405,1
81,476,33,0.0611027561999686,1
81,477,33,0.104438478107221,1
81,478,33,0.133474428947714,1
81,479,33,0.167398869656278,1
81,480,33,0.201460567466477,1
81,481,33,0.196435504541443,1
81,482,33,0.153191179258105,1
82,476,33,0.0798366463582452,1
82,477,33,0.134406982331739,1
82,478,33,0.164849564895695,1
82,479,33,0.191233757595137,1
82,480,33,0.226440746682407,1
82,481,33,0.233280910351181,1
82,482,33,0.19729281301153,1
82,483,33,0.12913023814284,1
83,476,33,0.0955238074435949,1
83,477,33,0.157511133652611,1
83,478,33,0.189046937541438,1
83,479,33,0.210310430794351,1
83,480,33,0.243423287881002,1
83,481,33,0.255115003005551,1
83,482,33,0.219493046473618,1
83,483,33,0.143118680429708,1
84,476,33,0.0961213499494231,1
84,477,33,0.161562942535624,1
84,478,33,0.201571052474907,1
84,479,33,0.22997275237781,1
84,480,33,0.264191308707662,1
84,481,33,0.265335668268715,1
84,482,33,0.21138143246125,1
85,476,33,0.0744083862744597,1
85,477,33,0.128518124306107,1
85,478,33,0.17427574765375,1
85,479,33,0.217898090175581,1
85,480,33,0.258212876211596,1
85,481,33,0.247587681081957,1
85,482,33,0.179994219586643,1
86,477,33,0.0741574834062556,1
86,478,33,0.114701613109428,1
86,479,33,0.166264086720636,1
86,480,33,0.204897089960743,1
86,481,33,0.189404126799049,1
87,478,33,0.0603381239890881,1
87,479,33,0.0900324442388012,1
61,468,34,0.0681031632301363,1
61,469,34,0.089380832719187,1
62,468,34,0.0713266883661362,1
62,469,34,0.0914134832564263,1
62,470,34,0.0685848250303362,1
63,469,34,0.0630208764301133,1
69,472,34,0.060842040828881,1
69,473,34,0.0632249517229576,1
69,474,34,0.0632464578515732,1
70,472,34,0.0573239636982682,1
70,473,34,0.0627876348877124,1
70,474,34,0.0700631399178939,1
71,473,34,0.0661222111380777,1
71,474,34,0.07307619158459,1
71,475,34,0.0962083061799049,1
72,472,34,0.0610931559868109,1
72,473,34,0.0816041706156487,1
72,474,34,0.0860905896399028,1
72,475,34,0.0805024753925544,1
73,472,34,0.0630707704126242,1
73,473,34,0.0968636386666582,1
73,474,34,0.120919779675344,1
73,475,34,0.103076380050691,1
73,476,34,0.0646570876982067,1
74,473,34,0.101539084000969,1
74,474,34,0.164007163881913,1
74,475,34,0.150121540585597,1
74,476,34,0.0815553085970829,1
75,473,34,0.077863271830012,1
75,474,34,0.139241043472879,1
75,475,34,0.134971330980157,1
75,476,34,0.0773411157646067,1
76,474,34,0.0832579488585559,1
76,475,34,0.0862823580255848,1
76,476,34,0.0635877902460513,1
77,475,34,0.0592133658460552,1
80,477,34,0.0703380669067396,1
80,478,34,0.09141035198297,1
80,480,34,0.153627929987415,1
81,476,34,0.05743331059789,1
81,477,34,0.0998933904584543,1
81,478,34,0.127012742478504,1
81,479,34,0.160332865100824,1
81,480,34,0.200852357401925,1
81,481,34,0.202761054327017,1
82,476,34,0.0747760838735006,1
82,477,34,0.131628994360924,1
82,478,34,0.157329661318632,1
82,479,34,0.178683766902862,1
82,480,34,0.214307917095295,1
82,481,34,0.227572651912877,1
82,482,34,0.196060022985788,1
83,476,34,0.0877376984472563,1
83,477,34,0.153911478297904,1
83,478,34,0.180463521407249,1
83,479,34,0.197587919318205,1
83,480,34,0.230065145584048,1
83,481,34,0.247523498821509,1
83,482,34,0.213004811994804,1
83,483,34,0.14184608608037,1
84,476,34,0.0836482376225891,1
84,477,34,0.149599968316938,1
84,478,34,0.18480399714192,1
84,479,34,0.210961688497756,1
84,480,34,0.245956729881515,1
84,481,34,0.253773497052428,1
84,482,34,0.20438275913051,1
85,476,34,0.061664928878696,1
85,477,34,0.113230869888759,1
85,478,34,0.153886758338717,1
85,479,34,0.191435043636861,1
85,480,34,0.225818501908202,1
85,481,34,0.222897560394776,1
86,477,34,0.0650001419982389,1
86,478,34,0.100362008234388,1
86,479,34,0.139550727007395,1
87,479,34,0.0790453776837077,1
57,459,35,0.0578369972023988,1
57,460,35,0.0666521983355919,1
61,468,35,0.0626366850987614,1
61,469,35,0.0894430041241761,1
62,468,35,0.0600086208498892,1
62,469,35,0.0837600022663108,1
62,470,35,0.0689989315222221,1
63,469,35,0.0598538498458729,1
68,473,35,0.0576956240388583,1
69,472,35,0.0582739543244974,1
69,473,35,0.0645705206655557,1
69,474,35,0.064500812975299,1
70,473,35,0.0612931505993694,1
70,474,35,0.0705024204331031,1
70,475,35,0.108349574283619,1
71,473,35,0.0635863926720228,1
71,474,35,0.074569225226473,1
71,475,35,0.0945915489064107,1
72,473,35,0.0781028054040095,1
72,474,35,0.0879793490215755,1
72,475,35,0.0858530787152377,1
72,476,35,0.0840634055631042,1
73,473,35,0.0890215264612539,1
73,474,35,0.105463943627926,1
73,475,35,0.0939813456772104,1
73,476,35,0.0667291828458957,1
74,473,35,0.0785447395407918,1
74,474,35,0.110431405274013,1
74,475,35,0.106656646277103,1
74,476,35,0.0686772064427007,1
75,474,35,0.0890420713891664,1
75,475,35,0.0970076772456455,1
75,476,35,0.0680595789700325,1
76,474,35,0.0597875918636613,1
76,475,35,0.07189695753913,1
76,476,35,0.0618897731830523,1
80,477,35,0.0628323513596874,1
80,478,35,0.0862942521471691,1
81,477,35,0.0840292858866111,1
81,478,35,0.110325248617215,1
81,480,35,0.179577152832469,1
81,481,35,0.181955694096355,1
82,476,35,0.0625403704295319,1
82,477,35,0.109699253391187,1
82,478,35,0.136154079599967,1
82,479,35,0.15846716863909,1
82,480,35,0.190461801388714,1
82,481,35,0.201993626968079,1
82,482,35,0.176177580544373,1
83,476,35,0.0703881083126713,1
83,477,35,0.125914013414635,1
83,478,35,0.152460442640118,1
83,479,35,0.171141596492332,1
83,480,35,0.201881797458052,1
83,481,35,0.217486908564362,1
83,482,35,0.188241227268606,1
84,476,35,0.0648917268146361,1
84,477,35,0.118596410152431,1
84,478,35,0.150280109216931,1
84,479,35,0.173776619126663,1
84,480,35,0.205582314020283,1
84,481,35,0.214448146253091,1
85,477,35,0.0866785614172575,1
85,478,35,0.120164299510422,1
85,479,35,0.148472827811426,1
85,480,35,0.174622723416774,1
86,478,35,0.0808397565914309,1
86,479,35,0.106152847376047,1
87,479,35,0.0667002170921912,1
56,459,36,0.0619283863254092,1
56,460,36,0.079884476412866,1
56,461,36,0.0605134517148906,1
57,459,36,0.0825166508267081,1
57,460,36,0.106380127115314,1
57,461,36,0.0762163045491424,1
57,466,36,0.058056840904324,1
58,459,36,0.0585981089419923,1
58,460,36,0.0738551002795337,1
60,469,36,0.0581422639312302,1
61,469,36,0.074859773200979,1
61,470,36,0.0746806242601113,1
62,469,36,0.0675676270150659,1
62,470,36,0.0676395047780756,1
69,473,36,0.0618482233661546,1
69,474,36,0.0637057407765068,1
69,475,36,0.0811279457912052,1
70,473,36,0.057885605652681,1
70,474,36,0.0695405946546579,1
70,475,36,0.094429996425041,1
71,473,36,0.057631146931569,1
71,474,36,0.073859782447376,1
71,475,36,0.0869489123831239,1
71,476,36,0.109864497355012,1
72,473,36,0.064961422711019,1
72,474,36,0.0828653779799698,1
72,475,36,0.0846077871834182,1
72,476,36,0.0820775295287932,1
73,473,36,0.0695372216067917,1
73,474,36,0.0858371392949887,1
73,475,36,0.0813295384736444,1
73,476,36,0.0682800477472616,1
74,474,36,0.07152094525916,1
74,475,36,0.0737300144555151,1
74,476,36,0.0624313655522462,1
75,475,36,0.0672081792306488,1
75,476,36,0.0605196493954979,1
80,478,36,0.0797796052882975,1
81,477,36,0.0678473659043641,1
81,478,36,0.0966916662979116,1
82,477,36,0.0844293930504647,1
82,478,36,0.115634968476863,1
82,479,36,0.138282036430238,1
82,480,36,0.163986571778506,1
82,481,36,0.168688930732504,1
83,477,36,0.0922747131895041,1
83,478,36,0.123731745796168,1
83,479,36,0.143816700842167,1
83,480,36,0.168620844699876,1
83,481,36,0.177048157122325,1
84,477,36,0.0829445620477108,1
84,478,36,0.114124503489713,1
84,479,36,0.134589964281546,1
84,480,36,0.158272050793289,1
85,477,36,0.0590828607370907,1
85,478,36,0.0865934745157506,1
85,479,36,0.106790223690156,1
86,478,36,0.0617138026911355,1
86,479,36,0.0786291423976266,1
56,459,37,0.0671101426558652,1
56,460,37,0.0979917226820627,1
56,461,37,0.0686668927001866,1
57,459,37,0.0963365999375585,1
57,460,37,0.137364083861801,1
57,461,37,0.0937596503371208,1
58,459,37,0.0590445424415753,1
58,460,37,0.0841741972122491,1
58,461,37,0.0574339179823833,1
61,469,37,0.0612895239832195,1
61,470,37,0.0727444829910169,1
62,469,37,0.0578457836382742,1
62,470,37,0.0775885630278289,1
62,471,37,0.0785844848950199,1
63,470,37,0.0669152488936639,1
63,471,37,0.0718912669950899,1
63,472,37,0.05810207630674,1
69,474,37,0.0613429089523332,1
69,475,37,0.0693768013372932,1
70,474,37,0.0661164675216061,1
70,475,37,0.0780894606359653,1
71,474,37,0.0703922420653884,1
71,475,37,0.0781370076376182,1
71,476,37,0.0864061229357537,1
72,474,37,0.0727516713570116,1
72,475,37,0.0790026013039495,1
72,476,37,0.0768428481902961,1
72,477,37,0.0702565063734565,1
73,474,37,0.067380340301374,1
73,475,37,0.0712673651816356,1
73,476,37,0.0682543371026868,1
74,475,37,0.0585018119635733,1
74,476,37,0.0619262280465298,1
79,478,37,0.0647221780869261,1
80,478,37,0.0739163812470616,1
81,477,37,0.0584235949934723,1
81,478,37,0.0879197191963598,1
81,479,37,0.114688545497415,1
82,477,37,0.0682727296486567,1
82,478,37,0.102656565323955,1
82,479,37,0.128669958635583,1
83,477,37,0.0711062490735912,1
83,478,37,0.107706560497901,1
83,479,37,0.132379120107205,1
83,480,37,0.14730524611314,1
84,477,37,0.0621071696561935,1
84,478,37,0.0959781428385287,1
84,479,37,0.118267514397725,1
85,478,37,0.0703860384878442,1
85,479,37,0.0883562576359435,1
86,479,37,0.0655739552302669,1
56,459,38,0.0655226047043592,1
56,460,38,0.105468106865327,1
56,461,38,0.0756012009654371,1
57,459,38,0.0952335189343094,1
57,460,38,0.149611939098701,1
57,461,38,0.107078454168488,1
57,466,38,0.062048978683564,1
58,460,38,0.0884628624599398,1
58,461,38,0.0630382900845696,1
58,466,38,0.0627831178341013,1
58,467,38,0.0617217458650443,1
61,470,38,0.0686816232483857,1
62,470,38,0.0863918464516905,1
62,471,38,0.0976662884292759,1
63,470,38,0.0747076263338517,1
63,471,38,0.0863754175856846,1
63,472,38,0.0639345065438544,1
64,471,38,0.0592227006970557,1
69,474,38,0.058747448867189,1
69,475,38,0.0611701581879251,1
70,474,38,0.0621587560595743,1
70,475,38,0.0670720071653915,1
71,474,38,0.0631609581644883,1
71,475,38,0.0703394585838313,1
71,476,38,0.0696581147087248,1
72,474,38,0.0585956440223978,1
72,475,38,0.0697700503636146,1
72,476,38,0.0677998012119007,1
72,477,38,0.063221726098512,1
73,475,38,0.061377901375477,1
73,476,38,0.0643573346053105,1
73,477,38,0.0588694034177514,1
74,476,38,0.0604393331158858,1
74,477,38,0.059275236507266,1
79,478,38,0.0588052506419877,1
80,478,38,0.067440860564051,1
80,479,38,0.0936669269024202,1
81,478,38,0.0808377280451617,1
81,479,38,0.106406191576098,1
82,477,38,0.0600820554042218,1
82,478,38,0.095907473947569,1
82,479,38,0.125019613211894,1
83,477,38,0.0593129886968458,1
83,478,38,0.0992170943612735,1
83,479,38,0.12879558697779,1
84,478,38,0.0831918265058913,1
84,479,38,0.108140197644565,1
85,478,38,0.0570707315400167,1
85,479,38,0.0749357257473377,1
56,459,39,0.0597763228173809,1
56,460,39,0.0947456063810706,1
56,461,39,0.0766145895595158,1
57,459,39,0.0811927236422728,1
57,460,39,0.131226764299812,1
57,461,39,0.106146231012925,1
57,462,39,0.0590045730037477,1
57,466,39,0.0708728954893906,1
57,467,39,0.0732243403285471,1
58,460,39,0.0826290228549232,1
58,461,39,0.0684157244698253,1
58,466,39,0.0707749355747858,1
58,467,39,0.0711135848630066,1
61,470,39,0.066311791760196,1
61,471,39,0.0732268937021941,1
62,470,39,0.0892251476899623,1
62,471,39,0.103681429357103,1
62,472,39,0.0731380091733693,1
63,470,39,0.079596617441554,1
63,471,39,0.0932574966814398,1
63,472,39,0.0673854942241627,1
64,471,39,0.0628771268010306,1
70,475,39,0.057872909547688,1
70,476,39,0.059014326537263,1
71,475,39,0.0600935131524807,1
71,476,39,0.0601830817259777,1
71,477,39,0.0646785230635804,1
72,475,39,0.0579498291916866,1
72,476,39,0.059429152455442,1
72,477,39,0.0605494348234216,1
73,476,39,0.057132926532753,1
73,477,39,0.0571058831804549,1
74,477,39,0.0575911126274363,1
80,479,39,0.0743113226942529,1
81,478,39,0.0686691512269922,1
81,479,39,0.0903113752477539,1
82,478,39,0.0847150583612762,1
82,479,39,0.111951163833605,1
83,478,39,0.0893638377472456,1
83,479,39,0.118528772287001,1
84,478,39,0.0732369243917404,1
84,479,39,0.0978566592409293,1
85,479,39,0.0676006852429297,1
56,460,40,0.0743446226965267,1
56,461,40,0.0696116114648906,1
56,466,40,0.0603500593892302,1
56,467,40,0.0706664791126252,1
57,459,40,0.0621797550516227,1
57,460,40,0.0976309480868591,1
57,461,40,0.0908742024864694,1
57,466,40,0.082749856987488,1
57,467,40,0.0940927624016591,1
57,468,40,0.0700469351354875,1
58,460,40,0.0676774043910762,1
58,461,40,0.0656153517268071,1
58,466,40,0.0768342386625257,1
58,467,40,0.0837704221536878,1
58,468,40,0.0632505267379853,1
61,470,40,0.0646517214856922,1
61,471,40,0.0701631814511994,1
62,470,40,0.0839231056420665,1
62,471,40,0.0945307691785133,1
62,472,40,0.0710441307410336,1
63,470,40,0.079681391805409,1
63,471,40,0.0910144021595809,1
63,472,40,0.0694200022965031,1
64,471,40,0.0653971414763835,1
64,472,40,0.0584577205669023,1
71,477,40,0.0605794148502607,1
72,477,40,0.0592937882705303,1
80,479,40,0.0581314666398961,1
81,479,40,0.073861056185731,1
82,478,40,0.0700267263329743,1
82,479,40,0.0927946284189142,1
83,478,40,0.0731119741972689,1
83,479,40,0.097913529299709,1
84,478,40,0.0583543413673515,1
84,479,40,0.0804743764885638,1
85,479,40,0.057070236197323,1
56,461,41,0.0571706905162065,1
56,466,41,0.0599751085578895,1
56,467,41,0.0737130725560051,1
57,460,41,0.0655504500400661,1
57,461,41,0.0686440656577212,1
57,466,41,0.0813000125109412,1
57,467,41,0.101774041551987,1
57,468,41,0.0796038176014224,1
58,466,41,0.0726391990808704,1
58,467,41,0.088339610583275,1
58,468,41,0.0707084240242905,1
59,467,41,0.0570478514251198,1
61,470,41,0.0626103375850091,1
61,471,41,0.0670249790941796,1
62,470,41,0.0722869809410058,1
62,471,41,0.078612117941001,1
62,472,41,0.0650257641887612,1
63,470,41,0.0709791170124929,1
63,471,41,0.0785934954144947,1
63,472,41,0.0659026740768676,1
64,471,41,0.0605233467748898,1
64,472,41,0.0578458544015161,1
71,477,41,0.0595368423158148,1
72,477,41,0.0592549215598898,1
81,479,41,0.0610636830965391,1
82,479,41,0.073208023504341,1
83,479,41,0.0754144213883125,1
84,479,41,0.0638243281761397,1
56,467,42,0.0689930817608876,1
56,468,42,0.062897713007501,1
57,466,42,0.0703747163691324,1
57,467,42,0.0938990834084446,1
57,468,42,0.0828065855197838,1
57,469,42,0.058343213847555,1
58,466,42,0.0627711765370224,1
58,467,42,0.0840712720768342,1
58,468,42,0.0769199801240206,1
58,469,42,0.0582644956378235,1
59,467,42,0.0570677948654758,1
59,468,42,0.0570991076000382,1
61,470,42,0.0572879982805476,1
61,471,42,0.0618361759242128,1
61,472,42,0.0568986707172175,1
62,470,42,0.0596236334320654,1
62,471,42,0.0637801778101003,1
62,472,42,0.057659682208885,1
63,470,42,0.0582350994077305,1
63,471,42,0.0632945709591618,1
63,472,42,0.0582229988933572,1
72,478,42,0.0649656861963465,1
53,460,43,0.0605191717436148,1
53,461,43,0.0662005696346626,1
54,460,43,0.0575262758070005,1
54,461,43,0.0648696074045902,1
56,467,43,0.0581603675272955,1
56,468,43,0.0596062315714827,1
57,467,43,0.0726310141325516,1
57,468,43,0.0758759805308621,1
57,469,43,0.0609407378605894,1
58,467,43,0.0702199453651162,1
58,468,43,0.0769405368458068,1
58,469,43,0.0642722477038036,1
59,468,43,0.0611781190526444,1
59,469,43,0.0579476119434388,1
61,471,43,0.0568560004823223,1
53,460,44,0.0602027185256186,1
53,461,44,0.0675340026812664,1
54,460,44,0.058261547169409,1
54,461,44,0.0688319656528433,1
54,462,44,0.0576534668374671,1
57,467,44,0.0580014804613726,1
57,468,44,0.0690621054064721,1
57,469,44,0.0627774803624927,1
58,467,44,0.0595192812379378,1
58,468,44,0.0739342666564642,1
58,469,44,0.0686171874196542,1
59,468,44,0.062040699384256,1
59,469,44,0.0638705719547534,1
67,441,44,0.0591395774755129,1
53,461,45,0.0623624421545879,1
54,461,45,0.0636221163153335,1
57,468,45,0.0642409585569884,1
57,469,45,0.0628239600185796,1
58,468,45,0.0666904399709286,1
58,469,45,0.0673509027927232,1
59,468,45,0.0573085373115233,1
59,469,45,0.0633869759592736,1
65,443,45,0.0624192532439993,1
66,441,45,0.0660895892835392,1
67,441,45,0.0848670106294881,1
68,441,45,0.0683397011602247,1
51,451,46,0.0641475215929315,1
57,468,46,0.0586947184580633,1
57,469,46,0.0611943887013558,1
58,468,46,0.05931253463271,1
58,469,46,0.0646170710848845,1
59,469,46,0.0594586843150821,1
64,443,46,0.0603807588423624,1
65,443,46,0.0701897058730566,1
65,444,46,0.0638257611317892,1
66,441,46,0.073682437969178,1
66,443,46,0.0575345845909927,1
67,441,46,0.108946875015037,1
48,462,47,0.0598747957654899,1
49,462,47,0.0628520766133807,1
49,463,47,0.0597227550432255,1
50,451,47,0.065239274580532,1
51,450,47,0.0626426586957693,1
51,451,47,0.0942612850623608,1
51,452,47,0.0788979424691069,1
52,451,47,0.0728350481468381,1
52,452,47,0.0592941184989928,1
58,469,47,0.0575355693794432,1
65,443,47,0.0667575530089804,1
65,444,47,0.0634637776645356,1
66,441,47,0.07773636974945,1
66,443,47,0.0570157308102118,1
66,444,47,0.0570696347097664,1
48,462,48,0.0746269798257771,1
48,463,48,0.0737255799590196,1
48,464,48,0.0586924186527,1
49,462,48,0.0772380962782026,1
49,463,48,0.079188797084328,1
49,464,48,0.0642957411001306,1
50,451,48,0.0705950259290671,1
50,452,48,0.0574829745998645,1
50,458,48,0.058024272122217,1
50,462,48,0.0577121649466639,1
50,463,48,0.0624202144447024,1
51,450,48,0.0677498364661479,1
51,451,48,0.112537260385048,1
51,452,48,0.0919173647145982,1
51,458,48,0.0573661798690276,1
52,451,48,0.0811362663690711,1
52,452,48,0.0644724310183406,1
67,442,48,0.0597450513613763,1
47,463,49,0.0592368533454455,1
48,462,49,0.0844937817037015,1
48,463,49,0.0920456289875677,1
48,464,49,0.0749713078641644,1
49,461,49,0.0584949538260411,1
49,462,49,0.0870265809380998,1
49,463,49,0.096600322746429,1
49,464,49,0.0801856801522221,1
49,465,49,0.0595994441971924,1
50,451,49,0.064208195175966,1
50,462,49,0.0650906658755022,1
50,463,49,0.0731511475486245,1
50,464,49,0.0650963033471108,1
51,450,49,0.0655426955681359,1
51,451,49,0.104378081680218,1
51,452,49,0.0862511160542643,1
52,451,49,0.0749264203810214,1
52,452,49,0.0611931857262427,1
47,463,50,0.0653847225274215,1
47,464,50,0.0604913028201605,1
48,462,50,0.082757723501218,1
48,463,50,0.102650196632179,1
48,464,50,0.0907983030125422,1
48,465,50,0.0675854652489739,1
49,461,50,0.0598050703844227,1
49,462,50,0.0864921120685954,1
49,463,50,0.106499492910608,1
49,464,50,0.09551407160089,1
49,465,50,0.0725511814017594,1
50,462,50,0.0655530623830814,1
50,463,50,0.0780683083235594,1
50,464,50,0.0728528451021883,1
50,465,50,0.0605285065946152,1
51,451,50,0.0752295583156575,1
51,452,50,0.0648695543321587,1
52,451,50,0.0572937890725137,1
47,463,51,0.0616603882373376,1
47,464,51,0.0606973830715266,1
48,462,51,0.0672857475376986,1
48,463,51,0.0934857435183465,1
48,464,51,0.0912539652182626,1
48,465,51,0.0723043945954621,1
49,462,51,0.0724990524801903,1
49,463,51,0.0982709898164147,1
49,464,51,0.0969312234596564,1
49,465,51,0.077872795382991,1
50,462,51,0.0586877659695418,1
50,463,51,0.0738436484282116,1
50,464,51,0.0741906065004246,1
50,465,51,0.0639125522480397,1
48,463,52,0.0742389731762968,1
48,464,52,0.0809687461876303,1
48,465,52,0.070360516545248,1
49,462,52,0.0575043038203753,1
49,463,52,0.0802599461746476,1
49,464,52,0.0885984802131351,1
49,465,52,0.0762323088356965,1
49,466,52,0.057777025354847,1
50,463,52,0.0633705824748887,1
50,464,52,0.0697087045297816,1
50,465,52,0.0630951070709179,1
48,464,53,0.0627063043349656,1
48,465,53,0.05953424766361,1
49,463,53,0.0599468504366045,1
49,464,53,0.0705274470330058,1
49,465,53,0.0646342724496149,1
50,464,53,0.0601906415989926,1
50,465,53,0.0572160615481695,1
62,445,54,0.0592055524047567,1
63,445,54,0.0756904570012821,1
63,446,54,0.0676069713775895,1
64,445,54,0.0637703181317221,1
62,445,55,0.0694218952132252,1
62,446,55,0.0636119087176823,1
63,444,55,0.0599398035970937,1
63,445,55,0.106238671394658,1
63,446,55,0.0960577102071636,1
64,445,55,0.0831667763182414,1
64,446,55,0.0735484123889265,1
62,445,56,0.080983282136914,1
62,446,56,0.0746555210000299,1
63,444,56,0.0697432193010422,1
63,445,56,0.135711573460312,1
63,446,56,0.12518044626697,1
63,447,56,0.0586835555566458,1
64,445,56,0.0987017020824112,1
64,446,56,0.089795004077378,1
62,445,57,0.0849371546930701,1
62,446,57,0.0823289749151855,1
63,445,57,0.14295016956288,1
63,446,57,0.139101427596513,1
63,447,57,0.0694489562563339,1
64,445,57,0.103801715074542,1
64,446,57,0.101766009924026,1
63,446,58,0.130193031273673,1
63,447,58,0.0710123462515248,1
64,446,58,0.100901566160376,1
64,447,58,0.058544883190173,1
63,447,59,0.063227281013005,1
