x,y,z,signal,cytoplasm.p
828,240,29,0.0806334050809706,1
828,241,29,0.128949143212819,1
829,240,29,0.0904895983695394,1
829,241,29,0.153619827596211,1
829,242,29,0.201834504024683,1
830,240,29,0.0763756220914538,1
830,241,29,0.115452434694255,1
830,242,29,0.148386484862374,1
830,243,29,0.120933189309693,1
831,240,29,0.0607142836924788,1
831,241,29,0.0770092892322971,1
831,242,29,0.0897937893083912,1
832,242,29,0.0574495448649804,1
836,232,29,0.0588950727837684,1
836,233,29,0.0767583450855353,1
836,234,29,0.0598953288995287,1
837,232,29,0.0746843865058083,1
837,233,29,0.095189987746637,1
837,234,29,0.0675701096254709,1
838,233,29,0.0659732073382803,1
827,240,30,0.0662054464014202,1
827,241,30,0.0940796299233408,1
828,240,30,0.0836486680989776,1
828,241,30,0.149461850262527,1
828,242,30,0.19800383027276,1
829,239,30,0.0572178954955234,1
829,240,30,0.0956219855448623,1
829,241,30,0.185767839672761,1
829,242,30,0.249865337550571,1
829,243,30,0.200240538412033,1
830,239,30,0.0572642395220632,1
830,240,30,0.0779433994076456,1
830,241,30,0.136434726617537,1
830,242,30,0.181919663812329,1
830,243,30,0.148939558567575,1
830,244,30,0.0976327879311498,1
831,240,30,0.0598932531777649,1
831,241,30,0.0800776954450079,1
831,242,30,0.0961550450464646,1
831,243,30,0.0853121644937791,1
831,244,30,0.0668460542369114,1
836,233,30,0.0597316122423428,1
837,232,30,0.0702149388657483,1
837,233,30,0.0807210453561245,1
863,209,30,0.0606500896381574,1
827,240,31,0.0628027192521212,1
827,241,31,0.0851109079367392,1
827,242,31,0.103643205412577,1
828,240,31,0.0785837536748531,1
828,241,31,0.139423482904497,1
828,242,31,0.184996673655873,1
828,243,31,0.155992247839669,1
829,239,31,0.0568468602302372,1
829,240,31,0.0885159054067174,1
829,241,31,0.175073485267989,1
829,242,31,0.240659936107397,1
829,243,31,0.195319285162939,1
829,244,31,0.131454315298173,1
830,239,31,0.0585095487446931,1
830,240,31,0.0744006553902767,1
830,241,31,0.132700349844033,1
830,242,31,0.182406467741444,1
830,243,31,0.15143193430001,1
830,244,31,0.0976497475214703,1
830,245,31,0.0820391994394042,1
831,240,31,0.0583623729953127,1
831,241,31,0.074692400442959,1
831,242,31,0.0921454346434,1
831,243,31,0.0821892469970203,1
831,244,31,0.0629245499670102,1
846,214,31,0.0570814875527929,1
827,240,32,0.0591215328488158,1
827,241,32,0.0753080229571053,1
827,242,32,0.0896972505555622,1
828,240,32,0.0700537696852725,1
828,241,32,0.118488684910437,1
828,242,32,0.161831783885662,1
828,243,32,0.141016823441843,1
828,244,32,0.12882415173979,1
829,240,32,0.0771505916325957,1
829,241,32,0.146972729639222,1
829,242,32,0.211629976554723,1
829,243,32,0.176693786600518,1
829,244,32,0.127491915771362,1
829,245,32,0.145635941235562,1
830,227,32,0.0595577705446213,1
830,239,32,0.0576867019734359,1
830,240,32,0.067630382216801,1
830,241,32,0.111373098910123,1
830,242,32,0.160084061542131,1
830,243,32,0.136062087385433,1
830,244,32,0.0923965262135825,1
830,245,32,0.0804333986745384,1
830,246,32,0.0765543877314276,1
831,239,32,0.0573086257655757,1
831,241,32,0.0631774165151783,1
831,242,32,0.0785885655753056,1
831,243,32,0.072490366292241,1
831,244,32,0.0595503816827744,1
838,214,32,0.0581067230929613,1
846,213,32,0.0588147918857772,1
846,214,32,0.0678782658533486,1
846,215,32,0.057768433517887,1
847,213,32,0.0568978746307456,1
847,214,32,0.0670240709659079,1
847,215,32,0.0589433627994618,1
848,214,32,0.0568434459038131,1
827,241,33,0.0685134956824516,1
827,242,33,0.0821933866466743,1
827,243,33,0.0851981943956833,1
827,244,33,0.0941642450699013,1
828,240,33,0.0612340927770261,1
828,241,33,0.0940326726153707,1
828,242,33,0.131586630766744,1
828,243,33,0.124083627810633,1
828,244,33,0.125444110106472,1
828,245,33,0.181897314421747,1
829,240,33,0.0656470536592003,1
829,241,33,0.112627577869523,1
829,242,33,0.165599395795135,1
829,243,33,0.14863890914028,1
829,244,33,0.11922437495536,1
829,245,33,0.140840929610105,1
829,246,33,0.162021464755707,1
830,240,33,0.0597824379408727,1
830,241,33,0.0856578488276371,1
830,242,33,0.122483187361345,1
830,243,33,0.110418384837494,1
830,244,33,0.0854761347192487,1
830,245,33,0.0759041560950315,1
830,246,33,0.0756297775213108,1
830,247,33,0.0584024426810664,1
831,242,33,0.0663290226096106,1
831,243,33,0.066494761916129,1
831,244,33,0.0615503396022332,1
837,214,33,0.0600606377296586,1
837,215,33,0.0609722275032568,1
838,213,33,0.0575173006691466,1
838,214,33,0.0613101455713108,1
838,215,33,0.0621992503247797,1
839,215,33,0.0570518082697321,1
844,208,33,0.0601508549662068,1
845,208,33,0.0640549043030939,1
845,214,33,0.0581144303893969,1
846,208,33,0.0606773806618024,1
846,213,33,0.0600854815245195,1
846,214,33,0.0734705256472879,1
846,215,33,0.0678074908175259,1
847,213,33,0.0592350311919653,1
847,214,33,0.0786591047336552,1
847,215,33,0.0766817379791886,1
847,216,33,0.0659884450230466,1
848,214,33,0.0706491480152845,1
848,215,33,0.0752109004075302,1
848,216,33,0.0706508876116491,1
848,217,33,0.0587446773068793,1
849,214,33,0.0584755234191893,1
849,215,33,0.0638943719917956,1
849,216,33,0.0642900387622169,1
827,241,34,0.0640573928104358,1
827,242,34,0.0808313711472599,1
827,243,34,0.0884909141884357,1
828,241,34,0.0762825448405435,1
828,242,34,0.109376101252953,1
828,243,34,0.114347030297895,1
828,244,34,0.11440987985062,1
829,241,34,0.0852984069401568,1
829,242,34,0.125396521826262,1
829,243,34,0.124956350873591,1
829,244,34,0.105213901712499,1
829,245,34,0.111679491953889,1
829,246,34,0.130727859856324,1
830,241,34,0.0652828116651412,1
830,242,34,0.088949754843107,1
830,243,34,0.0879943449319319,1
830,244,34,0.0760611679350427,1
830,245,34,0.0669852042552674,1
830,246,34,0.0664031176208681,1
831,242,34,0.0582641654093611,1
831,243,34,0.0637040660464473,1
831,244,34,0.0646519219815444,1
831,245,34,0.0581411258224222,1
832,244,34,0.0573808809325425,1
837,214,34,0.062070785555958,1
837,215,34,0.0674089935174266,1
838,214,34,0.0606736832824105,1
838,215,34,0.0661650464872042,1
839,215,34,0.0576283222988279,1
844,207,34,0.0671723789271594,1
844,208,34,0.0604560686226067,1
845,207,34,0.0686465836497472,1
845,208,34,0.062393937694192,1
845,214,34,0.0593015781240816,1
845,215,34,0.0598753618714255,1
846,207,34,0.0623024997917202,1
846,208,34,0.0579838663110641,1
846,214,34,0.0757116034167512,1
846,215,34,0.0815605686647344,1
846,216,34,0.0730308972128057,1
846,217,34,0.0595715222013067,1
847,213,34,0.0569289868694559,1
847,214,34,0.0875991852980779,1
847,215,34,0.102091556218612,1
847,216,34,0.0936399661072376,1
847,217,34,0.0742460436035549,1
848,214,34,0.081315922446506,1
848,215,34,0.101018219364729,1
848,216,34,0.0975666242999274,1
848,217,34,0.0784958834191629,1
849,214,34,0.0601613633076362,1
849,215,34,0.0735094631211703,1
849,216,34,0.0733621399483693,1
849,217,34,0.0615217217678017,1
827,241,35,0.061290815412385,1
827,242,35,0.0770129807147521,1
827,243,35,0.0875214341859864,1
827,244,35,0.0900715822085359,1
828,241,35,0.0663788753135637,1
828,242,35,0.0898054888310601,1
828,243,35,0.100338738921661,1
828,244,35,0.0987902917643946,1
828,245,35,0.109752821165342,1
829,241,35,0.069265537933202,1
829,242,35,0.094368615209587,1
829,243,35,0.101348377063916,1
829,244,35,0.090355637655593,1
829,245,35,0.0854591456442441,1
829,246,35,0.0926777098524039,1
830,242,35,0.0707905388696355,1
830,243,35,0.0751413755223153,1
830,244,35,0.0705610182943738,1
830,245,35,0.0626795558295089,1
830,246,35,0.0597279561415087,1
831,243,35,0.0634900662089197,1
831,244,35,0.0661877320031857,1
831,245,35,0.0593922435278288,1
832,244,35,0.0584692608722768,1
837,214,35,0.0595790702804479,1
837,215,35,0.0647630320652781,1
838,215,35,0.0605941453984598,1
842,208,35,0.0596672412799165,1
843,207,35,0.0657327007697059,1
843,208,35,0.0596830096889974,1
844,206,35,0.0676071129040734,1
844,207,35,0.0676097252470887,1
844,208,35,0.0623295844225762,1
845,206,35,0.0641662443673639,1
845,207,35,0.0656156937491432,1
845,208,35,0.0631023249215967,1
845,209,35,0.0571321776217758,1
845,215,35,0.0608946532992701,1
845,216,35,0.0582381776087553,1
846,206,35,0.0574190812893214,1
846,207,35,0.058719226127525,1
846,208,35,0.0579183454459561,1
846,214,35,0.075242684897039,1
846,215,35,0.092463615663887,1
846,216,35,0.0883061041882121,1
846,217,35,0.0724567596492521,1
847,214,35,0.0921309871481687,1
847,215,35,0.122910738869202,1
847,216,35,0.11682560719815,1
847,217,35,0.0907919284238299,1
847,218,35,0.0597180374937622,1
848,214,35,0.0854244126863208,1
848,215,35,0.118822805351173,1
848,216,35,0.116320180742529,1
848,217,35,0.090703114658247,1
849,205,35,0.0580586630578042,1
849,214,35,0.0587955973563985,1
849,215,35,0.0780277904706067,1
849,216,35,0.0774087418361627,1
849,217,35,0.063562857997138,1
850,205,35,0.0601405942961242,1
851,205,35,0.0591521497448325,1
852,205,35,0.057819082308312,1
826,242,36,0.0669934009974598,1
827,241,36,0.0570009825712022,1
827,242,36,0.0689003701200607,1
827,243,36,0.0799587896107861,1
827,244,36,0.0839071662218175,1
828,242,36,0.0694928766418369,1
828,243,36,0.0804511543513308,1
828,244,36,0.0817093188962482,1
828,245,36,0.0814401296269371,1
828,246,36,0.0864298109309961,1
829,242,36,0.0665586139481143,1
829,243,36,0.074928849918995,1
829,244,36,0.0743992519193114,1
829,245,36,0.0701741202690173,1
829,246,36,0.0687408284941497,1
829,247,36,0.0621183915269792,1
830,243,36,0.0624919565781651,1
830,244,36,0.0653775105736795,1
830,245,36,0.0626364963967829,1
830,246,36,0.0585109758034058,1
831,243,36,0.0596916310106416,1
831,244,36,0.0646041980717866,1
831,245,36,0.0608709299224067,1
843,207,36,0.0641975688958,1
843,208,36,0.0593480223985474,1
844,206,36,0.0632424184498453,1
844,207,36,0.0621404519676569,1
844,208,36,0.0602962144590438,1
845,206,36,0.0578788595569485,1
845,207,36,0.058776361548462,1
845,208,36,0.0611165904137697,1
845,209,36,0.0586748339870756,1
845,215,36,0.0589829961118901,1
845,216,36,0.0597130663760153,1
845,217,36,0.0584994354980312,1
846,208,36,0.0577199901818361,1
846,214,36,0.069277956882164,1
846,215,36,0.0937534762442608,1
846,216,36,0.0938749944214978,1
846,217,36,0.082584795828705,1
846,218,36,0.0629860845028217,1
847,214,36,0.0856570822258493,1
847,215,36,0.127508179523137,1
847,216,36,0.125343484776421,1
847,217,36,0.1013555477391,1
847,218,36,0.0714659445293551,1
848,214,36,0.0765982845291834,1
848,215,36,0.117992434088522,1
848,216,36,0.118263528068429,1
848,217,36,0.0939121215357737,1
848,218,36,0.0639222645029972,1
849,215,36,0.076862278597148,1
849,216,36,0.0773356493041662,1
849,217,36,0.0629645370956482,1
850,204,36,0.0675090881231635,1
850,205,36,0.0586268093335395,1
851,204,36,0.0657795342420026,1
851,205,36,0.0586917758865856,1
852,204,36,0.0650198613549953,1
852,205,36,0.0587804422287477,1
825,235,37,0.0594922673703238,1
825,236,37,0.061769198515708,1
825,237,37,0.0584076791609706,1
826,242,37,0.0651391327993004,1
826,243,37,0.0772020129217454,1
826,244,37,0.0897592509493832,1
827,242,37,0.064497534278422,1
827,243,37,0.074640265624453,1
827,244,37,0.080591678355968,1
827,245,37,0.079467545288239,1
828,242,37,0.059631476358048,1
828,243,37,0.06801567627534,1
828,244,37,0.0721008500269325,1
828,245,37,0.069368805090953,1
828,246,37,0.0646138926359336,1
829,243,37,0.060586031213383,1
829,244,37,0.065582682696774,1
829,245,37,0.0648891439563049,1
829,246,37,0.0602433012448764,1
830,244,37,0.0624761409935895,1
830,245,37,0.0640914830022447,1
830,246,37,0.0599572290454237,1
831,244,37,0.0607109165415494,1
831,245,37,0.0607447590620115,1
837,212,37,0.057236883632113,1
838,212,37,0.0571101112841613,1
842,208,37,0.0609026849272313,1
843,207,37,0.063172769728957,1
843,208,37,0.0592830263608172,1
844,206,37,0.0615402440463818,1
844,207,37,0.0591359862409839,1
844,208,37,0.0590816046895461,1
845,208,37,0.0611043542698493,1
845,209,37,0.0595443137347773,1
845,216,37,0.0602253627630423,1
845,217,37,0.0628504608526895,1
846,208,37,0.0598276556524781,1
846,209,37,0.0575674777046254,1
846,214,37,0.0581633336865205,1
846,215,37,0.0839531859168317,1
846,216,37,0.0897017027428682,1
846,217,37,0.0861420934861681,1
846,218,37,0.0693652374441713,1
847,214,37,0.0702895233227626,1
847,215,37,0.112163040773874,1
847,216,37,0.116530489097602,1
847,217,37,0.101613350023394,1
847,218,37,0.0788944514825041,1
848,214,37,0.0606564111544381,1
848,215,37,0.0986873548351061,1
848,216,37,0.104099687292516,1
848,217,37,0.0892612782219141,1
848,218,37,0.0696384012489052,1
849,204,37,0.0609462161149037,1
849,215,37,0.0681435159688578,1
849,216,37,0.0713072933409053,1
849,217,37,0.0603850282246267,1
850,203,37,0.0678947006162912,1
850,204,37,0.0635980096375762,1
851,203,37,0.0669691704840291,1
851,204,37,0.0645376098611125,1
851,205,37,0.0586248869321332,1
852,203,37,0.0665921557247982,1
852,204,37,0.0661827903701229,1
852,205,37,0.0596463720204783,1
853,204,37,0.06286766221742,1
853,205,37,0.057311409119759,1
824,235,38,0.102989883781282,1
824,237,38,0.102345218853252,1
825,235,38,0.0622686395804476,1
825,236,38,0.0679732301240442,1
825,237,38,0.0622739998960252,1
826,242,38,0.0595979109936169,1
826,243,38,0.0696354232958065,1
826,244,38,0.0818035696375875,1
826,245,38,0.0889153462167093,1
827,242,38,0.060138288593824,1
827,243,38,0.0670828162505993,1
827,244,38,0.0725982802362134,1
827,245,38,0.071647640946933,1
827,246,38,0.0652491106711629,1
828,243,38,0.059417352684847,1
828,244,38,0.0629966341228089,1
828,245,38,0.060806676898717,1
829,244,38,0.060479933525954,1
829,245,38,0.0618351262694572,1
829,246,38,0.0573067623335377,1
830,244,38,0.0599189225437819,1
830,245,38,0.0634835736814709,1
830,246,38,0.0589195096899881,1
831,245,38,0.0571666393206049,1
837,212,38,0.0583104917450904,1
838,211,38,0.0577551359253374,1
838,212,38,0.0576962078356043,1
842,208,38,0.0573844367854505,1
843,207,38,0.0593363995360573,1
844,206,38,0.058634245370881,1
845,208,38,0.0581855474475557,1
845,216,38,0.060256115288606,1
845,217,38,0.0654241258593134,1
845,218,38,0.0570685673642004,1
846,208,38,0.0583141537428613,1
846,215,38,0.0669007011505065,1
846,216,38,0.0817655697766608,1
846,217,38,0.0852101651774464,1
846,218,38,0.0735755559891508,1
847,215,38,0.0852132551723448,1
847,216,38,0.10158306335584,1
847,217,38,0.0979134526395302,1
847,218,38,0.0843953028586557,1
847,219,38,0.0571493318110116,1
848,215,38,0.0741078429920284,1
848,216,38,0.087796431938074,1
848,217,38,0.0823208784209192,1
848,218,38,0.0720794795278639,1
849,215,38,0.0571719701514984,1
849,216,38,0.0641209146139587,1
850,203,38,0.0609105868225823,1
851,202,38,0.062210454504755,1
851,203,38,0.0622437957855866,1
851,204,38,0.0602956129714872,1
852,203,38,0.0633165665335343,1
852,204,38,0.0632634115449569,1
852,205,38,0.0577095290159013,1
853,203,38,0.0623616696558633,1
853,204,38,0.0613208838932766,1
854,204,38,0.0583566057910939,1
857,207,38,0.0571730846725591,1
857,208,38,0.0570324132445012,1
860,206,38,0.0602668005381403,1
861,206,38,0.0572936298552194,1
824,238,39,0.0829975342312465,1
825,235,39,0.0625788597362154,1
825,236,39,0.0700551200838063,1
825,237,39,0.0643542033318542,1
825,238,39,0.0573653071223769,1
825,242,39,0.056961862292278,1
825,243,39,0.0648005012018901,1
826,242,39,0.0580171191378433,1
826,243,39,0.0655443761951322,1
826,244,39,0.0732134309954133,1
826,245,39,0.0752769755847002,1
827,242,39,0.0598598883091859,1
827,243,39,0.0650833477768973,1
827,244,39,0.0671318669711436,1
827,245,39,0.0629976601898172,1
827,246,39,0.057870839722861,1
828,243,39,0.0580298801091415,1
828,244,39,0.05944033304767,1
829,244,39,0.0587437455908603,1
829,245,39,0.0597328859806979,1
830,244,39,0.057496690874929,1
830,245,39,0.0604784357039994,1
837,212,39,0.0591726062186926,1
838,211,39,0.0569785742112517,1
838,212,39,0.0580312010229912,1
838,213,39,0.0575878634152435,1
845,216,39,0.0574247364517405,1
845,217,39,0.0630036455806987,1
845,218,39,0.058084273454453,1
846,208,39,0.0568829082050734,1
846,216,39,0.070591788510748,1
846,217,39,0.0792207348941943,1
846,218,39,0.0749294749942988,1
847,215,39,0.057998254836927,1
847,216,39,0.08136277950655,1
847,217,39,0.0889259194244439,1
847,218,39,0.0846688558612203,1
847,219,39,0.0572725542029922,1
848,216,39,0.070438420977697,1
848,217,39,0.0729808911884951,1
848,218,39,0.0693825036752069,1
851,202,39,0.0589000026229575,1
851,203,39,0.0586630990827857,1
852,202,39,0.059923610608561,1
852,203,39,0.0604861960728665,1
852,204,39,0.0588169855462776,1
853,203,39,0.0600458364182176,1
853,204,39,0.0580144006499651,1
854,203,39,0.0597883053930176,1
854,204,39,0.0576962078356043,1
857,208,39,0.0577704266825352,1
858,207,39,0.0578535381102044,1
858,208,39,0.0603264362602929,1
859,206,39,0.0605078614187766,1
859,207,39,0.0602948817513204,1
860,205,39,0.0603703507488591,1
860,206,39,0.067894087334861,1
860,207,39,0.0649278809343352,1
861,206,39,0.061224398212879,1
861,207,39,0.0573394726421287,1
824,238,40,0.085512041167601,1
824,239,40,0.0624404763196472,1
825,236,40,0.0617633900329313,1
825,237,40,0.0583022006519087,1
825,243,40,0.0594998213464018,1
825,244,40,0.0668688694855031,1
826,243,40,0.061792727293656,1
826,244,40,0.0649078195552426,1
826,245,40,0.062870592995024,1
827,242,40,0.0591739802049737,1
827,243,40,0.0651356477096345,1
827,244,40,0.0640786748554519,1
827,245,40,0.0570224179365759,1
828,243,40,0.0584804473614416,1
828,244,40,0.0585980263848767,1
829,244,40,0.0570217397888406,1
829,245,40,0.0577829989518549,1
837,212,40,0.0584682112175212,1
845,217,40,0.0592364877353621,1
845,218,40,0.0576888661492521,1
846,216,40,0.06006189967414,1
846,217,40,0.0743276690031431,1
846,218,40,0.0743284415018677,1
847,216,40,0.0642657846610389,1
847,217,40,0.0807320372463739,1
847,218,40,0.0802604474142781,1
848,217,40,0.0651621780284285,1
848,218,40,0.0627168716457634,1
852,202,40,0.0579039864047773,1
852,203,40,0.0576605254708515,1
853,203,40,0.057018001130891,1
854,203,40,0.0577816780380051,1
858,207,40,0.0579701559329364,1
858,208,40,0.0605517405257218,1
858,209,40,0.0587741678879616,1
859,205,40,0.0589443004124176,1
859,206,40,0.0650251391134574,1
859,207,40,0.0644021454282747,1
859,208,40,0.0603980368672717,1
860,205,40,0.0628198380597361,1
860,206,40,0.0711737336186633,1
860,207,40,0.0685204009954784,1
860,208,40,0.0573013194608445,1
861,205,40,0.0575537083571294,1
861,206,40,0.0638608538028591,1
861,207,40,0.0614604466972106,1
824,234,41,0.0628165180843013,1
824,235,41,0.100020445859374,1
824,239,41,0.063725536793442,1
824,240,41,0.0617631718462687,1
825,236,41,0.0568929035129987,1
825,244,41,0.0592862696760732,1
826,243,41,0.0578511498507886,1
826,244,41,0.0592145098518001,1
827,243,41,0.0621636387232688,1
827,244,41,0.0611866931987939,1
828,244,41,0.0571469317577221,1
836,212,41,0.0574371554007025,1
837,212,41,0.0571916541266339,1
846,217,41,0.0641708262872801,1
846,218,41,0.0644712575279116,1
847,217,41,0.0670459839831648,1
847,218,41,0.0669719892198334,1
858,208,41,0.0582378709680402,1
858,209,41,0.0592673640965992,1
859,205,41,0.0580104968777842,1
859,206,41,0.0645260636588012,1
859,207,41,0.06402305494728,1
859,208,41,0.0613810208550596,1
859,209,41,0.0578227089244619,1
860,205,41,0.0617120041254027,1
860,206,41,0.0696065047175966,1
860,207,41,0.066909381441519,1
860,208,41,0.0600385537012336,1
861,205,41,0.0574793302929042,1
861,206,41,0.0639562190652591,1
861,207,41,0.0619088674645049,1
823,234,42,0.088824061634595,1
824,234,42,0.0602481308361394,1
824,235,42,0.0889780542429498,1
824,239,42,0.0659098270612413,1
824,240,42,0.0617844538912848,1
824,241,42,0.0582075725066124,1
836,212,42,0.0590399369339118,1
858,209,42,0.060370179737691,1
858,210,42,0.0612268926171577,1
859,205,42,0.057742593140702,1
859,206,42,0.0640678303886232,1
859,207,42,0.0636199108609594,1
859,208,42,0.0614560122007151,1
859,209,42,0.0593785921190694,1
860,205,42,0.061045779996326,1
860,206,42,0.0680061586192978,1
860,207,42,0.0654188481008514,1
860,208,42,0.0610094253807746,1
861,205,42,0.0572022273343685,1
861,206,42,0.062794274838582,1
861,207,42,0.0601592816889355,1
862,206,42,0.059365978571192,1
862,207,42,0.0571077878910507,1
823,233,43,0.0649515040632725,1
823,234,43,0.0863757890927049,1
823,240,43,0.0776596093227458,1
824,234,43,0.0607053498331827,1
824,235,43,0.0826649882726438,1
824,239,43,0.0691357286627832,1
824,240,43,0.0611493007223606,1
836,212,43,0.057460843395945,1
858,209,43,0.0610876482478125,1
858,210,43,0.0641569213102371,1
859,206,43,0.059364427676806,1
859,207,43,0.0595103355847681,1
859,208,43,0.0608459681888092,1
859,209,43,0.0602663110923835,1
860,205,43,0.0577809114362174,1
860,206,43,0.0632523017159709,1
860,207,43,0.0619106424424905,1
860,208,43,0.0604267962281871,1
861,206,43,0.0597687865321134,1
861,207,43,0.057320207349508,1
862,206,43,0.0596115093299448,1
862,207,43,0.0574051055490364,1
823,233,44,0.065796322821155,1
823,234,44,0.0802403152719436,1
823,240,44,0.0775528865600129,1
823,241,44,0.065605692544281,1
824,234,44,0.0588414578341183,1
824,235,44,0.0755624286057858,1
824,236,44,0.104605243480748,1
824,239,44,0.0684950264763029,1
824,240,44,0.0572114147619482,1
835,213,44,0.0590074389150467,1
836,212,44,0.0583310130852557,1
858,209,44,0.0617550989397496,1
858,210,44,0.0645279447816496,1
859,208,44,0.0588688373118158,1
859,209,44,0.0619737927389932,1
859,210,44,0.0586527322678402,1
860,206,44,0.0589034523310025,1
860,207,44,0.0582117475378873,1
860,208,44,0.0579055255052896,1
861,206,44,0.0569328965385736,1
862,206,44,0.0573472330109958,1
823,232,45,0.0607450008364215,1
823,233,45,0.0649481722939641,1
823,234,45,0.0737536670691365,1
823,235,45,0.111433518924874,1
823,240,45,0.0751413106560102,1
823,241,45,0.0647418561651248,1
824,234,45,0.057320449123918,1
824,235,45,0.069272643742081,1
824,236,45,0.0891806553015868,1
824,239,45,0.0672830998130624,1
834,212,45,0.0621030300065395,1
834,213,45,0.0598116572628608,1
835,212,45,0.0639609307177855,1
835,213,45,0.0606850643704907,1
836,212,45,0.0578399692585607,1
858,209,45,0.0598390544313688,1
858,210,45,0.0616230842149568,1
859,209,45,0.0625035381620975,1
859,210,45,0.0606320155267762,1
822,231,46,0.0612575389978585,1
822,234,46,0.0813964333250336,1
822,241,46,0.0776281078862048,1
823,232,46,0.0586073435450667,1
823,233,46,0.0630630749100623,1
823,234,46,0.0682618026247124,1
823,235,46,0.0860392744956161,1
823,240,46,0.0690880047530254,1
823,241,46,0.0614896601222619,1
823,242,46,0.0675850642572695,1
824,235,46,0.0623902344178634,1
824,236,46,0.0747168019675578,1
824,237,46,0.0835950059738329,1
824,238,46,0.0758117923734774,1
824,239,46,0.0609131284023556,1
833,213,46,0.0573115683370534,1
834,212,46,0.0615667802621127,1
834,213,46,0.0619872731365845,1
835,212,46,0.0625840962161196,1
835,213,46,0.0613829432564659,1
859,209,46,0.0613554576339055,1
859,210,46,0.0597707561090143,1
822,233,47,0.0689353861309518,1
822,234,47,0.0750892466007461,1
822,235,47,0.0889002205737427,1
822,241,47,0.0777946491761319,1
822,242,47,0.101113643596497,1
823,233,47,0.0588787087840677,1
823,234,47,0.0629335427956745,1
823,235,47,0.0714706620788184,1
823,236,47,0.0968356518044674,1
823,237,47,0.125671566753844,1
823,240,47,0.0654573609952822,1
823,241,47,0.060458645584001,1
823,242,47,0.0697969050139342,1
823,243,47,0.0789959554561432,1
824,235,47,0.0572703959241127,1
824,236,47,0.0652253578096154,1
824,237,47,0.0718884718470329,1
824,238,47,0.0674138349025633,1
824,239,47,0.0569493784770109,1
834,213,47,0.0675751633003334,1
834,214,47,0.0599586737949468,1
835,212,47,0.0627691597846269,1
835,213,47,0.0651302402185622,1
850,198,47,0.0615514600202307,1
851,198,47,0.0638037714543535,1
852,198,47,0.0662075103293104,1
852,199,47,0.0589145916446727,1
853,198,47,0.0670436782808646,1
853,199,47,0.0598480767447173,1
821,233,48,0.0739347443083473,1
822,232,48,0.063945215381136,1
822,233,48,0.0660934635710359,1
822,234,48,0.0707805317678366,1
822,235,48,0.0753411342574006,1
822,236,48,0.0905587812324183,1
822,237,48,0.116541457400104,1
822,240,48,0.074804778368111,1
822,241,48,0.0764295613726295,1
822,242,48,0.107232788799179,1
823,234,48,0.0582679040673107,1
823,235,48,0.0619384877781974,1
823,236,48,0.0732453511144692,1
823,237,48,0.0895793648914119,1
823,238,48,0.0878553010584388,1
823,239,48,0.071604958918164,1
823,240,48,0.0590386337108725,1
823,241,48,0.0584826646096893,1
823,242,48,0.0710828441313166,1
823,243,48,0.0863118073281092,1
824,236,48,0.0571421080633959,1
824,237,48,0.0610918291760243,1
824,238,48,0.0577629552635728,1
833,214,48,0.0619822017709115,1
834,213,48,0.0748605987721351,1
834,214,48,0.0694431123919363,1
835,212,48,0.0607284540316791,1
835,213,48,0.0689785045330461,1
835,214,48,0.0616985650063692,1
849,198,48,0.0582238480522606,1
850,198,48,0.0594839526893947,1
851,198,48,0.0603876110829578,1
852,198,48,0.0614555758273898,1
852,199,48,0.0574540029492232,1
853,198,48,0.0632772575526316,1
853,199,48,0.0591056759856824,1
821,232,49,0.0677109756524442,1
821,233,49,0.073613950944845,1
821,237,49,0.0923458302476629,1
822,231,49,0.0622320078088653,1
822,232,49,0.0623608794663282,1
822,233,49,0.0633283368194451,1
822,234,49,0.0682040893039662,1
822,235,49,0.0726411509669608,1
822,236,49,0.0773741504047233,1
822,237,49,0.0867843111854136,1
822,238,49,0.089207975809916,1
822,239,49,0.0772791271646594,1
822,242,49,0.100376738782587,1
823,235,49,0.0594117093163016,1
823,236,49,0.0651812605160074,1
823,237,49,0.0729393826501551,1
823,238,49,0.0722351586601518,1
823,239,49,0.0624206744057751,1
823,241,49,0.0568616792324887,1
823,242,49,0.0697215067796375,1
823,243,49,0.0870350430424496,1
824,237,49,0.0569373487258795,1
825,229,49,0.0617489661254474,1
825,230,49,0.0592123338821101,1
833,214,49,0.0696173550813622,1
833,215,49,0.0574981710060731,1
834,212,49,0.0608140480697533,1
834,213,49,0.0785460132791469,1
834,214,49,0.0762902344461687,1
834,215,49,0.0584051847566919,1
835,212,49,0.0575046635335219,1
835,213,49,0.0686614380336197,1
835,214,49,0.064176316335468,1
849,198,49,0.0576530776396364,1
850,198,49,0.057524636458562,1
852,198,49,0.0568898017242266,1
853,198,49,0.0581278518176199,1
821,232,50,0.0744606862071969,1
821,233,50,0.0813157927138958,1
821,236,50,0.0841196328557695,1
821,237,50,0.0798637958554064,1
821,238,50,0.0776369473945116,1
822,230,50,0.0636247758338434,1
822,231,50,0.0657042657403161,1
822,232,50,0.0649890852416843,1
822,233,50,0.0645650188234941,1
822,234,50,0.067239845781421,1
822,235,50,0.0711781917029061,1
822,236,50,0.0710735387650003,1
822,237,50,0.070480755087193,1
822,238,50,0.0703361032267755,1
822,239,50,0.0661240214976842,1
822,242,50,0.0833559972272131,1
823,235,50,0.0575579718424569,1
823,236,50,0.0594234854991493,1
823,237,50,0.0610215612767689,1
823,238,50,0.0609563293615655,1
823,242,50,0.0618199888326169,1
823,243,50,0.0753205775356144,1
824,229,50,0.0588687901363211,1
824,230,50,0.0584741258451608,1
825,229,50,0.0710836166300412,1
825,230,50,0.0703980387542914,1
832,215,50,0.0594571570084434,1
833,214,50,0.0786992569765244,1
833,215,50,0.0675881719429784,1
834,212,50,0.0584715960592611,1
834,213,50,0.0788678268127207,1
834,214,50,0.0833770316008825,1
834,215,50,0.0679686717918753,1
835,213,50,0.0694179147808656,1
835,214,50,0.0692823559970385,1
835,215,50,0.0579208103655506,1
821,235,51,0.085716541039897,1
821,236,51,0.0820135123825767,1
821,237,51,0.0769741670765431,1
822,230,51,0.0737924807073456,1
822,232,51,0.0752272762011046,1
822,233,51,0.0709581121235077,1
822,234,51,0.0709510711809338,1
822,235,51,0.0718365434213159,1
822,236,51,0.0712557777007664,1
822,237,51,0.0666650772456267,1
822,238,51,0.0651041462730935,1
823,229,51,0.0584347107193952,1
823,230,51,0.0625231277862437,1
823,231,51,0.0613078339720738,1
823,232,51,0.0598291357836222,1
823,233,51,0.0579532965905421,1
823,234,51,0.0579056611348367,1
823,235,51,0.0585799581704324,1
823,236,51,0.0586700515713072,1
823,237,51,0.0573206967952649,1
823,238,51,0.05794039409276,1
824,229,51,0.0652315731810332,1
824,230,51,0.0671129142161749,1
825,228,51,0.0571697529032507,1
825,229,51,0.0771186007502979,1
825,230,51,0.079697195596111,1
825,231,51,0.0607568006070165,1
826,229,51,0.0590845708487711,1
826,230,51,0.0606671199917198,1
832,214,51,0.0658565777216746,1
832,215,51,0.0629344214392621,1
833,213,51,0.0696387963436727,1
833,214,51,0.0824569266505031,1
833,215,51,0.0724215726271929,1
834,212,51,0.0574104363799299,1
834,213,51,0.0748709361023965,1
834,214,51,0.0854980182518215,1
834,215,51,0.0709365529224606,1
835,213,51,0.0697232109943811,1
835,214,51,0.0747148500814674,1
835,215,51,0.0615361338814119,1
836,214,51,0.0572317591940086,1
843,203,51,0.0655614242395051,1
844,201,51,0.0724991704189269,1
844,202,51,0.0705034052215536,1
822,230,52,0.0897772837822066,1
822,231,52,0.100021967269076,1
822,232,52,0.0927153617940576,1
822,234,52,0.0747796810049663,1
822,235,52,0.0709857864480466,1
822,236,52,0.0682664494109338,1
822,237,52,0.0625840077620672,1
823,229,52,0.0603553371476922,1
823,230,52,0.0681842696992836,1
823,231,52,0.0699701393271623,1
823,232,52,0.0679645321422213,1
823,233,52,0.0638430391566984,1
823,234,52,0.0604009853356862,1
823,235,52,0.0579586156275619,1
824,229,52,0.0639064666092321,1
824,230,52,0.0683731898644771,1
824,231,52,0.0615700884436738,1
824,232,52,0.058724503885987,1
824,233,52,0.057274494295209,1
825,223,52,0.0587124918256662,1
825,229,52,0.0710045799857209,1
825,230,52,0.076126128591152,1
825,231,52,0.0618983709169491,1
826,229,52,0.0571320007136709,1
826,230,52,0.0611680411876035,1
832,214,52,0.0632708652731089,1
832,215,52,0.062775398743792,1
833,213,52,0.063694589668963,1
833,214,52,0.0784985252468623,1
833,215,52,0.0731462000186249,1
834,213,52,0.070518365750289,1
834,214,52,0.0847186731835524,1
834,215,52,0.0733615738424337,1
835,213,52,0.0712142396777423,1
835,214,52,0.0807703201602684,1
835,215,52,0.0667846789183942,1
836,214,52,0.0605842916170184,1
840,205,52,0.0587416934568438,1
842,203,52,0.0765198611662933,1
843,202,52,0.128748352513789,1
843,203,52,0.0797659420856645,1
844,202,52,0.092348654880404,1
844,203,52,0.0599387067668435,1
822,233,53,0.095374096011378,1
822,234,53,0.0794088648698527,1
823,230,53,0.071493896009925,1
823,231,53,0.0768359782588902,1
823,232,53,0.073667636657737,1
823,233,53,0.0693207686435432,1
823,234,53,0.0635831965322615,1
823,235,53,0.0587404492031729,1
824,229,53,0.0615076988520221,1
824,230,53,0.0654650093223495,1
824,231,53,0.0633929377624078,1
824,232,53,0.0600142642184346,1
824,233,53,0.0575962193747303,1
825,229,53,0.0622302859033112,1
825,230,53,0.0657257836628054,1
825,231,53,0.0586943528479799,1
826,230,53,0.0576682504580976,1
832,214,53,0.0585871406394902,1
832,215,53,0.0604189768899517,1
833,213,53,0.0590893532645395,1
833,214,53,0.0691137036037266,1
833,215,53,0.0691879224506575,1
834,213,53,0.0658807315749265,1
834,214,53,0.0758106129861116,1
834,215,53,0.0701789439633435,1
835,213,53,0.0692932948148565,1
835,214,53,0.0768800696555613,1
835,215,53,0.0662541904812495,1
836,214,53,0.0585663362463572,1
839,206,53,0.0614212615519813,1
843,203,53,0.0866033459880025,1
844,202,53,0.098318766798604,1
844,203,53,0.0603781818809681,1
822,234,54,0.0790650380710959,1
823,230,54,0.0732209083113126,1
823,231,54,0.0830364422204449,1
823,232,54,0.0798799298745707,1
823,233,54,0.0718725854992153,1
823,234,54,0.063371744171444,1
823,235,54,0.0576506304108523,1
824,229,54,0.056897585680841,1
824,230,54,0.0618366535760959,1
824,231,54,0.0640603294849766,1
824,232,54,0.0606190245749417,1
833,214,54,0.0619729553739634,1
833,215,54,0.0637645568244401,1
834,213,54,0.0615588724698249,1
834,214,54,0.0681256836318866,1
834,215,54,0.0651167185424131,1
835,213,54,0.0647527654982586,1
835,214,54,0.0704576567856335,1
835,215,54,0.0615611545843778,1
836,208,54,0.073539077537926,1
837,207,54,0.0830352805238895,1
837,208,54,0.0580185815781769,1
822,234,55,0.0803501752050695,1
823,230,55,0.0795951608981573,1
823,233,55,0.0739361654701231,1
823,234,55,0.0641025338618624,1
823,235,55,0.0578523292381544,1
824,229,55,0.0577198958308468,1
824,230,55,0.0628038455670556,1
824,231,55,0.0649839077311484,1
824,232,55,0.061187135469056,1
834,213,55,0.0575757805916807,1
834,214,55,0.0597183382375405,1
835,209,55,0.0662489834860294,1
835,213,55,0.0591449790696483,1
835,214,55,0.0610693677436423,1
836,208,55,0.0979645378032806,1
836,209,55,0.0594100227923685,1
837,208,55,0.0670081374425957,1
823,230,56,0.0879411486647967,1
823,233,56,0.0793614004253154,1
823,234,56,0.0648597890047697,1
824,229,56,0.0610131463479138,1
824,230,56,0.0662186909215384,1
824,231,56,0.0690523577698936,1
824,232,56,0.065251145114369,1
824,233,56,0.0576183034031553,1
836,209,56,0.0635971133031781,1
824,230,57,0.0711230022711227,1
824,231,57,0.0750031454261046,1
824,232,57,0.0703003972742754,1
824,233,57,0.0607580802423084,1
824,231,58,0.0839236953357494,1
824,232,58,0.0730430154179895,1
824,233,58,0.0590498260969741,1
825,228,58,0.0598641930730712,1
825,229,58,0.0606736596946632,1
825,230,58,0.0644584493811188,1
825,231,58,0.0630322811059408,1
824,230,59,0.0884126913213979,1
824,231,59,0.0929802050209256,1
825,229,59,0.063350939778311,1
825,230,59,0.0744086103580592,1
825,231,59,0.0744165889135889,1
825,232,59,0.0572364413618509,1
825,230,60,0.0715436897445098,1
825,231,60,0.0732988540223195,1
825,232,60,0.0570507704088502,1
825,231,61,0.0625391674544188,1
835,218,63,0.0572773543095711,1
836,212,65,0.0681336680843532,1
835,213,66,0.0883595953021888,1
836,212,66,0.0858676205614582,1
836,213,66,0.0607477311181734,1
836,213,67,0.0650253042276886,1
