x,y,z,signal,cytoplasm.p
81,894,1,0.122985665348552,1
81,895,1,0.105602698551514,1
81,896,1,0.0949851340581313,1
82,893,1,0.141867409403944,1
82,894,1,0.156993288248028,1
82,895,1,0.136364328985671,1
82,896,1,0.115858957725379,1
82,897,1,0.103758773580553,1
83,892,1,0.104794287481615,1
83,893,1,0.142167964480249,1
83,894,1,0.167906536947895,1
83,895,1,0.157025320408883,1
83,896,1,0.133292378713926,1
83,897,1,0.116942342959619,1
83,898,1,0.102391203166646,1
84,890,1,0.0642127888897559,1
84,891,1,0.0824676649724689,1
84,892,1,0.104819207936654,1
84,893,1,0.136101773770293,1
84,894,1,0.1605701696327,1
84,895,1,0.154807777314305,1
84,896,1,0.134721796201297,1
84,897,1,0.117891443148387,1
84,898,1,0.103910030010219,1
84,899,1,0.0909352475765241,1
85,890,1,0.0591485997888614,1
85,891,1,0.0762351452623113,1
85,892,1,0.102837565902987,1
85,893,1,0.130726208714012,1
85,894,1,0.140883222441043,1
85,895,1,0.131027011461664,1
85,896,1,0.118949554111377,1
85,897,1,0.10778251304426,1
85,898,1,0.0956183294440283,1
85,899,1,0.08628642101506,1
85,900,1,0.077400279731813,1
86,892,1,0.0904128910152666,1
86,893,1,0.110919824963819,1
86,894,1,0.10781991141763,1
86,895,1,0.0962910696883011,1
86,896,1,0.0940674704395992,1
86,897,1,0.0924148420993737,1
86,898,1,0.0844939821995537,1
86,899,1,0.0767192660851689,1
86,900,1,0.0699342446726837,1
87,893,1,0.0830395027306592,1
87,894,1,0.0801206251451236,1
87,895,1,0.074831621224557,1
87,896,1,0.076312684084677,1
87,897,1,0.0783581899442037,1
87,898,1,0.0749025495807372,1
87,899,1,0.0699208881107658,1
88,896,1,0.0705698283179964,1
88,897,1,0.0717333588206806,1
88,898,1,0.069741603540351,1
89,897,1,0.065390914311092,1
90,896,1,0.0725124031451714,1
90,897,1,0.0710548218875048,1
91,895,1,0.0762573118478519,1
91,896,1,0.0863817921743969,1
91,897,1,0.0858860484890491,1
91,898,1,0.0731391413852405,1
92,895,1,0.0801788750871213,1
92,896,1,0.0966456289120869,1
92,897,1,0.0992481712183628,1
92,898,1,0.085078928848315,1
92,899,1,0.0681712197780808,1
93,895,1,0.0773648509353438,1
93,896,1,0.097819821076558,1
93,897,1,0.104119182565673,1
93,898,1,0.0909119133974914,1
93,899,1,0.073194360301708,1
93,901,1,0.081630176107065,1
93,902,1,0.104007246910784,1
94,896,1,0.0885981558816095,1
94,897,1,0.0974767431887785,1
94,898,1,0.0884125085163562,1
94,899,1,0.0746251871569811,1
94,900,1,0.0785279214769553,1
94,901,1,0.0943471267717819,1
94,902,1,0.1155225728609,1
95,897,1,0.0777364994820602,1
95,898,1,0.0762791364110563,1
95,901,1,0.085424890338204,1
81,893,2,0.0997911493677116,1
81,894,2,0.107527718197749,1
81,895,2,0.0968984659755708,1
81,896,2,0.0907082980657198,1
81,897,2,0.0848975213806418,1
82,892,2,0.0869959876298305,1
82,893,2,0.121512150567573,1
82,894,2,0.142688333773795,1
82,895,2,0.130941741755115,1
82,896,2,0.113322862103293,1
82,897,2,0.0980666786460973,1
82,898,2,0.0857436728462476,1
83,890,2,0.0594242049254424,1
83,891,2,0.0730877436838381,1
83,892,2,0.0889398597831078,1
83,893,2,0.120537445879093,1
83,894,2,0.154508613915091,1
83,895,2,0.154866935384574,1
83,896,2,0.132517886824667,1
83,897,2,0.109779876311514,1
83,898,2,0.0952713006085733,1
83,899,2,0.084734972316948,1
84,890,2,0.0632397117558408,1
84,891,2,0.0760808460132414,1
84,892,2,0.0898167107018459,1
84,893,2,0.116858865921866,1
84,894,2,0.147219657972003,1
84,895,2,0.152041382721296,1
84,896,2,0.134891946416564,1
84,897,2,0.112933581715458,1
84,898,2,0.0985562010630903,1
84,899,2,0.0888216261996846,1
84,900,2,0.0779908520583093,1
85,890,2,0.0609003320494365,1
85,891,2,0.0726651809845394,1
85,892,2,0.0930392451524585,1
85,893,2,0.120404623273955,1
85,894,2,0.12863671170574,1
85,895,2,0.123722994741914,1
85,896,2,0.115636230421344,1
85,897,2,0.104195748393462,1
85,898,2,0.0910045129965185,1
85,899,2,0.0826021623076667,1
85,900,2,0.0759344427625856,1
85,901,2,0.0730195279185993,1
86,891,2,0.0626248027710508,1
86,892,2,0.085420125613246,1
86,893,2,0.108846568119574,1
86,894,2,0.102620841680644,1
86,895,2,0.0927800629849464,1
86,896,2,0.0935306722800473,1
86,897,2,0.0933142605953566,1
86,898,2,0.0841889631420691,1
86,899,2,0.075692532723046,1
86,900,2,0.0695254277331335,1
86,901,2,0.0663103411137361,1
87,892,2,0.0640830562795159,1
87,893,2,0.0782466552810183,1
87,894,2,0.0757367479553905,1
87,895,2,0.0728769046044509,1
87,896,2,0.0754799776350415,1
87,897,2,0.0777938295019126,1
87,898,2,0.0739404761309452,1
87,899,2,0.0687005111370493,1
87,900,2,0.0634966530873578,1
88,893,2,0.0614444895861511,1
88,894,2,0.0662826314075762,1
88,895,2,0.068545327347455,1
88,896,2,0.0699625676602738,1
88,897,2,0.0711439953662342,1
88,898,2,0.0689622289873978,1
88,899,2,0.0645486135452356,1
89,896,2,0.0638321887929329,1
89,897,2,0.0643188924741216,1
89,898,2,0.0605452892768308,1
90,895,2,0.0640013601166858,1
90,896,2,0.066806008138905,1
90,897,2,0.0655899536198842,1
90,898,2,0.0581303108402776,1
91,894,2,0.0573435769101617,1
91,895,2,0.0685514188831994,1
91,896,2,0.077357114154224,1
91,897,2,0.0759722598184706,1
91,898,2,0.0655857667947356,1
92,895,2,0.0716386481182686,1
92,896,2,0.0878505127457336,1
92,897,2,0.0904987504154982,1
92,898,2,0.0786722136242262,1
92,899,2,0.0626699851010353,1
92,901,2,0.0622980947799089,1
92,902,2,0.0699973124120708,1
93,895,2,0.0683739623632017,1
93,896,2,0.0932025372301927,1
93,897,2,0.103766392422936,1
93,898,2,0.0904806586133065,1
93,899,2,0.0673735765148311,1
93,900,2,0.0658712434035685,1
93,901,2,0.0822173459010109,1
93,902,2,0.0999301755503941,1
93,903,2,0.11493464825904,1
94,895,2,0.060237999898667,1
94,896,2,0.0862135230819788,1
94,897,2,0.100596482236586,1
94,898,2,0.0892521438667658,1
94,899,2,0.0674073010965566,1
94,900,2,0.0748792095047677,1
94,901,2,0.0975092588984541,1
94,902,2,0.113811729960298,1
94,903,2,0.126621067934316,1
95,896,2,0.0645000050949534,1
95,897,2,0.0756980463589812,1
95,898,2,0.0719828464240456,1
95,900,2,0.072056770424135,1
95,901,2,0.086513966116484,1
95,902,2,0.0859055260713956,1
96,901,2,0.0634516299746677,1
81,893,3,0.083883100822618,1
81,894,3,0.0942987070234782,1
81,895,3,0.0937176051775294,1
81,896,3,0.0891142145143335,1
82,892,3,0.0820301358474979,1
82,893,3,0.106685387947208,1
82,894,3,0.13096200363006,1
82,895,3,0.133755005202042,1
82,896,3,0.118263870090765,1
82,897,3,0.0974556675365513,1
82,898,3,0.083917603800005,1
83,890,3,0.0577216413241482,1
83,891,3,0.0704464702964687,1
83,892,3,0.086268376388363,1
83,893,3,0.110942304087011,1
83,894,3,0.144083195211348,1
83,895,3,0.156911804374923,1
83,896,3,0.136770828429048,1
83,897,3,0.108445210805113,1
83,898,3,0.0938097094338629,1
83,899,3,0.0856405177302964,1
84,889,3,0.0577816544502578,1
84,890,3,0.0646416554145249,1
84,891,3,0.0728591135460376,1
84,892,3,0.0839780827841241,1
84,893,3,0.106568982414202,1
84,894,3,0.133986342033847,1
84,895,3,0.148110425661658,1
84,896,3,0.135463100130082,1
84,897,3,0.113291148377026,1
84,898,3,0.101324046302559,1
84,899,3,0.0922329982583751,1
84,900,3,0.0814795152680186,1
85,889,3,0.0595017673355554,1
85,890,3,0.0635679234658741,1
85,891,3,0.0700878716709551,1
85,892,3,0.0847750125180175,1
85,893,3,0.108596089830822,1
85,894,3,0.115350028489281,1
85,895,3,0.117933665216083,1
85,896,3,0.11563086420883,1
85,897,3,0.109123995409636,1
85,898,3,0.10089770956369,1
85,899,3,0.0900520928323157,1
85,900,3,0.0802076993143419,1
85,901,3,0.0745656163011336,1
86,891,3,0.0598624180950856,1
86,892,3,0.0772397179358306,1
86,893,3,0.0994218360079794,1
86,894,3,0.0978894049311412,1
86,895,3,0.0947530895939067,1
86,896,3,0.0985508938199442,1
86,897,3,0.101168048735683,1
86,898,3,0.0971024292266153,1
86,899,3,0.0863318981918859,1
86,900,3,0.0767903713494541,1
86,901,3,0.069258496990628,1
87,893,3,0.0696419747926236,1
87,894,3,0.0722951246107668,1
87,895,3,0.0743011917567805,1
87,896,3,0.0777431158451825,1
87,897,3,0.0800402498961432,1
87,898,3,0.0792563582895788,1
87,899,3,0.0733752311481298,1
87,900,3,0.0668881229842501,1
88,894,3,0.0622671358615562,1
88,895,3,0.0648760881381653,1
88,896,3,0.0656462162941705,1
88,897,3,0.0652854122142828,1
88,898,3,0.0637178353939432,1
88,899,3,0.0597575941460117,1
89,897,3,0.0610452374781377,1
90,895,3,0.0602415675454486,1
90,896,3,0.0616342942918689,1
90,897,3,0.0594390298246308,1
91,895,3,0.0636542428271783,1
91,896,3,0.0687019440926987,1
91,897,3,0.0656824706617958,1
91,898,3,0.0589255127716801,1
92,895,3,0.0648713411040179,1
92,896,3,0.0780518794575535,1
92,897,3,0.0807845435719001,1
92,898,3,0.0723599732250763,1
92,899,3,0.0570656955559646,1
92,901,3,0.0584579800321227,1
92,902,3,0.0646991623424822,1
93,895,3,0.0597594634749866,1
93,896,3,0.0850298368492129,1
93,897,3,0.100021931887455,1
93,898,3,0.0878257043324936,1
93,899,3,0.0619083308432535,1
93,900,3,0.060879822503145,1
93,901,3,0.081367402705024,1
93,902,3,0.0960775651934672,1
93,903,3,0.0952767316873929,1
94,896,3,0.0785194063001741,1
94,897,3,0.0980791388736171,1
94,898,3,0.0857313246605275,1
94,899,3,0.0608384319035416,1
94,900,3,0.0691622294968932,1
94,901,3,0.098035324632977,1
94,902,3,0.111289857749844,1
94,903,3,0.103219321799428,1
95,896,3,0.0592382214347898,1
95,897,3,0.0721809422229452,1
95,898,3,0.0661364227558358,1
95,900,3,0.0668358702270075,1
95,901,3,0.0854250318646878,1
95,902,3,0.085662990956552,1
95,903,3,0.0698661350523077,1
96,901,3,0.0582609397849156,1
81,894,4,0.0756235444590825,1
81,895,4,0.088154570602515,1
81,896,4,0.0851703431630395,1
82,892,4,0.0726454380400356,1
82,893,4,0.0869823480149448,1
82,894,4,0.115786826394085,1
82,895,4,0.13884726961918,1
82,896,4,0.125995461906118,1
82,897,4,0.0941175177424677,1
82,898,4,0.0759463250902963,1
82,899,4,0.0697738892694903,1
83,891,4,0.0651555793561168,1
83,892,4,0.0834438615859665,1
83,893,4,0.101743613357949,1
83,894,4,0.132941393033859,1
83,895,4,0.157365951067879,1
83,896,4,0.139988149987503,1
83,897,4,0.104199888043116,1
83,898,4,0.0875098643959277,1
83,899,4,0.0832694537823094,1
83,900,4,0.0757651711909067,1
84,889,4,0.0628163942486279,1
84,890,4,0.0673230928386373,1
84,891,4,0.0698050722714425,1
84,892,4,0.0833123834824252,1
84,893,4,0.101157339898401,1
84,894,4,0.121386817072208,1
84,895,4,0.136600312603698,1
84,896,4,0.129738978931707,1
84,897,4,0.112949090659318,1
84,898,4,0.104324844134525,1
84,899,4,0.0950763301861932,1
84,900,4,0.083092091613301,1
85,888,4,0.058942183412096,1
85,889,4,0.0657097734793144,1
85,890,4,0.0687572986387134,1
85,891,4,0.0680541773758971,1
85,892,4,0.0793298164316588,1
85,893,4,0.0976423291749393,1
85,894,4,0.103603436470601,1
85,895,4,0.108167264584611,1
85,896,4,0.114170570360222,1
85,897,4,0.121584470600845,1
85,898,4,0.121861213846234,1
85,899,4,0.104662502737358,1
85,900,4,0.086167385448228,1
85,901,4,0.0747999192921638,1
86,891,4,0.057003818997817,1
86,892,4,0.0684762742171864,1
86,893,4,0.0876676605285373,1
86,894,4,0.0942188330141282,1
86,895,4,0.0975178979109087,1
86,896,4,0.106850643704907,1
86,897,4,0.121491263617324,1
86,898,4,0.126912411995294,1
86,899,4,0.108712542539323,1
86,900,4,0.0874737928333442,1
86,901,4,0.0701404074811654,1
87,893,4,0.0629790671479951,1
87,894,4,0.0716902699032704,1
87,895,4,0.0770238133877072,1
87,896,4,0.0817434975421095,1
87,897,4,0.0899388775421341,1
87,898,4,0.0951541579584635,1
87,899,4,0.0861326053148101,1
87,900,4,0.0734794064341525,1
88,894,4,0.0592159663951969,1
88,895,4,0.0614627288117635,1
88,896,4,0.0621300320802799,1
88,897,4,0.0633458271340802,1
88,898,4,0.0630360020730799,1
88,899,4,0.0583741727659077,1
91,896,4,0.0586492294873637,1
92,896,4,0.0686868538313531,1
92,897,4,0.0749988111775353,1
92,898,4,0.0679592248990751,1
93,896,4,0.0753189322902391,1
93,897,4,0.0956660533537861,1
93,898,4,0.084441181027186,1
93,899,4,0.0569760562192257,1
93,901,4,0.0755972912963194,1
93,902,4,0.0854460190628626,1
93,903,4,0.0707981871967028,1
94,896,4,0.0678301940243178,1
94,897,4,0.0918811693163412,1
94,898,4,0.0808727617468633,1
94,900,4,0.0635591370299988,1
94,901,4,0.0940772593547355,1
94,902,4,0.103845222674467,1
94,903,4,0.0781023808245578,1
95,897,4,0.0652142656714399,1
95,898,4,0.0598470447807722,1
95,900,4,0.0600106258084111,1
95,901,4,0.0809203913056318,1
95,902,4,0.0827443846301106,1
95,903,4,0.0585228463372427,1
81,894,5,0.0668087443175937,1
81,895,5,0.0864618489887886,1
81,896,5,0.0816209709886748,1
82,892,5,0.0669655202801319,1
82,893,5,0.0758272128632855,1
82,894,5,0.106260242389578,1
82,895,5,0.143957012557079,1
82,896,5,0.130095837960856,1
82,897,5,0.0913250174101163,1
82,898,5,0.0684848483633358,1
82,899,5,0.0652016049480678,1
83,891,5,0.0628629564618303,1
83,892,5,0.0796038176014224,1
83,893,5,0.0940269289988992,1
83,894,5,0.121097949724698,1
83,895,5,0.155478660023476,1
83,896,5,0.14021336579888,1
83,897,5,0.103742474447157,1
83,898,5,0.0832305811747321,1
83,899,5,0.0858813427334595,1
83,900,5,0.081450001099189,1
84,889,5,0.0664073929000692,1
84,890,5,0.0690790060274242,1
84,891,5,0.0681425252834705,1
84,892,5,0.0821343701028888,1
84,893,5,0.0964166390611397,1
84,894,5,0.107122492492728,1
84,895,5,0.123732193963367,1
84,896,5,0.124390645929703,1
84,897,5,0.120344851922255,1
84,898,5,0.111813305244415,1
84,899,5,0.111273511440954,1
84,900,5,0.100773579043438,1
84,901,5,0.0861549900870133,1
85,888,5,0.0630880543344703,1
85,889,5,0.0685020379341926,1
85,890,5,0.0712677072039716,1
85,891,5,0.0654956380122398,1
85,892,5,0.0741251858832427,1
85,893,5,0.0900076594133086,1
85,894,5,0.0944038140255199,1
85,895,5,0.0996371685532304,1
85,896,5,0.117391158821681,1
85,897,5,0.147478698613031,1
85,898,5,0.150556097654406,1
85,899,5,0.133616273866201,1
85,900,5,0.105826392953189,1
85,901,5,0.0857256400134243,1
86,890,5,0.0578147480597427,1
86,892,5,0.0633189371021396,1
86,893,5,0.084240408018966,1
86,894,5,0.0965703309257162,1
86,895,5,0.0997258113076453,1
86,896,5,0.117822637689465,1
86,897,5,0.15505813766432,1
86,898,5,0.164362584058476,1
86,899,5,0.139272910519503,1
86,900,5,0.102043578740571,1
86,901,5,0.0768593242317966,1
87,893,5,0.0663097868016741,1
87,894,5,0.0785713524167015,1
87,895,5,0.0800546797005639,1
87,896,5,0.0895198530049328,1
87,897,5,0.111832812311445,1
87,898,5,0.117731883831665,1
87,899,5,0.102256186901007,1
87,900,5,0.0793181876722318,1
88,894,5,0.0594899970496446,1
88,895,5,0.0596024988104699,1
88,896,5,0.0630817917875578,1
88,897,5,0.0693099123828408,1
88,898,5,0.0680539768800449,1
88,899,5,0.0607930431807681,1
92,896,5,0.0630496593787761,1
92,897,5,0.0721364793192538,1
92,898,5,0.0659404144725737,1
92,901,5,0.0569266045069769,1
93,896,5,0.0683424137511661,1
93,897,5,0.0891232427246188,1
93,898,5,0.0805280268198348,1
93,899,5,0.0606145429029516,1
93,900,5,0.0605886435563983,1
93,901,5,0.0764523884150949,1
93,902,5,0.082945210710762,1
93,903,5,0.0656683769827743,1
94,896,5,0.0603622306668454,1
94,897,5,0.082618231460526,1
94,898,5,0.0766428889593586,1
94,899,5,0.0597225368565628,1
94,900,5,0.065817162595909,1
94,901,5,0.0917238272478675,1
94,902,5,0.102028730253635,1
94,903,5,0.0745906487979731,1
95,897,5,0.0586857138355253,1
95,898,5,0.0580579082498901,1
95,900,5,0.0590773942766501,1
95,901,5,0.0766759707749698,1
95,902,5,0.0814648672769352,1
81,895,6,0.0855040095396398,1
81,896,6,0.0785138219009969,1
82,892,6,0.0645771311317411,1
82,893,6,0.0701408497514276,1
82,894,6,0.0999490929237419,1
82,895,6,0.14141523228789,1
82,896,6,0.125563617428251,1
82,897,6,0.085949228270236,1
82,898,6,0.0642659438783333,1
83,891,6,0.0635807375096037,1
83,892,6,0.0777981460596715,1
83,893,6,0.0895408755847285,1
83,894,6,0.113232249771977,1
83,895,6,0.15041705967785,1
83,896,6,0.135914027095528,1
83,897,6,0.102667922824287,1
83,898,6,0.0837548365496485,1
83,899,6,0.0911397533457568,1
83,900,6,0.0922787997667266,1
84,890,6,0.0673515750435218,1
84,891,6,0.0676269384056928,1
84,892,6,0.0814204869303594,1
84,893,6,0.0931193255545975,1
84,894,6,0.0983510348369327,1
84,895,6,0.115028268028139,1
84,896,6,0.120103914877292,1
84,897,6,0.123490584667606,1
84,898,6,0.117344113059658,1
84,899,6,0.135472405496398,1
84,900,6,0.14102822811767,1
84,901,6,0.107805452128525,1
85,889,6,0.0662893598124982,1
85,890,6,0.0693117286393842,1
85,891,6,0.0629653626668043,1
85,892,6,0.069757407331053,1
85,893,6,0.0840561169491834,1
85,894,6,0.0901387247312719,1
85,895,6,0.0974834008304585,1
85,896,6,0.124902912832046,1
85,897,6,0.163631021869333,1
85,898,6,0.162130015568857,1
85,899,6,0.163132884027632,1
85,900,6,0.151370146195914,1
85,901,6,0.11485682048677,1
86,890,6,0.056927913626953,1
86,892,6,0.060220751358442,1
86,893,6,0.0830677136764495,1
86,894,6,0.100379722632623,1
86,895,6,0.102647802475827,1
86,896,6,0.130502750189811,1
86,897,6,0.177916705154008,1
86,898,6,0.178193047407692,1
86,899,6,0.160285182469624,1
86,900,6,0.128904479813276,1
86,901,6,0.0967483771393969,1
87,893,6,0.0691861356787983,1
87,894,6,0.0842524141823501,1
87,895,6,0.0821718628272482,1
87,896,6,0.0999992640622837,1
87,897,6,0.131371156695009,1
87,898,6,0.128808560238814,1
87,899,6,0.110188239186928,1
87,900,6,0.0850815588821408,1
88,894,6,0.0598543569824402,1
88,895,6,0.0583938803287906,1
88,896,6,0.0663255729015656,1
88,897,6,0.0781121874305046,1
88,898,6,0.0744245674691187,1
88,899,6,0.065394399400758,1
92,896,6,0.0630615358095499,1
92,897,6,0.0765034323002875,1
92,898,6,0.070068517924282,1
92,899,6,0.0614808324078288,1
92,900,6,0.0663835692752797,1
92,901,6,0.0727555161598242,1
92,902,6,0.0667183206882565,1
93,896,6,0.0700765495522432,1
93,897,6,0.0956142900423004,1
93,898,6,0.0888877426554124,1
93,899,6,0.0728317104805928,1
93,900,6,0.0749607405533667,1
93,901,6,0.0891366287712208,1
93,902,6,0.0895168750518341,1
93,903,6,0.0682784614712546,1
94,896,6,0.0596857753523703,1
94,897,6,0.0847726419494122,1
94,898,6,0.0843479504559181,1
94,899,6,0.0724574672816716,1
94,900,6,0.0742069410154412,1
94,901,6,0.0944088853911929,1
94,902,6,0.102366754466552,1
94,903,6,0.0766502129549003,1
95,897,6,0.0586304949190577,1
95,898,6,0.0640795299112921,1
95,899,6,0.0618581832924589,1
95,900,6,0.0629074606440795,1
95,901,6,0.0762941087336654,1
95,902,6,0.0808051002936863,1
81,895,7,0.0800537361906713,1
81,896,7,0.0748098615276576,1
82,893,7,0.0651295384830795,1
82,894,7,0.0893515898094516,1
82,895,7,0.122440222279609,1
82,896,7,0.111187239255144,1
82,897,7,0.0816780946157381,1
82,898,7,0.0659742687869095,1
83,891,7,0.0674886729278612,1
83,892,7,0.0746914923146873,1
83,893,7,0.0820201700242567,1
83,894,7,0.102902007628655,1
83,895,7,0.134199292216619,1
83,896,7,0.126544466724906,1
83,897,7,0.101076245223127,1
83,898,7,0.0867232071259906,1
83,899,7,0.0908673620397476,1
83,900,7,0.0981777474512731,1
84,890,7,0.0665054943411579,1
84,891,7,0.0693219716186563,1
84,892,7,0.0773966000432316,1
84,893,7,0.0847074572097035,1
84,894,7,0.0911098204944124,1
84,895,7,0.106956246049642,1
84,896,7,0.117676204954125,1
84,897,7,0.11940433767351,1
84,898,7,0.119189417913837,1
84,899,7,0.15389024932532,1
84,900,7,0.184899574694046,1
84,901,7,0.130606724979981,1
85,889,7,0.0638387815683078,1
85,890,7,0.0673497057145469,1
85,891,7,0.0635861391037392,1
85,892,7,0.0665445792384611,1
85,893,7,0.077045797168206,1
85,894,7,0.0873459531398264,1
85,895,7,0.0984865759299493,1
85,896,7,0.132270121126857,1
85,897,7,0.159167217597818,1
85,898,7,0.159941579754467,1
85,899,7,0.194333541408715,1
85,900,7,0.224996681203953,1
85,901,7,0.159509923978577,1
85,902,7,0.0818423478941755,1
86,892,7,0.0579540042229616,1
86,893,7,0.0777243753799396,1
86,894,7,0.0973102785590302,1
86,895,7,0.103781441405724,1
86,896,7,0.140781983829561,1
86,897,7,0.177682537792525,1
86,898,7,0.173328522690894,1
86,899,7,0.179054495527433,1
86,900,7,0.183456629633589,1
86,901,7,0.132309147054791,1
86,902,7,0.0807000876426339,1
87,893,7,0.0673455837557034,1
87,894,7,0.0834310593361106,1
87,895,7,0.0846740510625667,1
87,896,7,0.111458345028925,1
87,897,7,0.139761153301204,1
87,898,7,0.130885933144965,1
87,899,7,0.116373111647507,1
87,900,7,0.106507666065053,1
87,901,7,0.086419809726134,1
88,894,7,0.0597968382606093,1
88,895,7,0.0601543164681255,1
88,896,7,0.0723553500266023,1
88,897,7,0.0855879760231492,1
88,898,7,0.0804976811829123,1
88,899,7,0.0714791359770418,1
89,896,7,0.0571326022012274,1
89,897,7,0.0597088382723088,1
89,898,7,0.0575426692913854,1
91,900,7,0.0595901919033076,1
91,901,7,0.0637273117714276,1
92,896,7,0.0611099386690264,1
92,897,7,0.0755002277161126,1
92,898,7,0.0707239152773405,1
92,899,7,0.0696281818573804,1
92,900,7,0.0832043574966531,1
92,901,7,0.0946739468047235,1
92,902,7,0.0832074180068674,1
92,903,7,0.0633004561021172,1
93,896,7,0.0709989071324913,1
93,897,7,0.100042606547978,1
93,898,7,0.0966603063878545,1
93,899,7,0.0890739620235381,1
93,900,7,0.0949323446796373,1
93,901,7,0.108708780293626,1
93,902,7,0.0996963502112471,1
93,903,7,0.0734221530744789,1
94,896,7,0.0605606272095233,1
94,897,7,0.0891092198088392,1
94,898,7,0.0937052393009988,1
94,899,7,0.0895590145624147,1
94,900,7,0.0876875921750196,1
94,901,7,0.0999838848510335,1
94,902,7,0.098721480408536,1
94,903,7,0.0743867209285496,1
95,897,7,0.0619275194756953,1
95,898,7,0.0709957522712878,1
95,899,7,0.0745631513815391,1
95,900,7,0.0714883116107478,1
95,901,7,0.0788083444109257,1
95,902,7,0.0773534403625795,1
96,901,7,0.0612292337010789,1
119,890,7,0.0585470001904946,1
119,891,7,0.0618747006125172,1
120,891,7,0.0579441681323307,1
82,895,8,0.0944951575770024,1
82,896,8,0.09046953109351,1
82,897,8,0.074796841091139,1
82,898,8,0.0665648116287217,1
83,892,8,0.0681832967047068,1
83,893,8,0.0710941662500284,1
83,894,8,0.0852277321522602,1
83,895,8,0.10726999847057,1
83,896,8,0.107538757263493,1
83,897,8,0.092935305743909,1
83,898,8,0.0840556098126161,1
83,899,8,0.0828428221965986,1
83,900,8,0.0887026260144736,1
84,891,8,0.0686494436641093,1
84,892,8,0.0718475235176917,1
84,893,8,0.0751137542702078,1
84,894,8,0.0809672365718021,1
84,895,8,0.0951558798640176,1
84,896,8,0.107823933128548,1
84,897,8,0.108872373115138,1
84,898,8,0.113581973507563,1
84,899,8,0.149337873062632,1
84,900,8,0.193717394067191,1
84,901,8,0.133674134610368,1
85,890,8,0.0637740390988612,1
85,891,8,0.0634118787235028,1
85,892,8,0.0646244835344786,1
85,893,8,0.0711971975303062,1
85,894,8,0.0808497342085457,1
85,895,8,0.0951205925940323,1
85,896,8,0.123943351477343,1
85,897,8,0.140150905443986,1
85,898,8,0.150330221386105,1
85,899,8,0.20752735966399,1
85,900,8,0.272315612928086,1
85,901,8,0.191981453803444,1
85,902,8,0.0934503029280037,1
86,893,8,0.0702959450869694,1
86,894,8,0.086529321739987,1
86,895,8,0.100053421530122,1
86,896,8,0.13418288693836,1
86,897,8,0.15934096494455,1
86,898,8,0.159559694125415,1
86,899,8,0.183991293102009,1
86,900,8,0.222394740385233,1
86,901,8,0.162878501966699,1
86,902,8,0.0952627972256658,1
87,893,8,0.0621551353403613,1
87,894,8,0.0756659965073151,1
87,895,8,0.0834523059995058,1
87,896,8,0.109106717384726,1
87,897,8,0.133310022348919,1
87,898,8,0.127182703991792,1
87,899,8,0.119669782387935,1
87,900,8,0.124225578873983,1
87,901,8,0.103904534065094,1
88,894,8,0.0578773145594993,1
88,895,8,0.0614661549320612,1
88,896,8,0.0730581646487034,1
88,897,8,0.0874900683789925,1
88,898,8,0.0844338629285811,1
88,899,8,0.07602924191905,1
88,900,8,0.0725060757319538,1
89,896,8,0.0570427564716995,1
89,897,8,0.0603446872797789,1
89,898,8,0.0589150103271875,1
91,900,8,0.0596925686235974,1
91,901,8,0.0644110851845076,1
92,897,8,0.0681168559174535,1
92,898,8,0.0682153465563729,1
92,899,8,0.0742052839761922,1
92,900,8,0.0890251412835301,1
92,901,8,0.0994489619173933,1
92,902,8,0.084516638230851,1
93,896,8,0.0674181809450063,1
93,897,8,0.0960067134974657,1
93,898,8,0.100655663894603,1
93,899,8,0.103896042476061,1
93,900,8,0.109894854785808,1
93,901,8,0.115685776484582,1
93,902,8,0.095768046773182,1
93,903,8,0.0683480571197115,1
94,896,8,0.0591671869337466,1
94,897,8,0.0889817516223417,1
94,898,8,0.102495154369069,1
94,899,8,0.111219200652758,1
94,900,8,0.109223818756278,1
94,901,8,0.106172967724508,1
94,902,8,0.0878676669349694,1
94,903,8,0.0636368114819116,1
95,897,8,0.0632954849843703,1
95,898,8,0.0773335735824023,1
95,899,8,0.0920583074017502,1
95,900,8,0.0925630851943201,1
95,901,8,0.0885924712345063,1
95,902,8,0.0726617666581153,1
96,899,8,0.0608146908358677,1
96,900,8,0.0678443407757708,1
96,901,8,0.0696429183025163,1
119,890,8,0.0622160683886162,1
119,891,8,0.0596892958236572,1
82,895,9,0.0664882575948065,1
82,896,9,0.0674066465365686,1
82,897,9,0.0625582145603768,1
83,893,9,0.0581894866013575,1
83,894,9,0.0656930143848462,1
83,895,9,0.0782251727401499,1
83,896,9,0.083349687504806,1
83,897,9,0.0785313063186952,1
83,898,9,0.0754829025157087,1
83,899,9,0.0722499953532138,1
83,900,9,0.0738561322434788,1
84,892,9,0.0619654898519378,1
84,893,9,0.0642450628250215,1
84,894,9,0.069394816479306,1
84,895,9,0.0803787989364379,1
84,896,9,0.0918410465581561,1
84,897,9,0.0961820294293945,1
84,898,9,0.102899943700765,1
84,899,9,0.126628156052385,1
84,900,9,0.162852307773304,1
84,901,9,0.118159918888342,1
85,892,9,0.0586878603205311,1
85,893,9,0.0642967023008338,1
85,894,9,0.0712176716949768,1
85,895,9,0.0831466205881595,1
85,896,9,0.102500803634551,1
85,897,9,0.117213661023125,1
85,898,9,0.133199560928236,1
85,899,9,0.190834829818649,1
85,900,9,0.266648161292639,1
85,901,9,0.2081543927509,1
85,902,9,0.111132586444612,1
86,893,9,0.0618307920208878,1
86,894,9,0.0725063528879847,1
86,895,9,0.0867888695175825,1
86,896,9,0.111452554236959,1
86,897,9,0.131575379411274,1
86,898,9,0.136245022159745,1
86,899,9,0.172844230856868,1
86,900,9,0.246344488859648,1
86,901,9,0.213120722185116,1
86,902,9,0.132822628726121,1
87,893,9,0.0571644692478518,1
87,894,9,0.0673547475955358,1
87,895,9,0.0779512305397547,1
87,896,9,0.0972577073671989,1
87,897,9,0.116773159841992,1
87,898,9,0.114139092511428,1
87,899,9,0.122126941613626,1
87,900,9,0.161660312756546,1
87,901,9,0.160000384008526,1
87,902,9,0.119635827825673,1
88,894,9,0.0585051673206291,1
88,895,9,0.0652195847084597,1
88,896,9,0.0749340863988992,1
88,897,9,0.0870335216327476,1
88,898,9,0.0842969478492833,1
88,899,9,0.0802260328909436,1
88,900,9,0.0914393472213586,1
88,901,9,0.0951198259922445,1
89,895,9,0.0571117270448525,1
89,896,9,0.0586212013466151,1
89,897,9,0.0613488825493411,1
89,898,9,0.059730191080567,1
92,897,9,0.0594051106439898,1
92,898,9,0.0659691207610577,1
92,899,9,0.0771455497516069,1
92,900,9,0.0892391234302472,1
92,901,9,0.0939014185954289,1
92,902,9,0.0789984675512324,1
93,896,9,0.0611828366021076,1
93,897,9,0.0827086845745473,1
93,898,9,0.0968128365558757,1
93,899,9,0.110245840465875,1
93,900,9,0.117294897224883,1
93,901,9,0.113449610863497,1
93,902,9,0.0885478727012679,1
93,903,9,0.0620565326596421,1
94,896,9,0.0578905119041228,1
94,897,9,0.0824636314676778,1
94,898,9,0.103873716673226,1
94,899,9,0.12390268620097,1
94,900,9,0.127605915354142,1
94,901,9,0.110479382752054,1
94,902,9,0.0790907723034181,1
95,897,9,0.0629058684711356,1
95,898,9,0.0806482299801589,1
95,899,9,0.104240447174627,1
95,900,9,0.1131219652594,1
95,901,9,0.0965525811458607,1
95,902,9,0.067128747491561,1
96,899,9,0.0670190526726663,1
96,900,9,0.0782346491176343,1
96,901,9,0.0723706997531684,1
83,895,10,0.0611309553518853,1
83,896,10,0.0685793585698956,1
83,897,10,0.0691166461752043,1
83,898,10,0.0672860895600347,1
84,894,10,0.0603486146397071,1
84,895,10,0.0707997852665835,1
84,896,10,0.0839684412924085,1
84,897,10,0.0915416826630906,1
84,898,10,0.0970931828296673,1
84,899,10,0.106486130451753,1
84,900,10,0.121306040831523,1
84,901,10,0.0980506330809853,1
85,893,10,0.0587537526926593,1
85,894,10,0.0646401634895072,1
85,895,10,0.0751929619256961,1
85,896,10,0.0922872677680132,1
85,897,10,0.108228604521507,1
85,898,10,0.125082557115607,1
85,899,10,0.166726524506773,1
85,900,10,0.230997262594748,1
85,901,10,0.210887151216236,1
85,902,10,0.122115324648073,1
86,893,10,0.0576523110378486,1
86,894,10,0.0674275865592487,1
86,895,10,0.0776022851998302,1
86,896,10,0.0949612160823526,1
86,897,10,0.11272503064756,1
86,898,10,0.126796513598855,1
86,899,10,0.176749996202373,1
86,900,10,0.284387963531078,2
86,901,10,0.29048534903686,2
86,902,10,0.179996354277775,1
86,903,10,0.0840286372235599,1
87,893,10,0.0612436045361314,1
87,894,10,0.0760225076171912,1
87,895,10,0.0813269438214396,1
87,896,10,0.0879764418317188,1
87,897,10,0.100315552166049,1
87,898,10,0.107090566476735,1
87,899,10,0.144906820378266,1
87,900,10,0.241454324261517,1
87,901,10,0.265109815588161,2
87,902,10,0.178322791811806,1
88,893,10,0.0601138398937306,1
88,894,10,0.0769420287708246,1
88,895,10,0.0787701322602732,1
88,896,10,0.0760194824885979,1
88,897,10,0.0800477920783476,1
88,898,10,0.0803655662101934,1
88,899,10,0.0908499660761018,1
88,900,10,0.134315862863856,1
88,901,10,0.148398019270812,1
89,894,10,0.0646227616289245,1
89,895,10,0.0645004945407102,1
89,896,10,0.0592533588716301,1
89,897,10,0.0574370964313342,1
92,898,10,0.0612070081461701,1
92,899,10,0.0750843639370517,1
92,900,10,0.0832259992548159,1
92,901,10,0.0802885463182687,1
93,897,10,0.0663350492790499,1
93,898,10,0.0903503186185732,1
93,899,10,0.114147949710545,1
93,900,10,0.12037904236199,1
93,901,10,0.1041475114502,1
93,902,10,0.076801758334471,1
94,897,10,0.0707403087617254,1
94,898,10,0.102636810585577,1
94,899,10,0.13643522196023,1
94,900,10,0.144945622222602,1
94,901,10,0.113900891645154,1
94,902,10,0.073703071351143,1
95,897,10,0.058449034378953,1
95,898,10,0.0821154291417938,1
95,899,10,0.115355949013858,1
95,900,10,0.130349087809918,1
95,901,10,0.102306935939358,1
95,902,10,0.0636496844950094,1
96,899,10,0.0716934365583476,1
96,900,10,0.0843096439542764,1
96,901,10,0.0709938239729447,1
99,894,10,0.0887618489510482,1
99,895,10,0.102174231272956,1
111,890,10,0.0574558781751349,1
83,896,11,0.0621079834334759,1
83,897,11,0.0637345178282327,1
83,898,11,0.0614473024250186,1
84,895,11,0.0648647955041376,1
84,896,11,0.0792582453093642,1
84,897,11,0.0869964416939663,1
84,898,11,0.0937508344165613,1
84,899,11,0.0981840748644908,1
84,900,11,0.0964944963180942,1
84,901,11,0.0825005993646593,1
85,894,11,0.0619469380886735,1
85,895,11,0.0715379756127224,1
85,896,11,0.0897512605999798,1
85,897,11,0.105097932552818,1
85,898,11,0.128005079008103,1
85,899,11,0.158455634230652,1
85,900,11,0.201520692634386,2
85,901,11,0.202431604260249,2
85,902,11,0.127819007063398,1
86,893,11,0.0599024995747129,1
86,894,11,0.0745171729650827,1
86,895,11,0.0788064691850141,1
86,896,11,0.0890635952085926,1
86,897,11,0.102837176705156,1
86,898,11,0.132858092904211,1
86,899,11,0.193598028271897,2
86,900,11,0.319075420689832,2
86,901,11,0.356588406924117,2
86,902,11,0.22393414753834,2
86,903,11,0.100129527396838,1
87,893,11,0.0750848238981243,1
87,894,11,0.104368622993544,1
87,895,11,0.0984887047241446,1
87,896,11,0.0874430756894014,1
87,897,11,0.0909606044048892,1
87,898,11,0.110514469526187,1
87,899,11,0.173038381605029,1
87,900,11,0.317246261648691,2
87,901,11,0.372621352591251,2
87,902,11,0.239765300027183,2
87,903,11,0.110241818754958,1
88,893,11,0.0813128737301654,1
88,894,11,0.116567875677098,1
88,895,11,0.105219893000317,1
88,896,11,0.0811950057568256,1
88,897,11,0.0743132568895328,1
88,898,11,0.0787748439127997,1
88,899,11,0.101986979940885,1
88,900,11,0.173624254072873,1
88,901,11,0.205187856121912,2
88,902,11,0.140192903428083,1
89,894,11,0.0860412558663907,1
89,895,11,0.077708111628165,1
89,896,11,0.0617808803475664,1
92,899,11,0.066483752335069,1
92,900,11,0.0705604521884382,1
92,901,11,0.064995925688406,1
93,898,11,0.079073004832752,1
93,899,11,0.10572622758421,1
93,900,11,0.110287083642058,1
93,901,11,0.0909363326129006,1
93,902,11,0.0646991977241032,1
94,897,11,0.0610855430413645,1
94,898,11,0.0940540136297552,1
94,899,11,0.133865749675692,1
94,900,11,0.14493214182501,1
94,901,11,0.11290363707024,1
94,902,11,0.070040466195786,1
95,898,11,0.0766803345082233,1
95,899,11,0.111923601550866,1
95,900,11,0.129784137673944,1
95,901,11,0.103219840729869,1
95,902,11,0.0625949583737588,1
96,889,11,0.133067174696423,1
96,899,11,0.0697562574283713,1
96,900,11,0.0823260500345183,1
96,901,11,0.0694980954309307,1
97,889,11,0.128517369498193,1
98,889,11,0.127873329645468,1
98,894,11,0.11960499863993,1
98,895,11,0.128735131581418,1
99,889,11,0.145177088787017,1
99,893,11,0.0958764973384058,1
99,894,11,0.182103907706617,1
99,895,11,0.204371106783336,1
99,896,11,0.116051469125101,1
100,889,11,0.140885156636323,1
100,894,11,0.168660672611219,1
100,895,11,0.184965702943647,1
111,890,11,0.0582602085647488,1
84,895,12,0.0600052890805807,1
84,896,12,0.0704084232600475,1
84,897,12,0.0785042924510811,1
84,898,12,0.0886006797705724,1
84,899,12,0.0993690938049801,1
84,900,12,0.0899994862588634,1
84,901,12,0.0750893586425459,1
85,894,12,0.0620570162084621,1
85,895,12,0.0708921784728217,1
85,896,12,0.0853449219778647,1
85,897,12,0.103046659489072,1
85,898,12,0.134868122791774,1
85,899,12,0.172368642901602,1
85,900,12,0.195449064948674,2
85,901,12,0.202014950291653,2
85,902,12,0.137488650755379,1
86,893,12,0.0649848335502305,1
86,894,12,0.082937621353063,1
86,895,12,0.0832642290962789,1
86,896,12,0.0867530338324721,1
86,897,12,0.101980163081911,1
86,898,12,0.144121395568126,1
86,899,12,0.217801710640046,2
86,900,12,0.332278803776644,2
86,901,12,0.395180155194168,2
86,902,12,0.263344343464774,2
86,903,12,0.120124695682678,1
87,893,12,0.0827127593578962,1
87,894,12,0.122632356275374,1
87,895,12,0.108638052433298,1
87,896,12,0.0873886351685953,1
87,897,12,0.0866039592694327,1
87,898,12,0.113121788351295,1
87,899,12,0.189206461476538,2
87,900,12,0.340721330296112,2
87,901,12,0.427889284397752,2
87,902,12,0.284021810929487,2
87,903,12,0.12934369546218,1
88,893,12,0.0884725216424658,1
88,894,12,0.136605171679645,1
88,895,12,0.116327103746366,1
88,896,12,0.0828057894333119,1
88,897,12,0.0688474863905774,1
88,898,12,0.0742984319903445,1
88,899,12,0.103906338527764,1
88,900,12,0.179033431669079,2
88,901,12,0.226176469561475,2
88,902,12,0.153058745850797,1
89,894,12,0.093766166452317,1
89,895,12,0.0801500862415217,1
89,896,12,0.0619007178978071,1
89,900,12,0.0697696021964156,1
89,901,12,0.0767056264702833,1
92,899,12,0.0582929129764029,1
92,900,12,0.0593909638925369,1
93,894,12,0.0580037802667359,1
93,898,12,0.0674516106798904,1
93,899,12,0.0916064958957791,1
93,900,12,0.0955682231717915,1
93,901,12,0.0778781026261371,1
94,894,12,0.058034137697532,1
94,895,12,0.0569230958295636,1
94,898,12,0.0824467072589783,1
94,899,12,0.121882973543133,1
94,900,12,0.134746091581033,1
94,901,12,0.107964480720932,1
94,902,12,0.0668820963148108,1
95,889,12,0.173646992661286,1
95,898,12,0.0692358704440148,1
95,899,12,0.103352002878083,1
95,900,12,0.121924039811211,1
95,901,12,0.101441737367794,1
95,902,12,0.062431890379624,1
96,888,12,0.192035328218315,1
96,889,12,0.262105538563467,3
96,890,12,0.177149714168396,1
96,891,12,0.0750015886347818,1
96,892,12,0.062600023842495,1
96,893,12,0.0651279286193252,1
96,899,12,0.0664629184572519,1
96,900,12,0.077460039289639,1
96,901,12,0.0674918985523067,1
97,888,12,0.175714694591037,1
97,889,12,0.231841373720211,3
97,890,12,0.16111959903094,1
97,891,12,0.0837748448563096,1
97,892,12,0.0756887999620332,1
97,893,12,0.0792522717123563,1
97,894,12,0.0703052622471594,1
97,895,12,0.0604956606564772,1
98,888,12,0.191568727194776,1
98,889,12,0.215545283144016,1
98,890,12,0.146335058478271,1
98,891,12,0.0905999477484221,1
98,892,12,0.076387657739522,1
98,893,12,0.0983268927775544,1
98,894,12,0.144903541681389,1
98,895,12,0.159622696998497,1
99,888,12,0.270993165874795,3
99,889,12,0.276823113501504,3
99,890,12,0.166213597147505,1
99,891,12,0.0887711720081749,1
99,892,12,0.0669364955570591,1
99,893,12,0.11996040702262,1
99,894,12,0.239883568992227,1
99,895,12,0.271765947652373,1
99,896,12,0.137232676521502,1
100,888,12,0.255957698866175,1
100,889,12,0.25615892593853,3
100,890,12,0.146585961346475,1
100,891,12,0.072235736559961,1
100,893,12,0.10651590998274,1
100,894,12,0.20655375180576,1
100,895,12,0.226269947804089,1
101,889,12,0.128771657208137,1
101,894,12,0.0983126988506068,1
101,916,12,0.0579622127590277,1
84,896,13,0.0646583260549408,1
84,897,13,0.0752484285135105,1
84,898,13,0.0855890433687153,1
84,899,13,0.103894214425644,1
84,900,13,0.0991787524780108,1
84,901,13,0.0839227341350463,1
85,894,13,0.0613401373920235,1
85,895,13,0.070227853157404,1
85,896,13,0.0828762932100405,1
85,897,13,0.105361065668005,1
85,898,13,0.136494910754815,1
85,899,13,0.190136479177727,1
85,900,13,0.217790836688533,2
85,901,13,0.222310343425335,2
85,902,13,0.145972561977514,1
86,893,13,0.0691589802847003,1
86,894,13,0.0861832953837929,1
86,895,13,0.0867715384202418,1
86,896,13,0.0875735690044923,1
86,897,13,0.10746759302984,1
86,898,13,0.146721272458956,1
86,899,13,0.235509928884829,2
86,900,13,0.347919461618159,2
86,901,13,0.415234269260551,2
86,902,13,0.277946220502225,2
86,903,13,0.117814051749442,1
87,893,13,0.0876293068514009,1
87,894,13,0.125037940891558,1
87,895,13,0.111410119879536,1
87,896,13,0.0870269406512464,1
87,897,13,0.0886249102840031,1
87,898,13,0.110449402725215,1
87,899,13,0.189722502418452,2
87,900,13,0.330263018478736,2
87,901,13,0.42194220001787,2
87,902,13,0.284885735762695,2
87,903,13,0.121541234260014,1
88,893,13,0.0905854766654436,1
88,894,13,0.134333306002997,1
88,895,13,0.114926805333058,1
88,896,13,0.0805587911392722,1
88,897,13,0.0692025055754358,1
88,898,13,0.0729926084019745,1
88,899,13,0.103724500583702,1
88,900,13,0.170287743627228,2
88,901,13,0.217030273364065,2
88,902,13,0.148705792197796,1
89,894,13,0.0912204647201366,1
89,895,13,0.0790766078611546,1
89,896,13,0.0622152369205234,1
89,901,13,0.0804843364148681,1
93,893,13,0.057114675513267,1
93,894,13,0.063389340630942,1
93,898,13,0.0585444821984686,1
93,899,13,0.0752966064874042,1
93,900,13,0.0807490734968732,1
93,901,13,0.0696631388989032,1
94,893,13,0.0579195838026902,1
94,894,13,0.0640704368347017,1
94,895,13,0.0590917886994499,1
94,898,13,0.0700971180679031,1
94,899,13,0.0999424175912513,1
94,900,13,0.113849116539794,1
94,901,13,0.0979180876318779,1
94,902,13,0.0645253678202553,1
95,888,13,0.182287243472633,1
95,889,13,0.248507060709106,3
95,890,13,0.14009923648349,1
95,893,13,0.0581660344835883,1
95,898,13,0.0623370145629808,1
95,899,13,0.0894269349713168,1
95,900,13,0.105464144123778,1
95,901,13,0.0927347155407307,1
95,902,13,0.0605706284143854,1
96,887,13,0.109781303370227,1
96,888,13,0.300993784817284,3
96,889,13,0.405672692832901,3
96,890,13,0.234454896122863,3
96,891,13,0.0790180394845681,1
96,892,13,0.0676196674825826,1
96,893,13,0.072314678853292,1
96,894,13,0.0589138604245059,1
96,899,13,0.0606750218870707,1
96,900,13,0.0678130516289557,1
96,901,13,0.0611069548189909,1
97,887,13,0.101349013933094,1
97,888,13,0.250384079289552,3
97,889,13,0.335233145540269,3
97,890,13,0.203583417549454,3
97,891,13,0.0898252376725007,1
97,892,13,0.083745018149828,1
97,893,13,0.0896475688627772,1
97,894,13,0.0773835914005866,1
97,895,13,0.0641116269384529,1
98,887,13,0.115851834225689,1
98,888,13,0.244149884849335,3
98,889,13,0.28607227021595,3
98,890,13,0.192517473567334,1
98,891,13,0.104585476948497,1
98,892,13,0.082893388429908,1
98,893,13,0.104719337414517,1
98,894,13,0.147790622983542,1
98,895,13,0.15996299742903,1
98,896,13,0.0802784212777332,1
99,887,13,0.179956432015442,3
99,888,13,0.375009729945768,3
99,889,13,0.397141429208028,3
99,890,13,0.248957964086806,3
99,891,13,0.115856681507763,1
99,892,13,0.0740779985947364,1
99,893,13,0.129098571592068,1
99,894,13,0.251446046849229,1
99,895,13,0.281503205622036,1
99,896,13,0.137357821314889,1
100,887,13,0.16774406454438,1
100,888,13,0.343576084590568,3
100,889,13,0.346930333022195,3
100,890,13,0.202273448414493,3
100,891,13,0.0879097651669923,1
100,892,13,0.061038361649795,1
100,893,13,0.110586423949376,1
100,894,13,0.206488177868221,1
100,895,13,0.224465107730431,1
100,896,13,0.104462219174895,1
100,915,13,0.0622253383733116,1
100,916,13,0.0672095709077405,1
101,888,13,0.157540618336756,1
101,889,13,0.14954268547258,3
101,890,13,0.0927683221837197,1
101,893,13,0.0697283590202329,1
101,894,13,0.0979579214401584,1
101,895,13,0.0955901126013011,1
101,916,13,0.0594891596846148,1
114,887,13,0.0580316727779375,1
84,896,14,0.0607124438481881,1
84,897,14,0.0682838453745796,1
84,898,14,0.0768599257193532,1
84,899,14,0.0965318180312855,1
84,900,14,0.10555935606582,1
84,901,14,0.091416390446283,1
85,894,14,0.0602028954337235,1
85,895,14,0.0680240912041951,1
85,896,14,0.0803649588257,1
85,897,14,0.0995441148900674,1
85,898,14,0.12668133462871,1
85,899,14,0.189875315639441,1
85,900,14,0.242771298957431,2
85,901,14,0.235796944594174,2
85,902,14,0.137303392587956,1
86,893,14,0.0710265342815356,1
86,894,14,0.0849429985574677,1
86,895,14,0.0857744430626218,1
86,896,14,0.0896441486394163,1
86,897,14,0.107772594396514,1
86,898,14,0.142794171996004,1
86,899,14,0.238280333394882,2
86,900,14,0.355856620651375,2
86,901,14,0.392350144446647,2
86,902,14,0.243754884432776,2
87,892,14,0.0569201591550227,1
87,893,14,0.0892736794800657,1
87,894,14,0.117345009394056,1
87,895,14,0.105496211666255,1
87,896,14,0.0875577180382957,1
87,897,14,0.0895353619487933,1
87,898,14,0.108418544856772,1
87,899,14,0.179374828929863,1
87,900,14,0.290382577221803,2
87,901,14,0.345226377743809,2
87,902,14,0.225226874030013,2
88,893,14,0.0912464230360582,1
88,894,14,0.122708214470743,1
88,895,14,0.105865855254449,1
88,896,14,0.078914672078891,1
88,897,14,0.0706752773423742,1
88,898,14,0.074170722029437,1
88,899,14,0.0992399744761704,1
88,900,14,0.144599731495955,1
88,901,14,0.171346373520659,2
89,894,14,0.08370358037473,1
89,895,14,0.0736740053495124,1
90,908,14,0.0572312933359991,1
90,909,14,0.0688132782600319,1
90,910,14,0.0623475877707154,1
91,909,14,0.0665498098214285,1
91,910,14,0.0613782905733077,1
93,893,14,0.0593033766898144,1
93,894,14,0.064561987797964,1
93,899,14,0.0596707912358876,1
93,900,14,0.0650636814925723,1
93,901,14,0.0613894888563462,1
94,889,14,0.0692773848792916,1
94,893,14,0.0606380657839628,1
94,894,14,0.065894035064413,1
94,895,14,0.0584367038840434,1
94,898,14,0.0578748260521574,1
94,899,14,0.0771682588553357,1
94,900,14,0.0886132697307025,1
94,901,14,0.0824943604054941,1
94,902,14,0.0618931403339817,1
95,888,14,0.197871408659326,3
95,889,14,0.266698591896401,3
95,890,14,0.132827086810364,1
95,893,14,0.0617585486477946,1
95,894,14,0.0597462012640579,1
95,899,14,0.0756436353228592,1
95,900,14,0.0854139692111965,1
95,901,14,0.0767787307961535,1
96,887,14,0.126381027223751,3
96,888,14,0.356883607581781,3
96,889,14,0.468488137674699,3
96,890,14,0.248299087541018,3
96,891,14,0.0777645983860508,1
96,892,14,0.069705720679746,1
96,893,14,0.0763485787391557,1
96,894,14,0.0628598192914373,1
96,900,14,0.058499683169378,1
97,887,14,0.10889020545211,1
97,888,14,0.280433501281239,3
97,889,14,0.37175867790865,3
97,890,14,0.207698465183023,3
97,891,14,0.0880025829526821,1
97,892,14,0.0849429926605309,1
97,893,14,0.0918421139037222,1
97,894,14,0.0792944937800526,1
97,895,14,0.0633726640935894,1
98,887,14,0.111816961345249,1
98,888,14,0.243637558977624,3
98,889,14,0.292081673424242,3
98,890,14,0.198156372234655,3
98,891,14,0.101761386725552,1
98,892,14,0.0835005783243887,1
98,893,14,0.101631559764323,1
98,894,14,0.130228908237341,1
98,895,14,0.130496853252982,1
98,896,14,0.0687194520981443,1
99,887,14,0.181374562765722,3
99,888,14,0.384815699023363,3
99,889,14,0.420010835267607,3
99,890,14,0.275023132503793,3
99,891,14,0.122104368139445,1
99,892,14,0.0764561860424128,1
99,893,14,0.120666907230239,1
99,894,14,0.21017060262826,1
99,895,14,0.223417481521123,1
99,896,14,0.111452707557316,1
100,887,14,0.169552584306619,3
100,888,14,0.345268128056559,3
100,889,14,0.34996282099268,3
100,890,14,0.209589306183396,3
100,891,14,0.0877649187076594,1
100,892,14,0.0641813287317727,1
100,893,14,0.103746625890685,1
100,894,14,0.173046436820738,1
100,895,14,0.18019296994553,1
100,896,14,0.0869282318256643,1
100,915,14,0.0711691045232525,1
100,916,14,0.0741756754563734,1
101,888,14,0.160236155336827,3
101,889,14,0.148420356867521,3
101,890,14,0.0922245420509622,1
101,893,14,0.0682761262842703,1
101,894,14,0.0874478934867908,1
101,895,14,0.083589722318434,1
101,915,14,0.0573929165806107,1
101,916,14,0.0596125059122689,1
111,889,14,0.0648917032268888,1
111,890,14,0.0667679080300523,1
112,887,14,0.0605896755203433,1
112,888,14,0.0674457019491877,1
112,889,14,0.0669705739549944,1
112,890,14,0.0679974606374749,1
112,891,14,0.0611207831358551,1
113,887,14,0.0762969038817224,1
113,888,14,0.0734964190969044,1
113,889,14,0.057444556056423,1
114,887,14,0.0735547633898914,1
114,888,14,0.065090671772439,1
84,900,15,0.100803535482529,1
85,895,15,0.0616287747589969,1
85,896,15,0.0739142760406136,1
85,897,15,0.0872484885679152,1
85,898,15,0.109672964846803,1
85,899,15,0.162552023956094,1
85,900,15,0.23011751038309,1
85,901,15,0.210445659349716,1
86,894,15,0.076600885078325,1
86,895,15,0.077909126410795,1
86,896,15,0.0864890810430653,1
86,897,15,0.100365511014865,1
86,898,15,0.130572416601509,1
86,899,15,0.208463321477503,1
86,900,15,0.31699304718125,2
86,901,15,0.311530879710697,2
86,902,15,0.17505269266873,1
87,893,15,0.0829226726182013,1
87,894,15,0.10023208692217,1
87,895,15,0.0909781183072716,1
87,896,15,0.0851858403130264,1
87,897,15,0.0901287589080307,1
87,898,15,0.109139197712781,1
87,899,15,0.15822682128781,1
87,900,15,0.232471260924547,1
87,901,15,0.239609007613464,2
87,902,15,0.145962855619493,1
88,893,15,0.0884740135674836,1
88,894,15,0.106239025210867,1
88,895,15,0.0911895824619626,1
88,896,15,0.0761030538773397,1
88,897,15,0.074705686241635,1
88,898,15,0.0808010962735794,1
88,899,15,0.0958054923220467,1
88,900,15,0.117288929524812,1
88,901,15,0.120914000677251,1
89,894,15,0.077279003328986,1
89,909,15,0.0598741529993755,1
90,908,15,0.075790728515124,1
90,909,15,0.088573777944758,1
90,910,15,0.0707229776643847,1
91,893,15,0.0570372015572065,1
91,908,15,0.0728502504499835,1
91,909,15,0.085125437989086,1
91,910,15,0.0685500213091709,1
93,893,15,0.0574947507827122,1
93,894,15,0.0588170150309617,1
94,888,15,0.0605080265330078,1
94,889,15,0.0676258179876953,1
94,893,15,0.0587877544304158,1
94,894,15,0.0611357436645905,1
94,899,15,0.0582541111320675,1
94,900,15,0.0663976924389853,1
94,901,15,0.0686721763555855,1
94,902,15,0.0601471163082571,1
95,887,15,0.0765916681660611,1
95,888,15,0.180486979421955,1
95,889,15,0.231921784350813,3
95,890,15,0.114663129699682,1
95,893,15,0.0618626118920176,1
95,894,15,0.0581981138199385,1
95,899,15,0.0597544510786818,1
95,900,15,0.0650108272477732,1
95,901,15,0.0622046165372942,1
96,887,15,0.127575463572357,1
96,888,15,0.334311171260915,3
96,889,15,0.420926322916449,3
96,890,15,0.220267314279277,3
96,891,15,0.0778587311886536,1
96,892,15,0.0717604021729788,1
96,893,15,0.0761366074478973,1
96,894,15,0.0619380690956826,1
97,887,15,0.108578623103934,1
97,888,15,0.256798295417288,3
97,889,15,0.327768071681843,3
97,890,15,0.180473251353017,3
97,891,15,0.0857596771328017,1
97,892,15,0.0839787137563648,1
97,893,15,0.0879250854088743,1
97,894,15,0.0724099851463238,1
98,887,15,0.105686906809434,1
98,888,15,0.207574086991423,1
98,889,15,0.24944802312505,3
98,890,15,0.175275349209523,1
98,891,15,0.0953744557245245,1
98,892,15,0.0818201636178245,1
98,893,15,0.0928494050651196,1
98,894,15,0.100492637179026,1
98,895,15,0.0903923048087963,1
99,886,15,0.0666988548997837,1
99,887,15,0.157246679623574,1
99,888,15,0.308296032455986,3
99,889,15,0.345725565240265,3
99,890,15,0.241512444470905,3
99,891,15,0.114772624022724,1
99,892,15,0.0765266603344573,1
99,893,15,0.101999717324436,1
99,894,15,0.14371076826897,1
99,895,15,0.140125371707516,1
99,896,15,0.0748149800688253,1
100,887,15,0.148026866066789,1
100,888,15,0.273281932172395,3
100,889,15,0.279457511060531,3
100,890,15,0.179723668124924,1
100,891,15,0.0830419086808854,1
100,892,15,0.0661965950992398,1
100,893,15,0.0891545200775603,1
100,894,15,0.12298827179463,1
100,895,15,0.119472447293886,1
100,896,15,0.0644748959379352,1
100,915,15,0.0661739095832583,1
100,916,15,0.0647691471887698,1
101,887,15,0.0907016345271029,1
101,888,15,0.13711086939436,1
101,889,15,0.126304779830551,1
101,890,15,0.0853558607956827,1
101,893,15,0.0619912712597546,1
101,894,15,0.0695766249386836,1
101,895,15,0.0647337891555426,1
102,888,15,0.0575196181653205,1
110,890,15,0.0693061206524597,1
111,888,15,0.0771243856453273,1
111,889,15,0.105853436305487,1
111,890,15,0.0961357207844756,1
111,891,15,0.0576933832028632,1
112,887,15,0.0639171282710191,1
112,888,15,0.0780575700015936,1
112,889,15,0.0890010463996464,1
112,890,15,0.0837292261529998,1
112,891,15,0.0593205839514817,1
113,886,15,0.0590180946798968,1
113,887,15,0.081804206506765,1
113,888,15,0.0766671017819788,1
113,889,15,0.0599525704653287,1
114,887,15,0.072157106804282,1
114,888,15,0.0630508505600156,1
144,892,15,0.0627799629728978,1
145,892,15,0.0594022683204382,1
85,899,16,0.122951651816922,1
85,900,16,0.176680895896609,1
86,895,16,0.0714227258793347,1
86,896,16,0.0783921091248446,1
86,897,16,0.0882200796737494,1
86,898,16,0.109618595089239,1
86,899,16,0.163258854392175,1
86,900,16,0.237543688046192,1
86,901,16,0.209824924191339,1
87,894,16,0.08587083439203,1
87,895,16,0.0809419269189317,1
87,896,16,0.0803637617475237,1
87,897,16,0.0897298016468588,1
87,898,16,0.107288738935813,1
87,899,16,0.134369831629716,1
87,900,16,0.16939093747426,1
87,901,16,0.149030831355815,1
88,894,16,0.0940109659909029,1
89,898,16,0.0799260085389532,1
89,899,16,0.0780342004409399,1
89,908,16,0.057602234250296,1
89,909,16,0.0619510541505802,1
90,898,16,0.0604819325875391,1
90,899,16,0.0590067312826272,1
90,907,16,0.0611894057897352,1
90,908,16,0.09337925073615,1
90,909,16,0.100804184145581,1
90,910,16,0.0726150865061763,1
91,907,16,0.0614785856748969,1
91,908,16,0.0959389871779836,1
91,909,16,0.102528814084489,1
91,910,16,0.0721149201182067,1
92,908,16,0.061034357629688,1
92,909,16,0.0625314365702359,1
94,888,16,0.0598816421091484,1
94,889,16,0.0628424764002229,1
94,901,16,0.0576317896976834,1
95,887,16,0.0699173381547947,1
95,888,16,0.137999950560082,1
95,889,16,0.166822573813845,1
95,890,16,0.0910554743245955,1
95,893,16,0.0593989070664456,1
96,887,16,0.108581465427486,1
96,888,16,0.246341186575024,1
96,889,16,0.296843308387246,3
96,890,16,0.164487351447906,1
96,891,16,0.0723271272869382,1
96,892,16,0.0674638763084949,1
96,893,16,0.0693589218248274,1
97,887,16,0.0968009601251019,1
97,888,16,0.194765928404771,1
97,889,16,0.236198950571687,3
97,890,16,0.138204338390578,1
97,891,16,0.0776540662021264,1
97,892,16,0.0744258647952211,1
97,893,16,0.0753918891926886,1
97,894,16,0.0606686237106112,1
98,886,16,0.0574471212239437,1
98,887,16,0.0936909215383778,1
98,888,16,0.155224808686858,1
98,889,16,0.181768466352031,1
98,890,16,0.133089677407363,1
98,891,16,0.0814728576263386,1
98,892,16,0.0713460774944302,1
98,893,16,0.076417260362404,1
98,894,16,0.0710730729069908,1
98,895,16,0.0584051906536287,1
99,886,16,0.064728599851133,1
99,887,16,0.119722418446071,1
99,888,16,0.19974000641398,1
99,889,16,0.225167975424964,3
99,890,16,0.166666116285896,1
99,891,16,0.0918931283042306,1
99,892,16,0.067987140998024,1
99,893,16,0.0797984872800242,1
99,894,16,0.0866909272937881,1
99,895,16,0.0751088951942607,1
100,886,16,0.0643494621946436,1
100,887,16,0.113186041374985,1
100,888,16,0.176014129249344,1
100,889,16,0.180096696554859,1
100,890,16,0.125567108414853,1
100,891,16,0.0701839150810904,1
100,892,16,0.0599575120983915,1
100,893,16,0.070447944530676,1
100,894,16,0.0766693779995949,1
100,895,16,0.0675033916821866,1
101,886,16,0.0584390154832804,1
101,887,16,0.0791215543136659,1
101,888,16,0.101019127493001,1
101,889,16,0.0927995759489138,1
101,890,16,0.0689034837027065,1
110,890,16,0.0778745703609765,1
111,889,16,0.133839980061749,1
111,890,16,0.113239503004277,1
111,891,16,0.0607713837317949,1
112,887,16,0.061787897702393,1
112,888,16,0.0758093451446934,1
112,889,16,0.0973060799400079,1
112,890,16,0.0850323135626811,1
113,886,16,0.0595843421419731,1
113,887,16,0.0777960113685394,1
113,888,16,0.0712813055402995,1
113,889,16,0.0576865840346993,1
114,887,16,0.0665737631788282,1
114,888,16,0.0597543449338189,1
144,892,16,0.0691354043312576,1
145,892,16,0.0757742996491181,1
145,893,16,0.0586988581077173,1
86,899,17,0.114494748565464,1
86,900,17,0.145994427819276,1
89,898,17,0.0995374749391979,1
89,899,17,0.0966717169606187,1
89,908,17,0.0610521840697224,1
89,909,17,0.0612221750676945,1
90,898,17,0.0662334155728006,1
90,899,17,0.064492775450401,1
90,907,17,0.0638814871848241,1
90,908,17,0.0988161321415797,1
90,909,17,0.0964292467120803,1
90,910,17,0.0661308678413428,1
91,907,17,0.0666905579096652,1
91,908,17,0.107542448745948,1
91,909,17,0.104230245473912,1
91,910,17,0.0682855260015758,1
92,908,17,0.0660302130266071,1
92,909,17,0.0633937987151848,1
94,888,17,0.0586954614721038,1
94,889,17,0.0598205085650413,1
95,887,17,0.0613861040146063,1
95,888,17,0.0954816207575196,1
95,889,17,0.108800324340961,1
95,890,17,0.0733381747970958,1
96,887,17,0.0811847568806167,1
96,888,17,0.147425932822284,1
96,889,17,0.170751891525045,1
96,890,17,0.10974304404408,1
96,891,17,0.0639868654459599,1
96,892,17,0.0572839176002618,1
97,887,17,0.0773254358095782,1
97,888,17,0.126348971475148,1
97,889,17,0.144865235179748,1
97,890,17,0.0981898951411411,1
97,891,17,0.0660416412901818,1
97,892,17,0.0598305451515244,1
97,893,17,0.0569354734999679,1
98,887,17,0.076224737168808,1
98,888,17,0.106803562561263,1
98,889,17,0.119021992083386,1
98,890,17,0.0936085295370018,1
98,891,17,0.0658463760209603,1
98,892,17,0.0571905926780047,1
99,887,17,0.0823409162122644,1
99,888,17,0.113593873526084,1
99,889,17,0.125028753463979,1
99,890,17,0.100354931910193,1
99,891,17,0.0670941206785006,1
99,893,17,0.0578302805913505,1
100,887,17,0.07617374045911,1
100,888,17,0.0971454886593413,1
100,889,17,0.0987929159012836,1
100,890,17,0.077773461482105,1
101,887,17,0.0609399358771807,1
101,888,17,0.0663659020525397,1
101,889,17,0.0618074401510446,1
111,890,17,0.0976982675177,1
112,889,17,0.0809427406962141,1
112,890,17,0.0661548801681108,1
113,887,17,0.0609849000205025,1
113,888,17,0.0581662939488087,1
144,892,17,0.0640541141135588,1
145,891,17,0.0580446165542773,1
145,892,17,0.0797889696239821,1
145,893,17,0.0603059620956223,1
146,892,17,0.0569963947543492,1
89,898,18,0.110331723453854,1
89,899,18,0.108708037279585,1
89,900,18,0.0787178912969044,1
89,908,18,0.057968893988455,1
90,894,18,0.0662440831315244,1
90,898,18,0.0679147796861943,1
90,899,18,0.067133577082824,1
90,900,18,0.057792033059077,1
90,907,18,0.0609659118839128,1
90,908,18,0.0884274572512179,1
90,909,18,0.0803960356827893,1
91,907,18,0.0640992315772381,1
91,908,18,0.0979401362786819,1
91,909,18,0.0885833486732317,1
91,910,18,0.0574952048468481,1
92,908,18,0.062433028488432,1
95,888,18,0.0670799031638057,1
95,889,18,0.0718116937295182,1
95,890,18,0.0589762677069681,1
96,887,18,0.0615461232924004,1
96,888,18,0.085914619147986,1
96,889,18,0.0945943794360887,1
96,890,18,0.0731950620371907,1
97,887,18,0.0630605746088467,1
97,888,18,0.0836790196328369,1
97,889,18,0.0884240665125412,1
97,890,18,0.068956461783179,1
98,887,18,0.0628209761685441,1
98,888,18,0.0762094346177365,1
98,889,18,0.076597158214249,1
98,890,18,0.0632209182181665,1
99,887,18,0.0593491310226713,1
99,888,18,0.0671538448547056,1
99,889,18,0.0668236989493923,1
99,890,18,0.0577192766524797,1
145,892,18,0.0682320525784097,1
146,892,18,0.0573036664417025,1
88,900,19,0.0931359785042028,1
89,898,19,0.106418339265966,1
89,899,19,0.109209265116184,1
89,900,19,0.0848380625665941,1
89,901,19,0.0695014448910496,1
90,893,19,0.0629369217404776,1
90,894,19,0.0668780922947038,1
90,895,19,0.0631123615080798,1
90,896,19,0.0594359811082901,1
90,897,19,0.0602622186182241,1
90,898,19,0.067356363356227,1
90,899,19,0.067785300644238,1
90,900,19,0.0604726920875279,1
90,908,19,0.0696599132744577,1
90,909,19,0.0627972586886175,1
91,908,19,0.0757160673979309,1
91,909,19,0.0680334673337533,1
95,888,19,0.0583246620842907,1
95,889,19,0.0585278646304843,1
96,888,19,0.0652761481265243,1
96,889,19,0.0674747679508182,1
96,890,19,0.058143997630658,1
97,887,19,0.0576748078518516,1
97,888,19,0.0678652277260194,1
97,889,19,0.0670041216286151,1
98,888,19,0.063471874158802,1
98,889,19,0.0598788764457756,1
88,899,20,0.140208329814828,1
88,900,20,0.14089749302817,1
89,898,20,0.0929319150052322,1
89,899,20,0.114882153727388,1
89,900,20,0.113691503212227,1
89,901,20,0.0902638223491641,1
89,902,20,0.0588922776357114,1
90,893,20,0.0639992843949219,1
90,894,20,0.0704369939189844,1
90,895,20,0.0762735461149423,1
90,896,20,0.068054006364729,1
90,897,20,0.060481177779625,1
90,898,20,0.0628059802581877,1
90,899,20,0.0665666573699492,1
90,900,20,0.0640982998612191,1
91,908,20,0.0573022452799266,1
97,888,20,0.0568648989599973,1
87,900,21,0.156870537610993,1
88,899,21,0.158506878611697,1
88,900,21,0.214960023957603,1
88,901,21,0.168431588409283,1
89,896,21,0.108837368898121,1
89,899,21,0.116230500127232,1
89,900,21,0.150200052402539,1
89,901,21,0.117629642740923,1
89,902,21,0.0656741323931194,1
90,892,21,0.0653706642300209,1
90,893,21,0.06438902474383,1
90,894,21,0.0701094603566864,1
90,895,21,0.0819900897494915,1
90,896,21,0.07183039881314,1
90,897,21,0.0608228698872496,1
90,898,21,0.0592740158413424,1
90,899,21,0.0639483584484659,1
90,900,21,0.0670082258966481,1
90,901,21,0.0573324199056811,1
91,911,21,0.0571439597015603,1
92,910,21,0.0579500296875388,1
92,911,21,0.0627882304783322,1
92,912,21,0.0578486731373204,1
93,911,21,0.0591476739697792,1
93,912,21,0.0597169583543225,1
87,900,22,0.189797546836539,1
88,899,22,0.161381234324173,1
88,900,22,0.26919726555737,1
88,901,22,0.228840422567889,1
89,895,22,0.113473823686118,1
89,896,22,0.103582561314226,1
89,897,22,0.0785439847328777,1
89,900,22,0.16544359872411,1
89,901,22,0.137135553971927,1
89,902,22,0.073340344869849,1
90,892,22,0.0670214350351453,1
90,893,22,0.0591367115642139,1
90,894,22,0.0618011009439533,1
90,895,22,0.0760396794972375,1
90,896,22,0.0712656373791446,1
90,897,22,0.0623292777818611,1
90,899,22,0.0577607557061355,1
90,900,22,0.063291769914168,1
91,910,22,0.0629869218678514,1
91,911,22,0.0724988991598327,1
91,912,22,0.0632078447092164,1
92,910,22,0.0698232584246234,1
92,911,22,0.0847997206833314,1
92,912,22,0.0739687932215985,1
93,911,22,0.0696566345775807,1
93,912,22,0.068550776117085,1
94,886,22,0.0595388826559577,1
94,887,22,0.0577041451125763,1
94,912,22,0.0592770232791252,1
95,886,22,0.0639942248231226,1
95,887,22,0.0611938815647885,1
96,886,22,0.059250292464479,1
96,887,22,0.0584325996160103,1
88,900,23,0.241470080876725,1
89,895,23,0.090235051194375,1
89,896,23,0.0911429435885814,1
89,901,23,0.128009949877924,1
89,902,23,0.067426749194219,1
90,892,23,0.0702859143974232,1
90,893,23,0.059824760256495,1
90,894,23,0.0594158725537029,1
90,895,23,0.0719607034262524,1
90,896,23,0.0741066871924099,1
90,897,23,0.0677096488416576,1
90,898,23,0.0573927396725058,1
90,900,23,0.0583867509321642,1
91,896,23,0.0579579492737002,1
91,910,23,0.0648320026384311,1
91,911,23,0.0814249155299181,1
91,912,23,0.069862986088041,1
92,910,23,0.0752242038970166,1
92,911,23,0.098203593725395,1
92,912,23,0.0848909050175196,1
92,913,23,0.0653892454779694,1
93,886,23,0.0570211088165999,1
93,911,23,0.073830421598904,1
93,912,23,0.0724001726434402,1
93,913,23,0.0602356941963669,1
94,885,23,0.0662403503705116,1
94,886,23,0.0968553829550975,1
94,887,23,0.079844624913775,1
94,912,23,0.0604006079317291,1
94,915,23,0.0909893460749941,1
94,916,23,0.122998178648503,1
95,885,23,0.0829211865901203,1
95,886,23,0.123757291326512,1
95,887,23,0.101112853406962,1
95,915,23,0.0708970906212003,1
95,916,23,0.0955592834155587,1
96,885,23,0.0668892139175635,1
96,886,23,0.0964609250567262,1
96,887,23,0.0808092399433403,1
96,916,23,0.057241783986618,1
117,891,23,0.0586773991545963,1
89,896,24,0.0760605133750547,1
90,892,24,0.0661564428563705,1
90,893,24,0.0571992257935225,1
90,895,24,0.0659035114418973,1
90,896,24,0.0716386540152054,1
90,897,24,0.0669284462382874,1
90,898,24,0.0578798384484621,1
91,895,24,0.0584834489022876,1
91,896,24,0.0625979658115416,1
91,911,24,0.0723148616583337,1
91,912,24,0.0647784348642756,1
92,910,24,0.064761274778103,1
92,911,24,0.0874849557347616,1
92,912,24,0.0820361507230635,1
92,913,24,0.069980983793991,1
92,914,24,0.0589281251146954,1
93,886,24,0.0601044991457933,1
93,911,24,0.0666884821879013,1
93,912,24,0.0713658970991128,1
93,913,24,0.06508042289623,1
93,914,24,0.0632486868936946,1
93,915,24,0.122316657865292,1
93,916,24,0.180912525971289,1
94,885,24,0.0741580848938122,1
94,886,24,0.126885227116512,1
94,887,24,0.0950655623795433,1
94,914,24,0.0589192679155781,1
94,915,24,0.157906122275297,1
94,916,24,0.241938651477164,1
94,917,24,0.165809798501197,1
95,885,24,0.106732893670303,1
95,886,24,0.182484920589018,1
95,887,24,0.137740957094548,1
95,888,24,0.0583039343513365,1
95,915,24,0.105667222834298,1
95,916,24,0.1652360383416,1
96,885,24,0.0774994721062151,1
96,886,24,0.129830369658684,1
96,887,24,0.0976915921852095,1
96,916,24,0.0692977411052256,1
97,886,24,0.0596710683919185,1
116,891,24,0.0576031777601887,1
117,890,24,0.058881079352673,1
117,891,24,0.0647194419082374,1
125,888,24,0.0594657783300875,1
90,895,25,0.0606607336091339,1
90,896,25,0.0659155411930286,1
90,897,25,0.0630503788050693,1
90,898,25,0.0584519356718729,1
91,895,25,0.0580754103583988,1
91,896,25,0.062233947901082,1
92,899,25,0.0604336012932879,1
92,900,25,0.0580955601915438,1
92,911,25,0.0656005740031134,1
92,912,25,0.0678920352008445,1
92,913,25,0.0642915601719188,1
93,886,25,0.0597122997742275,1
93,912,25,0.0635594082890929,1
93,913,25,0.0624749675031605,1
93,914,25,0.06624730875597,1
93,915,25,0.125178547453311,1
93,916,25,0.206061263229542,1
94,885,25,0.0739678556086427,1
94,886,25,0.128747503354885,1
94,887,25,0.0943918255529463,1
94,914,25,0.0665222534356262,1
94,915,25,0.181109979004074,1
94,916,25,0.297473903224002,1
94,917,25,0.18818801331066,1
95,885,25,0.112830786312653,1
95,886,25,0.196616929699927,1
95,887,25,0.145798401845203,1
95,888,25,0.062354917663194,1
95,915,25,0.113306327092424,1
95,916,25,0.192697023499907,1
95,917,25,0.122021881787079,1
96,885,25,0.0799080641601823,1
96,886,25,0.136869767235166,1
96,887,25,0.0992867253913514,1
96,916,25,0.0731991073358555,1
96,917,25,0.0603938618359967,1
97,886,25,0.0615776895952465,1
109,899,25,0.0862399767405941,1
109,900,25,0.101724436519381,1
109,901,25,0.0640562311138804,1
110,899,25,0.107716738610869,1
110,900,25,0.125997537627882,1
110,901,25,0.0774911102497914,1
111,899,25,0.072941145834267,1
111,900,25,0.0837437856900308,1
116,914,25,0.0578300447138773,1
117,891,25,0.0586966703441537,1
124,888,25,0.0602484079921704,1
90,896,26,0.0595484003119999,1
90,897,26,0.0583180693089158,1
90,898,26,0.0569489303098119,1
91,890,26,0.0576894145643772,1
91,891,26,0.0591309384630582,1
92,899,26,0.0594821777114092,1
92,913,26,0.0571946792552273,1
93,913,26,0.0576052888635735,1
93,914,26,0.0595610020660036,1
93,915,26,0.0973956603073785,1
93,916,26,0.16152830392869,1
94,885,26,0.0638793406998183,1
94,886,26,0.0974867738783248,1
94,887,26,0.0758298370001745,1
94,914,26,0.0600722723860224,1
94,915,26,0.14825938228596,1
94,916,26,0.244159461474746,1
94,917,26,0.153504931679033,1
95,885,26,0.0921074170916628,1
95,886,26,0.147027288098764,1
95,887,26,0.112607056529357,1
95,915,26,0.0886453431701159,1
95,916,26,0.15380578160218,1
95,917,26,0.0963586780690466,1
96,885,26,0.0685884221618019,1
96,886,26,0.105125141019347,1
96,887,26,0.078363768446444,1
96,916,26,0.0611820228248252,1
109,899,26,0.115995518988467,1
109,900,26,0.145928334951296,1
109,901,26,0.0764862840079885,1
110,898,26,0.0630790791966164,1
110,899,26,0.157825994697663,1
110,900,26,0.195340466960029,1
110,901,26,0.103145975699148,1
111,899,26,0.089399673432356,1
111,900,26,0.111156020871571,1
111,901,26,0.0572955463596888,1
115,914,26,0.0648008727089103,1
116,914,26,0.0703646679887756,1
91,891,27,0.0596295775443891,1
93,915,27,0.0681725878674252,1
93,916,27,0.0963905922911656,1
94,886,27,0.0650360425496543,1
94,915,27,0.0942735153093443,1
94,916,27,0.139817929008995,1
94,917,27,0.0999640357616668,1
95,885,27,0.0676906489111943,1
95,886,27,0.0872243583024106,1
95,887,27,0.0707678592505909,1
95,915,27,0.0599208626359987,1
95,916,27,0.0931168193564451,1
95,917,27,0.0702834730655759,1
96,886,27,0.0685166092650973,1
109,884,27,0.0581156746430678,1
109,899,27,0.115046831585277,1
109,900,27,0.150613415880385,1
109,901,27,0.072163870590825,1
110,884,27,0.0616388762117851,1
110,885,27,0.0584911915803442,1
110,898,27,0.0667741234014702,1
110,899,27,0.166507995821761,1
110,900,27,0.210937298767031,1
110,901,27,0.104125763547175,1
111,899,27,0.0880324450407846,1
111,900,27,0.112980698240722,1
115,914,27,0.0665338645042426,1
116,914,27,0.0666459829641741,1
93,916,28,0.0572958883820249,1
94,916,28,0.0704391875794848,1
94,917,28,0.0638599338807137,1
95,918,28,0.0622165460404994,1
96,919,28,0.0621470919185264,1
109,884,28,0.0631717259711382,1
109,885,28,0.057195894024214,1
109,899,28,0.0897585786985847,1
109,900,28,0.114424563223324,1
110,884,28,0.0671179266124796,1
110,885,28,0.0629668958703799,1
110,898,28,0.0588722634321135,1
110,899,28,0.131806692655332,1
110,900,28,0.162729002824208,1
110,901,28,0.0810816607340337,1
111,899,28,0.0734802202114349,1
111,900,28,0.0900126187371818,1
109,884,29,0.0583611759171364,1
109,899,29,0.059783876793459,1
109,900,29,0.0689108018013113,1
110,884,29,0.0630001015216645,1
110,885,29,0.0598953112087183,1
110,899,29,0.0852346728469081,1
110,900,29,0.0966636204663524,1
111,899,29,0.0584133697050107,1
111,900,29,0.0636941356048271,1
101,882,30,0.0768764371424746,1
101,883,30,0.0847482758064344,1
102,881,30,0.0590973200261956,1
102,882,30,0.0999256113212884,1
102,883,30,0.112847226972532,1
102,884,30,0.0713466671881131,1
103,882,30,0.0855639990780021,1
103,883,30,0.0936525619643046,1
103,884,30,0.059597456929481,1
104,882,30,0.058871001487632,1
104,883,30,0.0573041676813329,1
110,884,30,0.0611751410995457,1
97,920,31,0.0643873087352127,1
100,882,31,0.0613265036740747,1
100,883,31,0.0630488102198727,1
101,881,31,0.0606912443602876,1
101,882,31,0.10633568779937,1
101,883,31,0.126161684761457,1
101,884,31,0.0755029108223698,1
102,881,31,0.0784099178740684,1
102,882,31,0.163928982293433,1
102,883,31,0.195629098430066,1
102,884,31,0.110403725052537,1
103,881,31,0.0720661052751355,1
103,882,31,0.138854687965711,1
103,883,31,0.161288640622082,1
103,884,31,0.0891600631981796,1
104,881,31,0.0573467612560494,1
104,882,31,0.079539204864586,1
104,883,31,0.0827685148956152,1
106,881,31,0.0611989942090193,1
106,882,31,0.0597062377231672,1
107,881,31,0.0601325036987947,1
107,882,31,0.0600209041693042,1
96,919,32,0.0627522178851169,1
97,919,32,0.0677697032463251,1
97,920,32,0.09298968139841,1
98,920,32,0.0710202717346231,1
100,882,32,0.0660381679943895,1
100,883,32,0.0702791506108802,1
101,881,32,0.0686958643508279,1
101,882,32,0.128488250424131,1
101,883,32,0.157887924328242,1
101,884,32,0.0886135291959229,1
102,881,32,0.0986736503539153,1
102,882,32,0.223694401674617,1
102,883,32,0.273743096220177,1
102,884,32,0.145204721832998,1
103,881,32,0.0939882745779845,1
103,882,32,0.203192238347959,1
103,883,32,0.240787522232631,1
103,884,32,0.123439587957908,1
104,881,32,0.0761805278334003,1
104,882,32,0.112567134267024,1
104,883,32,0.116257095312331,1
104,884,32,0.0610365571871253,1
105,880,32,0.0629910261358845,1
105,881,32,0.0806635856036619,1
105,882,32,0.073200882313841,1
106,881,32,0.0983883093746294,1
106,882,32,0.087790776775655,1
107,881,32,0.0859733290510564,1
107,882,32,0.0814547658241469,1
107,883,32,0.0569898609483426,1
108,881,32,0.0604294203650761,1
108,882,32,0.0622365484502237,1
110,883,32,0.0569815816490345,1
96,919,33,0.0951453538317777,1
97,919,33,0.0999863969461227,1
97,920,33,0.150028062342982,1
98,919,33,0.0625568464710324,1
98,920,33,0.0933841392967813,1
98,921,33,0.0812703745064382,1
100,882,33,0.0678388389337093,1
100,883,33,0.071270626187702,1
101,881,33,0.0741405061251247,1
101,882,33,0.129499598678067,1
101,883,33,0.155166995118185,1
101,884,33,0.0911121910630177,1
102,881,33,0.10366462308714,1
102,882,33,0.225562810727292,1
102,883,33,0.276885880497113,1
102,884,33,0.151424704655457,1
103,881,33,0.108774920337101,1
103,882,33,0.224406869582307,1
103,883,33,0.265322411954723,1
103,884,33,0.141703356621359,1
104,880,33,0.0820044193059862,1
104,881,33,0.12850817027674,1
104,882,33,0.149167392618903,1
104,883,33,0.133468248957917,1
104,884,33,0.0701678046496734,1
105,880,33,0.116354724998474,1
105,881,33,0.172666532562461,1
105,882,33,0.134070031361325,1
105,883,33,0.0617743996139912,1
106,880,33,0.109548232838994,1
106,881,33,0.173067229419997,1
106,882,33,0.138391294875807,1
106,883,33,0.0662266223015735,1
107,881,33,0.11179884595531,1
107,882,33,0.103072228607163,1
107,883,33,0.0658161306319639,1
108,881,33,0.0656204466802274,1
108,882,33,0.067666265077406,1
108,883,33,0.0574122585334101,1
120,907,33,0.0591805375987277,1
121,907,33,0.0597646056039015,1
95,919,34,0.0720401587530875,1
96,919,34,0.117282855679878,1
96,920,34,0.192164294226767,1
97,919,34,0.118190146586527,1
97,920,34,0.190687500748911,1
97,921,34,0.144697891906412,1
98,919,34,0.064144402113349,1
98,920,34,0.106632964178798,1
98,921,34,0.0868002329148521,1
100,882,34,0.0654055917868596,1
100,883,34,0.0653266907720864,1
101,881,34,0.0714144583739003,1
101,882,34,0.112521362243357,1
101,883,34,0.126583763911935,1
101,884,34,0.0799873543727862,1
102,881,34,0.0927058087563945,1
102,882,34,0.18385276226202,1
102,883,34,0.222806039935188,1
102,884,34,0.131038427931365,1
103,880,34,0.0614926026937396,1
103,881,34,0.113661782650608,1
103,882,34,0.199572297530561,1
103,883,34,0.229374614281362,1
103,884,34,0.132945001959198,1
104,880,34,0.118725057726294,1
104,881,34,0.195109861348391,1
104,882,34,0.175561787019059,1
104,883,34,0.129578877096797,1
104,884,34,0.0696050835558208,1
105,879,34,0.0598239228914653,1
105,880,34,0.18275438701436,1
105,881,34,0.292790862635055,1
105,882,34,0.207631240103171,1
105,883,34,0.0822477092287439,1
106,880,34,0.142663224616777,1
106,881,34,0.243482044959567,1
106,882,34,0.180098583574644,1
106,883,34,0.0822008698595104,1
107,880,34,0.0718495520639609,1
107,881,34,0.121719038699285,1
107,882,34,0.111834652155736,1
107,883,34,0.0751462817737571,1
108,881,34,0.0658669327427465,1
108,882,34,0.0727731597948168,1
108,883,34,0.0635785379521665,1
109,882,34,0.0613070084009177,1
109,883,34,0.0581658516785466,1
110,881,34,0.0570160374509269,1
110,882,34,0.0618098873798287,1
110,883,34,0.0601632444304847,1
111,881,34,0.0576642936134853,1
111,882,34,0.0603344266096963,1
111,883,34,0.0597495035486822,1
120,907,34,0.0655942524868326,1
121,907,34,0.0705917590260638,1
95,919,35,0.0693825921292593,1
96,919,35,0.113387858141023,1
96,920,35,0.186967276623797,1
97,919,35,0.112568148540159,1
97,920,35,0.183300124930145,1
97,921,35,0.135308718323896,1
98,919,35,0.0616185553674721,1
98,920,35,0.101685599293424,1
98,921,35,0.0827697827370335,1
99,921,35,0.0592289396562208,1
100,882,35,0.0611780482894024,1
100,883,35,0.0582970408321833,1
101,881,35,0.0664597459052378,1
101,882,35,0.0889319696816305,1
101,883,35,0.0917736622610101,1
101,884,35,0.0638786979337039,1
102,881,35,0.0799488591691659,1
102,882,35,0.128430283535101,1
102,883,35,0.148080976359133,1
102,884,35,0.0972218421974043,1
103,880,35,0.0689267825001182,1
103,881,35,0.10892689619306,1
103,882,35,0.147286753319244,1
103,883,35,0.159928429585338,1
103,884,35,0.104176630524262,1
104,880,35,0.1311534771689,1
104,881,35,0.221124658130984,1
104,882,35,0.169842925888336,1
104,883,35,0.111219813934188,1
104,884,35,0.0642239753789206,1
105,879,35,0.0688592743672988,1
105,880,35,0.207845511199793,1
105,881,35,0.34479920363991,1
105,882,35,0.235406189972132,1
105,883,35,0.0960662430747553,1
106,880,35,0.145526423324772,1
106,881,35,0.256596360712512,1
106,882,35,0.181313517675667,1
106,883,35,0.0894763807866287,1
107,880,35,0.0698413679176255,1
107,881,35,0.117867218531893,1
107,882,35,0.109526013181022,1
107,883,35,0.081558581397023,1
108,881,35,0.0768874054449767,1
108,882,35,0.0968286639343249,1
108,883,35,0.0834366319414141,1
109,881,35,0.07674762445438,1
109,882,35,0.0984655533501536,1
109,883,35,0.0841331840166028,1
110,881,35,0.068166278145018,1
110,882,35,0.0845100100738551,1
110,883,35,0.0750484280040152,1
111,881,35,0.0625695425760254,1
111,882,35,0.069892865866954,1
111,883,35,0.0663997799546228,1
112,882,35,0.0654154632591115,1
112,883,35,0.0630575140986324,1
113,882,35,0.0638837987840611,1
113,883,35,0.0614509880105367,1
113,884,35,0.0568762505633933,1
114,883,35,0.0583838437423074,1
95,919,36,0.0586720801175764,1
96,919,36,0.0883802463749642,1
96,920,36,0.137639211346499,1
97,919,36,0.0862997598861674,1
97,920,36,0.133425401814917,1
97,921,36,0.105544837807347,1
98,920,36,0.0804253139741457,1
98,921,36,0.0718722257860687,1
101,881,36,0.058689069192581,1
101,882,36,0.0666216168211963,1
101,883,36,0.0639620334449726,1
102,881,36,0.0671600307414393,1
102,882,36,0.0843511937711741,1
102,883,36,0.0893341702580585,1
102,884,36,0.0644896264861342,1
103,880,36,0.0695772028384929,1
103,881,36,0.097641132096763,1
103,882,36,0.102857815984058,1
103,883,36,0.100004818976777,1
103,884,36,0.0722270621658855,1
104,880,36,0.12188225411684,1
104,881,36,0.20100322463376,1
104,882,36,0.147273638531736,1
104,883,36,0.0897193581717345,1
105,879,36,0.0681182063159873,1
105,880,36,0.186101653472782,1
105,881,36,0.307024700051129,1
105,882,36,0.214086498911237,1
105,883,36,0.0947339186522754,1
106,880,36,0.125984918183068,1
106,881,36,0.216001753230083,1
106,882,36,0.155447771868366,1
106,883,36,0.0838035334539831,1
107,880,36,0.0657969478964588,1
107,881,36,0.104846133350216,1
107,882,36,0.103862712989103,1
107,883,36,0.0804497921589233,1
108,881,36,0.0957014821502553,1
108,882,36,0.138245746680992,1
108,883,36,0.109335601090811,1
109,881,36,0.112208187722238,1
109,882,36,0.166000470056629,1
109,883,36,0.128510599814714,1
110,881,36,0.0864391929574912,1
110,882,36,0.123617710831767,1
110,883,36,0.0972686167003327,1
111,881,36,0.0745843331786292,1
111,882,36,0.0948432242733393,1
111,883,36,0.0814122607034829,1
112,882,36,0.103370873075936,1
112,883,36,0.0889064477390342,1
112,884,36,0.0597111852531668,1
113,882,36,0.0929565170256832,1
113,883,36,0.0811075777713976,1
113,884,36,0.0605053906022452,1
114,883,36,0.0623368199640655,1
122,902,36,0.0611957037182687,1
122,903,36,0.0603633746725903,1
96,919,37,0.06087468037423,1
97,919,37,0.0582204632105207,1
97,920,37,0.0804731499257033,1
98,920,37,0.058431402537834,1
98,921,37,0.0590585712542917,1
102,881,37,0.0593548215667114,1
102,882,37,0.0606151679782555,1
103,880,37,0.067820770719265,1
103,881,37,0.0840932263726488,1
103,882,37,0.0767317086218783,1
103,883,37,0.0655001609627877,1
104,880,37,0.102390920113678,1
104,881,37,0.152415802828322,1
104,882,37,0.116872122235858,1
104,883,37,0.0736104540613053,1
105,879,37,0.0651035388886001,1
105,880,37,0.14012199865965,1
105,881,37,0.217281223407763,1
105,882,37,0.163739230660147,1
105,883,37,0.086281591423797,1
106,880,37,0.101326770687374,1
106,881,37,0.156724529455105,1
106,882,37,0.122694297699827,1
106,883,37,0.0757145931637236,1
107,880,37,0.0649419864072304,1
107,881,37,0.0926236113539339,1
107,882,37,0.0989007531850771,1
107,883,37,0.0767550251101005,1
108,880,37,0.0571176298786184,1
108,881,37,0.106395164304228,1
108,882,37,0.166726618857762,1
108,883,37,0.122694651516036,1
109,881,37,0.138674996506655,1
109,882,37,0.222186885155882,1
109,883,37,0.163408813495739,1
109,884,37,0.0620149651519339,1
110,881,37,0.0982345467468109,1
110,882,37,0.154463974103295,1
110,883,37,0.112473950871251,1
111,881,37,0.0926298797977832,1
111,882,37,0.135935562708828,1
111,883,37,0.104792223553724,1
112,881,37,0.118067549269851,1
112,882,37,0.174913572135058,1
112,883,37,0.137288119521569,1
112,884,37,0.0655975665653306,1
113,882,37,0.142607380625005,1
113,883,37,0.112756650022838,1
113,884,37,0.0634103042413695,1
114,882,37,0.0727719627166405,1
114,883,37,0.0649926234037818,1
122,902,37,0.0616798658196841,1
122,903,37,0.0631262428973755,1
103,880,38,0.0622493330092691,1
103,881,38,0.0695286474606422,1
103,882,38,0.0619315529804864,1
104,880,38,0.0797259549570264,1
104,881,38,0.103256024334252,1
104,882,38,0.0864753529741272,1
104,883,38,0.0632082987733522,1
105,880,38,0.0935676637647762,1
105,881,38,0.131253158989059,1
105,882,38,0.110704964173514,1
105,883,38,0.0743601611250714,1
106,880,38,0.074975359059766,1
106,881,38,0.102056422268985,1
106,882,38,0.0893042668913981,1
106,883,38,0.0656425483994628,1
107,880,38,0.0596130307396467,1
107,881,38,0.0776490302180744,1
107,882,38,0.0869181952391812,1
107,883,38,0.068190119460618,1
108,880,38,0.0584519474657466,1
108,881,38,0.103764859219361,1
108,882,38,0.165928185404978,1
108,883,38,0.119312027024388,1
109,880,38,0.062792376024923,1
109,881,38,0.145699840443042,1
109,882,38,0.238436319167885,1
109,883,38,0.17352684847033,1
109,884,38,0.0644460186382831,1
110,881,38,0.105355782012607,1
110,882,38,0.169507319419519,1
110,883,38,0.119974960662714,1
111,881,38,0.109814856940784,1
111,882,38,0.175936619911663,1
111,883,38,0.124756951851652,1
112,881,38,0.157086825460011,1
112,882,38,0.255167532918824,1
112,883,38,0.189021946323156,1
112,884,38,0.0729381383964842,1
113,881,38,0.118545425236606,1
113,882,38,0.194107830254645,1
113,883,38,0.143713362921175,1
113,884,38,0.0667692171500284,1
114,882,38,0.0823242573657223,1
114,883,38,0.0703624684313384,1
114,884,38,0.0569068851502205,1
122,903,38,0.0608970533525596,1
103,880,39,0.0569064074983373,1
103,881,39,0.0584866391451121,1
104,880,39,0.063178360025071,1
104,881,39,0.0705693801507974,1
104,882,39,0.0650104380499424,1
105,880,39,0.0659776182470284,1
105,881,39,0.0801669691716634,1
105,882,39,0.0763484136249244,1
105,883,39,0.0632542830867455,1
106,880,39,0.0610739968390532,1
106,881,39,0.0727155349281229,1
106,882,39,0.0703671211144965,1
106,883,39,0.0587676753605128,1
107,880,39,0.0592476034612849,1
107,881,39,0.0717990978724512,1
107,882,39,0.0786297969576146,1
107,883,39,0.0633089948666457,1
108,880,39,0.0632710244904032,1
108,881,39,0.0980844284259528,1
108,882,39,0.141497423793414,1
108,883,39,0.105602014506842,1
109,880,39,0.0695885190602679,1
109,881,39,0.135468195083502,1
109,882,39,0.206588449382062,1
109,883,39,0.156330012587365,1
109,884,39,0.0655369519516644,1
110,880,39,0.0639589906255688,1
110,881,39,0.109308958730217,1
110,882,39,0.163268690482806,1
110,883,39,0.120685199528283,1
111,881,39,0.114586221849557,1
111,882,39,0.184074923460119,1
111,883,39,0.129535251558136,1
112,880,39,0.068686959976216,1
112,881,39,0.168431317150189,1
112,882,39,0.279160446970828,1
112,883,39,0.204801087829166,1
112,884,39,0.0789420102780307,1
113,881,39,0.123998546806063,1
113,882,39,0.209986052093257,1
113,883,39,0.154880793186123,1
113,884,39,0.0705333144851507,1
114,882,39,0.0925919153184775,1
114,883,39,0.0786569228670284,1
114,884,39,0.0594196053147157,1
135,895,39,0.0590151815931032,1
105,881,40,0.0568883628716403,1
105,882,40,0.0571582302886867,1
106,881,40,0.059347727551706,1
106,882,40,0.0592642799986376,1
107,880,40,0.0592545618467432,1
107,881,40,0.0675772449190341,1
107,882,40,0.0700591476916606,1
108,880,40,0.0662719284672314,1
108,881,40,0.0886565060715333,1
108,882,40,0.110093970754779,1
108,883,40,0.0842046018185398,1
109,880,40,0.0720435789764484,1
109,881,40,0.114492696431447,1
109,882,40,0.155751593847674,1
109,883,40,0.122193635969163,1
109,884,40,0.0594599757442477,1
110,880,40,0.0668759045311402,1
110,881,40,0.102337364133396,1
110,882,40,0.139025628370512,1
110,883,40,0.107515936117964,1
111,880,40,0.064547428260933,1
111,881,40,0.106751610547799,1
111,882,40,0.159039289450248,1
111,883,40,0.115611416111167,1
112,881,40,0.145645966028172,1
112,882,40,0.231670905070356,1
112,883,40,0.173476417866568,1
112,884,40,0.0725209596005104,1
113,881,40,0.111000200212799,1
113,882,40,0.180539025786408,1
113,883,40,0.139710899605547,1
113,884,40,0.0671718540997816,1
114,881,40,0.066301371872819,1
114,882,40,0.0891773412230889,1
114,883,40,0.0787046644675967,1
114,884,40,0.0571609900551227,1
135,895,40,0.0569659134878796,1
107,880,41,0.0593302254431973,1
107,881,41,0.0654413095332334,1
107,882,41,0.0652713657107559,1
108,880,41,0.0669642878203346,1
108,881,41,0.0794273104882541,1
108,882,41,0.0856257518004763,1
108,883,41,0.0647478120713222,1
109,880,41,0.0720827228431199,1
109,881,41,0.0955156755677075,1
109,882,41,0.112712033798789,1
109,883,41,0.088339816976064,1
110,880,41,0.0667148709802115,1
110,881,41,0.0893955042980178,1
110,882,41,0.108581547984602,1
110,883,41,0.085925245428152,1
111,880,41,0.0646602425594102,1
111,881,41,0.0930742316786654,1
111,882,41,0.121188361560162,1
111,883,41,0.094024139747779,1
112,881,41,0.107062732934902,1
112,882,41,0.15228683681987,1
112,883,41,0.120702854957149,1
112,884,41,0.05925056962051,1
113,881,41,0.0886435033258252,1
113,882,41,0.12870193182707,1
113,883,41,0.108644550857684,1
113,884,41,0.0587298583046278,1
114,881,41,0.0606293088327716,1
114,882,41,0.0766102317231991,1
114,883,41,0.0719149962688901,1
107,881,42,0.0599309405010396,1
107,882,42,0.0580110865714671,1
108,880,42,0.061561490709777,1
108,881,42,0.0693497461911213,1
108,882,42,0.068192053655898,1
109,880,42,0.0654112528462155,1
109,881,42,0.0777727184680645,1
109,882,42,0.0815338850255828,1
109,883,42,0.0633098794071701,1
110,880,42,0.0613200465282468,1
110,881,42,0.0736492382148302,1
110,882,42,0.0807108200676629,1
110,883,42,0.0649110333858145,1
111,880,42,0.060544799831074,1
111,881,42,0.0759271600456017,1
111,882,42,0.0867780427415642,1
111,883,42,0.0713420086080181,1
112,881,42,0.0754695813354118,1
112,882,42,0.0912061823391365,1
112,883,42,0.0773199693491376,1
113,881,42,0.0671651846642279,1
113,882,42,0.0835496939112382,1
113,883,42,0.0764183748834647,1
114,882,42,0.0628162998976386,1
114,883,42,0.0618954991087134,1
108,881,43,0.062019134286272,1
108,882,43,0.0582229222331785,1
109,880,43,0.0584545833965092,1
109,881,43,0.0657295341146287,1
109,882,43,0.0638841054247762,1
110,881,43,0.0632969710124512,1
110,882,43,0.0639516253514692,1
111,881,43,0.0630890155351734,1
111,882,43,0.0659000735277259,1
111,883,43,0.0572025634597677,1
112,881,43,0.0590909867160412,1
112,882,43,0.062042804590704,1
113,882,43,0.0580025242191913,1
128,913,43,0.0578284997164281,1
124,896,44,0.0617556296640642,1
127,912,44,0.0607424002872799,1
127,913,44,0.0676683231083594,1
128,912,44,0.0663226539178352,1
128,913,44,0.0826638914423936,1
128,914,44,0.0687794180487593,1
129,912,44,0.0569042728072052,1
129,913,44,0.071387869085738,1
129,914,44,0.0624583499351762,1
123,890,45,0.0602437317212649,1
124,890,45,0.0569120331760722,1
124,896,45,0.0687238806977029,1
124,897,45,0.11327990881543,1
124,898,45,0.0677797634205555,1
128,911,45,0.0610557399226303,1
128,912,45,0.096007256015654,1
128,913,45,0.115219977444453,1
129,912,45,0.0863002788166084,1
129,913,45,0.104699264241551,1
129,914,45,0.0889221571787469,1
130,912,45,0.0580239006151968,1
130,913,45,0.0683062832192142,1
130,914,45,0.0619259685813093,1
122,889,46,0.0748271985219351,1
122,890,46,0.0731466894643817,1
123,889,46,0.095533395862879,1
123,890,46,0.09570552744892,1
123,891,46,0.0576870852743297,1
124,890,46,0.0757365946350329,1
124,896,46,0.0679183945084705,1
124,897,46,0.111508858189803,1
124,898,46,0.0684605942621578,1
129,912,46,0.146377705125419,1
129,913,46,0.17180846928446,1
99,916,47,0.0754163791713398,1
100,915,47,0.0708257376855684,1
100,916,47,0.108217341372163,1
100,917,47,0.0785345850155722,1
101,916,47,0.0741910900492446,1
122,888,47,0.0713135735786283,1
122,889,47,0.122104957833128,1
122,890,47,0.104871985521275,1
123,889,47,0.162571377702767,1
123,890,47,0.142671397771222,1
123,891,47,0.0655552560435819,1
124,890,47,0.0944015554987143,1
124,897,47,0.0840543832497557,1
124,898,47,0.0576639339003387,1
99,915,48,0.0631890865531631,1
99,916,48,0.112331138855124,1
99,917,48,0.0712544626838535,1
100,915,48,0.107578844640057,1
100,916,48,0.179380277699493,1
100,917,48,0.118788850788911,1
101,915,48,0.0653055620474278,1
101,916,48,0.114899644042023,1
101,917,48,0.0721805176434935,1
121,889,48,0.0598743122166699,1
122,888,48,0.0892076455814535,1
122,889,48,0.167391757950463,1
122,890,48,0.127755225794655,1
123,889,48,0.229654199850303,1
123,890,48,0.18093541788006,1
123,891,48,0.0718115580999711,1
124,890,48,0.107559113489427,1
99,915,49,0.0644790827630838,1
99,916,49,0.122119039718275,1
99,917,49,0.0741328047256259,1
100,915,49,0.117410665888711,1
100,916,49,0.202568413194684,1
100,917,49,0.130405179473037,1
101,915,49,0.0681159359953081,1
101,916,49,0.125155808864898,1
101,917,49,0.0745251220359283,1
121,889,49,0.067441756898449,1
122,888,49,0.0972527480433256,1
122,889,49,0.177125406994786,1
122,890,49,0.125975907663593,1
123,889,49,0.244598429452303,1
123,890,49,0.180516935861047,1
123,891,49,0.0719775627686468,1
124,890,49,0.105747256060942,1
124,891,49,0.0573274134063132,1
99,916,50,0.0988970970842431,1
100,915,50,0.0943355569817232,1
100,916,50,0.159765898212454,1
100,917,50,0.10577087918988,1
101,916,50,0.0978425006956027,1
101,917,50,0.0606949476366162,1
121,889,50,0.0604668069445725,1
122,888,50,0.0850687802200322,1
122,889,50,0.138671529107799,1
122,890,50,0.0956162773100118,1
123,888,50,0.117088964396937,1
123,889,50,0.191018141996918,1
123,890,50,0.137027309799492,1
123,891,50,0.0612018247386973,1
124,889,50,0.1170701767562,1
124,890,50,0.0860738246484977,1
98,906,51,0.0596634436525985,1
99,906,51,0.0580569942246816,1
99,916,51,0.0696355589253536,1
100,915,51,0.063998659319618,1
100,916,51,0.0969644350078778,1
100,917,51,0.0721648553792754,1
101,916,51,0.0628074780801423,1
122,888,51,0.0653528200991761,1
122,889,51,0.0869592968888799,1
122,890,51,0.0613118792707386,1
123,888,51,0.0828849145316846,1
123,889,51,0.115582249861611,1
123,890,51,0.0852462072553458,1
124,890,51,0.0636870946622532,1
97,906,52,0.0646151074049204,1
98,905,52,0.0895328144720831,1
98,906,52,0.115100635236905,1
98,907,52,0.0747334313294158,1
99,905,52,0.0707538776133691,1
99,906,52,0.0958796521996093,1
99,907,52,0.0665160970335766,1
97,905,53,0.0690447978968787,1
97,906,53,0.0848158547024958,1
98,905,53,0.122808686480437,1
98,906,53,0.15199326371677,1
98,907,53,0.0840911034753904,1
99,905,53,0.0857480247856275,1
99,906,53,0.111158544760534,1
99,907,53,0.0652878358553196,1
97,905,54,0.0741363075061024,1
97,906,54,0.08746492973729,1
98,905,54,0.131039182739279,1
98,906,54,0.152205022718303,1
98,907,54,0.0760112385709109,1
99,905,54,0.0847758262952999,1
99,906,54,0.100873213688102,1
119,887,54,0.0629911204868737,1
120,887,54,0.0612031869311048,1
97,905,55,0.0633053033841907,1
98,905,55,0.103596336558659,1
98,906,55,0.111919851099043,1
98,907,55,0.0579437317590053,1
99,905,55,0.0681525913546377,1
99,906,55,0.0740687934763462,1
119,886,55,0.0582721026863331,1
119,887,55,0.0819165431533591,1
119,888,55,0.0617606479573058,1
120,887,55,0.0765401466289854,1
120,888,55,0.0603616999425308,1
98,905,56,0.0681936930043365,1
98,906,56,0.0674116825206206,1
118,887,56,0.0721908077982602,1
119,886,56,0.0664866359371785,1
119,887,56,0.0992964435432457,1
119,888,56,0.0735343128129681,1
120,887,56,0.0891415291257258,1
120,888,56,0.0668620998020233,1
103,917,57,0.0578768722892371,1
118,887,57,0.0805244827608005,1
118,888,57,0.0623684334424062,1
119,887,57,0.0995955597669644,1
119,888,57,0.07520145351473,1
120,888,57,0.070087494266998,1
118,887,58,0.0783538969741921,1
118,888,58,0.0615061125760151,1
119,887,58,0.0930308656052243,1
119,888,58,0.0730405269106476,1
119,916,58,0.0736780742359245,1
120,888,58,0.0689100410964604,1
123,894,58,0.0705416173722061,1
123,895,58,0.0687930399728345,1
124,894,58,0.0885466815200284,1
124,895,58,0.0870724709005038,1
125,894,58,0.0687050458814708,1
125,895,58,0.067126400510703,1
119,888,59,0.0647438375358994,1
119,915,59,0.0684059119669417,1
119,916,59,0.0975777636135976,1
120,915,59,0.0815318859639977,1
123,893,59,0.0702764792984966,1
123,894,59,0.133530909808663,1
123,895,59,0.121191203883713,1
124,893,59,0.0935282309482001,1
124,894,59,0.177254219682881,1
124,895,59,0.16184912087994,1
124,896,59,0.0669065450149042,1
125,894,59,0.111408362592361,1
125,895,59,0.100796636066439,1
118,915,60,0.0594442073351667,1
118,916,60,0.0710233499356479,1
119,914,60,0.0573438304784454,1
119,915,60,0.106150618333926,1
119,916,60,0.134225675111992,1
120,914,60,0.06484939270514,1
120,915,60,0.123500503315352,1
122,894,60,0.0613367171686627,1
123,893,60,0.0902995754771589,1
123,894,60,0.189452788321763,1
123,895,60,0.15998479250755,1
123,896,60,0.0572528643309199,1
124,894,60,0.26204029485439,1
124,895,60,0.223810099575204,1
124,896,60,0.0814903184562895,1
125,895,60,0.122842605661078,1
118,915,61,0.0833204681828179,1
118,916,61,0.0905052193551997,1
119,914,61,0.0825702657763581,1
119,915,61,0.147618526779122,1
120,914,61,0.0881143004209092,1
120,915,61,0.162665280524833,1
121,914,61,0.0652266551357178,1
122,894,61,0.0708927504756941,1
122,895,61,0.0585145788318083,1
123,893,61,0.100143939510449,1
123,894,61,0.204781675113124,1
123,895,61,0.164982080860119,1
123,896,61,0.0620287521902403,1
124,894,61,0.2845165403417,1
124,895,61,0.232284398790307,1
124,896,61,0.0871022150498697,1
118,914,62,0.0709982525725033,1
118,915,62,0.114022852092653,1
118,916,62,0.117591289063786,1
119,914,62,0.110605129032998,1
119,915,62,0.193442632192576,1
119,916,62,0.213138436583351,1
120,914,62,0.109927228968999,1
120,915,62,0.199358262311412,1
121,914,62,0.0722573252456923,1
122,894,62,0.068644419473931,1
123,893,62,0.0945796311970791,1
123,894,62,0.175656515412281,1
123,895,62,0.139006203860597,1
123,896,62,0.0577605846949675,1
124,894,62,0.240496708895968,1
124,895,62,0.191884508161974,1
124,896,62,0.0779020618804737,1
118,914,63,0.0814828057587692,1
118,915,63,0.12677405806341,1
118,916,63,0.128278909166699,1
119,914,63,0.122193482648806,1
119,915,63,0.204906029716976,1
120,914,63,0.116676579810605,1
122,894,63,0.0590769991818826,1
123,894,63,0.124598642685539,1
123,895,63,0.0993751322682931,1
118,914,64,0.0820087181729346,1
118,915,64,0.124784691042496,1
119,914,64,0.12004887286893,1
119,915,64,0.195273241880177,1
119,916,64,0.204238661582155,1
120,914,64,0.110082955276782,1
120,915,64,0.183505067072703,1
118,914,65,0.0698011095298934,1
119,914,65,0.0999806533296511,1
119,915,65,0.156657033116159,1
104,907,66,0.0621521161087048,1
104,908,66,0.0587810790979253,1
105,898,66,0.0841494300775669,1
105,899,66,0.0590427202880951,1
105,907,66,0.0598525053442759,1
105,908,66,0.0589665141734528,1
106,898,66,0.062874526251889,1
104,898,67,0.07002294049953,1
104,907,67,0.0599715880866025,1
105,897,67,0.0674992815172167,1
105,898,67,0.11407403750433,1
105,899,67,0.0769007148314,1
105,907,67,0.0589764917905676,1
106,898,67,0.0826194462295127,1
104,898,68,0.0653381544172822,1
105,897,68,0.0642193167988257,1
105,898,68,0.110892970313499,1
105,899,68,0.0730696990571411,1
106,898,68,0.0801948027134967,1
105,898,69,0.0766461676562356,1
106,898,69,0.0592437999370301,1
