x,y,z,signal,cytoplasm.p
249,720,15,0.0638025389945562,1
250,720,15,0.0713843309236405,1
248,720,16,0.0596713101663285,1
249,719,16,0.0722026016719184,1
249,720,16,0.0743817675016132,1
249,721,16,0.0678591067055909,1
250,719,16,0.0845456865416711,1
250,720,16,0.0825941955460106,1
250,721,16,0.0741432599946239,1
251,720,16,0.0841838740855856,1
248,719,17,0.0657716264497147,1
248,720,17,0.0719959199329957,1
248,721,17,0.0703710248866774,1
249,718,17,0.0752518369429978,1
249,719,17,0.0843176519944903,1
249,720,17,0.0973172015628675,1
249,721,17,0.0929036686778209,1
249,722,17,0.0691967324742802,1
250,719,17,0.0962823422217941,1
250,720,17,0.105311897008725,1
250,721,17,0.0973196252039043,1
250,722,17,0.0726434094937664,1
251,720,17,0.095142859427499,1
251,721,17,0.0832271137758766,1
248,719,18,0.0780961005868348,1
248,720,18,0.0937889993917192,1
248,721,18,0.0955853655671537,1
249,718,18,0.0867746461059507,1
249,719,18,0.105891848951992,1
249,720,18,0.132851181694248,1
249,721,18,0.131422601571906,1
249,722,18,0.0915266159894923,1
250,718,18,0.0985425732420783,1
250,719,18,0.114330625019637,1
250,720,18,0.135982148509778,1
250,721,18,0.128785184781223,1
250,722,18,0.0899645056295933,1
251,719,18,0.107171378099041,1
251,720,18,0.106511829302455,1
251,721,18,0.0942218994212793,1
246,708,19,0.0604587576258008,1
246,709,19,0.0610532573122253,1
247,707,19,0.0619368838113799,1
248,706,19,0.064545116661696,1
248,712,19,0.070611696569483,1
248,713,19,0.0717930829968856,1
248,718,19,0.076731478641342,1
248,719,19,0.0848547626916941,1
248,720,19,0.103314321451745,1
248,721,19,0.110330709180719,1
249,717,19,0.0848853854846475,1
249,718,19,0.0983965768800638,1
249,719,19,0.118848386263138,1
249,720,19,0.151804738646344,1
249,721,19,0.158361460149492,1
249,722,19,0.108215466146252,1
250,716,19,0.0871090967751492,1
250,717,19,0.0922689931607798,1
250,718,19,0.102318281645817,1
250,719,19,0.122394815866025,1
250,720,19,0.151376915879394,1
250,721,19,0.150186748913053,1
250,722,19,0.102116512055273,1
251,718,19,0.104083116900027,1
251,719,19,0.105986907573677,1
251,720,19,0.111914414123286,1
251,721,19,0.102418034229218,1
252,719,19,0.105506885121915,1
246,708,20,0.0594080296277202,1
246,709,20,0.0572730672364963,1
247,707,20,0.0582093887631557,1
247,708,20,0.0625822327840816,1
247,709,20,0.0622172241882348,1
247,710,20,0.05919926037316,1
247,711,20,0.0568467304976269,1
247,720,20,0.0584335490228398,1
247,721,20,0.0585624914435447,1
248,704,20,0.0605785362066732,1
248,705,20,0.0605240426134356,1
248,706,20,0.0607379480999739,1
248,707,20,0.0615122748750015,1
248,708,20,0.0646960369659628,1
248,709,20,0.0669579368193697,1
248,710,20,0.0665646583083641,1
248,711,20,0.0640699120073239,1
248,712,20,0.0634764148001604,1
248,713,20,0.0646029833027998,1
248,714,20,0.0629594893177225,1
248,715,20,0.0581769674044694,1
248,716,20,0.0594028992926789,1
248,717,20,0.0693663814499162,1
248,718,20,0.0787967982086144,1
248,719,20,0.0851926394811903,1
248,720,20,0.0983539302329158,1
248,721,20,0.105303723854279,1
248,722,20,0.0750303126140762,1
249,705,20,0.0681711254270915,1
249,706,20,0.0659438582836819,1
249,707,20,0.0654015111065739,1
249,708,20,0.0679676280340566,1
249,711,20,0.0693823444579125,1
249,712,20,0.0693771138749451,1
249,713,20,0.0736561553217307,1
249,714,20,0.0734855451453916,1
249,715,20,0.0681487406548883,1
249,716,20,0.0700891748939943,1
249,717,20,0.0858802635940198,1
249,718,20,0.103392974795171,1
249,719,20,0.11941304155227,1
249,720,20,0.145195192383082,1
249,721,20,0.15400534573835,1
249,722,20,0.10484978945105,1
250,706,20,0.078809405859555,1
250,714,20,0.0861582216083956,1
250,715,20,0.0836126260210782,1
250,716,20,0.0812265661627349,1
250,717,20,0.0882707048764271,1
250,718,20,0.0997754753096198,1
250,719,20,0.117522601543601,1
250,720,20,0.142582271467987,1
250,721,20,0.144005497171688,1
250,722,20,0.0972409423757938,1
251,717,20,0.0942017318973239,1
251,718,20,0.0931867157486803,1
251,719,20,0.0974000358345057,1
251,720,20,0.10572551995179,1
251,721,20,0.0984949259924993,1
251,722,20,0.0721654273821478,1
252,718,20,0.106107700427684,1
252,719,20,0.0915657716500375,1
252,720,20,0.0811687525940625,1
252,721,20,0.072025581525246,1
252,722,20,0.06458665468472,1
252,723,20,0.0584932790959817,1
253,719,20,0.0993488673116563,1
253,720,20,0.0826247652665326,1
253,721,20,0.075376969942511,1
253,722,20,0.0736786698265442,1
253,723,20,0.0707001977974139,1
253,724,20,0.0673812248418984,1
253,725,20,0.0612762971539118,1
254,720,20,0.0989803323475856,1
254,721,20,0.0911827125305568,1
254,722,20,0.087079122645247,1
254,723,20,0.0848938888675551,1
254,724,20,0.0848806030688792,1
254,725,20,0.0813876940646529,1
254,726,20,0.0703595376537343,1
254,727,20,0.0577131556320511,1
255,722,20,0.103476510802292,1
255,723,20,0.104555544097152,1
255,724,20,0.105904503778427,1
255,725,20,0.102194905933479,1
255,726,20,0.0901011376559233,1
255,727,20,0.0717881708485069,1
256,726,20,0.096965879757401,1
256,727,20,0.0778401853223261,1
256,728,20,0.0616158781581517,1
246,708,21,0.0579123246734536,1
247,708,21,0.0590848892833599,1
247,709,21,0.0579670128656065,1
248,708,21,0.0618622403849973,1
248,709,21,0.0656351890223001,1
248,710,21,0.0643793360766198,1
248,711,21,0.0596349319630299,1
248,712,21,0.0582028903387701,1
248,713,21,0.0587276410563801,1
248,714,21,0.0573211567563375,1
248,717,21,0.0646962492556886,1
248,718,21,0.076422125335288,1
248,719,21,0.0814113643690848,1
248,720,21,0.0857395096088463,1
248,721,21,0.0868042605227064,1
248,722,21,0.0632224809064262,1
249,704,21,0.063037240429814,1
249,705,21,0.06300018407878,1
249,706,21,0.0605776044906542,1
249,707,21,0.0613081347158521,1
249,708,21,0.0701374767035614,1
249,710,21,0.0754908221018702,1
249,711,21,0.0661403442188271,1
249,712,21,0.0635189199208244,1
249,713,21,0.0655483389366813,1
249,714,21,0.0656886978270873,1
249,715,21,0.0621318719245705,1
249,716,21,0.0649066401678768,1
249,717,21,0.0812420279311008,1
249,718,21,0.1004089242638,1
249,719,21,0.111183889795025,1
249,720,21,0.122624595906507,1
249,721,21,0.12479124843625,1
249,722,21,0.0874110671162932,1
250,705,21,0.0713049817416683,1
250,706,21,0.0705497728358407,1
250,707,21,0.0730192448656315,1
250,711,21,0.0763345853080602,1
250,712,21,0.0731340228440728,1
250,713,21,0.074776520246826,1
250,714,21,0.0768663297927496,1
250,715,21,0.0759652365667071,1
250,716,21,0.0748632111151504,1
250,717,21,0.0813684818444637,1
250,718,21,0.0929491635454573,1
250,719,21,0.105216861974787,1
250,720,21,0.118865157151479,1
250,721,21,0.116919793073184,1
250,722,21,0.081524526586835,1
251,706,21,0.0870718045466421,1
251,716,21,0.0958234308038808,1
251,717,21,0.0863258184500152,1
251,718,21,0.0840238430139178,1
251,719,21,0.0874963545136523,1
251,720,21,0.0933712014173783,1
251,721,21,0.0862777348271108,1
251,722,21,0.0650087043505147,1
252,717,21,0.103874660183118,1
252,718,21,0.0905462089630987,1
252,719,21,0.0790959026384594,1
252,720,21,0.0721990163343263,1
252,721,21,0.0653665599619879,1
252,722,21,0.0591624516934729,1
253,718,21,0.103836247536614,1
253,719,21,0.08596002556157,1
253,720,21,0.0739842019175329,1
253,721,21,0.0687214452627925,1
253,722,21,0.0663959056671261,1
253,723,21,0.0639193632100773,1
253,724,21,0.0622682739703642,1
253,725,21,0.05849237096771,1
254,701,21,0.0730205421917339,1
254,719,21,0.0980179463601417,1
254,720,21,0.0877429703087815,1
254,721,21,0.0823332501943866,1
254,722,21,0.0772248458611476,1
254,723,21,0.0749619140437957,1
254,724,21,0.0779678716954863,1
254,725,21,0.0803943668496667,1
254,726,21,0.074997130550539,1
254,727,21,0.0621933298002033,1
255,721,21,0.0964430750289445,1
255,722,21,0.0872196348560105,1
255,723,21,0.0858314192662644,1
255,724,21,0.0948340604335069,1
255,725,21,0.104996434476116,1
255,726,21,0.105374286600376,1
255,727,21,0.0866144440231149,1
255,728,21,0.0632134232114567,1
256,723,21,0.112987538687444,1
256,724,21,0.115641113085039,1
256,725,21,0.117432850165062,1
256,726,21,0.116042847803457,1
256,727,21,0.0953554027216298,1
256,728,21,0.070028943581222,1
257,724,21,0.134714189152788,1
257,725,21,0.112804084982691,1
257,726,21,0.0982667145372136,1
257,727,21,0.0807300971541572,1
257,728,21,0.065479757561359,1
231,697,22,0.0592439473604509,1
232,697,22,0.0570968018977381,1
240,689,22,0.0589097325687255,1
241,689,22,0.0569653532788809,1
246,692,22,0.0600366607845115,1
247,692,22,0.0653375470327888,1
247,693,22,0.0608314971058306,1
248,693,22,0.0724119724140352,1
248,694,22,0.0621660741581792,1
248,708,22,0.0592625993716413,1
248,709,22,0.0678271571018509,1
248,710,22,0.064466068223502,1
248,717,22,0.0568833150937146,1
248,718,22,0.0664285805940961,1
248,719,22,0.071604027202145,1
248,720,22,0.0699679102850409,1
248,721,22,0.0650304404596667,1
249,694,22,0.0811389199906442,1
249,695,22,0.0606364971987663,1
249,707,22,0.0569675410424445,1
249,708,22,0.0787335358703119,1
249,710,22,0.0883093769881522,1
249,711,22,0.0662651764745621,1
249,716,22,0.0581950474127874,1
249,717,22,0.0700924005184398,1
249,718,22,0.0849073751620832,1
249,719,22,0.0928904418485133,1
249,720,22,0.0920962423963717,1
249,721,22,0.085949399281404,1
249,722,22,0.063571343689235,1
250,694,22,0.102395944303856,1
250,695,22,0.0836973650033122,1
250,696,22,0.0754737563666868,1
250,697,22,0.0604949943026155,1
250,704,22,0.0603841083024813,1
250,705,22,0.0619961126448913,1
250,706,22,0.0610125920358519,1
250,707,22,0.0676330122506268,1
250,711,22,0.076429543681819,1
250,712,22,0.0653809249001035,1
250,713,22,0.0640996089811952,1
250,714,22,0.0651728043085945,1
250,715,22,0.0662032586378567,1
250,716,22,0.0670669240058449,1
250,717,22,0.0714787231914637,1
250,718,22,0.0790035330199685,1
250,719,22,0.0861748096916959,1
250,720,22,0.0879950407704777,1
250,721,22,0.0817142074568795,1
250,722,22,0.060843627104888,1
251,697,22,0.0850779263690541,1
251,698,22,0.0574783572983274,1
251,702,22,0.0599181559419941,1
251,703,22,0.0642119161431052,1
251,704,22,0.0656375536939686,1
251,705,22,0.0664889711241628,1
251,706,22,0.0706488649623167,1
251,707,22,0.0812038511620692,1
251,708,22,0.100456158727801,1
251,711,22,0.0847959171590766,1
251,712,22,0.0777562011480062,1
251,713,22,0.0775783967087356,1
251,714,22,0.0860664534774614,1
251,715,22,0.0910733715278718,1
251,716,22,0.0844581406175065,1
251,717,22,0.0763255394069644,1
251,718,22,0.0726580987634076,1
251,719,22,0.0739870383441477,1
251,720,22,0.0747147380396676,1
251,721,22,0.0675690540737785,1
252,698,22,0.0794375062920316,1
252,704,22,0.0755808506364399,1
252,705,22,0.0742033969564069,1
252,706,22,0.0835160872682492,1
252,716,22,0.115517513289101,1
252,717,22,0.0906056147047149,1
252,718,22,0.0766234054800753,1
252,719,22,0.0679981387852103,1
252,720,22,0.0628384252046214,1
252,721,22,0.0572014548356439,1
253,699,22,0.0705735610790092,1
253,701,22,0.0600138691236671,1
253,705,22,0.0835322035966031,1
253,717,22,0.10755025629031,1
253,718,22,0.087098028224721,1
253,719,22,0.0733233263101602,1
253,720,22,0.0652787368817923,1
253,721,22,0.0606945997173433,1
253,722,22,0.0577920920284453,1
254,699,22,0.0827143692216506,1
254,700,22,0.0641089615230061,1
254,701,22,0.0669930117996291,1
254,718,22,0.0982297525371689,1
254,719,22,0.0828702134681697,1
254,720,22,0.0751622565756271,1
254,721,22,0.0710648289893037,1
254,722,22,0.0665922441788506,1
254,723,22,0.0647447751488552,1
254,724,22,0.0687062429596471,1
254,725,22,0.0740784054833776,1
254,726,22,0.0739178436873952,1
254,727,22,0.0639250124755596,1
255,700,22,0.0669874332973888,1
255,701,22,0.0700669257513382,1
255,719,22,0.0952181633108064,1
255,720,22,0.0874258802216078,1
255,721,22,0.0814147610046984,1
255,722,22,0.073234040789631,1
255,723,22,0.0716505422398529,1
255,724,22,0.0831655674461914,1
255,725,22,0.101525521046262,1
255,726,22,0.111909637604455,1
255,727,22,0.0979080038699002,1
255,728,22,0.0686647108335598,1
256,722,22,0.0951838077568401,1
256,723,22,0.0886067948940641,1
256,724,22,0.0987873550898537,1
256,725,22,0.117910490254345,1
256,726,22,0.128060085634845,1
256,727,22,0.109993569508327,1
256,728,22,0.0765068584205852,1
257,724,22,0.113124135332153,1
257,725,22,0.110116579610581,1
257,726,22,0.103932143523328,1
257,727,22,0.0863755119366739,1
257,728,22,0.0659228357038862,1
258,725,22,0.0998339257474698,1
258,726,22,0.0806561849479414,1
258,727,22,0.0682661781518396,1
258,728,22,0.0611381732025641,1
259,727,22,0.0695969811646177,1
259,728,22,0.065772894291133,1
259,729,22,0.0617862465600809,1
231,696,23,0.0597964195780945,1
231,697,23,0.0704657178982789,1
231,698,23,0.0649154796761836,1
232,696,23,0.0593942248986034,1
232,697,23,0.0769018706310185,1
232,698,23,0.0721131687279685,1
238,688,23,0.060144568831547,1
239,688,23,0.0639959172439925,1
240,688,23,0.0618398497158573,1
240,689,23,0.0583418516551475,1
241,688,23,0.0574691639738108,1
241,689,23,0.0583877003389937,1
246,691,23,0.0582674617970486,1
247,692,23,0.0627207400363232,1
248,692,23,0.0690299199252589,1
248,693,23,0.0679050556373631,1
248,694,23,0.0571532709648134,1
248,709,23,0.0679003380878998,1
248,710,23,0.0631081687859943,1
248,719,23,0.0607160409796539,1
249,693,23,0.0824491367969519,1
249,694,23,0.0701641367549657,1
249,708,23,0.0822834800475491,1
249,710,23,0.100651335542971,1
249,711,23,0.0689170171727292,1
249,717,23,0.0588077804278874,1
249,718,23,0.0675504433411459,1
249,719,23,0.0722117655117508,1
249,720,23,0.0657460691254975,1
250,694,23,0.0878029598471439,1
250,695,23,0.0761568634259052,1
250,696,23,0.0663457581163316,1
250,707,23,0.0598703199904366,1
250,711,23,0.0806154194236419,1
250,712,23,0.0608238664695737,1
250,715,23,0.0571479165461726,1
250,716,23,0.0590442240069865,1
250,717,23,0.0620049698440086,1
250,718,23,0.0653559808573165,1
250,719,23,0.0673757937630788,1
250,720,23,0.0624494219728169,1
251,694,23,0.0969614924364001,1
251,696,23,0.103826729880571,1
251,697,23,0.0767429953589692,1
251,707,23,0.0662447082068283,1
251,708,23,0.0920121874588099,1
251,710,23,0.100919587199326,1
251,711,23,0.0805128304136263,1
251,712,23,0.0698113289214182,1
251,713,23,0.0673260648947991,1
251,714,23,0.0714971982945493,1
251,715,23,0.074471306590426,1
251,716,23,0.0717925581695078,1
251,717,23,0.0659419712638966,1
251,718,23,0.0616120982216442,1
251,719,23,0.0600136509370044,1
252,697,23,0.12659554599172,1
252,698,23,0.077595875229497,1
252,702,23,0.058607367132814,1
252,703,23,0.0658130406370654,1
252,704,23,0.0644012431969399,1
252,705,23,0.0623458658651613,1
252,706,23,0.0657579750409554,1
252,707,23,0.0753805493831663,1
252,708,23,0.0861296214647746,1
252,709,23,0.0873250956742619,1
252,710,23,0.082672259195754,1
252,711,23,0.0808413664551852,1
252,712,23,0.0783404873398427,1
252,713,23,0.0816584460222236,1
252,714,23,0.0994131085414724,1
252,715,23,0.106460856180504,1
252,716,23,0.0941905454081591,1
252,717,23,0.0770623085913275,1
252,718,23,0.0645004355713419,1
252,719,23,0.0574257625187487,1
253,698,23,0.118723453759477,1
253,699,23,0.0686955930917338,1
253,702,23,0.0649636104745826,1
253,703,23,0.078614842325816,1
253,704,23,0.0802757735530969,1
253,705,23,0.0751737379116333,1
253,706,23,0.0768335487209167,1
253,707,23,0.086965848385697,1
253,712,23,0.0850023984021471,1
253,713,23,0.0992236399611538,1
253,716,23,0.117898071305383,1
253,717,23,0.0909937216021213,1
253,718,23,0.0726067187528158,1
253,719,23,0.0616640561320453,1
254,699,23,0.0830017741288267,1
254,700,23,0.0620020390664045,1
254,701,23,0.0614308676620759,1
254,702,23,0.07829282829639,1
254,706,23,0.0835151024797988,1
254,712,23,0.0912078983477538,1
254,717,23,0.101175290174109,1
254,718,23,0.0824343118977635,1
254,719,23,0.0694654146070239,1
254,720,23,0.0638843295083757,1
254,721,23,0.0609856017559851,1
254,722,23,0.0579387665381952,1
254,724,23,0.0602250856070113,1
254,725,23,0.0657063886375745,1
254,726,23,0.0673335186229511,1
254,727,23,0.0610065417786652,1
255,699,23,0.0829972275905314,1
255,700,23,0.0657782251220265,1
255,701,23,0.0665211153268181,1
255,717,23,0.108833583064677,1
255,718,23,0.0924490266421719,1
255,719,23,0.0797441646979546,1
255,720,23,0.0741383301554348,1
255,721,23,0.0695747615066457,1
255,722,23,0.0633934566928488,1
255,723,23,0.0616344888907843,1
255,724,23,0.0717987027776837,1
255,725,23,0.09112425619577,1
255,726,23,0.104260260882372,1
255,727,23,0.096627407377285,1
255,728,23,0.0681060881108035,1
256,700,23,0.0673729632334008,1
256,701,23,0.069913705641708,1
256,721,23,0.0946829809119457,1
256,722,23,0.0800126227470989,1
256,723,23,0.0719413084010215,1
256,724,23,0.0820881263242751,1
256,725,23,0.106444863687824,1
256,726,23,0.119904905053184,1
256,727,23,0.10779231375327,1
256,728,23,0.074771619892321,1
257,723,23,0.100400585995124,1
257,724,23,0.0929465158208211,1
257,725,23,0.100762811236788,1
257,726,23,0.0998486680895425,1
257,727,23,0.0854823559876034,1
257,728,23,0.0637890173184071,1
258,724,23,0.110871481875694,1
258,725,23,0.0900978176804885,1
258,726,23,0.0760337117971665,1
258,727,23,0.0661284618911165,1
258,728,23,0.0578188287400284,1
259,725,23,0.0900574767356407,1
259,726,23,0.0707379558839305,1
259,727,23,0.0654975663105829,1
259,728,23,0.0616115674973296,1
259,729,23,0.0582283474150612,1
260,726,23,0.0800612017126969,1
260,727,23,0.0764890142897404,1
260,728,23,0.0707496318188521,1
260,729,23,0.064318845298627,1
260,730,23,0.0601567224183517,1
261,726,23,0.092027159781419,1
261,727,23,0.0900463197311601,1
231,696,24,0.0594867832190727,1
231,697,24,0.0728342874419871,1
231,698,24,0.0693551006097621,1
232,696,24,0.0650168303294652,1
232,697,24,0.0854260933133171,1
232,698,24,0.0793763019846825,1
238,687,24,0.0650316847133376,1
238,688,24,0.0594093859231909,1
239,687,24,0.0682953856799541,1
239,688,24,0.0630478726069169,1
240,688,24,0.0607506677927143,1
241,688,24,0.0598067392175454,1
242,689,24,0.0577204855245297,1
247,691,24,0.0595368894913095,1
247,692,24,0.0572644695025995,1
248,692,24,0.0650786832998655,1
248,693,24,0.0593212738930907,1
248,709,24,0.0603173431837024,1
249,692,24,0.069811370199976,1
249,693,24,0.0686501041210342,1
249,694,24,0.0575715760757216,1
249,708,24,0.0724119665170983,1
249,709,24,0.109454990473852,1
249,710,24,0.097918465035835,1
249,711,24,0.0654653749324329,1
250,693,24,0.0740317725069331,1
250,694,24,0.0709736564489892,1
250,695,24,0.0645648419153892,1
250,708,24,0.0896631662606901,1
250,710,24,0.122985759699541,1
250,711,24,0.0789173433912746,1
251,693,24,0.0731424436698648,1
251,694,24,0.0863094485533776,1
251,695,24,0.0963428153089764,1
251,696,24,0.0874230909704877,1
251,697,24,0.0639697761230292,1
251,708,24,0.0753933221483381,1
251,709,24,0.103104178210903,1
251,710,24,0.0940542377133547,1
251,711,24,0.070942921614236,1
251,712,24,0.0578846857305357,1
251,714,24,0.0580240716263648,1
251,715,24,0.0587050263036405,1
251,716,24,0.057955678953021,1
252,694,24,0.120184514209872,1
252,697,24,0.111076636307978,1
252,698,24,0.0698241665528951,1
252,708,24,0.0625701912390766,1
252,709,24,0.0697657279089188,1
252,710,24,0.0678923772231806,1
252,711,24,0.0654340209193126,1
252,712,24,0.0637994018241632,1
252,713,24,0.0650388966670796,1
252,714,24,0.0718771556252579,1
252,715,24,0.0752054693287106,1
252,716,24,0.0724152805955963,1
252,717,24,0.0623925755017845,1
253,698,24,0.106372201632216,1
253,699,24,0.0620941669104853,1
253,703,24,0.0596990552541094,1
253,704,24,0.062047392407557,1
253,705,24,0.060353862913485,1
253,706,24,0.0597564737280142,1
253,707,24,0.0628214538204272,1
253,708,24,0.0681638957825391,1
253,709,24,0.0723144016972611,1
253,710,24,0.072338278394482,1
253,711,24,0.0695321797258028,1
253,712,24,0.0689281505894625,1
253,713,24,0.0744011684237809,1
253,714,24,0.0868369000680554,1
253,715,24,0.0917569798267206,1
253,716,24,0.086250331761666,1
253,717,24,0.0724114829682783,1
253,718,24,0.0586742383964559,1
254,699,24,0.0772056631256426,1
254,702,24,0.0632232828898349,1
254,706,24,0.0703853662370457,1
254,707,24,0.0743440447967175,1
254,708,24,0.0816105393074241,1
254,709,24,0.0862037046821584,1
254,710,24,0.0854035375299458,1
254,711,24,0.0776905682410985,1
254,712,24,0.0752423664624502,1
254,713,24,0.083381153559726,1
254,714,24,0.0970154199237021,1
254,715,24,0.099668787928508,1
254,716,24,0.0930492404603838,1
254,717,24,0.0803949624402864,1
254,718,24,0.0666807689945289,1
255,698,24,0.137909173114535,1
255,699,24,0.0809216237654291,1
255,700,24,0.0613434868521425,1
255,710,24,0.0938502980500575,1
255,711,24,0.0844380202690456,1
255,712,24,0.0809638399361885,1
255,713,24,0.0871586310445136,1
255,714,24,0.0980388333103903,1
255,715,24,0.09863098011902,1
255,716,24,0.0930459027941385,1
255,717,24,0.0838891510798046,1
255,718,24,0.0733525161474642,1
255,719,24,0.0646105077941937,1
255,720,24,0.0607841152184089,1
255,721,24,0.0574336762079734,1
255,724,24,0.0596392485207888,1
255,725,24,0.0761142816450623,1
255,726,24,0.0863034749563697,1
255,727,24,0.0805346490798939,1
255,728,24,0.0576857879482273,1
256,698,24,0.106973441517436,1
256,699,24,0.0732368241438143,1
256,700,24,0.0623548704876993,1
256,701,24,0.0604020114026945,1
256,711,24,0.0872022329954278,1
256,712,24,0.0864426308716626,1
256,713,24,0.0931054677530491,1
256,716,24,0.106402028338697,1
256,717,24,0.0977453545582803,1
256,718,24,0.0912579338567486,1
256,719,24,0.0874980823161432,1
256,720,24,0.0834004837186518,1
256,721,24,0.0755631657228894,1
256,722,24,0.0646671891509949,1
256,723,24,0.0577557079282098,1
256,724,24,0.065671903350998,1
256,725,24,0.0870171104575523,1
256,726,24,0.0977299340684722,1
256,727,24,0.0880626727389705,1
256,728,24,0.0617758443635144,1
257,700,24,0.0631498365416286,1
257,701,24,0.0612548146130435,1
257,722,24,0.096552811126397,1
257,723,24,0.0780789758822832,1
257,724,24,0.0731827138514706,1
257,725,24,0.0832278626868539,1
257,726,24,0.0851948980079959,1
257,727,24,0.0736508893571424,1
258,702,24,0.0790594359811083,1
258,724,24,0.0906859073965798,1
258,725,24,0.0752072384097594,1
258,726,24,0.066800453224412,1
258,727,24,0.0599617460990348,1
259,725,24,0.0775648632387128,1
259,726,24,0.0627929480277954,1
259,727,24,0.0595096633339696,1
260,725,24,0.0862788906267293,1
260,726,24,0.0706191679884454,1
260,727,24,0.0670690704908506,1
260,728,24,0.0629328941326233,1
260,729,24,0.0596563791222773,1
260,730,24,0.0574372792363759,1
261,725,24,0.0901735402463108,1
261,726,24,0.0805803385464456,1
261,727,24,0.0775707071031104,1
261,728,24,0.0721890740988325,1
261,729,24,0.0662097806499896,1
261,730,24,0.0620082721286329,1
262,720,24,0.115559912264902,1
262,724,24,0.0915891058290702,1
262,725,24,0.0848966781186752,1
262,726,24,0.0848063488403273,1
262,727,24,0.0856599363432746,1
231,697,25,0.0624874454214909,1
231,698,25,0.0595682847829875,1
232,689,25,0.0608062582162021,1
232,690,25,0.0578388960160578,1
232,696,25,0.060174861396038,1
232,697,25,0.0724179695987903,1
232,698,25,0.065021701199286,1
233,688,25,0.0668238758574972,1
238,686,25,0.0593510357332671,1
238,687,25,0.0620876154136682,1
239,687,25,0.0681035937065248,1
239,688,25,0.0613845000477888,1
240,687,25,0.0652329117856934,1
240,688,25,0.0599493979133147,1
241,687,25,0.0649159750188773,1
241,688,25,0.0616524273726184,1
242,688,25,0.0654806362049466,1
248,691,25,0.0598998518500767,1
248,692,25,0.0585794510338651,1
249,691,25,0.0604498296634415,1
249,692,25,0.0630582099371783,1
249,693,25,0.0572043915101848,1
249,708,25,0.0583947117968835,1
249,709,25,0.0875423152392982,1
249,710,25,0.0821086417675035,1
249,711,25,0.0579052129676377,1
250,692,25,0.0611972487157179,1
250,693,25,0.0609064766576124,1
250,694,25,0.0589594260553842,1
250,708,25,0.0721433964261544,1
250,709,25,0.113221187118486,1
250,710,25,0.106467425368132,1
250,711,25,0.0709948913185107,1
251,693,25,0.0670352869397568,1
251,694,25,0.0773489822783367,1
251,695,25,0.0831799500751175,1
251,696,25,0.0731496910052277,1
251,708,25,0.058967404610914,1
251,709,25,0.0834627258868828,1
251,710,25,0.0795461219714866,1
251,711,25,0.0608264965033995,1
252,693,25,0.0734235683393179,1
252,694,25,0.0995792724274424,1
252,695,25,0.125356257541593,1
252,696,25,0.122383446571818,1
252,697,25,0.0907513751892563,1
252,698,25,0.0603842321381548,1
252,709,25,0.0572529350941618,1
252,710,25,0.0573132666548602,1
253,694,25,0.129933400938962,1
253,697,25,0.145640163442332,1
253,698,25,0.0879486141868223,1
253,709,25,0.0574478347533,1
253,710,25,0.058583838354866,1
253,713,25,0.0571847134319861,1
253,714,25,0.0602737589235986,1
253,715,25,0.0624121297443098,1
253,716,25,0.0626611986651599,1
253,717,25,0.056933191385415,1
254,698,25,0.11531791377131,1
254,699,25,0.0674964273997915,1
254,703,25,0.0843910806518861,1
254,705,25,0.07438128984973,1
254,706,25,0.0632478790133491,1
254,707,25,0.062068992887162,1
254,708,25,0.064733500205638,1
254,709,25,0.0685896900032202,1
254,710,25,0.069370733389296,1
254,711,25,0.0634011050199161,1
254,712,25,0.0615632833785731,1
254,713,25,0.0650242958514908,1
254,714,25,0.0692723371013659,1
254,715,25,0.0700020122707236,1
254,716,25,0.0686609603817366,1
254,717,25,0.0626732932825964,1
255,697,25,0.175287249228044,1
255,698,25,0.11501621468926,1
255,699,25,0.0740755395720786,1
255,700,25,0.0574228140503342,1
255,702,25,0.101691732107727,1
255,706,25,0.0789291372649328,1
255,707,25,0.0759613504853368,1
255,708,25,0.0780897908644277,1
255,709,25,0.0770364800080161,1
255,710,25,0.0771879192427239,1
255,711,25,0.0706472256138782,1
255,712,25,0.0690718648369242,1
255,713,25,0.0743862373797296,1
255,714,25,0.0791357187559294,1
255,715,25,0.0770505500992903,1
255,716,25,0.0728148865198194,1
255,717,25,0.0666094160588969,1
255,718,25,0.059425909140186,1
255,725,25,0.0584695144405604,1
255,726,25,0.0634720333760963,1
255,727,25,0.0583759949193879,1
256,697,25,0.126704108598743,1
256,698,25,0.093283814710508,1
256,699,25,0.069272643742081,1
256,700,25,0.0587428079779045,1
256,707,25,0.0880634570315688,1
256,709,25,0.0803573104986327,1
256,710,25,0.0784748195608094,1
256,711,25,0.0751069197204229,1
256,712,25,0.0781348788434229,1
256,713,25,0.0865077330542557,1
256,714,25,0.0903819792724086,1
256,715,25,0.0880569704010568,1
256,716,25,0.0852042564467436,1
256,717,25,0.0809407947070605,1
256,718,25,0.0754884869148859,1
256,719,25,0.0708161610601579,1
256,720,25,0.0658985285302767,1
256,721,25,0.0589243038996302,1
256,725,25,0.0645099355365736,1
256,726,25,0.0696100192919468,1
256,727,25,0.0621617576004204,1
257,699,25,0.0652402829567298,1
257,700,25,0.0592741691617,1
257,709,25,0.0815982206063881,1
257,710,25,0.0789520586583874,1
257,711,25,0.0789154445776156,1
257,712,25,0.0888676223069515,1
257,713,25,0.10094732639017,1
257,714,25,0.106666836183944,1
257,715,25,0.111060160266477,1
257,716,25,0.116359076937854,1
257,717,25,0.115610331074791,1
257,718,25,0.110301401404679,1
257,719,25,0.101321876229806,1
257,720,25,0.0911824707561468,1
257,721,25,0.0801109364779134,1
257,722,25,0.069543248276231,1
257,723,25,0.0606265962418303,1
257,724,25,0.0572798133322288,1
257,725,25,0.0628789253667635,1
257,726,25,0.064056107278207,1
258,700,25,0.0602614048409417,1
258,701,25,0.0588912515687031,1
258,702,25,0.0750780070391499,1
258,711,25,0.0815959384918353,1
258,712,25,0.0942509241443521,1
258,723,25,0.0914792635867547,1
258,724,25,0.07117809145498,1
258,725,25,0.0598481357140856,1
259,702,25,0.0664221352421419,1
259,703,25,0.0760694118527298,1
259,724,25,0.0890968126537508,1
259,725,25,0.064081363858646,1
260,710,25,0.0860001954952498,1
260,711,25,0.088634575363466,1
260,724,25,0.0959580932533099,1
260,725,25,0.0708325191629218,1
260,726,25,0.0598774316962525,1
261,711,25,0.0929143657212289,1
261,720,25,0.126491665552539,1
261,724,25,0.0871635137082081,1
261,725,25,0.0746155220775182,1
261,726,25,0.0676978254833153,1
261,727,25,0.0644968915123077,1
261,728,25,0.0620862001488292,1
261,729,25,0.0602207985339366,1
261,730,25,0.0585042238107364,1
262,711,25,0.0983190380576981,1
262,720,25,0.102469490899989,1
262,721,25,0.0952937502470817,1
262,722,25,0.0929086221047573,1
262,723,25,0.0833520580734113,1
262,724,25,0.0742562806858902,1
262,725,25,0.0721192484698392,1
262,726,25,0.0713448037560751,1
262,727,25,0.0714246541776778,1
262,728,25,0.069124489101187,1
262,729,25,0.065634988526448,1
263,719,25,0.103862595050366,1
263,720,25,0.0882802166355324,1
263,721,25,0.0815799636899653,1
263,722,25,0.0774189376399402,1
263,723,25,0.0736501345492282,1
263,724,25,0.0706343761885276,1
263,725,25,0.0715224018025568,1
263,726,25,0.0739823148977476,1
263,727,25,0.0769992939243718,1
231,689,26,0.0591662905993486,1
232,688,26,0.0889684953083499,1
232,689,26,0.0611583879020142,1
232,690,26,0.0578751975591776,1
233,687,26,0.0912826125373783,1
233,688,26,0.0646527829343214,1
238,687,26,0.0569350725082635,1
239,686,26,0.060489628090101,1
239,687,26,0.0632632759154098,1
239,688,26,0.0568895658467534,1
240,686,26,0.0609980207049472,1
240,687,26,0.0628421166870764,1
241,687,26,0.0641976691437261,1
241,688,26,0.0583604211092223,1
242,687,26,0.0681861331313216,1
242,688,26,0.0634423364022251,1
243,688,26,0.0602128789477751,1
244,688,26,0.0572755498469014,1
246,689,26,0.0655218204117609,1
247,690,26,0.0576487198033197,1
248,690,26,0.0595009476613362,1
248,691,26,0.0581975123323819,1
249,690,26,0.0581343266542583,1
249,691,26,0.060685123339859,1
249,692,26,0.0583153449241008,1
249,709,26,0.0603935316075342,1
249,710,26,0.0596802794072456,1
250,691,26,0.057221392379063,1
250,692,26,0.0580588635536564,1
250,709,26,0.0766541874903231,1
250,710,26,0.0756777137207945,1
251,692,26,0.0579157448968145,1
251,693,26,0.0638780315798422,1
251,694,26,0.0708973382925471,1
251,695,26,0.0710989191811127,1
251,696,26,0.0602647778888079,1
251,709,26,0.0600190997066345,1
251,710,26,0.0599067158845457,1
252,693,26,0.0692282457046948,1
252,694,26,0.0865220920954345,1
252,695,26,0.0981716264308446,1
252,696,26,0.0924022757269909,1
252,697,26,0.0686974683176454,1
253,694,26,0.0958867344207411,1
253,695,26,0.125976084571698,1
253,696,26,0.133624305494162,1
253,697,26,0.103367617966806,1
253,698,26,0.0678688130636115,1
254,694,26,0.106591909704594,1
254,695,26,0.147054744236641,1
254,696,26,0.164829798363444,1
254,697,26,0.133088356493513,1
254,698,26,0.0874083545253518,1
254,699,26,0.0588311264007938,1
254,703,26,0.0672954244110352,1
254,704,26,0.0764331054316638,1
254,705,26,0.0619021567503934,1
255,695,26,0.128942173033487,1
255,696,26,0.144768678736108,1
255,697,26,0.125735064969619,1
255,698,26,0.0920474629349215,1
255,699,26,0.0671565692395207,1
255,702,26,0.0819031983853149,1
255,705,26,0.12000206298438,1
255,706,26,0.0697801223317186,1
255,707,26,0.0616322598486629,1
255,708,26,0.0602468747885948,1
255,709,26,0.0603057792905806,1
255,710,26,0.0604504193571244,1
255,712,26,0.0573209149819275,1
255,713,26,0.0621603600263919,1
255,714,26,0.063112078455112,1
255,715,26,0.0595794653752155,1
256,697,26,0.0983737380437247,1
256,698,26,0.0815077085229985,1
256,699,26,0.066158152968051,1
256,700,26,0.0569839050421452,1
256,706,26,0.0915168388682297,1
256,707,26,0.0727562414830541,1
256,708,26,0.066717200270259,1
256,709,26,0.0629159935116712,1
256,710,26,0.062787511052039,1
256,711,26,0.0623953293712837,1
256,712,26,0.0688125293490546,1
256,713,26,0.0789453184595918,1
256,714,26,0.0768850348763714,1
256,715,26,0.0695214001252792,1
256,716,26,0.066241199529415,1
256,717,26,0.065315734263458,1
256,718,26,0.061356855207934,1
257,698,26,0.0744109219572962,1
257,699,26,0.0639398314778111,1
257,700,26,0.056957722642624,1
257,702,26,0.0967120225238456,1
257,707,26,0.0808410892991542,1
257,708,26,0.071338771189699,1
257,709,26,0.0653032917267486,1
257,710,26,0.0638167388184407,1
257,711,26,0.0662519732330017,1
257,712,26,0.0797399955636165,1
257,713,26,0.093779894521255,1
257,714,26,0.0896219702600021,1
257,715,26,0.0836207814847128,1
257,716,26,0.0878050709505287,1
257,717,26,0.0920040732737331,1
257,718,26,0.0882604795879655,1
257,719,26,0.0782656552114816,1
257,720,26,0.066587573804882,1
258,699,26,0.0628420105422134,1
258,700,26,0.0589617022730002,1
258,702,26,0.0665936712375632,1
258,703,26,0.0968930702783722,1
258,708,26,0.0735688157903551,1
258,709,26,0.067779226799304,1
258,710,26,0.0656871410357644,1
258,711,26,0.0685801251716834,1
258,712,26,0.083002658669351,1
258,713,26,0.0982784612353771,1
258,714,26,0.0998364496364326,1
258,715,26,0.108058006139041,1
258,716,26,0.127603886807873,1
258,717,26,0.137979122579201,1
258,718,26,0.131773764160079,1
258,719,26,0.111747306727424,1
258,720,26,0.0879954653499294,1
258,721,26,0.0735641690041338,1
258,722,26,0.0701529915443587,1
258,723,26,0.0653063758247102,1
259,700,26,0.0621721185184291,1
259,701,26,0.0599053065166436,1
259,702,26,0.0601366846270065,1
259,703,26,0.0646505244075159,1
259,704,26,0.0800760030241379,1
259,708,26,0.0748773047941719,1
259,709,26,0.0693117227424474,1
259,710,26,0.0687162323706356,1
259,711,26,0.0706409571700289,1
259,712,26,0.0797342991226396,1
259,713,26,0.0922488787092558,1
259,714,26,0.103652699480871,1
259,720,26,0.10674935791793,1
259,721,26,0.0919438419609608,1
259,723,26,0.0854447394275707,1
259,724,26,0.0666694350819434,1
260,702,26,0.0594918899663667,1
260,703,26,0.0615242574506382,1
260,704,26,0.0698241075835268,1
260,709,26,0.0737561142979206,1
260,710,26,0.0736613682138876,1
260,711,26,0.0754036182000416,1
260,712,26,0.0795399183939424,1
260,713,26,0.0884551492665673,1
260,714,26,0.10395652146018,1
260,720,26,0.11068605859404,1
260,721,26,0.0998161169982459,1
260,723,26,0.0896403038366037,1
260,724,26,0.0696461557208354,1
261,704,26,0.0638535239103805,1
261,705,26,0.0751012173825092,1
261,710,26,0.0776421131111739,1
261,711,26,0.0809224729243325,1
261,712,26,0.0887629988537298,1
261,713,26,0.0996872217530357,1
261,714,26,0.11077777954948,1
261,720,26,0.0991278855009231,1
261,721,26,0.0889781957694337,1
261,722,26,0.0874241111405591,1
261,723,26,0.0765377229879486,1
261,724,26,0.0651414856770953,1
261,725,26,0.0599085793165837,1
262,705,26,0.070133519858949,1
262,710,26,0.0824860103429441,1
262,711,26,0.0899855812818205,1
262,712,26,0.111196296950114,1
262,719,26,0.128719905690525,1
262,720,26,0.0878509373251853,1
262,721,26,0.07875016523217,1
262,722,26,0.073529937285841,1
262,723,26,0.0666288110841278,1
262,724,26,0.0617984001468856,1
262,725,26,0.0609874651880231,1
262,726,26,0.0601190115073297,1
262,727,26,0.0598125064217642,1
262,728,26,0.0585941167157591,1
262,729,26,0.0585908321219453,1
263,710,26,0.0867164374425108,1
263,711,26,0.0963167508481918,1
263,715,26,0.124707099147699,1
263,716,26,0.13726046288784,1
263,717,26,0.144544960746686,1
263,718,26,0.121250078901015,1
263,719,26,0.0962821653136892,1
263,720,26,0.0815782417844112,1
263,721,26,0.073843359478307,1
263,722,26,0.0693387484039351,1
263,723,26,0.0668107256883683,1
263,724,26,0.0643348142035602,1
263,725,26,0.0638525980912984,1
263,726,26,0.064937445765872,1
263,727,26,0.0666848968503092,1
263,728,26,0.0641738926944312,1
264,715,26,0.100769262485679,1
264,716,26,0.0931988339538641,1
264,717,26,0.0921194409458573,1
264,718,26,0.0901253091999857,1
264,719,26,0.0867775061203128,1
264,720,26,0.0804811815536645,1
264,721,26,0.0741684517087577,1
264,722,26,0.07275427780309,1
264,723,26,0.0738719478280544,1
264,724,26,0.0729487882643975,1
264,725,26,0.0724982858784025,1
264,726,26,0.0748389275292882,1
231,688,27,0.0830187808946417,1
231,689,27,0.0573892781705872,1
232,687,27,0.117321445234487,1
232,688,27,0.0769976015035019,1
232,689,27,0.0592888702252149,1
233,687,27,0.0776744165311236,1
233,688,27,0.0613156651041828,1
238,685,27,0.0568604644635019,1
239,685,27,0.0597003407863381,1
239,686,27,0.0569505932459977,1
239,687,27,0.0568566963208681,1
240,685,27,0.0588793220654979,1
240,686,27,0.0583507265450753,1
240,687,27,0.0578644120617172,1
241,686,27,0.0603570236716253,1
241,687,27,0.0586481444509872,1
242,686,27,0.0647282637257337,1
242,687,27,0.0623491917375329,1
243,687,27,0.0611902549486386,1
244,687,27,0.0606379537421631,1
245,687,27,0.0619848671863582,1
245,688,27,0.0632752525941097,1
246,688,27,0.0734217461858377,1
246,689,27,0.0660585183233867,1
247,689,27,0.065349682928783,1
248,689,27,0.0619998513028409,1
248,690,27,0.0597575882490749,1
249,690,27,0.0598942202754049,1
249,691,27,0.0574969385462758,1
250,691,27,0.057023243507732,1
251,692,27,0.0578833117442545,1
251,693,27,0.0610016944965917,1
251,694,27,0.0637475559555618,1
251,695,27,0.0598576002976962,1
252,693,27,0.068000597807868,1
252,694,27,0.0772959334346223,1
252,695,27,0.0789133334742308,1
252,696,27,0.0708491308339693,1
253,693,27,0.0693501235950784,1
253,694,27,0.0823858567678389,1
253,695,27,0.0930753344058525,1
253,696,27,0.0932208059404892,1
253,697,27,0.0742537155183695,1
254,694,27,0.0851391778518978,1
254,695,27,0.101870314942659,1
254,696,27,0.109237865259805,1
254,697,27,0.0912851600140885,1
254,698,27,0.0678096844780263,1
254,704,27,0.0594141329573383,1
255,695,27,0.0973480602332941,1
255,696,27,0.104783448911723,1
255,697,27,0.0924446629089184,1
255,698,27,0.0738761405501399,1
255,699,27,0.0593464007409195,1
255,702,27,0.0631408614037748,1
255,703,27,0.118499912678159,1
255,704,27,0.138481883619376,1
255,705,27,0.0888754888206815,1
255,706,27,0.0590238206055579,1
256,696,27,0.0892540249896143,1
256,697,27,0.082628167799083,1
256,698,27,0.0721884726112759,1
256,699,27,0.0611872769955399,1
256,702,27,0.0940476685257271,1
256,705,27,0.14558054541099,1
256,706,27,0.0776330318284571,1
256,707,27,0.0602900521600574,1
256,712,27,0.0611463286661987,1
256,713,27,0.0706433218416973,1
256,714,27,0.0677021302472005,1
256,715,27,0.0593249535816721,1
257,697,27,0.0760254324978585,1
257,698,27,0.0695567994370643,1
257,699,27,0.059947280912993,1
257,702,27,0.073134394351093,1
257,703,27,0.141682811693446,1
257,705,27,0.117555164428771,1
257,706,27,0.0795764852992195,1
257,707,27,0.0662416359027404,1
257,708,27,0.0575703436159243,1
257,712,27,0.0696156567635554,1
257,713,27,0.0822823832172989,1
257,714,27,0.0774867995889694,1
257,715,27,0.0681543250540655,1
257,716,27,0.0675564051442801,1
257,717,27,0.0702579924015374,1
257,718,27,0.0682802305523033,1
257,719,27,0.0615375904248087,1
258,698,27,0.0655336378731664,1
258,699,27,0.0592373722758864,1
258,702,27,0.0579299918961935,1
258,703,27,0.0750570021501647,1
258,704,27,0.0899233921860209,1
258,705,27,0.0840647500647012,1
258,706,27,0.077440095849283,1
258,707,27,0.069010424652102,1
258,708,27,0.0605204336880962,1
258,709,27,0.0571409699545879,1
258,711,27,0.0582286127772185,1
258,712,27,0.0699084750587406,1
258,713,27,0.08234414183671,1
258,714,27,0.0819911806828049,1
258,715,27,0.0821059173826885,1
258,716,27,0.0903140406632006,1
258,717,27,0.0953695022975881,1
258,718,27,0.0923056131384885,1
258,719,27,0.0809120294492082,1
258,720,27,0.066283327246122,1
259,699,27,0.0603825750989058,1
259,700,27,0.0573000987949209,1
259,704,27,0.0625712644815795,1
259,705,27,0.072196232980143,1
259,706,27,0.075205870320415,1
259,707,27,0.0695444040758495,1
259,708,27,0.0624405883614469,1
259,709,27,0.0595270121221207,1
259,710,27,0.058153450420395,1
259,711,27,0.0594135196759081,1
259,712,27,0.0666361114919222,1
259,713,27,0.0774323531712264,1
259,714,27,0.08642995245748,1
259,715,27,0.10427785734187,1
259,716,27,0.131138876353312,1
259,717,27,0.142525059386871,1
259,718,27,0.125685141502424,1
259,719,27,0.0992684330933076,1
259,720,27,0.076362642933493,1
259,721,27,0.0645152309858461,1
259,722,27,0.0624237585037367,1
259,723,27,0.0584079150384438,1
260,705,27,0.0643786697227581,1
260,706,27,0.0703925722938509,1
260,707,27,0.0708490541737906,1
260,708,27,0.0660993899925491,1
260,709,27,0.0629474123910966,1
260,710,27,0.062662266010726,1
260,711,27,0.0630333366576332,1
260,712,27,0.0663050220767162,1
260,713,27,0.0748936452061253,1
260,714,27,0.0888047668572903,1
260,715,27,0.123771880348227,1
260,719,27,0.11208278346363,1
260,720,27,0.0795333845879357,1
260,721,27,0.0693732631751957,1
260,722,27,0.067192475687873,1
260,723,27,0.060932334725608,1
261,705,27,0.0602512326249115,1
261,706,27,0.0695477299482211,1
261,709,27,0.0681823296070668,1
261,710,27,0.0682350246345715,1
261,711,27,0.0694198725638928,1
261,712,27,0.0735676717846103,1
261,713,27,0.0801924085571441,1
261,714,27,0.0913262911484714,1
261,715,27,0.13014388620214,1
261,719,27,0.11429565618424,1
261,720,27,0.0771541415885668,1
261,721,27,0.0675416922868915,1
261,722,27,0.0637249529966959,1
261,723,27,0.0575701254292616,1
262,705,27,0.0572567445153534,1
262,706,27,0.0673373044563954,1
262,709,27,0.0734130010285201,1
262,710,27,0.0735560725098675,1
262,711,27,0.0781397202285596,1
262,712,27,0.089821846933824,1
262,713,27,0.0980995186872985,1
262,714,27,0.0997846627371996,1
262,715,27,0.115802583009293,1
262,716,27,0.154317777245429,1
262,717,27,0.175392816191158,1
262,718,27,0.1397893170715,1
262,719,27,0.0953368214736813,1
262,720,27,0.073111555514754,1
262,721,27,0.064942517131545,1
262,722,27,0.0606937446615031,1
262,731,27,0.0590854907709165,1
263,706,27,0.0627402058247961,1
263,707,27,0.071787168369246,1
263,708,27,0.077515553052948,1
263,709,27,0.0777605059118915,1
263,710,27,0.0782459653394093,1
263,711,27,0.085155282386378,1
263,712,27,0.102773312879297,1
263,714,27,0.107643085869873,1
263,715,27,0.101431122881502,1
263,716,27,0.105808572410091,1
263,717,27,0.107177829347932,1
263,718,27,0.0955427189200057,1
263,719,27,0.0818003852916998,1
263,720,27,0.0714553182491891,1
263,721,27,0.0644581958128352,1
263,722,27,0.0617098340526495,1
263,723,27,0.0604660875182793,1
263,724,27,0.0585167194198773,1
263,725,27,0.0574011781891083,1
263,726,27,0.0570411407110083,1
263,727,27,0.0575375979257124,1
264,707,27,0.070002271735944,1
264,708,27,0.0787573594951014,1
264,709,27,0.0815020356697689,1
264,710,27,0.0835912024495781,1
264,714,27,0.102835218922129,1
264,715,27,0.0897704256446744,1
264,716,27,0.0828552175578133,1
264,717,27,0.0803555237267735,1
264,718,27,0.0796022726039731,1
264,719,27,0.0764286001719264,1
264,720,27,0.0712472153484906,1
264,721,27,0.065949100660523,1
264,722,27,0.06522419611306,1
264,723,27,0.0665911119669794,1
264,724,27,0.066429170287779,1
264,725,27,0.0665116566401443,1
264,726,27,0.0676727988834127,1
264,727,27,0.0691953466941253,1
265,714,27,0.0929811898093761,1
265,715,27,0.0827618218723142,1
265,716,27,0.0770503731911854,1
265,717,27,0.0777543848914629,1
265,718,27,0.0801770057581465,1
265,719,27,0.0778008940322339,1
265,720,27,0.0736122821117223,1
265,721,27,0.0705973964976724,1
265,722,27,0.0720028134521489,1
265,723,27,0.0749872649752239,1
265,724,27,0.0761699546256658,1
265,725,27,0.0783000284562584,1
231,688,28,0.0651084687277892,1
232,687,28,0.0847564489608795,1
232,688,28,0.0640176120745867,1
233,686,28,0.0746280117897222,1
233,687,28,0.0629783241339546,1
238,684,28,0.0599839952416909,1
240,684,28,0.060449157412643,1
241,685,28,0.0569930629850407,1
242,685,28,0.062337456833243,1
242,686,28,0.0605417747024807,1
243,686,28,0.0638846892215223,1
244,686,28,0.0665619693051701,1
244,687,28,0.0585039584485791,1
245,686,28,0.0689601355748235,1
245,687,28,0.0621123471667294,1
245,688,28,0.0571282620557212,1
246,687,28,0.067024825773822,1
246,688,28,0.0679577860464888,1
246,689,28,0.0609125505025464,1
247,687,28,0.0633469652428882,1
247,688,28,0.0670925579902409,1
247,689,28,0.0643624708372886,1
248,688,28,0.0654652628906331,1
248,689,28,0.0654483740635546,1
248,690,28,0.0590753362456968,1
249,689,28,0.0633827478555671,1
249,690,28,0.0606358131540941,1
250,690,28,0.0588157177048593,1
250,691,28,0.057267040567057,1
251,692,28,0.058098591217074,1
251,693,28,0.0594022624235014,1
251,694,28,0.0575505063204312,1
252,692,28,0.062374029635457,1
252,693,28,0.0681231420521133,1
252,694,28,0.0687077112969176,1
252,695,28,0.0625756105240226,1
253,692,28,0.0644662215438596,1
253,693,28,0.0706543019380731,1
253,694,28,0.0728070435938367,1
253,695,28,0.0703512760452368,1
253,696,28,0.0627827581209548,1
254,693,28,0.0685355915047502,1
254,694,28,0.0726326416871165,1
254,695,28,0.0747821754092451,1
254,696,28,0.0712884526277364,1
254,697,28,0.0597199304104844,1
255,694,28,0.0732234380972123,1
255,695,28,0.076203862012433,1
255,696,28,0.0741448285798204,1
255,697,28,0.0650485676434793,1
255,703,28,0.064152162482216,1
255,704,28,0.0747324524379022,1
255,705,28,0.0598361767261962,1
256,695,28,0.0731458403054783,1
256,696,28,0.0719414263397581,1
256,697,28,0.0668688223100085,1
256,698,28,0.0608964813496871,1
256,702,28,0.0589814629083145,1
256,703,28,0.0971265182135621,1
256,704,28,0.117781076078694,1
256,705,28,0.0890098505263323,1
256,706,28,0.0599899983233829,1
256,713,28,0.059207439424542,1
256,714,28,0.0579887253870112,1
257,696,28,0.0685783619875715,1
257,697,28,0.0669760345184981,1
257,698,28,0.0623894442283283,1
257,703,28,0.0780087315707751,1
257,704,28,0.094621281261903,1
257,705,28,0.0769366743521838,1
257,706,28,0.0593492430644711,1
257,712,28,0.0571739397283994,1
257,713,28,0.067087032560432,1
257,714,28,0.0659325479588437,1
257,715,28,0.058957120353084,1
258,697,28,0.0648575127871537,1
258,698,28,0.0619005468866391,1
258,704,28,0.0610006094602152,1
258,705,28,0.0589204296121335,1
258,713,28,0.0662910699241786,1
258,714,28,0.0679727229874769,1
258,715,28,0.0664258503123442,1
258,716,28,0.0665936535467528,1
258,717,28,0.067497477054547,1
258,718,28,0.0659079459383928,1
258,719,28,0.0602505190955552,1
259,698,28,0.0603588045465477,1
259,699,28,0.0576229324985661,1
259,713,28,0.0634598503046074,1
259,714,28,0.0711883934036204,1
259,715,28,0.0781305269040431,1
259,716,28,0.0845141261357618,1
259,717,28,0.0848973444725369,1
259,718,28,0.0776974971418727,1
259,719,28,0.0673630151009702,1
259,720,28,0.0570577936606136,1
260,699,28,0.0580289896716803,1
260,713,28,0.0618547335844139,1
260,714,28,0.0733188387412333,1
260,715,28,0.0879812537321713,1
260,716,28,0.104945060362461,1
260,717,28,0.109560262590125,1
260,718,28,0.09278104187646,1
260,719,28,0.0721730875030888,1
260,720,28,0.0599571170036239,1
261,707,28,0.0577477057849328,1
261,708,28,0.0569083947660487,1
261,711,28,0.0573286399691736,1
261,712,28,0.0589303364660063,1
261,713,28,0.0635908979317603,1
261,714,28,0.0738910539033806,1
261,715,28,0.0902493866478065,1
261,716,28,0.114329929181091,1
261,717,28,0.123218311300333,1
261,718,28,0.102879835146178,1
261,719,28,0.0756928629515084,1
261,720,28,0.0618890537567592,1
262,707,28,0.0584980084393186,1
262,708,28,0.0596651419704053,1
262,709,28,0.0598075529948278,1
262,710,28,0.0627091702462646,1
262,711,28,0.0655328005081367,1
262,712,28,0.0691213460338571,1
262,713,28,0.0723989637713902,1
262,714,28,0.0781694230993677,1
262,715,28,0.085812183458328,1
262,716,28,0.0981272283934583,1
262,717,28,0.101484089168101,1
262,718,28,0.088554253186917,1
262,719,28,0.0714733864636334,1
262,720,28,0.0624964559409657,1
262,731,28,0.0578235993619231,1
263,707,28,0.0568786329258723,1
263,708,28,0.0616773891062159,1
263,709,28,0.0647561444430617,1
263,710,28,0.0688456937217814,1
263,711,28,0.0736966495869361,1
263,712,28,0.0800975681221219,1
263,713,28,0.0831631202174073,1
263,714,28,0.0845770995241596,1
263,715,28,0.082222346503442,1
263,716,28,0.0826281972837671,1
263,717,28,0.0806677252533159,1
263,718,28,0.0773213315415451,1
263,719,28,0.0701032803668895,1
263,720,28,0.063908848971711,1
263,721,28,0.0580182159680935,1
264,708,28,0.0645365896910411,1
264,709,28,0.0700348346211143,1
264,710,28,0.0748454790261053,1
264,711,28,0.0822411400411163,1
264,712,28,0.0885131751249655,1
264,713,28,0.0892985232749266,1
264,714,28,0.0868690206829634,1
264,715,28,0.0796796345182339,1
264,716,28,0.0741695249512606,1
264,717,28,0.0710521800598053,1
264,718,28,0.0719894450963574,1
264,719,28,0.0695098421290942,1
264,720,28,0.0656007568081551,1
264,721,28,0.0606036571575651,1
264,722,28,0.0597055006060636,1
264,723,28,0.060242487467594,1
264,724,28,0.0612126515147155,1
264,725,28,0.0620726725757433,1
264,726,28,0.062660679734719,1
264,727,28,0.0629814730982214,1
265,708,28,0.069033298870062,1
265,709,28,0.076146897602664,1
265,710,28,0.0833238235398736,1
265,713,28,0.0908932731801746,1
265,714,28,0.0837009680317148,1
265,715,28,0.0764602018563934,1
265,716,28,0.0716299619303193,1
265,717,28,0.070076661594043,1
265,718,28,0.0727648451138878,1
265,719,28,0.0722150088270068,1
265,720,28,0.0704539063338102,1
265,721,28,0.0672531964464021,1
265,722,28,0.0670382884806028,1
265,723,28,0.068822866679316,1
265,724,28,0.0721825461897627,1
265,725,28,0.0756357864999397,1
266,714,28,0.0833569112524216,1
266,715,28,0.0771493473789248,1
266,716,28,0.0715249197945828,1
266,717,28,0.0705921010483999,1
266,718,28,0.0733245233883365,1
266,719,28,0.0731324778466236,1
266,720,28,0.0732111606747341,1
266,721,28,0.0739168117234501,1
266,722,28,0.0759005884482498,1
266,723,28,0.0783978409474424,1
266,724,28,0.0821239855971328,1
231,687,29,0.0619761868953458,1
232,686,29,0.0748658765305971,1
232,687,29,0.0617500216771398,1
233,686,29,0.0615514069477993,1
237,684,29,0.0572582718219921,1
238,684,29,0.060051202630732,1
240,684,29,0.0614467540098935,1
241,684,29,0.0591199288819983,1
242,684,29,0.0576798674236509,1
242,685,29,0.0604828171280634,1
243,685,29,0.0649917742448784,1
243,686,29,0.0610268390352309,1
244,685,29,0.0662136962160441,1
244,686,29,0.0654266379544026,1
245,686,29,0.0718523649028284,1
245,687,29,0.0611204529073927,1
246,687,29,0.0655138949286626,1
246,688,29,0.0600335530988026,1
247,686,29,0.068584211748906,1
247,687,29,0.0662688620600803,1
247,688,29,0.0650089166402405,1
247,689,29,0.0602685991038732,1
248,687,29,0.0687993732829889,1
248,688,29,0.0696640116455539,1
248,689,29,0.0653363676454229,1
249,688,29,0.0746735361420428,1
249,689,29,0.0677394047848972,1
249,690,29,0.0596968851813563,1
250,689,29,0.0662240925156738,1
250,690,29,0.060995956777057,1
251,690,29,0.05711115504198,1
251,692,29,0.0573361998421885,1
251,693,29,0.0577732866968974,1
252,691,29,0.0587435038164503,1
252,692,29,0.0651410375098962,1
252,693,29,0.0685474974202081,1
252,694,29,0.0625138578015484,1
253,692,29,0.070059719694533,1
253,693,29,0.0736800674005727,1
253,694,29,0.0679372293247026,1
253,695,29,0.0607170906344094,1
254,693,29,0.0707937055247127,1
254,694,29,0.0683411282189373,1
254,695,29,0.0652026251181392,1
254,696,29,0.0583169842725393,1
255,693,29,0.0679972660385595,1
255,694,29,0.0684626346023007,1
255,695,29,0.0680918293175508,1
255,696,29,0.0628502072844059,1
256,694,29,0.0675684761739693,1
256,695,29,0.0673658456306481,1
256,696,29,0.0645660684782497,1
256,697,29,0.0598807457747504,1
256,704,29,0.0573461007991246,1
257,695,29,0.0654952134327881,1
257,696,29,0.0632644847874598,1
257,697,29,0.0615392946395523,1
258,696,29,0.0623115280020055,1
258,697,29,0.0614559237466627,1
258,698,29,0.0580895806975991,1
259,697,29,0.0604237769965306,1
259,698,29,0.0583361198325496,1
259,714,29,0.0576104015078043,1
259,715,29,0.060698338375293,1
259,716,29,0.0608470827098699,1
259,717,29,0.0593532647753885,1
259,718,29,0.0573649709969777,1
260,714,29,0.0586080629713598,1
260,715,29,0.0654312316681925,1
260,716,29,0.068389235429589,1
260,717,29,0.0665785632854071,1
260,718,29,0.0619073637456135,1
261,714,29,0.058721018796321,1
261,715,29,0.0670792073252598,1
261,716,29,0.0733720998746736,1
261,717,29,0.0731441301937979,1
261,718,29,0.0675105859451181,1
261,719,29,0.0588998610964736,1
262,714,29,0.0601520874260041,1
262,715,29,0.0658429852822835,1
262,716,29,0.0701793508519847,1
262,717,29,0.0704153993363163,1
262,718,29,0.0671116758594408,1
262,719,29,0.0600654083515533,1
263,710,29,0.058956707567506,1
263,711,29,0.0618144751966817,1
263,712,29,0.061912623813265,1
263,713,29,0.0610715260225218,1
263,714,29,0.0642801613930282,1
263,715,29,0.0657723635668184,1
263,716,29,0.0664584780638196,1
263,717,29,0.0661137313429174,1
263,718,29,0.0660527982946625,1
263,719,29,0.0617916068756585,1
264,709,29,0.0596452516024808,1
264,710,29,0.0655267089723922,1
264,711,29,0.0712290822677411,1
264,712,29,0.0734663742037602,1
264,713,29,0.0704039946604888,1
264,714,29,0.0692129785352443,1
264,715,29,0.0668571699628342,1
264,716,29,0.0635205651661997,1
264,717,29,0.0612891053007046,1
264,718,29,0.0627040517050969,1
264,719,29,0.0617732025358149,1
264,720,29,0.0588924663376899,1
264,724,29,0.0569486708445914,1
264,725,29,0.058219248441534,1
264,726,29,0.0585797812623275,1
264,727,29,0.0588055749735133,1
264,728,29,0.0579031726274948,1
265,708,29,0.0573074699659572,1
265,709,29,0.0639621336928987,1
265,710,29,0.0713210980700222,1
265,711,29,0.0809619706072137,1
265,712,29,0.0849235504598054,1
265,713,29,0.0783120582073897,1
265,714,29,0.0717169240577379,1
265,715,29,0.0669316777596697,1
265,716,29,0.0628991813447714,1
265,717,29,0.0603006489555393,1
265,718,29,0.0625617173408532,1
265,719,29,0.0643638625143803,1
265,720,29,0.0643975635083585,1
265,721,29,0.0623465440128966,1
265,722,29,0.0617245351161645,1
265,723,29,0.06282760432554,1
265,724,29,0.066786306472959,1
265,725,29,0.0701851416439509,1
265,726,29,0.0716430472331431,1
266,710,29,0.0748556630360091,1
266,713,29,0.0800595210857006,1
266,714,29,0.0729993368068965,1
266,715,29,0.0681160539340447,1
266,716,29,0.0644416608019664,1
266,717,29,0.0631643017276704,1
266,718,29,0.065229509253143,1
266,719,29,0.0671883891106504,1
266,720,29,0.0688979228912766,1
266,721,29,0.06971893571518,1
266,722,29,0.0713258922796643,1
267,712,29,0.0860722737541117,1
267,713,29,0.0810248024691276,1
267,714,29,0.0757852620546834,1
267,715,29,0.0703739497673446,1
232,686,30,0.0569918069374961,1
237,683,30,0.0617524865967343,1
237,684,30,0.058149481781909,1
238,684,30,0.0600610564121734,1
239,684,30,0.0598421621170777,1
240,683,30,0.0694284290192319,1
240,684,30,0.0592590671064807,1
241,683,30,0.0600627016575487,1
243,684,30,0.0586737430537622,1
243,685,30,0.0612598152154745,1
244,684,30,0.0588594847700048,1
244,685,30,0.0618812992848289,1
244,686,30,0.0589267629222879,1
245,684,30,0.0633594136765344,1
245,685,30,0.0681071377655591,1
245,686,30,0.067692659766653,1
246,686,30,0.0699852708670658,1
246,687,30,0.0612258311685285,1
247,685,30,0.064076463504141,1
247,686,30,0.0665995033080872,1
247,687,30,0.0657636243064377,1
247,688,30,0.0608714134712267,1
248,686,30,0.0647938553540837,1
248,687,30,0.0701163951543974,1
248,688,30,0.0703937575781535,1
248,689,30,0.0625812479956312,1
249,688,30,0.0791940453581059,1
249,689,30,0.0691885888045192,1
250,689,30,0.0693037736716018,1
250,690,30,0.0599966264803788,1
251,689,30,0.0607658111264914,1
251,690,30,0.0578894622493672,1
252,691,30,0.0607042588998693,1
252,692,30,0.0673952595515516,1
252,693,30,0.0680068898394646,1
253,691,30,0.0660361217573098,1
253,692,30,0.0757946676689258,1
253,693,30,0.0752029277489373,1
253,694,30,0.0619746124132124,1
254,692,30,0.0726782780812368,1
254,693,30,0.0712991319803339,1
254,694,30,0.0618607425630427,1
255,693,30,0.0646514266388507,1
255,694,30,0.0609984511813357,1
256,694,30,0.0611901075252179,1
256,695,30,0.0588623978567984,1
257,694,30,0.0640970025351167,1
257,695,30,0.061173265873634,1
257,696,30,0.0571251602669491,1
258,695,30,0.0648878053516447,1
258,696,30,0.0592529342921784,1
259,696,30,0.0609488461487294,1
259,697,30,0.0574056303764142,1
264,711,30,0.0611013468320665,1
264,712,30,0.0616571567159553,1
264,713,30,0.0576918617931613,1
265,710,30,0.0602981073757659,1
265,711,30,0.0691993919927901,1
265,712,30,0.0735950512623077,1
265,713,30,0.068640380072203,1
265,714,30,0.0621213223045833,1
265,715,30,0.0577259519849703,1
265,720,30,0.0568825131103058,1
265,723,30,0.0579710227826503,1
265,724,30,0.0624560560267496,1
265,725,30,0.0660139905533903,1
265,726,30,0.0673670073272035,1
266,710,30,0.0618402625014353,1
266,711,30,0.0708862166696875,1
266,712,30,0.0756532532268274,1
266,713,30,0.072320546305437,1
266,714,30,0.066199107194329,1
266,715,30,0.0612921776047926,1
266,716,30,0.0575256802163808,1
266,718,30,0.0578020283670023,1
266,719,30,0.0603596006330197,1
266,720,30,0.062844923629007,1
266,721,30,0.0638011532144014,1
266,722,30,0.0658449076836898,1
267,711,30,0.072617922932791,1
267,712,30,0.0748616956023853,1
267,713,30,0.0724922061365317,1
267,714,30,0.0677292266719302,1
267,715,30,0.0632853894285189,1
267,716,30,0.0616062012848152,1
267,717,30,0.0629429719976642,1
267,718,30,0.0650272855984631,1
236,683,31,0.0584685237551731,1
236,684,31,0.0581444340039833,1
237,683,31,0.0660554283284882,1
237,684,31,0.0596158730631983,1
238,684,31,0.0602020757595042,1
239,683,31,0.0689821901185643,1
239,684,31,0.0584480613843762,1
240,682,31,0.0662941127435824,1
240,683,31,0.0650630269325842,1
241,683,31,0.057644190955835,1
245,685,31,0.0576124241571367,1
246,684,31,0.0603224676218069,1
246,685,31,0.0608824938155285,1
246,686,31,0.0609972482062226,1
247,684,31,0.059438192459601,1
247,685,31,0.0591578992582408,1
247,686,31,0.0610476788099849,1
247,687,31,0.0609347642635816,1
248,685,31,0.0589038710135174,1
248,686,31,0.0640604061451554,1
248,687,31,0.0679695327446524,1
248,688,31,0.0656755240702111,1
249,688,31,0.0769851943484135,1
249,689,31,0.0655584050078486,1
250,689,31,0.0684735380384976,1
251,688,31,0.0762724787693763,1
251,689,31,0.06285689441077,1
252,691,31,0.0591126402680776,1
252,692,31,0.0653281060369254,1
252,693,31,0.0639816053783083,1
253,691,31,0.0656937632958235,1
253,692,31,0.0759162448155311,1
253,693,31,0.0728712848236528,1
253,694,31,0.0568983522826288,1
254,691,31,0.0647057904994781,1
254,692,31,0.0728354727262898,1
254,693,31,0.0692640047296264,1
255,692,31,0.0625911135709462,1
255,693,31,0.0611373771160922,1
256,693,31,0.057115642610907,1
258,695,31,0.0610007804713832,1
258,696,31,0.0568654178904383,1
259,696,31,0.0605958849948244,1
260,697,31,0.0579325216820932,1
265,711,31,0.0580340669342901,1
265,712,31,0.0611758015564705,1
265,713,31,0.0592620155748952,1
265,724,31,0.0590644622941839,1
265,725,31,0.0625150018072932,1
265,726,31,0.0639521383849734,1
266,711,31,0.0605352114117899,1
266,712,31,0.064983919525022,1
266,713,31,0.0644855045272907,1
266,714,31,0.0599173539585854,1
266,720,31,0.0571634077992226,1
266,721,31,0.0588363333960138,1
266,722,31,0.0620623706271029,1
267,713,31,0.0643418492491973,1
267,714,31,0.0604536567754436,1
267,715,31,0.058057843383585,1
267,716,31,0.0576245777439414,1
267,717,31,0.0584698623598333,1
267,718,31,0.059984372645648,1
267,719,31,0.0618980701731709,1
268,716,31,0.0606946527897748,1
268,717,31,0.062660679734719,1
268,718,31,0.0651443397945205,1
236,682,32,0.0600747432025537,1
236,683,32,0.0593389234250202,1
236,684,32,0.0582557386866323,1
237,682,32,0.0747803709465754,1
237,683,32,0.0667718118022332,1
237,684,32,0.0581324927069044,1
238,683,32,0.0698042113186655,1
238,684,32,0.0577706212814506,1
239,681,32,0.0711007649223402,1
239,682,32,0.071596886011645,1
239,683,32,0.0650276276207992,1
240,681,32,0.0592137491469491,1
240,682,32,0.0616080116444217,1
240,683,32,0.0582748388650218,1
246,683,32,0.0655550673416033,1
246,684,32,0.0584079504200648,1
247,683,32,0.0658010698553024,1
247,684,32,0.0609336202578367,1
247,685,32,0.0575344843430666,1
247,686,32,0.0573077825036092,1
248,684,32,0.0587141134832942,1
248,685,32,0.0601451703191035,1
248,686,32,0.0634093253498558,1
248,687,32,0.0648211935532233,1
248,688,32,0.0587734720494158,1
249,685,32,0.0655920529293954,1
249,686,32,0.0799068199065114,1
249,687,32,0.080208318492709,1
249,688,32,0.0706147747705077,1
249,689,32,0.058510173819997,1
250,688,32,0.0816388622950142,1
250,689,32,0.0645791301933261,1
251,687,32,0.0984080051436385,1
251,688,32,0.0765149902964725,1
251,689,32,0.0619853153535572,1
252,688,32,0.0627861724473788,1
252,692,32,0.057371239440827,1
253,691,32,0.0591697226165831,1
253,692,32,0.067112359904113,1
253,693,32,0.063655705267512,1
254,691,32,0.059185184384949,1
254,692,32,0.0650776277481731,1
254,693,32,0.0608779059986755,1
255,692,32,0.0571385993859826,1
259,695,32,0.0606169842347989,1
259,696,32,0.0588890697020764,1
260,696,32,0.0613777893336773,1
260,697,32,0.0573489254318657,1
261,697,32,0.0585422590532841,1
264,727,32,0.0575109968436764,1
264,728,32,0.0580536742492468,1
265,726,32,0.0621099353195663,1
266,722,32,0.0589090898026111,1
267,713,32,0.0572233855437113,1
268,717,32,0.0568744048221658,1
236,682,33,0.0595654896349305,1
236,683,33,0.0575173891231991,1
237,681,33,0.0725598675897087,1
237,682,33,0.0713995096390386,1
237,683,33,0.0637691977137246,1
238,681,33,0.0748661890682491,1
238,682,33,0.075072033442142,1
238,683,33,0.0652780646309938,1
239,681,33,0.0668774849102104,1
239,682,33,0.0687087137761785,1
239,683,33,0.0615837870279278,1
240,681,33,0.0579321088965152,1
240,682,33,0.060221783322387,1
241,682,33,0.0580517636417142,1
245,682,33,0.0576191879436796,1
246,682,33,0.06613258384996,1
246,683,33,0.0641684085431801,1
247,683,33,0.0649006724678058,1
247,684,33,0.0576260578750855,1
248,685,33,0.0570872193753908,1
248,686,33,0.0585454139144876,1
249,685,33,0.0596749780610362,1
249,686,33,0.067376648818919,1
249,687,33,0.0676741846635675,1
249,688,33,0.057878016294982,1
250,685,33,0.067340524183904,1
250,686,33,0.0816789850531993,1
250,687,33,0.0822258139022975,1
250,688,33,0.0678536697298344,1
251,686,33,0.0786296082556361,1
251,687,33,0.079086703417006,1
251,688,33,0.0658242153323566,1
252,687,33,0.067040629564524,1
252,688,33,0.0592471729848964,1
263,728,33,0.0598263229447548,1
264,726,33,0.0583652507004853,1
264,727,33,0.0602005720406128,1
265,724,33,0.0607631221232973,1
266,723,33,0.0633257303733667,1
236,682,34,0.0570762805575728,1
237,681,34,0.063011158278219,1
237,682,34,0.0629295210847571,1
237,683,34,0.058379202853023,1
238,681,34,0.0637544317839045,1
238,682,34,0.0651822158197738,1
238,683,34,0.0592413350174356,1
239,681,34,0.0594751013872143,1
239,682,34,0.0622598826292564,1
240,682,34,0.0577370264323353,1
241,682,34,0.0577989147843566,1
246,682,34,0.0613605702781363,1
246,683,34,0.0584996890663149,1
247,682,34,0.0614683721803089,1
247,683,34,0.0588426549122946,1
250,685,34,0.0575277972167024,1
250,686,34,0.0615938766868424,1
250,687,34,0.0614221873710635,1
251,686,34,0.0625040099170438,1
251,687,34,0.0625849748597072,1
252,686,34,0.0604088164677952,1
252,687,34,0.0608478905902154,1
262,727,34,0.0576498284274436,1
262,728,34,0.066083969502741,1
262,729,34,0.0612353665153811,1
263,727,34,0.0599350034905148,1
263,728,34,0.0646465616659667,1
264,726,34,0.0578974997742653,1
264,727,34,0.0598359172609757,1
265,724,34,0.060035540366514,1
261,726,35,0.0591402084477536,1
261,727,35,0.0678782481625381,1
261,728,35,0.0670883829589659,1
262,726,35,0.0604973648712208,1
262,727,35,0.0703414104699217,1
262,728,35,0.0716603842274206,1
263,727,35,0.061044848280307,1
265,724,35,0.0574505237564941,1
260,726,36,0.061240237385202,1
260,727,36,0.071768363037698,1
260,728,36,0.0644062143146868,1
261,726,36,0.0771014111794412,1
261,727,36,0.0931111465032155,1
261,728,36,0.0797387395160719,1
262,726,36,0.0713810994022582,1
262,727,36,0.0846665560558569,1
263,726,36,0.0570225476691862,1
231,685,37,0.074337953260973,1
231,686,37,0.0712878393463062,1
232,685,37,0.0864304124185527,1
232,686,37,0.0815656518242811,1
233,685,37,0.0626495286271752,1
233,686,37,0.0592373486881391,1
260,726,37,0.075552486370292,1
260,727,37,0.0930895696113579,1
260,728,37,0.08022166915769,1
261,725,37,0.0601589160788521,1
261,726,37,0.0940473147095174,1
261,727,37,0.120168167900982,1
261,728,37,0.0989648351975988,1
261,729,37,0.0641019795498005,1
262,726,37,0.0793606279265908,1
262,727,37,0.0979234479474556,1
262,728,37,0.0823645511350754,1
263,727,37,0.0635951142415931,1
231,685,38,0.100918679071054,1
231,686,38,0.0901229976007487,1
232,684,38,0.0710704664609123,1
232,685,38,0.126373903724062,1
232,686,38,0.109902273132339,1
233,685,38,0.0803062902011874,1
233,686,38,0.0697378236038436,1
259,723,38,0.0611776531946349,1
259,724,38,0.0685794234362008,1
259,725,38,0.0585070838250986,1
259,727,38,0.0575124003146417,1
260,723,38,0.0634755597443201,1
260,724,38,0.0733882574815853,1
260,725,38,0.0697155154918192,1
260,726,38,0.0833536738341025,1
260,727,38,0.103584236044286,1
260,728,38,0.089118613629208,1
261,724,38,0.0582279700111042,1
261,725,38,0.06653243744553,1
261,726,38,0.100086916131311,1
261,727,38,0.132479792612752,1
261,728,38,0.110519116312409,1
261,729,38,0.0677887916308408,1
262,726,38,0.0788183633065983,1
262,727,38,0.10093291427656,1
262,728,38,0.0859785655309607,1
231,686,39,0.0878200727578219,1
232,685,39,0.134171812490995,1
232,686,39,0.112419168328109,1
232,687,39,0.0577333821253749,1
233,685,39,0.084667346245392,1
233,686,39,0.0707906568083721,1
253,732,39,0.0650446225927407,1
258,723,39,0.0570670046759407,1
258,724,39,0.0593253073978818,1
259,723,39,0.0860517936925043,1
259,724,39,0.0912171860232596,1
259,725,39,0.0726334554643989,1
259,726,39,0.0615891060649476,1
259,727,39,0.0627793732792149,1
260,723,39,0.0821828959960554,1
260,724,39,0.0929789784580652,1
260,725,39,0.0849093093573631,1
260,726,39,0.0901238939351467,1
260,727,39,0.104089108187845,1
260,728,39,0.087516445377429,1
261,724,39,0.065802219757984,1
261,725,39,0.0746091180041218,1
261,726,39,0.100925708219754,1
261,727,39,0.12707901225459,1
261,728,39,0.106272979773129,1
262,726,39,0.0755335395122601,1
262,727,39,0.0932580215088176,1
231,686,40,0.0687527462034813,1
232,685,40,0.105741724734197,1
232,686,40,0.0896640861828354,1
233,685,40,0.0738455708296179,1
233,686,40,0.0637179769204271,1
258,723,40,0.0636846946089637,1
258,724,40,0.0651606625156634,1
259,722,40,0.0625759584432955,1
259,723,40,0.0986423730009738,1
259,724,40,0.102518364712428,1
259,725,40,0.0800751125866767,1
260,723,40,0.0894388231959643,1
260,724,40,0.100784052003246,1
260,725,40,0.0919384580576358,1
260,726,40,0.0904206277963864,1
260,727,40,0.0914999264534039,1
261,723,40,0.0577736582039176,1
261,724,40,0.0693771079780083,1
261,725,40,0.0783173300689149,1
261,726,40,0.09440660327664,1
261,727,40,0.104031636641509,1
232,685,41,0.0702143845536863,1
232,686,41,0.066110157799199,1
233,685,41,0.0591993901057703,1
233,686,41,0.0579581969450471,1
253,729,41,0.0660821945247555,1
258,723,41,0.0607258770702848,1
258,724,41,0.0627573187354741,1
259,722,41,0.060532587274901,1
259,723,41,0.092621848169822,1
259,724,41,0.0983918829183478,1
259,725,41,0.0805045216296341,1
260,700,41,0.0598333108148972,1
260,723,41,0.0845258787308622,1
260,724,41,0.0977142128348859,1
260,725,41,0.091027994598972,1
260,726,41,0.0833036206342972,1
261,723,41,0.0578811829500592,1
261,724,41,0.0712254261669071,1
261,725,41,0.0774807965072773,1
253,728,42,0.064295210375816,1
253,729,42,0.0780275251084494,1
259,723,42,0.0750853959009967,1
259,724,42,0.083354033547249,1
260,700,42,0.0636998615304881,1
260,701,42,0.0606782593053899,1
260,723,42,0.0730612251589177,1
260,724,42,0.0878826274637048,1
260,725,42,0.0854248431627093,1
261,724,42,0.0689757329727364,1
228,674,43,0.0602978066319876,1
228,675,43,0.070318730850877,1
228,676,43,0.057013065394765,1
229,675,43,0.0644173477314201,1
253,728,43,0.0611329956920282,1
260,700,43,0.0578764595036591,1
260,701,43,0.0578061385319722,1
260,724,43,0.0734649058664898,1
227,675,44,0.057062440446835,1
228,674,44,0.0636567313345202,1
228,675,44,0.0773375245300778,1
228,676,44,0.0575468207349131,1
229,675,44,0.0643851622502069,1
228,674,45,0.0587214787573937,1
228,675,45,0.0708646043962089,1
229,675,45,0.0585588058580265,1
238,728,45,0.0721701685193584,1
236,728,46,0.0610259368038961,1
237,728,46,0.0723993116906631,1
238,728,46,0.0646939730380726,1
238,729,46,0.0729235965502636,1
234,674,48,0.0572241226608149,1
234,674,49,0.0598524758595918,1
255,708,51,0.065339092030238,1
254,708,52,0.0589962760136292,1
254,709,52,0.0572438773991923,1
255,708,52,0.0696119652811004,1
255,709,52,0.0585858256225774,1
254,708,53,0.0611193147985847,1
254,709,53,0.0600639812928407,1
255,708,53,0.0626864965241567,1
254,708,54,0.058105077847586,1
234,709,57,0.059247703709211,1
234,710,57,0.0643532126464669,1
235,710,57,0.0582807181110404,1
234,709,58,0.0637311329864928,1
234,710,58,0.0766931072733951,1
235,709,58,0.0589004979656511,1
235,710,58,0.0677821162983503,1
234,709,59,0.0637534646862646,1
234,710,59,0.0762313712227407,1
235,710,59,0.0655772869995753,1
234,709,60,0.0596978286912489,1
234,710,60,0.065690879693714,1
