x,y,z,signal,cytoplasm.p
530,516,9,0.0681065067933184,1
531,516,9,0.0583601852317491,1
534,511,9,0.0664963776768201,1
535,511,9,0.0598761166793396,1
554,516,9,0.0648650962479159,1
554,517,9,0.0833602312278564,1
555,516,9,0.0668274670920261,1
555,517,9,0.0859589818037513,1
529,513,10,0.0851983418191041,1
529,514,10,0.077673366876368,1
529,515,10,0.0599317071028274,1
529,516,10,0.058142340591409,1
530,513,10,0.0606810426595732,1
530,515,10,0.0572008179664663,1
530,516,10,0.0757967256998791,1
530,517,10,0.0783437778305934,1
531,516,10,0.0637804549661313,1
531,517,10,0.0656328243506317,1
534,511,10,0.0665897143929509,1
534,512,10,0.0579375871508294,1
538,522,10,0.0704853605948566,1
554,516,10,0.0633261018803869,1
554,517,10,0.0819909624961422,1
555,516,10,0.0627538749243659,1
555,517,10,0.0818014998127605,1
528,513,11,0.0810396214713792,1
528,514,11,0.0744028136691562,1
529,512,11,0.0690097465043666,1
529,513,11,0.0791445346764889,1
529,514,11,0.0703635003952835,1
529,515,11,0.0580254338187723,1
529,516,11,0.0595800904505194,1
530,513,11,0.0574960304180041,1
530,515,11,0.0579549418359174,1
530,516,11,0.0762308817769839,1
530,517,11,0.0749323762872188,1
531,516,11,0.0631162063108924,1
531,517,11,0.0627086749035709,1
536,522,11,0.0578604847017891,1
537,521,11,0.066024451719325,1
537,522,11,0.0872151178023994,1
537,523,11,0.0571026280713252,1
538,521,11,0.0583086754885471,1
538,522,11,0.0696963858287456,1
540,511,11,0.0587280007695267,1
541,511,11,0.0604822156405069,1
554,517,11,0.0678995007228701,1
555,517,11,0.0654663538239465,1
528,513,12,0.0711613972268169,1
528,514,12,0.0690470800114316,1
529,512,12,0.0581477421855444,1
529,513,12,0.0680916701002564,1
529,514,12,0.0615868416412053,1
530,516,12,0.0654265023248556,1
530,517,12,0.0619579889482912,1
537,521,12,0.063396517203063,1
537,522,12,0.0746069597252424,1
538,521,12,0.0664406339329748,1
538,522,12,0.0725521131177784,1
540,511,12,0.0623447690349111,1
541,511,12,0.0601961611318647,1
548,496,12,0.0569458167271661,1
548,497,12,0.0593238449575482,1
549,496,12,0.0591435638048093,1
549,497,12,0.0656438221378179,1
549,498,12,0.0569600637265452,1
550,497,12,0.061070794802355,1
550,498,12,0.0596550228268066,1
563,517,12,0.0581384780977859,1
563,518,12,0.0610898065266919,1
564,517,12,0.0644508423326093,1
564,518,12,0.0614655003720731,1
565,517,12,0.0604881597528306,1
567,511,12,0.0618407873288131,1
567,512,12,0.0635144323518975,1
568,511,12,0.0619288698742292,1
568,512,12,0.0651424114961774,1
571,517,12,0.058466943376103,1
572,516,12,0.0570987184022075,1
572,517,12,0.0597980884112171,1
528,514,13,0.0635232600663306,1
529,513,13,0.0568803430375527,1
529,514,13,0.0574008656514563,1
531,525,13,0.0579209283042872,1
532,524,13,0.0654612175919684,1
532,525,13,0.062744658012102,1
533,524,13,0.0606481731336879,1
537,521,13,0.0572417603988707,1
537,522,13,0.0618708263250205,1
538,521,13,0.0730685727422068,1
538,522,13,0.0766541756964495,1
539,521,13,0.0580416327042418,1
539,522,13,0.0595151474852206,1
547,496,13,0.0569009115532126,1
548,496,13,0.0655542240796368,1
548,497,13,0.0641376619145533,1
549,496,13,0.0654516527604316,1
549,497,13,0.0693907240051467,1
550,496,13,0.0579038094966724,1
550,497,13,0.062883289100017,1
560,521,13,0.0597618753221497,1
562,517,13,0.0576778860528764,1
562,518,13,0.0656799408758961,1
562,519,13,0.0615184489678615,1
563,517,13,0.077254401308535,1
563,518,13,0.0852503999774312,1
563,519,13,0.0680998432547015,1
564,509,13,0.0605264662544724,1
564,516,13,0.0612153876934042,1
564,517,13,0.0848214567924834,1
564,518,13,0.0874289053502011,1
564,519,13,0.0667217409116174,1
565,509,13,0.068703795730863,1
565,510,13,0.0620378452668307,1
565,516,13,0.0571244172529087,1
565,517,13,0.0704293455919171,1
565,518,13,0.0668917790850841,1
566,509,13,0.0613878141262867,1
566,510,13,0.0632917876049784,1
566,511,13,0.0596250722846517,1
566,512,13,0.0591056052224405,1
566,513,13,0.0649447343797927,1
566,514,13,0.0626110275266181,1
566,515,13,0.0592164676348273,1
567,510,13,0.0613017011577716,1
567,511,13,0.0703557636141637,1
567,512,13,0.069265915337159,1
567,513,13,0.0687293058795857,1
567,514,13,0.0683796529072418,1
567,515,13,0.0656010398611229,1
568,511,13,0.0668127011622061,1
568,512,13,0.0653126737532437,1
568,513,13,0.0607815382570145,1
568,514,13,0.0588582228255234,1
570,508,13,0.0598710217259192,1
570,509,13,0.0600501588729133,1
570,517,13,0.0618271241261801,1
571,508,13,0.0756822425682792,1
571,509,13,0.0718647602640431,1
571,510,13,0.059026232452721,1
571,515,13,0.0573115329554325,1
571,516,13,0.0711703310861129,1
571,517,13,0.0803895549492142,1
571,518,13,0.0664289579980532,1
572,508,13,0.0700316266874792,1
572,509,13,0.0683697637441794,1
572,510,13,0.0600639930867143,1
572,513,13,0.0572948387272693,1
572,515,13,0.0573427100604478,1
572,516,13,0.0692208627397848,1
572,517,13,0.0760396500125534,1
572,518,13,0.0642650652347457,1
573,516,13,0.0579068818007603,1
573,517,13,0.0596714811774966,1
529,515,14,0.0571202009430759,1
530,515,14,0.0571200712104656,1
531,524,14,0.0728627283683138,1
531,525,14,0.066088663464457,1
532,523,14,0.0658921598385013,1
532,524,14,0.085370479302082,1
532,525,14,0.0719193423113332,1
533,516,14,0.0574553533477571,1
533,523,14,0.0641318888133976,1
533,524,14,0.0754144095944389,1
533,525,14,0.0602407832528504,1
534,516,14,0.0625941386995396,1
534,524,14,0.0569604057488813,1
535,516,14,0.0590415703854134,1
536,516,14,0.0592658662746446,1
538,521,14,0.0653677865248483,1
538,522,14,0.0689345546628589,1
547,496,14,0.0633166372967762,1
548,496,14,0.0676767026555935,1
548,497,14,0.0615388641631638,1
549,496,14,0.0632697389581745,1
549,497,14,0.0637907333270244,1
552,495,14,0.0592098158900841,1
553,495,14,0.0595305797689023,1
561,495,14,0.0578306167167497,1
561,520,14,0.0578630085907519,1
562,495,14,0.0597856753591919,1
562,496,14,0.0597096874312122,1
562,518,14,0.0663034299037724,1
562,519,14,0.0614465417201676,1
563,517,14,0.0817642547597479,1
563,518,14,0.0973150137993039,1
563,519,14,0.0733449621713861,1
564,509,14,0.0651654095498109,1
564,516,14,0.0599348678609678,1
564,517,14,0.0872707554013818,1
564,518,14,0.0984980454720819,1
564,519,14,0.072250885790675,1
565,509,14,0.0713351858521069,1
565,510,14,0.0613136188671031,1
565,513,14,0.0580656804126308,1
565,517,14,0.0644988139137139,1
565,518,14,0.0659153937696079,1
566,509,14,0.0599325562617308,1
566,510,14,0.0597437304475266,1
566,511,14,0.0601547410475771,1
566,512,14,0.0613275356380198,1
566,513,14,0.070137694890224,1
566,514,14,0.0677304650286643,1
566,515,14,0.0598950222588136,1
566,523,14,0.0600429764038554,1
567,510,14,0.0584727223741955,1
567,511,14,0.068557504522007,1
567,512,14,0.0672501005545668,1
567,513,14,0.0744655983555755,1
567,514,14,0.0771540649283881,1
567,515,14,0.0705478327436239,1
567,523,14,0.0581001833900178,1
568,511,14,0.0628090643561493,1
568,512,14,0.0589402256290687,1
568,513,14,0.061239063894773,1
568,514,14,0.0639483466545923,1
568,515,14,0.0614216684406225,1
570,508,14,0.0651720259129331,1
570,509,14,0.0645493093837814,1
570,516,14,0.0624656090644128,1
570,517,14,0.0718822093001204,1
570,518,14,0.0622709334888741,1
570,522,14,0.0659273409636236,1
570,523,14,0.0639651470276183,1
571,508,14,0.0851721181410251,1
571,509,14,0.0791178038618426,1
571,510,14,0.0616423730953248,1
571,512,14,0.0574743709690309,1
571,513,14,0.0599087503277517,1
571,514,14,0.0578378168766181,1
571,515,14,0.0672118117437355,1
571,516,14,0.0870707784796338,1
571,517,14,0.101209103209887,1
571,518,14,0.0835504192344682,1
571,519,14,0.0612147567211635,1
571,522,14,0.0682825834300981,1
571,523,14,0.0651242194460597,1
572,508,14,0.0736320486439734,1
572,509,14,0.0711157962143175,1
572,510,14,0.0651636640565094,1
572,511,14,0.0647304927678551,1
572,512,14,0.0629501957452799,1
572,513,14,0.0606909318226356,1
572,514,14,0.0586953199456199,1
572,515,14,0.0668149773798221,1
572,516,14,0.0826830977656459,1
572,517,14,0.0922962959782985,1
572,518,14,0.0774729948598525,1
572,519,14,0.0642826675911806,1
572,520,14,0.0572391775405396,1
572,521,14,0.0570699059688606,1
572,522,14,0.0588670505399566,1
573,510,14,0.0596750252365309,1
573,511,14,0.0633380785590868,1
573,512,14,0.0585805419671785,1
573,516,14,0.062820598764587,1
573,517,14,0.0646475464544172,1
573,518,14,0.0576385181026054,1
573,519,14,0.0571621812363622,1
573,520,14,0.0583938390502328,1
531,523,15,0.0644541446172336,1
531,524,15,0.0795057279542073,1
531,525,15,0.063577346770927,1
532,523,15,0.0779213979363363,1
532,524,15,0.0927273856482522,1
532,525,15,0.0702353127824928,1
533,523,15,0.069359936097962,1
533,524,15,0.0790891388519164,1
533,525,15,0.060903870211534,1
534,516,15,0.0659957395339042,1
534,517,15,0.0571309510589153,1
534,524,15,0.0573556951153455,1
535,516,15,0.0710098164656252,1
535,517,15,0.0595747065471944,1
536,516,15,0.0688667045077034,1
536,517,15,0.0611807019109755,1
537,516,15,0.0588060113468387,1
537,517,15,0.0577192943432902,1
538,522,15,0.0578886897506426,1
547,496,15,0.0601571116161824,1
548,496,15,0.058804861444157,1
552,495,15,0.0629121958843532,1
553,495,15,0.0629914860969571,1
561,495,15,0.0627634102712185,1
562,490,15,0.0636747110949121,1
562,495,15,0.0591983699356989,1
562,496,15,0.0570262686363253,1
562,514,15,0.0650698555854323,1
562,518,15,0.0606416393276813,1
563,513,15,0.0600684334801466,1
563,514,15,0.0669904112504874,1
563,517,15,0.0770257888615449,1
563,518,15,0.0936509403066766,1
563,519,15,0.0688986305236961,1
564,509,15,0.0585456379980871,1
564,517,15,0.0790749567188424,1
564,518,15,0.0924801978502505,1
564,519,15,0.0679087648106286,1
565,500,15,0.0581431307809441,1
565,509,15,0.0635101806604437,1
565,513,15,0.0569507347724816,1
565,518,15,0.0586881787551198,1
566,500,15,0.0598792361589222,1
566,511,15,0.0587669736250301,1
566,512,15,0.0617415418819796,1
566,513,15,0.0670878109560935,1
566,514,15,0.0642402096460111,1
567,511,15,0.0621471685787052,1
567,512,15,0.0623015503848907,1
567,513,15,0.0715487316254987,1
567,514,15,0.0753358447050649,1
567,515,15,0.0649534264646788,1
567,523,15,0.0575648771554837,1
567,524,15,0.0572070923072525,1
568,513,15,0.0586501729972564,1
568,514,15,0.0627341496706726,1
568,515,15,0.0581703628352208,1
568,523,15,0.0582637526237831,1
568,524,15,0.0600348799095891,1
569,522,15,0.0577413665778415,1
569,523,15,0.0634024731092604,1
570,508,15,0.065855976234118,1
570,509,15,0.0648934782048743,1
570,513,15,0.0571154892905494,1
570,516,15,0.0639632128323384,1
570,517,15,0.0705289625457708,1
570,518,15,0.0647412133990104,1
570,521,15,0.0585158289824161,1
570,522,15,0.0849552582891354,1
570,523,15,0.0827727842778795,1
571,508,15,0.085001608212612,1
571,509,15,0.0800577520046519,1
571,510,15,0.0620605661644332,1
571,511,15,0.0615489361312679,1
571,512,15,0.0649661107757982,1
571,513,15,0.0639311217021145,1
571,514,15,0.0594428982151906,1
571,515,15,0.0703911157504541,1
571,516,15,0.0926212702700127,1
571,517,15,0.102830866982749,1
571,518,15,0.0889369702840616,1
571,519,15,0.0667826798568092,1
571,521,15,0.063876280189604,1
571,522,15,0.0892779724500772,1
571,523,15,0.0863518534261156,1
571,524,15,0.05768769855576,1
572,508,15,0.0689190752036826,1
572,509,15,0.0684191387962493,1
572,510,15,0.0668195769905488,1
572,511,15,0.0742123838881344,1
572,512,15,0.0690864479617026,1
572,513,15,0.0616934464652015,1
572,514,15,0.0604229160437536,1
572,515,15,0.0708846244967436,1
572,516,15,0.0891400548915185,1
572,517,15,0.095957362033143,1
572,518,15,0.084015038887232,1
572,519,15,0.0716129669583779,1
572,520,15,0.0666539025503355,1
572,521,15,0.0643959005721727,1
572,522,15,0.0710976336488839,1
572,523,15,0.0698172022705,1
573,510,15,0.0656826770545848,1
573,511,15,0.0786023054381174,1
573,512,15,0.0672675908692019,1
573,515,15,0.0596995800814872,1
573,516,15,0.0660400314264275,1
573,517,15,0.0671717833365397,1
573,518,15,0.0625579020227248,1
573,519,15,0.0646230034033345,1
573,520,15,0.0717312123356748,1
573,521,15,0.0670458955291123,1
573,522,15,0.0631538818402934,1
573,523,15,0.0635213553557348,1
574,511,15,0.0631845930872993,1
574,520,15,0.0619602710628441,1
574,521,15,0.0608203342044131,1
574,522,15,0.058910233808356,1
574,523,15,0.0609722923695619,1
531,523,16,0.0738647476681861,1
531,524,16,0.080456184438446,1
532,523,16,0.0835754694221181,1
532,524,16,0.0920387826439091,1
532,525,16,0.063895427543488,1
533,523,16,0.0658243155802826,1
533,524,16,0.0747660060084597,1
533,525,16,0.0580717719483753,1
534,516,16,0.0637362869092814,1
535,515,16,0.0616571803037026,1
535,516,16,0.0787418328604304,1
535,517,16,0.0643175833541456,1
536,515,16,0.0600309230649768,1
536,516,16,0.0739767658801914,1
536,517,16,0.0635640550753143,1
537,516,16,0.0589711727535478,1
537,517,16,0.0583671554110811,1
543,496,16,0.0573004349203201,1
544,496,16,0.0581079791405059,1
552,495,16,0.0592111073192497,1
553,495,16,0.0574625829923095,1
553,529,16,0.0604244787320133,1
554,529,16,0.0573535781150239,1
560,531,16,0.0576204616820347,1
561,490,16,0.0568893535570276,1
561,495,16,0.063084026726616,1
561,531,16,0.0627727510191558,1
561,532,16,0.0598548464281971,1
562,490,16,0.0700480142749273,1
562,491,16,0.063058428123841,1
562,492,16,0.0600558906955111,1
562,513,16,0.0625130676120133,1
562,514,16,0.0711064672602539,1
562,531,16,0.0670275029831424,1
562,532,16,0.0658389635713661,1
563,513,16,0.0616567262395668,1
563,514,16,0.070255108799428,1
563,517,16,0.0658458040180878,1
563,518,16,0.0777432809594137,1
563,519,16,0.0603814134023505,1
563,531,16,0.0574634439450866,1
563,532,16,0.0574095577363424,1
564,517,16,0.0649857416785022,1
564,518,16,0.0750701582162304,1
564,519,16,0.0591109124655867,1
565,500,16,0.0583384019471025,1
565,512,16,0.0588719508944615,1
566,500,16,0.0582875762485726,1
566,511,16,0.0572668282773311,1
566,512,16,0.0626182276864864,1
566,513,16,0.0616871544336049,1
566,514,16,0.0582282058885773,1
567,511,16,0.0571615266763741,1
567,512,16,0.0591110009196391,1
567,513,16,0.0638532821359705,1
567,514,16,0.0666464724099309,1
567,524,16,0.0572415186244607,1
568,514,16,0.0572734800220744,1
568,524,16,0.0630799401493935,1
569,522,16,0.0573019327422747,1
569,523,16,0.0638002156014456,1
570,508,16,0.0652546950703401,1
570,509,16,0.0647420035885455,1
570,512,16,0.0587335203023987,1
570,516,16,0.0595725659591255,1
570,517,16,0.0633673214688222,1
570,518,16,0.0612197160450367,1
570,521,16,0.0582500422456554,1
570,522,16,0.0906468048084661,1
570,523,16,0.0892678297187312,1
570,524,16,0.0583460148925488,1
571,508,16,0.0780684793347274,1
571,509,16,0.0761487374469547,1
571,510,16,0.0615082708548945,1
571,511,16,0.0630952250096545,1
571,512,16,0.0692145353265672,1
571,513,16,0.0642589442143171,1
571,514,16,0.0578965975429304,1
571,515,16,0.0647137926427552,1
571,516,16,0.0872086075841401,1
571,517,16,0.0950472936692468,1
571,518,16,0.0866806961083897,1
571,519,16,0.0650541933212143,1
571,521,16,0.0634235841431086,1
571,522,16,0.0943940074195731,1
571,523,16,0.0926980424905906,1
571,524,16,0.0595652301697101,1
571,528,16,0.0588332021225576,1
572,508,16,0.0604854294710787,1
572,509,16,0.0625628436557876,1
572,510,16,0.0636970192069365,1
572,511,16,0.0749011107281509,1
572,512,16,0.069992783564586,1
572,513,16,0.0610031805246726,1
572,514,16,0.0595592447788285,1
572,515,16,0.0671912491250125,1
572,516,16,0.0874166397215966,1
572,517,16,0.0947197070345173,1
572,518,16,0.0873252489946195,1
572,519,16,0.0710374141299853,1
572,520,16,0.0653003668460814,1
572,521,16,0.0628281763284124,1
572,522,16,0.0710712389596369,1
572,523,16,0.0731915061842828,1
572,524,16,0.057602269631917,1
572,527,16,0.0574142693888688,1
572,528,16,0.0744267257479981,1
572,529,16,0.0675345864780125,1
573,510,16,0.0661949970293591,1
573,511,16,0.085294780324007,1
573,512,16,0.0715404818108748,1
573,513,16,0.0569090139444158,1
573,514,16,0.0572336815954148,1
573,515,16,0.0591961114088933,1
573,516,16,0.0664093153014755,1
573,517,16,0.0702146852974646,1
573,518,16,0.06842860337986,1
573,519,16,0.0660011234372292,1
573,520,16,0.0750821407918671,1
573,521,16,0.071874460725127,1
573,522,16,0.0686412764066011,1
573,523,16,0.0735297485838624,1
573,524,16,0.066265595157077,1
573,527,16,0.0569524979565934,1
573,528,16,0.0708237327270465,1
573,529,16,0.0631355482636918,1
574,511,16,0.068552987468396,1
574,512,16,0.0589550151466361,1
574,517,16,0.0586473660553257,1
574,518,16,0.0570598281038197,1
574,519,16,0.0572969616245278,1
574,520,16,0.0681583880435407,1
574,521,16,0.0699939098795204,1
574,522,16,0.0691447038006371,1
574,523,16,0.0752095323181859,1
574,524,16,0.0680637245166234,1
575,517,16,0.0589388280550402,1
575,523,16,0.0611149038898365,1
531,523,17,0.0746660529292067,1
531,524,17,0.0768307948514175,1
532,523,17,0.0763807347356847,1
532,524,17,0.0813035152914177,1
532,525,17,0.0575646766596315,1
533,524,17,0.0638939474123439,1
534,516,17,0.0606736066222318,1
535,515,17,0.0650188175971766,1
535,516,17,0.0792875943639625,1
535,517,17,0.0649294790042159,1
536,515,17,0.0576365603195781,1
536,516,17,0.0712839414710621,1
536,517,17,0.0604446403590319,1
537,516,17,0.0578727208457094,1
543,495,17,0.0571283799944578,1
543,496,17,0.0634913045656538,1
544,495,17,0.0630862262840533,1
544,496,17,0.0656773344298176,1
545,493,17,0.060244934696378,1
545,494,17,0.0602263711392401,1
545,495,17,0.0634945183962257,1
545,496,17,0.0571100994902876,1
546,494,17,0.0569616323117417,1
546,495,17,0.0647077895610632,1
547,495,17,0.0585699746563808,1
553,528,17,0.0612381734573118,1
553,529,17,0.0682679826145093,1
553,530,17,0.0570636257311376,1
554,528,17,0.0653837082542869,1
554,529,17,0.0711516495902384,1
554,530,17,0.0593667333791061,1
555,528,17,0.0610155522981401,1
555,529,17,0.0671131618875217,1
555,530,17,0.0610679524788033,1
559,531,17,0.060839316444066,1
559,532,17,0.0611552979071158,1
560,531,17,0.0626937851380775,1
560,532,17,0.0597736515049973,1
561,530,17,0.0598578538659799,1
561,531,17,0.0677896584805547,1
561,532,17,0.0625468039876125,1
562,490,17,0.0651328997370721,1
562,491,17,0.0642313288591465,1
562,492,17,0.0621694884846033,1
562,514,17,0.0631834195968703,1
562,530,17,0.0631698684360371,1
562,531,17,0.0741359713807031,1
562,532,17,0.0689810520097563,1
563,514,17,0.0617039901882519,1
563,531,17,0.0620194527208608,1
563,532,17,0.0594673410183472,1
566,512,17,0.0575104071499934,1
567,507,17,0.0586820931163122,1
567,508,17,0.0587796815238968,1
568,508,17,0.0593821302811669,1
569,508,17,0.0618891363138748,1
569,509,17,0.0583766730671233,1
570,508,17,0.0681443769216348,1
570,509,17,0.0661508643541302,1
570,522,17,0.0798006514558405,1
570,523,17,0.0804017910931345,1
571,508,17,0.0696765308424421,1
571,509,17,0.0703969596148517,1
571,510,17,0.0607334310463628,1
571,511,17,0.0624725084805028,1
571,512,17,0.0683818347738685,1
571,513,17,0.0613546202688758,1
571,515,17,0.0576942382587034,1
571,516,17,0.0721295327276692,1
571,517,17,0.0771822817711153,1
571,518,17,0.0723233650412413,1
571,519,17,0.0583848757062525,1
571,521,17,0.0576065272203076,1
571,522,17,0.0826807920633457,1
571,523,17,0.0829021689688465,1
571,528,17,0.0673415974264069,1
571,529,17,0.0615998856654712,1
572,509,17,0.0583925299302567,1
572,510,17,0.0615210318261926,1
572,511,17,0.0713680907596132,1
572,512,17,0.068870342917727,1
572,513,17,0.0599977351045027,1
572,514,17,0.0587528563582613,1
572,515,17,0.06379081588414,1
572,516,17,0.0790996295025354,1
572,517,17,0.0865872060719013,1
572,518,17,0.0822512061122835,1
572,519,17,0.067417361270787,1
572,520,17,0.0603109155225587,1
572,521,17,0.0597025403437754,1
572,522,17,0.0664605891672044,1
572,523,17,0.0705964352969693,1
572,524,17,0.0593423731330652,1
572,527,17,0.0644988139137139,1
572,528,17,0.082980061607422,1
572,529,17,0.0743101904823817,1
573,510,17,0.0653594069776142,1
573,511,17,0.0817794452690197,1
573,512,17,0.0711369367328498,1
573,513,17,0.0586009217808598,1
573,514,17,0.0594513367317931,1
573,515,17,0.0612725172174044,1
573,516,17,0.0674886552370507,1
573,517,17,0.0732843770424041,1
573,518,17,0.0725569132243573,1
573,519,17,0.0664863587811475,1
573,520,17,0.071725338986593,1
573,521,17,0.0733792056835526,1
573,522,17,0.0727203881071333,1
573,523,17,0.0800327843741175,1
573,524,17,0.0745344391961183,1
573,525,17,0.0599437545447692,1
573,527,17,0.0633357079904815,1
573,528,17,0.0775335681949609,1
573,529,17,0.0694447635342484,1
574,511,17,0.0687340882953541,1
574,512,17,0.0610145085403213,1
574,515,17,0.0575182382821025,1
574,516,17,0.0614565901005244,1
574,517,17,0.0668026115032915,1
574,518,17,0.0650691125713918,1
574,519,17,0.0607988811482289,1
574,520,17,0.0687623994890705,1
574,521,17,0.0760827389299635,1
574,522,17,0.0788408247389804,1
574,523,17,0.0864885562156875,1
574,524,17,0.0786467978264929,1
574,525,17,0.0621864303841133,1
574,528,17,0.0610535698498772,1
575,516,17,0.0629628741594624,1
575,517,17,0.0670882945049135,1
575,518,17,0.0623654613862444,1
575,521,17,0.061676180234166,1
575,522,17,0.0666488370815994,1
575,523,17,0.0715109499512347,1
575,524,17,0.0645599415608843,1
576,516,17,0.0600007366453487,1
576,517,17,0.0592178770027295,1
576,523,17,0.0573595104334739,1
577,516,17,0.0572013427938441,1
531,523,18,0.0652494055180044,1
531,524,18,0.0702832607758501,1
532,523,18,0.0603621834913508,1
532,524,18,0.0659465944623706,1
534,515,18,0.0609259011675274,1
534,516,18,0.0616160019938251,1
535,515,18,0.0688612616350102,1
535,516,18,0.074921189798054,1
535,517,18,0.0589599980582566,1
536,516,18,0.0626734230152066,1
543,495,18,0.0635672512150756,1
543,496,18,0.0609994831452808,1
544,493,18,0.0606192309677307,1
544,494,18,0.0617658372617154,1
544,495,18,0.0691577065463452,1
544,496,18,0.0617726718115003,1
545,492,18,0.0608183882152595,1
545,493,18,0.0692833113008048,1
545,494,18,0.067878767092979,1
545,495,18,0.0721579972417432,1
545,496,18,0.0585248925743224,1
546,494,18,0.0584679399584271,1
546,495,18,0.0674870158886122,1
547,495,18,0.0623441439596072,1
548,495,18,0.0670441323450004,1
549,495,18,0.0611791451196526,1
553,528,18,0.0629829473324286,1
553,529,18,0.0634372827273625,1
554,528,18,0.0685529343959645,1
554,529,18,0.0713323494254921,1
554,530,18,0.0586656347656222,1
555,528,18,0.0598052531894644,1
555,529,18,0.0668949752248455,1
555,530,18,0.0626921870681968,1
558,532,18,0.0608793153665777,1
559,531,18,0.0613988885736517,1
559,532,18,0.0659278009246963,1
560,531,18,0.0599920622512731,1
560,532,18,0.0599167288832815,1
561,530,18,0.0588776827170594,1
561,531,18,0.0641266877151144,1
561,532,18,0.0571417306594389,1
562,491,18,0.0600343904638323,1
562,492,18,0.0601908185070975,1
562,530,18,0.0622033369020022,1
562,531,18,0.0705017304914941,1
562,532,18,0.0613662136466818,1
563,531,18,0.0588647330437827,1
567,507,18,0.0698013395104297,1
567,508,18,0.0622923924419951,1
568,506,18,0.0653167131549716,1
568,507,18,0.0816023838437895,1
568,508,18,0.073659080202398,1
569,506,18,0.0596212510695864,1
569,507,18,0.0747252522780339,1
569,508,18,0.0746154159326553,1
569,509,18,0.0578666175160913,1
570,507,18,0.0581445519427199,1
570,508,18,0.0689110789573423,1
570,509,18,0.0618915894395957,1
570,522,18,0.0600759166929827,1
570,523,18,0.0625407419365522,1
571,508,18,0.0578551302831483,1
571,509,18,0.0592842352328672,1
571,512,18,0.0598024521444706,1
571,517,18,0.0602645950837662,1
571,518,18,0.0570861579267616,1
571,522,18,0.0636220160674074,1
571,523,18,0.0654684295457104,1
571,527,18,0.0595304972117867,1
571,528,18,0.0697075723179104,1
571,529,18,0.0639919368116329,1
572,511,18,0.0614552043203695,1
572,512,18,0.0615484230977638,1
572,515,18,0.0578200788906362,1
572,516,18,0.0672672370529921,1
572,517,18,0.075319799139953,1
572,518,18,0.0725468058746323,1
572,519,18,0.0602460787021229,1
572,522,18,0.0594335456733797,1
572,523,18,0.0642155722439392,1
572,524,18,0.0592237621456849,1
572,527,18,0.0678443053941498,1
572,528,18,0.080710678541179,1
572,529,18,0.0730465005076555,1
573,510,18,0.0592527161055157,1
573,511,18,0.0673134867285427,1
573,512,18,0.0613002740990589,1
573,515,18,0.0582433197376703,1
573,516,18,0.0641956936698883,1
573,517,18,0.0720747265967796,1
573,518,18,0.0710242049914881,1
573,519,18,0.0624239648965257,1
573,520,18,0.0610482920914152,1
573,521,18,0.0677021420410742,1
573,522,18,0.0716221484890208,1
573,523,18,0.0801520027459912,1
573,524,18,0.0796617314180208,1
573,525,18,0.0671612808920471,1
573,526,18,0.0598487843771368,1
573,527,18,0.0675033150220078,1
573,528,18,0.0748022073036535,1
573,529,18,0.0683447548350872,1
574,511,18,0.063140336576397,1
574,512,18,0.0574674361713199,1
574,516,18,0.0607155279461497,1
574,517,18,0.0681134533849031,1
574,518,18,0.0658820583857131,1
574,519,18,0.0582509090953693,1
574,520,18,0.0612767276303004,1
574,521,18,0.0743465863764908,1
574,522,18,0.0828618044362514,1
574,523,18,0.0910627629385163,1
574,524,18,0.0861088642471362,1
574,525,18,0.0705258076845673,1
574,526,18,0.0620870316169222,1
574,527,18,0.0644376272971753,1
574,528,18,0.0642636440729699,1
574,529,18,0.0599671417962334,1
575,515,18,0.0643784928146532,1
575,516,18,0.0667983362240904,1
575,517,18,0.067724851144803,1
575,518,18,0.0621726256549964,1
575,521,18,0.0652900413096936,1
575,522,18,0.0769799283838251,1
575,523,18,0.0819351361951813,1
575,524,18,0.0731172991312255,1
575,525,18,0.0611896770488294,1
575,526,18,0.0581320327458317,1
575,527,18,0.0613433689134059,1
575,528,18,0.0601046701569614,1
575,529,18,0.0578839722011793,1
576,514,18,0.0647667530324172,1
576,515,18,0.0772403607019449,1
576,516,18,0.0721024127151922,1
576,517,18,0.0609018947376962,1
576,522,18,0.0612283078819967,1
576,523,18,0.0627904123449589,1
576,529,18,0.0575479470498474,1
577,514,18,0.0616311984000337,1
577,515,18,0.0741339723191181,1
577,516,18,0.0696995878654438,1
577,529,18,0.0579510380637365,1
577,530,18,0.058653498869628,1
578,515,18,0.0578609092812408,1
578,516,18,0.0600212756763244,1
531,524,19,0.0617246766426484,1
534,515,19,0.0644259631561274,1
534,516,19,0.0581295029599321,1
535,515,19,0.0636586891175475,1
535,516,19,0.0633695682017541,1
543,494,19,0.0591770289213144,1
543,495,19,0.0695702385560977,1
543,496,19,0.0579942449198833,1
544,493,19,0.0640735740050948,1
544,494,19,0.0694484903983244,1
544,495,19,0.076816146860334,1
544,496,19,0.0587234483342946,1
545,492,19,0.0576331931686487,1
545,493,19,0.0687745059003806,1
545,494,19,0.0724120018987193,1
545,495,19,0.0772922301582936,1
545,496,19,0.0571483588164348,1
546,494,19,0.0578107735243199,1
546,495,19,0.0646627841391836,1
547,495,19,0.0608696679779253,1
548,495,19,0.06929910919457,1
549,495,19,0.0591189971659793,1
553,528,19,0.0606310071505784,1
554,528,19,0.0661054107650516,1
554,529,19,0.0669447571655566,1
555,491,19,0.0614958519059324,1
555,529,19,0.0614695633615484,1
555,530,19,0.0593072273895638,1
556,491,19,0.0593301841646395,1
558,532,19,0.0579974882351393,1
559,531,19,0.0579133979159565,1
559,532,19,0.063298427555848,1
561,531,19,0.0575022516863588,1
562,531,19,0.0611351834555918,1
567,506,19,0.0711129067152713,1
567,507,19,0.0817566182265543,1
567,508,19,0.0630612822412662,1
568,505,19,0.0583605921203904,1
568,506,19,0.100162573830828,1
568,507,19,0.117634442847502,1
568,508,19,0.0859728337083628,1
569,506,19,0.0911213490059133,1
569,507,19,0.108932203436206,1
569,508,19,0.0856319140994627,1
570,506,19,0.0583888679324858,1
570,507,19,0.0710455401089358,1
570,508,19,0.0682388281588263,1
571,527,19,0.057916829933191,1
571,528,19,0.0645955885440161,1
571,529,19,0.0609862209343522,1
572,517,19,0.0600948635510146,1
572,518,19,0.0586554448587816,1
572,527,19,0.0661853496407067,1
572,528,19,0.0716560440819144,1
572,529,19,0.0658561708330334,1
573,510,19,0.0573295480974453,1
573,516,19,0.0589069492145422,1
573,517,19,0.0648935666589267,1
573,518,19,0.0639436821775605,1
573,519,19,0.0569398549240319,1
573,521,19,0.0577345143372461,1
573,522,19,0.0649260823686023,1
573,523,19,0.0723065056988469,1
573,524,19,0.0755074160821072,1
573,525,19,0.0663008765301254,1
573,526,19,0.0603301454335584,1
573,527,19,0.0666672768030639,1
573,528,19,0.0675577319550667,1
573,529,19,0.0625625606028198,1
574,510,19,0.0605600611035877,1
574,511,19,0.0594660142075607,1
574,517,19,0.0635483338417279,1
574,518,19,0.0619543800229518,1
574,521,19,0.067931556471473,1
574,522,19,0.0802958408291263,1
574,523,19,0.0870467189773711,1
574,524,19,0.0865534991809862,1
574,525,19,0.0732798010194247,1
574,526,19,0.0636899546766153,1
574,527,19,0.0661979337039,1
574,528,19,0.0640272417724286,1
574,529,19,0.0599416434413844,1
575,515,19,0.0657567661689054,1
575,516,19,0.0633464286216368,1
575,517,19,0.0622774849856912,1
575,518,19,0.0584179988004215,1
575,521,19,0.0677812789333205,1
575,522,19,0.0831201905172916,1
575,523,19,0.0849264222680412,1
575,524,19,0.0763553602165091,1
575,525,19,0.0630027492463007,1
575,526,19,0.057177194837529,1
575,527,19,0.0610652988572303,1
575,528,19,0.0623437842464606,1
575,529,19,0.060973459963054,1
576,514,19,0.0726572260167569,1
576,515,19,0.0914583176671378,1
576,516,19,0.0766008673875145,1
576,517,19,0.0587785198273415,1
576,521,19,0.057724754906794,1
576,522,19,0.067597017348222,1
576,523,19,0.064568816450812,1
576,528,19,0.0603325101052268,1
576,529,19,0.0636774295827903,1
576,530,19,0.06106661977108,1
577,514,19,0.069841249978889,1
577,515,19,0.087911846785693,1
577,516,19,0.074799878013606,1
577,517,19,0.0573377094580168,1
577,528,19,0.057765225584252,1
577,529,19,0.0618726307876902,1
577,530,19,0.0628642066124381,1
577,531,19,0.0576514264973242,1
578,515,19,0.0620588206711318,1
578,516,19,0.0617444372779626,1
578,517,19,0.058933072644695,1
578,530,19,0.0603134335145847,1
579,502,19,0.0620856163520832,1
534,515,20,0.0667938132735425,1
535,515,20,0.057815390825857,1
542,495,20,0.0618473093409461,1
543,494,20,0.0613224701692836,1
543,495,20,0.0694165702792685,1
544,492,20,0.0584313376715289,1
544,493,20,0.0682844881406939,1
544,494,20,0.0793384908257344,1
544,495,20,0.0826162265020041,1
545,493,20,0.0667605781375737,1
545,494,20,0.0782667402478582,1
545,495,20,0.0787433483731955,1
546,494,20,0.0580852936245244,1
546,495,20,0.0589965177880392,1
548,495,20,0.0618141744529034,1
554,491,20,0.057794863588755,1
554,528,20,0.0572406163931259,1
554,529,20,0.057662925524141,1
555,491,20,0.0693243834658194,1
555,492,20,0.0617204485389419,1
556,491,20,0.0621831575841731,1
558,535,20,0.0595556889259206,1
558,536,20,0.0591568378096116,1
559,535,20,0.058715705656238,1
559,536,20,0.05850762044635,1
567,506,20,0.0784762878980798,1
567,507,20,0.0839385556165587,1
567,508,20,0.0583601616440018,1
568,505,20,0.070213635642709,1
568,506,20,0.127031223478527,1
568,507,20,0.140094224087185,1
568,508,20,0.0889202465712143,1
569,505,20,0.0670530897920438,1
569,506,20,0.119435697583567,1
569,507,20,0.133969818816852,1
569,508,20,0.088650685794883,1
570,506,20,0.0701100382564956,1
570,507,20,0.0794551853086452,1
570,508,20,0.0632023133824707,1
572,527,20,0.0622498755274574,1
572,528,20,0.0633020364811874,1
572,529,20,0.0586038289707166,1
573,509,20,0.0576458185103998,1
573,523,20,0.0600164107034404,1
573,524,20,0.0649938440697054,1
573,525,20,0.0590174755015298,1
573,527,20,0.0620202134257118,1
573,528,20,0.0608738489061371,1
574,509,20,0.0623332405234102,1
574,510,20,0.0626821151000927,1
574,521,20,0.0581336190218388,1
574,522,20,0.0724649917730655,1
574,523,20,0.0793098788882396,1
574,524,20,0.0846285090194356,1
574,525,20,0.0734854213097182,1
574,526,20,0.0622229383200221,1
574,527,20,0.0619429576563139,1
574,528,20,0.0612562062901351,1
574,529,20,0.0576294604076359,1
575,515,20,0.058605710093565,1
575,521,20,0.0660292400320303,1
575,522,20,0.0828703019222221,1
575,523,20,0.0824925618397613,1
575,524,20,0.0784586737477713,1
575,525,20,0.0651286893241761,1
575,528,20,0.0620369961079273,1
575,529,20,0.0629790199725005,1
575,530,20,0.06124875845892,1
575,531,20,0.0591314573934992,1
575,532,20,0.0577440084055409,1
576,514,20,0.0709806914946263,1
576,515,20,0.0902786236606052,1
576,516,20,0.0707231958510473,1
576,521,20,0.0594840765250682,1
576,522,20,0.0694604199015297,1
576,523,20,0.0635077865040911,1
576,528,20,0.0639597631242934,1
576,529,20,0.0711442725222652,1
576,530,20,0.0685792170434117,1
576,531,20,0.0626889319590671,1
576,532,20,0.0589974259163109,1
577,514,20,0.0702880196038711,1
577,515,20,0.089269769810948,1
577,516,20,0.0704453970539658,1
577,528,20,0.0581866973502374,1
577,529,20,0.0658380200614734,1
577,530,20,0.0644779210665285,1
577,531,20,0.0581132097234733,1
578,501,20,0.0648840195182004,1
578,502,20,0.0658849714725066,1
578,515,20,0.0604056734004653,1
578,516,20,0.0570581533737602,1
579,501,20,0.0615305258944875,1
579,502,20,0.0685772946420055,1
579,503,20,0.0601599362489236,1
580,502,20,0.0665996448345711,1
534,515,21,0.05968709626622,1
536,528,21,0.0612904792869858,1
537,527,21,0.0572690455255789,1
537,528,21,0.0595516966996873,1
541,495,21,0.0648295966882048,1
541,496,21,0.0702146440189068,1
542,495,21,0.0627993344103813,1
542,496,21,0.062088140241046,1
543,494,21,0.0628187294356122,1
543,495,21,0.064168656214527,1
544,492,21,0.0578361244557481,1
544,493,21,0.0692926933272999,1
544,494,21,0.0853551059877685,1
544,495,21,0.0804747362017103,1
545,493,21,0.0672175435663334,1
545,494,21,0.0853252733843502,1
545,495,21,0.0767181751518556,1
546,494,21,0.0606995472473429,1
555,491,21,0.0696595712521216,1
555,492,21,0.0634579279032012,1
556,491,21,0.062552824760115,1
556,492,21,0.057765467358662,1
558,535,21,0.0683215562856016,1
558,536,21,0.0756859989170394,1
558,537,21,0.0646002766087952,1
559,535,21,0.0673580970556547,1
559,536,21,0.0732227422586664,1
559,537,21,0.0613836508888854,1
563,533,21,0.0571385640043617,1
564,533,21,0.0664338996311159,1
564,534,21,0.0622247958551233,1
565,533,21,0.0590564778417173,1
567,506,21,0.079058274284553,1
567,507,21,0.0789760415004713,1
568,505,21,0.0779015724347169,1
568,506,21,0.135676970234999,1
568,507,21,0.14017161548613,1
568,508,21,0.0841991294611624,1
569,505,21,0.0771277468993199,1
569,506,21,0.135664138500459,1
569,507,21,0.140861616064501,1
569,508,21,0.0856637457644662,1
570,506,21,0.0819430734721532,1
570,507,21,0.0837468344063714,1
570,508,21,0.0584764020627768,1
573,509,21,0.0593507467833625,1
574,509,21,0.0676700450139135,1
574,510,21,0.0618165568153824,1
574,522,21,0.0616607715382315,1
574,523,21,0.0706395360082531,1
574,524,21,0.0803864236757579,1
574,525,21,0.0737189164204027,1
574,526,21,0.0587998490478523,1
574,531,21,0.060322809644143,1
574,532,21,0.0606530204157614,1
575,521,21,0.0599387834270223,1
575,522,21,0.0747239195703105,1
575,523,21,0.0761981124990247,1
575,524,21,0.0796418410500963,1
575,525,21,0.0708849193435851,1
575,529,21,0.0609005856177202,1
575,530,21,0.0621344842675858,1
575,531,21,0.068114939412984,1
575,532,21,0.0712098582536783,1
575,533,21,0.0654039347476106,1
576,514,21,0.061700676109754,1
576,515,21,0.0742418449845326,1
576,516,21,0.0578063744094454,1
576,521,21,0.0576961193815519,1
576,522,21,0.0659630999885552,1
576,523,21,0.0607867275614241,1
576,524,21,0.0588911631146507,1
576,528,21,0.0591301069949653,1
576,529,21,0.0702968355244306,1
576,530,21,0.0674104854424443,1
576,531,21,0.0662176058851618,1
576,532,21,0.0662219106490471,1
576,533,21,0.0612078514081366,1
577,501,21,0.060918394366944,1
577,502,21,0.0592245287474727,1
577,514,21,0.0664018910580076,1
577,515,21,0.0799535354400714,1
577,516,21,0.0615496673514347,1
577,529,21,0.0645160742478127,1
577,530,21,0.0619464604367904,1
577,531,21,0.0574239934377,1
578,500,21,0.0610709068441547,1
578,501,21,0.0794485630485861,1
578,502,21,0.0812382892731511,1
578,503,21,0.0609643432987163,1
578,515,21,0.0572165745816737,1
579,501,21,0.0700162179915448,1
579,502,21,0.076662850090525,1
579,503,21,0.0595760628426651,1
580,502,21,0.0601182213177946,1
536,527,22,0.0601423162016783,1
536,528,22,0.0640887232358087,1
536,529,22,0.0568581056887702,1
537,527,22,0.0672984967151231,1
537,528,22,0.0684227536185256,1
540,496,22,0.0581368741309684,1
541,495,22,0.0666526582966646,1
541,496,22,0.0770784603013023,1
541,497,22,0.0593416655006457,1
542,495,22,0.0594713627292646,1
542,496,22,0.0628010799036827,1
543,493,22,0.0576901752692282,1
543,494,22,0.0625948994043905,1
543,495,22,0.0575576298201208,1
544,493,22,0.067928867468279,1
544,494,22,0.0826112200026362,1
544,495,22,0.0700862794980112,1
545,493,22,0.0691167287323199,1
545,494,22,0.0865186482843263,1
545,495,22,0.0685214801349181,1
546,494,22,0.0631696266616271,1
555,491,22,0.0639648757685242,1
555,492,22,0.0589711904443583,1
556,491,22,0.0589964293339867,1
558,535,22,0.068160104052158,1
558,536,22,0.0799599748950888,1
558,537,22,0.0698903183902438,1
559,535,22,0.067666229695785,1
559,536,22,0.076039455413638,1
559,537,22,0.0648826868104771,1
563,534,22,0.0568522205458148,1
564,533,22,0.0742639643945785,1
564,534,22,0.0727780483554481,1
565,533,22,0.0642596164651157,1
565,534,22,0.0641605361325133,1
567,506,22,0.0701184885669717,1
567,507,22,0.0652289195594601,1
568,505,22,0.0723160174579522,1
568,506,22,0.117204579740408,1
568,507,22,0.114067739575796,1
568,508,22,0.0687230669204205,1
569,505,22,0.0758653660445697,1
569,506,22,0.128089523143496,1
569,507,22,0.124340899370613,1
569,508,22,0.0728036941337178,1
570,505,22,0.0570862581746876,1
570,506,22,0.0875639923790819,1
570,507,22,0.0822567846145238,1
570,532,22,0.0570428272349414,1
570,533,22,0.0609950663395958,1
571,532,22,0.0610986755196829,1
571,533,22,0.0646816956155944,1
572,533,22,0.057274010746389,1
573,509,22,0.0581606741680106,1
574,509,22,0.0658265269315935,1
574,523,22,0.0600677494354744,1
574,524,22,0.0721035095454424,1
574,525,22,0.0714355929954958,1
574,530,22,0.0583056857415747,1
574,531,22,0.0638493783637897,1
574,532,22,0.0633682472879044,1
574,533,22,0.0584131574152848,1
575,522,22,0.0622659269895062,1
575,523,22,0.0686042141586302,1
575,524,22,0.079898346008288,1
575,525,22,0.0791128327440957,1
575,526,22,0.0573700246718402,1
575,529,22,0.0600407650525445,1
575,530,22,0.0619376857947887,1
575,531,22,0.0693216178024466,1
575,532,22,0.0734427038993282,1
575,533,22,0.0690895084719168,1
576,522,22,0.0589076745377721,1
576,523,22,0.057108188882755,1
576,524,22,0.061236958688325,1
576,525,22,0.062013408360611,1
576,529,22,0.0656533279999864,1
576,530,22,0.0638984231873972,1
576,531,22,0.062959265234123,1
576,532,22,0.064208472331997,1
576,533,22,0.0624686341930061,1
577,501,22,0.0628274392113088,1
577,502,22,0.0601619706921296,1
577,514,22,0.0569553225893346,1
577,515,22,0.0642513371658076,1
577,529,22,0.0598166460714182,1
577,530,22,0.0595849259387192,1
578,500,22,0.0634236667002242,1
578,501,22,0.083803433206057,1
578,502,22,0.0843966119786318,1
578,503,22,0.0605934318691035,1
579,501,22,0.0717758403535973,1
579,502,22,0.0770959801006216,1
579,503,22,0.0568999739402568,1
532,507,23,0.0619205846779843,1
532,508,23,0.0632284721942445,1
533,520,23,0.0600197129880647,1
536,527,23,0.0625901700610536,1
536,528,23,0.0653400414370675,1
536,529,23,0.0581923171310355,1
537,527,23,0.0730223584482772,1
537,528,23,0.0745487215771183,1
537,529,23,0.059166208042233,1
538,527,23,0.0585251048640482,1
538,528,23,0.0614938528443474,1
540,496,23,0.0583389090836698,1
541,495,23,0.0637557644916279,1
541,496,23,0.0737380873620341,1
541,497,23,0.0667348085236306,1
542,495,23,0.0582292614402697,1
542,496,23,0.0609571254480375,1
543,493,23,0.0574874916534756,1
543,494,23,0.0623767599172089,1
544,493,23,0.063474598543617,1
544,494,23,0.0728505983692564,1
544,495,23,0.0598738699464077,1
545,493,23,0.0680839097313893,1
545,494,23,0.0787533436811208,1
545,495,23,0.0584870165490692,1
546,493,23,0.060848250303362,1
546,494,23,0.0653718141327026,1
555,491,23,0.0570649466449873,1
558,535,23,0.0633367753360476,1
558,536,23,0.0769228932108142,1
558,537,23,0.0693049589559044,1
559,535,23,0.0620391190051858,1
559,536,23,0.0715351214952971,1
559,537,23,0.0627403237635326,1
563,534,23,0.0597442198932834,1
564,533,23,0.0753420246948618,1
564,534,23,0.0853276498498923,1
564,535,23,0.0627174967210672,1
565,533,23,0.0671096119315506,1
565,534,23,0.0768170608855425,1
565,535,23,0.0582173614217486,1
568,505,23,0.0592072743103108,1
568,506,23,0.0862680343660269,1
568,507,23,0.079621703010825,1
569,505,23,0.06603987810607,1
569,506,23,0.104267691022777,1
569,507,23,0.097104098059738,1
569,508,23,0.0585525963835455,1
570,506,23,0.0869559061502032,1
570,507,23,0.0793834313813089,1
570,532,23,0.0632043006501821,1
570,533,23,0.06986464312729,1
571,506,23,0.0587908739099984,1
571,532,23,0.0690590154115736,1
571,533,23,0.07685896451865,1
571,534,23,0.0598873739317463,1
572,532,23,0.0605097543354987,1
572,533,23,0.0648420746065351,1
574,524,23,0.0613352311405817,1
574,525,23,0.0658330961192212,1
574,529,23,0.05811611691333,1
574,530,23,0.0603716067964037,1
574,531,23,0.0638514187039325,1
574,532,23,0.0618756323285362,1
575,523,23,0.0594534301443674,1
575,524,23,0.0746887384451882,1
575,525,23,0.0818500198089902,1
575,526,23,0.0607039817438384,1
575,529,23,0.0597197299146322,1
575,530,23,0.0616483407953958,1
575,531,23,0.0660847537953393,1
575,532,23,0.0689342834037648,1
575,533,23,0.0642830390982008,1
576,524,23,0.0616201062618581,1
576,525,23,0.0683981751858219,1
576,529,23,0.0591667092818635,1
576,530,23,0.0605683580937062,1
576,531,23,0.0605828055889375,1
576,532,23,0.0612361272202321,1
576,533,23,0.0587924837737527,1
577,502,23,0.0589627932063136,1
577,530,23,0.0584656519469374,1
577,531,23,0.0577445863053502,1
578,501,23,0.0769441103895252,1
578,502,23,0.0781641512378425,1
578,503,23,0.0583879067317827,1
579,502,23,0.073041617843961,1
531,508,24,0.0689376800393783,1
532,507,24,0.0645843312916094,1
532,508,24,0.0752221458660633,1
533,508,24,0.058850993180971,1
533,520,24,0.0663136021198025,1
533,521,24,0.0576028180470421,1
534,520,24,0.0615013242633098,1
536,527,24,0.062166598985557,1
536,528,24,0.0674403829121678,1
536,529,24,0.0643398324968017,1
537,527,24,0.073294177751414,1
537,528,24,0.0795598500404247,1
537,529,24,0.0706641203378935,1
537,530,24,0.057151354460344,1
538,527,24,0.0651365145593483,1
538,528,24,0.0658250409035126,1
540,496,24,0.0579636103330562,1
540,497,24,0.0644718531185314,1
540,498,24,0.0568897781364793,1
541,495,24,0.0602484256829809,1
541,496,24,0.0682445540844873,1
541,497,24,0.0707417476143117,1
542,494,24,0.0588170445156459,1
542,495,24,0.0594698943919942,1
542,496,24,0.0593683727275446,1
543,494,24,0.0590974320679954,1
544,494,24,0.0608317152924933,1
545,493,24,0.0615667153958076,1
545,494,24,0.0663062545365135,1
546,493,24,0.0618976043151614,1
546,494,24,0.0642348198457493,1
558,536,24,0.0644672594047415,1
558,537,24,0.0613789923087904,1
559,536,24,0.0591482931481462,1
563,534,24,0.0575015263631288,1
564,533,24,0.0633569074783821,1
564,534,24,0.0857583503220152,1
564,535,24,0.0690776969074482,1
565,533,24,0.0597044450543712,1
565,534,24,0.0795488050777438,1
565,535,24,0.0638934520696503,1
569,506,24,0.0750625275799735,1
569,507,24,0.0688824375351634,1
570,506,24,0.0816425537774692,1
570,507,24,0.0756876913379093,1
570,532,24,0.0648149899756792,1
570,533,24,0.0725921061433533,1
570,534,24,0.0568811391240247,1
571,506,24,0.0661937056001935,1
571,507,24,0.0617186381793354,1
571,532,24,0.0710018968794637,1
571,533,24,0.0819099739657315,1
571,534,24,0.0628052726257682,1
572,532,24,0.0592427384884009,1
572,533,24,0.0662490719400818,1
574,529,24,0.0582874701037097,1
574,530,24,0.0617947912215462,1
574,531,24,0.0625730807381229,1
574,532,24,0.0578833766105596,1
575,524,24,0.065648651729081,1
575,525,24,0.0744834130017362,1
575,526,24,0.0590669625953995,1
575,529,24,0.0594121574835006,1
575,530,24,0.06190324178677,1
575,531,24,0.0626702209785085,1
575,532,24,0.0611744570548735,1
576,524,24,0.0605082918951651,1
576,525,24,0.0681976852305698,1
576,530,24,0.0583060041761635,1
576,531,24,0.059822725813289,1
576,532,24,0.0577004831148054,1
577,501,24,0.0576713109683119,1
577,502,24,0.0633151689595058,1
577,530,24,0.0576002528795214,1
577,531,24,0.0610431263747529,1
577,532,24,0.0570559774040703,1
578,501,24,0.0672941860543011,1
578,502,24,0.0757661677732308,1
578,503,24,0.0595508298499734,1
579,502,24,0.0674844625149652,1
530,508,25,0.059897528456966,1
530,509,25,0.0644022456762008,1
531,508,25,0.0756804322086727,1
531,509,25,0.0737779152733778,1
531,514,25,0.0590998085335375,1
532,507,25,0.0576966088273087,1
532,508,25,0.0719915208181212,1
532,509,25,0.0622798319665492,1
532,514,25,0.0574097346444473,1
533,508,25,0.0608133109526497,1
533,516,25,0.0612773291178569,1
533,517,25,0.0619470501304733,1
533,520,25,0.0649531316178374,1
534,508,25,0.0606500070810417,1
534,509,25,0.0588734369225425,1
534,517,25,0.057858108236247,1
534,520,25,0.0650033853134948,1
536,528,25,0.0625782228670378,1
536,529,25,0.0651397873592885,1
537,527,25,0.0651551665705387,1
537,528,25,0.0728531753306507,1
537,529,25,0.0741265303848398,1
537,530,25,0.0607476190763736,1
538,527,25,0.0668828982982195,1
538,528,25,0.0625028128388675,1
539,497,25,0.0594381157994223,1
539,498,25,0.0573341064296142,1
539,527,25,0.06865890824772,1
540,496,25,0.0579882536320649,1
540,497,25,0.0695478832685787,1
540,498,25,0.066198104715068,1
541,496,25,0.0613339220206057,1
541,497,25,0.0665628833303786,1
542,494,25,0.0572575288079517,1
542,495,25,0.0594982468642685,1
546,493,25,0.0572697944365562,1
546,494,25,0.0579627375864055,1
553,490,25,0.0635572028347189,1
554,490,25,0.0629683524137766,1
557,490,25,0.0580524005108917,1
560,488,25,0.0622990795683593,1
561,487,25,0.0583344981749216,1
561,488,25,0.0743242664705927,1
561,489,25,0.0661893359700032,1
562,487,25,0.0592249828116085,1
562,488,25,0.0692391373470181,1
562,489,25,0.0573371433520812,1
563,487,25,0.067169772481081,1
563,488,25,0.0714117516798958,1
564,487,25,0.0627235351843802,1
564,488,25,0.0653901830909252,1
564,534,25,0.0687756911846833,1
564,535,25,0.0675953131334784,1
565,534,25,0.0648521642654497,1
565,535,25,0.0615544910457609,1
570,506,25,0.0665442313191882,1
570,507,25,0.0640834277865362,1
570,532,25,0.0593729664413345,1
570,533,25,0.0663736270397858,1
571,506,25,0.0640657074913648,1
571,507,25,0.0626857004376848,1
571,532,25,0.0642176243779557,1
571,533,25,0.0744734176938108,1
571,534,25,0.0602177557145328,1
572,533,25,0.060483866782819,1
574,507,25,0.0581484439210271,1
574,530,25,0.0594334159407695,1
574,531,25,0.0577957717170267,1
575,525,25,0.0591366113162878,1
575,529,25,0.0581880713365186,1
575,530,25,0.0616647696614017,1
575,531,25,0.0589730243917121,1
576,502,25,0.0578524058983332,1
576,525,25,0.0611734309878652,1
576,530,25,0.059624299785927,1
576,531,25,0.0600794902367012,1
577,502,25,0.0708709789849211,1
577,503,25,0.0611755126065659,1
577,530,25,0.0598919853363467,1
577,531,25,0.0637366230346807,1
578,501,25,0.0575866604401304,1
578,502,25,0.0734875736916608,1
578,503,25,0.0598027234035648,1
578,531,25,0.0577072527982852,1
530,508,26,0.0612291983194579,1
530,509,26,0.0722575257415445,1
530,514,26,0.0577815129237739,1
530,519,26,0.0585626683516495,1
531,508,26,0.0684537597123729,1
531,509,26,0.0759772722147753,1
531,513,26,0.0679966350663188,1
531,514,26,0.0745610579689648,1
531,519,26,0.05838078912903,1
532,508,26,0.0622470391008426,1
532,509,26,0.0612137542419025,1
532,514,26,0.0610538293150977,1
533,508,26,0.0619497745152883,1
533,516,26,0.0650055435923743,1
533,517,26,0.0701130456942785,1
533,518,26,0.0580133156135885,1
533,519,26,0.0616671933024384,1
533,520,26,0.0668290533680331,1
534,507,26,0.0576221894845256,1
534,508,26,0.0667112679518089,1
534,509,26,0.0581817203355536,1
534,516,26,0.0577767658896265,1
534,517,26,0.0619522748165038,1
534,519,26,0.064802400015549,1
534,520,26,0.0733438181656413,1
534,521,26,0.0600801330028155,1
535,508,26,0.0572346368991812,1
536,529,26,0.0605128797120181,1
537,528,26,0.0610495186542756,1
537,529,26,0.0667582016720316,1
537,530,26,0.0573894020062606,1
538,526,26,0.0576411658272416,1
538,527,26,0.0674326225433007,1
539,497,26,0.0609979794263894,1
539,498,26,0.0602032079713754,1
539,526,26,0.0644169349458421,1
539,527,26,0.0767627677881571,1
540,496,26,0.0573067505396641,1
540,497,26,0.0710449740030002,1
540,498,26,0.0695560682168975,1
540,527,26,0.0579304518572662,1
541,497,26,0.0601062859176525,1
548,492,26,0.0576952407379644,1
553,490,26,0.0677092006744586,1
553,491,26,0.0570314048683035,1
554,490,26,0.0647870267012356,1
560,487,26,0.0617335987080708,1
560,488,26,0.0780627593060032,1
560,489,26,0.0649067286219293,1
561,487,26,0.071326039703085,1
561,488,26,0.0919327321319748,1
561,489,26,0.0767420164674556,1
562,487,26,0.0693683038513225,1
562,488,26,0.0813195195779718,1
562,489,26,0.0624547704945209,1
563,487,26,0.0814278463075221,1
563,488,26,0.088353892964275,1
563,489,26,0.0579886605207061,1
564,487,26,0.0747198211992143,1
564,488,26,0.0808312591054602,1
564,535,26,0.0588956565805145,1
570,498,26,0.0605932726518091,1
570,533,26,0.0588936752097399,1
571,533,26,0.0625486792135241,1
572,507,26,0.0570848782914696,1
573,506,26,0.0593816172476628,1
573,507,26,0.063320682595441,1
574,506,26,0.059354143418976,1
574,507,26,0.0629471588228129,1
575,529,26,0.0577483662418576,1
575,530,26,0.0633628633845794,1
575,531,26,0.0577664875287334,1
576,502,26,0.0581221966552008,1
576,529,26,0.0610643612442744,1
576,530,26,0.0693405351757943,1
576,531,26,0.0640428332734047,1
577,502,26,0.0730201412000295,1
577,503,26,0.0640725184534024,1
577,523,26,0.0576297611514142,1
577,530,26,0.0665898323316875,1
577,531,26,0.06558423359116,1
578,502,26,0.0650312660308228,1
578,523,26,0.0606655101279654,1
529,513,27,0.057696461403888,1
530,509,27,0.0632855309550028,1
530,513,27,0.0693162103113743,1
530,514,27,0.0651432075826493,1
530,519,27,0.0599981243023334,1
531,509,27,0.0634119848683657,1
531,513,27,0.0702680348849574,1
531,514,27,0.0715425634295754,1
531,519,27,0.0605824045972331,1
532,509,27,0.0577997757371336,1
533,508,27,0.0655027792027398,1
533,509,27,0.05986209376356,1
533,516,27,0.0595746239900788,1
533,517,27,0.0667431055137492,1
533,518,27,0.0593712858143382,1
533,519,27,0.063220935908977,1
533,520,27,0.0650866500615216,1
534,507,27,0.0608940459147767,1
534,508,27,0.0682315749265265,1
534,509,27,0.0572293001713508,1
534,517,27,0.0580985676293267,1
534,519,27,0.0684201884510049,1
534,520,27,0.0758476162647142,1
534,521,27,0.0614353670248765,1
535,520,27,0.0592420072682341,1
538,526,27,0.0608298931390131,1
538,527,27,0.0637036532608693,1
539,497,27,0.0595347960787351,1
539,498,27,0.0585744150498131,1
539,526,27,0.0650752925611887,1
539,527,27,0.0714614097849335,1
540,497,27,0.0645226847139981,1
540,498,27,0.0624909540989042,1
547,492,27,0.0630028612881005,1
547,493,27,0.0605206695655694,1
548,492,27,0.0664585252393142,1
548,493,27,0.0630735832514917,1
553,490,27,0.0604782882805787,1
560,487,27,0.0616159194367095,1
560,488,27,0.0763860596696413,1
560,489,27,0.0626438793616929,1
561,487,27,0.0699964691501042,1
561,488,27,0.0869548388046371,1
561,489,27,0.0703906204077604,1
562,487,27,0.0673270378893759,1
562,488,27,0.0778271943704916,1
562,489,27,0.058827151865371,1
563,487,27,0.0770023957131439,1
563,488,27,0.0858649138674537,1
563,489,27,0.0586025552323615,1
564,487,27,0.0691977762320989,1
564,488,27,0.0775927557499144,1
570,494,27,0.0599854223004035,1
570,498,27,0.0596650594132897,1
573,506,27,0.057519429463342,1
573,507,27,0.0633251347827469,1
574,506,27,0.0568795587449545,1
574,507,27,0.0598757864508771,1
575,530,27,0.0627424879393489,1
576,529,27,0.0661012829092712,1
576,530,27,0.0756016727203834,1
576,531,27,0.0662812456274213,1
577,502,27,0.0682865579655209,1
577,503,27,0.0612372299474191,1
577,523,27,0.0617054821132697,1
577,524,27,0.0615164499062764,1
577,529,27,0.0582420283085047,1
577,530,27,0.0683058291550784,1
577,531,27,0.0634932918333652,1
578,523,27,0.0654183881397787,1
578,524,27,0.059692238395135,1
529,513,28,0.0702866809992109,1
530,512,28,0.0593218635867736,1
530,513,28,0.0800498324184904,1
530,514,28,0.0674077551606925,1
531,513,28,0.0667749430756894,1
531,514,28,0.0617604061828958,1
531,519,28,0.0587490528340065,1
533,507,28,0.0602962675314753,1
533,508,28,0.0700049725330118,1
533,509,28,0.0648247376122576,1
533,517,28,0.0577842608963363,1
533,518,28,0.0596842834273525,1
533,519,28,0.0626066284117436,1
533,520,28,0.0625537918577549,1
534,507,28,0.0616977571260236,1
534,508,28,0.0677305004102853,1
534,509,28,0.057582980751549,1
534,518,28,0.0582641948940453,1
534,519,28,0.0675603914735766,1
534,520,28,0.0719411491837271,1
534,521,28,0.0608769506949092,1
535,520,28,0.0588764266695148,1
538,526,28,0.0617804321803674,1
538,527,28,0.058564030544057,1
539,497,28,0.0576907236843533,1
539,498,28,0.0570694047292301,1
539,526,28,0.0625522527572425,1
539,527,28,0.0613576512944059,1
547,491,28,0.0587434330532084,1
547,492,28,0.0680336619326687,1
547,493,28,0.0623539033900593,1
548,491,28,0.0577134976543872,1
548,492,28,0.0673294733242863,1
548,493,28,0.0613002917898694,1
560,488,28,0.0664914655284415,1
561,487,28,0.0608884202370418,1
561,488,28,0.070954650621589,1
561,489,28,0.0583053437192386,1
562,487,28,0.0581201681089316,1
562,488,28,0.0651301635583834,1
563,487,28,0.0620632669615009,1
563,488,28,0.0695522175171481,1
564,488,28,0.063472805874821,1
569,494,28,0.0627834185778796,1
570,494,28,0.0605542703116215,1
573,507,28,0.0592228776051605,1
575,529,28,0.0597656611555939,1
575,530,28,0.0669439080066533,1
575,531,28,0.0596925155511659,1
576,529,28,0.0699401121248286,1
576,530,28,0.0811883186304614,1
576,531,28,0.0712916782521819,1
577,502,28,0.0577531663484365,1
577,510,28,0.0592363992813096,1
577,511,28,0.0597206439398407,1
577,523,28,0.0622919088931752,1
577,524,28,0.0645079659596727,1
577,525,28,0.0571600701329773,1
577,529,28,0.0578040628102084,1
577,530,28,0.0673949882924575,1
577,531,28,0.0620077944767497,1
578,523,28,0.0630443698264404,1
578,524,28,0.0616713801275871,1
529,512,29,0.0585133168873269,1
529,513,29,0.0721038928463363,1
530,512,29,0.0649280342546928,1
530,513,29,0.0815961507815611,1
530,514,29,0.0641256262664851,1
531,513,29,0.0611665787472698,1
531,518,29,0.0573379276446795,1
532,508,29,0.0578432420585008,1
532,518,29,0.0581290194111121,1
532,519,29,0.0573839532366305,1
533,507,29,0.0652325284847995,1
533,508,29,0.0764840726566776,1
533,509,29,0.0684255959420772,1
533,518,29,0.0607589529889591,1
533,519,29,0.0604724031376233,1
534,507,29,0.0605451005748523,1
534,508,29,0.0689141689522408,1
534,509,29,0.058856306321054,1
534,518,29,0.0604004781991189,1
534,519,29,0.0618242582148812,1
534,520,29,0.0593278371837815,1
539,497,29,0.0601111449935997,1
539,498,29,0.0577447396257077,1
546,491,29,0.0573857341115529,1
546,492,29,0.0616025687717284,1
547,491,29,0.0617706255744206,1
547,492,29,0.0689428457560406,1
547,493,29,0.0606799517262599,1
548,492,29,0.061247655731733,1
568,494,29,0.0589257545460901,1
569,494,29,0.0665553352512373,1
569,495,29,0.0612430148424485,1
570,494,29,0.057805767024952,1
571,497,29,0.0596354567904077,1
572,496,29,0.0577842137208417,1
572,497,29,0.0609383908797315,1
575,526,29,0.0580625668299851,1
575,527,29,0.0728556284563716,1
575,528,29,0.0640803377916377,1
575,529,29,0.059537697371655,1
575,530,29,0.0676424119679324,1
575,531,29,0.0613683306470034,1
576,508,29,0.0604781231663475,1
576,509,29,0.0615981637599171,1
576,526,29,0.0658485048151556,1
576,527,29,0.0769317622038051,1
576,528,29,0.0680764029308059,1
576,529,29,0.0674752279118909,1
576,530,29,0.07942510503388,1
576,531,29,0.0722893868912321,1
577,509,29,0.0633170441854174,1
577,510,29,0.0685693219834125,1
577,511,29,0.0659895123686127,1
577,523,29,0.0576551710522107,1
577,524,29,0.0617913592043117,1
577,530,29,0.0648605615034943,1
577,531,29,0.061357822305574,1
578,510,29,0.0623257101350795,1
578,511,29,0.0618470557726624,1
578,524,29,0.0587964288244914,1
529,513,30,0.060172549796801,1
530,512,30,0.0637240448684242,1
530,513,30,0.0701314087555642,1
532,508,30,0.060301244546159,1
532,518,30,0.0636615727196569,1
532,519,30,0.0618287929593027,1
533,507,30,0.0686527105671127,1
533,508,30,0.0834962676635666,1
533,509,30,0.0713549995598526,1
533,518,30,0.0656492768043848,1
533,519,30,0.0632839505759326,1
533,522,30,0.0599288352945916,1
533,523,30,0.0583435971484489,1
534,507,30,0.0574371554007025,1
534,508,30,0.0706805845855203,1
534,509,30,0.0605991695886382,1
534,518,30,0.0635715677728345,1
534,519,30,0.0602212938766302,1
538,497,30,0.0584899296358627,1
538,498,30,0.0593215333583112,1
539,496,30,0.0570170222393773,1
539,497,30,0.0699773925594621,1
539,498,30,0.066776128359992,1
540,497,30,0.0601517630944785,1
542,494,30,0.0576691114108747,1
542,527,30,0.0723730762187105,1
543,493,30,0.0668256095569249,1
543,494,30,0.0685844594202528,1
543,527,30,0.0729436284446721,1
543,528,30,0.0568520731223941,1
544,493,30,0.0654007504017229,1
544,494,30,0.066139418399745,1
545,493,30,0.0577687519524758,1
546,491,30,0.0607405132674946,1
546,492,30,0.0659829549748588,1
546,493,30,0.0580410017320011,1
547,491,30,0.0623993746699484,1
547,492,30,0.0687138794928408,1
547,493,30,0.0579030193071373,1
559,488,30,0.0581108214640575,1
568,493,30,0.0569667862345303,1
568,494,30,0.0709711443539,1
568,495,30,0.06616501700252,1
569,493,30,0.0586635413530479,1
569,494,30,0.0728868940154394,1
569,495,30,0.0699137528172026,1
571,496,30,0.059157722350136,1
571,497,30,0.0659144089811574,1
572,496,30,0.0650949234638928,1
572,497,30,0.0741592701781149,1
573,497,30,0.0585384201474083,1
575,526,30,0.0645907825405004,1
575,527,30,0.0909808662798339,1
575,528,30,0.074409960756593,1
575,529,30,0.0613257842477815,1
575,530,30,0.0704099151850652,1
575,531,30,0.0643599351544521,1
576,508,30,0.0639253132193378,1
576,509,30,0.0633316744856904,1
576,526,30,0.0734979464035431,1
576,527,30,0.0985054697155497,1
576,528,30,0.0803627415774523,1
576,529,30,0.0688169225669923,1
576,530,30,0.0829589918521316,1
576,531,30,0.0772148328624118,1
577,500,30,0.0645530126601101,1
577,508,30,0.0605799278837649,1
577,509,30,0.0689972037197311,1
577,510,30,0.0714047284281323,1
577,511,30,0.062800932480262,1
577,527,30,0.0632494122169246,1
577,530,30,0.0655967822727323,1
577,531,30,0.0636127283919015,1
578,509,30,0.0589017540131957,1
578,510,30,0.0680300942858871,1
578,511,30,0.0617836754956234,1
532,508,31,0.061257869226321,1
532,518,31,0.0693375159441378,1
532,519,31,0.068787502749152,1
533,507,31,0.0663049749012216,1
533,508,31,0.081126848960955,1
533,509,31,0.0716620412666696,1
533,518,31,0.0724480911521133,1
533,519,31,0.0709912293207399,1
533,522,31,0.0605961680477922,1
533,523,31,0.060666559782721,1
534,508,31,0.0657963876874601,1
534,509,31,0.0607834842461681,1
534,518,31,0.0658435336974086,1
534,519,31,0.0644164513970221,1
534,523,31,0.0585345045813538,1
535,519,31,0.0594146341969688,1
536,519,31,0.0577219361709897,1
538,497,31,0.058343697396375,1
538,498,31,0.0593691688140166,1
539,496,31,0.0590543136659011,1
539,497,31,0.0712559781966186,1
539,498,31,0.067547748441015,1
540,496,31,0.057476712052952,1
540,497,31,0.0626137401175594,1
541,527,31,0.058553233252723,1
542,493,31,0.060044680618599,1
542,494,31,0.064105240555867,1
542,526,31,0.0633007568458955,1
542,527,31,0.0799113900325539,1
542,528,31,0.0600998641534457,1
543,492,31,0.0573528881734149,1
543,493,31,0.0742376286746998,1
543,494,31,0.0829880696476358,1
543,495,31,0.0638733788966841,1
543,526,31,0.0633132111764785,1
543,527,31,0.0796041006543902,1
543,528,31,0.0606699623152714,1
544,492,31,0.0570126997846816,1
544,493,31,0.0730723349879037,1
544,494,31,0.0802786630521432,1
544,495,31,0.0597425923387185,1
544,527,31,0.0583719437237863,1
545,492,31,0.059778734664544,1
545,493,31,0.0626249501944715,1
545,494,31,0.0583963098667641,1
546,491,31,0.0603673904865709,1
546,492,31,0.0669957184936336,1
546,493,31,0.0607539464895912,1
547,491,31,0.0589971310694694,1
547,492,31,0.0653016346874996,1
547,493,31,0.0568755783125948,1
552,488,31,0.0579931127080121,1
558,488,31,0.0627262064967638,1
558,489,31,0.0602175198370596,1
559,488,31,0.0632431378761385,1
559,489,31,0.0609542123612439,1
567,494,31,0.0578713763441124,1
568,493,31,0.0628622134477899,1
568,494,31,0.0791773393360691,1
568,495,31,0.0775699522951963,1
569,493,31,0.0601439968286746,1
569,494,31,0.0782157435381602,1
569,495,31,0.0797997787091898,1
569,496,31,0.0604715303909726,1
570,495,31,0.0612523261057016,1
570,496,31,0.0574140276144588,1
571,496,31,0.0662043377772964,1
571,497,31,0.0716834353534855,1
572,496,31,0.0776825896855687,1
572,497,31,0.0855491034155719,1
572,498,31,0.0626997233534644,1
573,496,31,0.0624269546434981,1
573,497,31,0.0653340324584386,1
575,526,31,0.0655678047251542,1
575,527,31,0.0970554719186453,1
575,528,31,0.0806059725308417,1
575,529,31,0.066144247991008,1
575,530,31,0.0743273387746807,1
575,531,31,0.067267484724339,1
576,508,31,0.0571871134852755,1
576,526,31,0.0735767235826429,1
576,527,31,0.104994594631825,1
576,528,31,0.0861332952564191,1
576,529,31,0.0701319099951947,1
576,530,31,0.0816706762692072,1
576,531,31,0.0759808162738096,1
577,500,31,0.0652479489746076,1
577,509,31,0.0634256008955041,1
577,510,31,0.0627802814074865,1
577,527,31,0.0669259282462614,1
577,528,31,0.0584086344647369,1
577,530,31,0.0639251657959171,1
578,500,31,0.0572994442349328,1
578,510,31,0.062182573787427,1
531,520,32,0.0579125015815585,1
532,518,32,0.0690266117436978,1
532,519,32,0.0741211110998938,1
532,520,32,0.0617614971162092,1
533,508,32,0.0644838474880417,1
533,509,32,0.0633401483839138,1
533,518,32,0.0773856258437927,1
533,519,32,0.0828108372112376,1
533,520,32,0.0649082264438839,1
533,522,32,0.0579647366479905,1
533,523,32,0.0583165243114666,1
534,518,32,0.0664755791806239,1
534,519,32,0.0742360777803137,1
534,520,32,0.0619181728308212,1
535,519,32,0.0650172784966642,1
539,496,32,0.0584972182497835,1
539,497,32,0.0653506087478652,1
539,498,32,0.0609013345286975,1
540,497,32,0.0577111919520871,1
540,527,32,0.0588630819014706,1
540,528,32,0.0576770074092888,1
541,526,32,0.0571976395175155,1
541,527,32,0.0685933166193701,1
541,528,32,0.060372491336928,1
542,493,32,0.0606421818458695,1
542,494,32,0.0678384261481312,1
542,495,32,0.0631022364675442,1
542,526,32,0.0654606043105382,1
542,527,32,0.0769038696926035,1
542,528,32,0.0592841821604357,1
543,492,32,0.0571366651907027,1
543,493,32,0.0741060503232323,1
543,494,32,0.088776897933836,1
543,495,32,0.0759281448340522,1
543,526,32,0.0630203221180514,1
543,527,32,0.0708179773167013,1
544,492,32,0.0573415778485767,1
544,493,32,0.0726627691373763,1
544,494,32,0.0832894679859074,1
544,495,32,0.0669056427835693,1
545,492,32,0.0604866206523182,1
545,493,32,0.0644206205313602,1
545,494,32,0.0605883015340622,1
546,491,32,0.0591481575185992,1
546,492,32,0.0662743697990786,1
546,493,32,0.0639320239334493,1
547,492,32,0.0614720754566376,1
547,493,32,0.0576584556460245,1
550,529,32,0.0582516226247256,1
551,530,32,0.0581307413166662,1
552,488,32,0.0580843795993159,1
557,489,32,0.0572842596225979,1
558,488,32,0.0648065337682662,1
558,489,32,0.06522395433865,1
559,488,32,0.0592277661657919,1
559,489,32,0.0588668087655466,1
567,493,32,0.059444195541293,1
567,494,32,0.068524658583869,1
567,495,32,0.0691796962237809,1
568,493,32,0.066385904462264,1
568,494,32,0.0855606791025674,1
568,495,32,0.0895330208648721,1
568,496,32,0.0661222583135723,1
569,493,32,0.0597064146312721,1
569,494,32,0.0786635097454665,1
569,495,32,0.084445185047293,1
569,496,32,0.0647903761613545,1
570,495,32,0.0632786787144074,1
570,496,32,0.0591817759554618,1
571,496,32,0.0690105366939017,1
571,497,32,0.0705624040745286,1
571,498,32,0.0577086916508715,1
572,495,32,0.0600388249603278,1
572,496,32,0.0831026884087828,1
572,497,32,0.0865167494706674,1
572,498,32,0.0695998706636639,1
573,496,32,0.0681187842157966,1
573,497,32,0.069050859947939,1
573,498,32,0.0605069238058208,1
573,530,32,0.0570287158651094,1
574,529,32,0.0592369005209401,1
574,530,32,0.0674526839223933,1
574,531,32,0.0585275579897691,1
575,526,32,0.0569171458203031,1
575,527,32,0.0818256536660124,1
575,528,32,0.0758458412867286,1
575,529,32,0.0666457411897641,1
575,530,32,0.0752903498374285,1
575,531,32,0.0662753545875291,1
576,526,32,0.0618840354635176,1
576,527,32,0.0856056786275101,1
576,528,32,0.076773364583639,1
576,529,32,0.0646790302001477,1
576,530,32,0.0730880385306796,1
576,531,32,0.0679747161521251,1
577,500,32,0.0615359156947493,1
577,501,32,0.0604853940894578,1
577,527,32,0.0576153844194249,1
577,530,32,0.0573921853604439,1
578,500,32,0.0635702114773638,1
578,501,32,0.0761627839504816,1
578,502,32,0.0702548611280812,1
579,501,32,0.069463651422912,1
579,502,32,0.0702732772617984,1
531,519,33,0.0572493674473802,1
531,520,33,0.0640937592198607,1
531,521,33,0.0574624001872678,1
532,518,33,0.0618357454478242,1
532,519,33,0.074077975006989,1
532,520,33,0.0722561576522002,1
532,521,33,0.0613673399616161,1
533,518,33,0.0725264260609509,1
533,519,33,0.0900593342707419,1
533,520,33,0.0834781640675013,1
533,521,33,0.0665954874941066,1
534,518,33,0.0623801624497593,1
534,519,33,0.0827928279661616,1
534,520,33,0.0813514927694591,1
534,521,33,0.0656789796751929,1
535,519,33,0.0667433119065382,1
535,520,33,0.0679021307566959,1
536,517,33,0.0674001540091198,1
537,517,33,0.0704957274098021,1
537,518,33,0.0656483863669236,1
538,504,33,0.058513104597601,1
539,497,33,0.059047243238643,1
539,504,33,0.0568524623202248,1
540,527,33,0.0668495923990088,1
540,528,33,0.069423628912653,1
541,495,33,0.0595241521077586,1
541,496,33,0.0569344710207069,1
541,526,33,0.0573340238724986,1
541,527,33,0.0693487614026709,1
541,528,33,0.0686356389349925,1
542,494,33,0.0674828644450846,1
542,495,33,0.0730865171209777,1
542,496,33,0.0635059643506109,1
542,526,33,0.0588165078943944,1
542,527,33,0.0631065412314295,1
543,493,33,0.0672240007121613,1
543,494,33,0.0812979249953037,1
543,495,33,0.0827732324450785,1
543,496,33,0.0636428499452245,1
544,493,33,0.0645008247691727,1
544,494,33,0.0717694303832641,1
544,495,33,0.0653931433532134,1
545,492,33,0.0587022901249518,1
545,493,33,0.0618933762114549,1
545,494,33,0.0574256268892017,1
546,492,33,0.0622228793506538,1
546,493,33,0.0622130019814651,1
547,492,33,0.0574978053959897,1
550,529,33,0.057490617029995,1
550,530,33,0.0596378155651393,1
551,530,33,0.0577671302948478,1
551,531,33,0.0569002982717824,1
551,532,33,0.0591591670996591,1
552,532,33,0.0587183651747479,1
556,489,33,0.0604108332201908,1
557,488,33,0.0577571349869225,1
557,489,33,0.0646996340974285,1
558,488,33,0.0586746334912234,1
558,489,33,0.0630028848758478,1
559,535,33,0.0673105146723808,1
559,536,33,0.0678108107929606,1
560,535,33,0.0694222608233086,1
560,536,33,0.0711331921779633,1
561,490,33,0.0602184102745208,1
561,535,33,0.0610257363080439,1
561,536,33,0.0614627465025739,1
562,535,33,0.0592595211706165,1
567,493,33,0.0647976706722121,1
567,494,33,0.0811097655349611,1
567,495,33,0.0823908160917122,1
567,496,33,0.0660286562352842,1
568,493,33,0.0698161938943022,1
568,494,33,0.0911948661173615,1
568,495,33,0.0930954842389975,1
568,496,33,0.0715123652160737,1
569,493,33,0.0597102004647164,1
569,494,33,0.0764272202887084,1
569,495,33,0.0793600264390342,1
569,496,33,0.0633272576800054,1
570,495,33,0.0612657534308614,1
570,496,33,0.058585011845295,1
571,496,33,0.0670550121934501,1
571,497,33,0.0663272948071197,1
571,498,33,0.0582529612293858,1
572,495,33,0.0597395318285042,1
572,496,33,0.0763375042917906,1
572,497,33,0.0775953798868033,1
572,498,33,0.0732588845844919,1
572,499,33,0.0602760351412147,1
572,521,33,0.0602638756574731,1
572,522,33,0.0576845613853669,1
572,529,33,0.0627880712610378,1
572,530,33,0.057878806484517,1
573,496,33,0.0662763334790427,1
573,497,33,0.0679904137979642,1
573,498,33,0.0711898322562067,1
573,499,33,0.0666496626527554,1
573,521,33,0.058621584647509,1
573,522,33,0.0592516546568865,1
573,529,33,0.0594945612787503,1
573,530,33,0.0594554351028893,1
574,522,33,0.0569206603946532,1
574,528,33,0.0590242805666305,1
574,529,33,0.0624582260995027,1
574,530,33,0.0695482370847884,1
574,531,33,0.0591245815651565,1
575,527,33,0.0619054531380809,1
575,528,33,0.0659381559457682,1
575,529,33,0.062059298323015,1
575,530,33,0.0675332124917313,1
575,531,33,0.0588405261180993,1
576,527,33,0.0621431114861668,1
576,528,33,0.063505822824127,1
576,529,33,0.0574324555420497,1
576,530,33,0.0600018098878516,1
577,501,33,0.0642162621855482,1
577,502,33,0.0625170716321202,1
578,500,33,0.0625340666040616,1
578,501,33,0.0978003199064642,1
578,502,33,0.102452260050574,1
578,503,33,0.0680715792364797,1
579,501,33,0.0920339412587724,1
579,502,33,0.100194039885749,1
579,503,33,0.0680140251330278,1
580,502,33,0.0573052939962673,1
531,520,34,0.0661656656655712,1
532,510,34,0.0569125226218291,1
532,511,34,0.0571470791811429,1
532,519,34,0.0707090432026575,1
532,520,34,0.0827160557455837,1
532,521,34,0.0668723132966113,1
533,510,34,0.0589990652647494,1
533,511,34,0.0605085277726383,1
533,518,34,0.0618959826575334,1
533,519,34,0.088096745239969,1
533,520,34,0.0995556375046315,1
533,521,34,0.0768975481763228,1
534,510,34,0.0588558463599813,1
534,511,34,0.0620861470763978,1
534,519,34,0.0807431529722968,1
534,520,34,0.0935946481477061,1
534,521,34,0.0756357275305714,1
535,520,34,0.0710770415454768,1
536,516,34,0.0622210041247422,1
536,517,34,0.091777701662738,1
537,504,34,0.056908418353796,1
537,516,34,0.0608207823716121,1
537,517,34,0.091764280234515,1
537,518,34,0.0777643035392094,1
538,503,34,0.0580053429549956,1
538,504,34,0.0745522538422789,1
538,505,34,0.0581603380426114,1
539,504,34,0.0741054960111704,1
540,527,34,0.0676500426041892,1
540,528,34,0.0709397077836641,1
541,495,34,0.0609540531439495,1
541,496,34,0.0619385172628816,1
541,527,34,0.0653896700574211,1
541,528,34,0.0683873661006142,1
542,494,34,0.0635100804125176,1
542,495,34,0.0749899244937338,1
542,496,34,0.0761065566578162,1
542,497,34,0.0569515426528271,1
542,523,34,0.0574589150976018,1
542,524,34,0.0571383870962568,1
543,493,34,0.0571912354441191,1
543,494,34,0.0677537520322024,1
543,495,34,0.0775975735473038,1
543,496,34,0.0726753590975064,1
543,523,34,0.0587816039253031,1
543,524,34,0.0602720665027287,1
543,525,34,0.0599551946022176,1
544,494,34,0.0579571060117337,1
544,495,34,0.0572601234601565,1
546,492,34,0.0574421913847546,1
546,493,34,0.0571089201029218,1
550,531,34,0.0583259712042668,1
550,532,34,0.056891340824739,1
553,532,34,0.0601763415271821,1
553,533,34,0.0594874554698712,1
555,489,34,0.058284663161779,1
556,489,34,0.0650152794350791,1
556,490,34,0.0571922143356327,1
557,488,34,0.0577015032848769,1
557,489,34,0.0653692371713083,1
558,489,34,0.0584041174111258,1
558,535,34,0.0726061880285012,1
558,536,34,0.0710653891983025,1
559,534,34,0.0656813148621773,1
559,535,34,0.0931405663210558,1
559,536,34,0.0919579946093506,1
559,537,34,0.0597656965372149,1
560,534,34,0.0624628316071663,1
560,535,34,0.0854197069307312,1
560,536,34,0.0846030165615235,1
560,537,34,0.058656636040021,1
561,490,34,0.057828676624533,1
561,535,34,0.0676243555473617,1
561,536,34,0.0652269794672434,1
562,535,34,0.0665620577592225,1
562,536,34,0.0611970953953604,1
563,535,34,0.0639482110250452,1
563,536,34,0.0580241129049226,1
564,492,34,0.0577634918848242,1
566,494,34,0.0574836999230945,1
566,495,34,0.05726303654695,1
567,493,34,0.0650857242424394,1
567,494,34,0.0865510873338231,1
567,495,34,0.0901722841987662,1
567,496,34,0.0738979710102811,1
568,491,34,0.0573450570413058,1
568,492,34,0.0616692395395181,1
568,493,34,0.0709667098574045,1
568,494,34,0.0916661905873,1
568,495,34,0.0915943128242902,1
568,496,34,0.071821706728254,1
569,493,34,0.0596063495102193,1
569,494,34,0.07175814954311,1
569,495,34,0.0705410394723968,1
569,496,34,0.057591778981298,1
570,495,34,0.0569913705641708,1
571,496,34,0.0624157386696492,1
571,497,34,0.0621866485707759,1
571,521,34,0.0576387185984576,1
571,522,34,0.0586110645122059,1
571,529,34,0.0625742778162992,1
571,530,34,0.0604209464668527,1
572,495,34,0.0573332985492686,1
572,496,34,0.0664026281751113,1
572,497,34,0.0697953128409904,1
572,498,34,0.0731779609203864,1
572,499,34,0.0657622798048406,1
572,521,34,0.0605086634021853,1
572,522,34,0.0625213056327635,1
572,529,34,0.0653466283155056,1
572,530,34,0.0597796899683103,1
573,496,34,0.0605375053202164,1
573,497,34,0.0658920713844489,1
573,498,34,0.0761150423499133,1
573,499,34,0.073670083886521,1
573,521,34,0.0590421600790963,1
573,522,34,0.06313015846343,1
574,522,34,0.0570914769637814,1
574,529,34,0.0616707078767885,1
574,530,34,0.0634808964721505,1
575,528,34,0.0576527592050476,1
575,529,34,0.058217556020664,1
575,530,34,0.0584314615072023,1
577,501,34,0.0621208033741423,1
577,502,34,0.0706550154674294,1
578,501,34,0.103026161736655,1
578,502,34,0.122382786114893,1
578,503,34,0.0800595682611952,1
579,501,34,0.0937318226922243,1
579,502,34,0.112632731792311,1
579,503,34,0.0756966841665737,1
580,502,34,0.0585250399977431,1
581,505,34,0.059832868544635,1
531,520,35,0.0645150010053098,1
532,510,35,0.0579443096588146,1
532,511,35,0.0627090582044648,1
532,519,35,0.0676546127302317,1
532,520,35,0.0859370923742417,1
532,521,35,0.0681488409028144,1
533,510,35,0.0582614351276092,1
533,511,35,0.0648356056668336,1
533,519,35,0.0788352403398032,1
533,520,35,0.0992435126382678,1
533,521,35,0.0784200665023513,1
534,511,35,0.060102783137176,1
534,519,35,0.0733314169074897,1
534,520,35,0.0902739945651943,1
534,521,35,0.0767859427498954,1
535,517,35,0.0658791688866668,1
535,520,35,0.0699397759994294,1
536,516,35,0.067203827291269,1
536,517,35,0.0962173520810007,1
536,518,35,0.0794057276994596,1
536,519,35,0.0587960219358502,1
536,520,35,0.0640141623665417,1
537,504,35,0.0612729948692876,1
537,516,35,0.0627146838821998,1
537,517,35,0.0911729943786624,1
537,518,35,0.0760457769299188,1
538,503,35,0.0585809665466302,1
538,504,35,0.0745461505126608,1
538,505,35,0.0577640756815703,1
539,504,35,0.0708022855677991,1
540,496,35,0.0583805355607463,1
540,527,35,0.0590394239004076,1
540,528,35,0.0600657267861421,1
541,495,35,0.0601770491596016,1
541,496,35,0.0669257631320301,1
541,497,35,0.0617952040071243,1
541,528,35,0.0578884066976748,1
542,494,35,0.0595031059402156,1
542,495,35,0.0695376992586748,1
542,496,35,0.0789794794146427,1
542,497,35,0.0666529000710746,1
542,523,35,0.0601828045699468,1
542,524,35,0.0614276302437567,1
542,525,35,0.057596956491834,1
543,494,35,0.0583343330606904,1
543,495,35,0.0669473577146983,1
543,496,35,0.0705159539031259,1
543,523,35,0.0582999008465454,1
543,524,35,0.0635319344604062,1
543,525,35,0.0629606922928357,1
550,531,35,0.0587326534526848,1
550,532,35,0.0598762994843813,1
553,533,35,0.0578810650113226,1
555,489,35,0.0584877654600465,1
555,535,35,0.062104427580568,1
555,536,35,0.0612619675974172,1
556,489,35,0.0611710014498917,1
556,535,35,0.0592799717475398,1
556,536,35,0.058449517927773,1
557,489,35,0.0588709896937584,1
557,535,35,0.0596704845951725,1
557,536,35,0.0584860376575555,1
558,534,35,0.0651057974154056,1
558,535,35,0.086461247501232,1
558,536,35,0.0849340352134875,1
558,537,35,0.05705088245065,1
559,534,35,0.079639299470323,1
559,535,35,0.109967894245373,1
559,536,35,0.1061000815853,1
559,537,35,0.0670552067923655,1
560,534,35,0.0735746360670054,1
560,535,35,0.0921250961082764,1
560,536,35,0.0874473450716657,1
560,537,35,0.0602212525980724,1
561,534,35,0.0613632356935831,1
561,535,35,0.0678645613721578,1
561,536,35,0.063061671439097,1
562,535,35,0.0640123166253142,1
562,536,35,0.0588376425159899,1
563,535,35,0.0619156843234793,1
567,493,35,0.0605144659880252,1
567,494,35,0.0783166755089269,1
567,495,35,0.0823388345935638,1
567,496,35,0.0685996499295245,1
568,491,35,0.0580132802319676,1
568,492,35,0.062813251181298,1
568,493,35,0.0669857821550766,1
568,494,35,0.0811992987268372,1
568,495,35,0.0803378211224126,1
568,496,35,0.0645775969897506,1
569,493,35,0.0581782411428245,1
569,494,35,0.0650188529787975,1
569,495,35,0.0620551645702978,1
570,522,35,0.0619503583120344,1
570,523,35,0.0577934542208528,1
571,497,35,0.0578964619133833,1
571,522,35,0.0595119985209539,1
571,529,35,0.061197626119675,1
571,530,35,0.059384990295529,1
572,497,35,0.0640433934824035,1
572,498,35,0.0710569978571947,1
572,499,35,0.0661378439176116,1
572,522,35,0.0586099794758293,1
573,497,35,0.060989057360967,1
573,498,35,0.0736929109289864,1
573,499,35,0.0717012499996462,1
573,522,35,0.0589197691552086,1
573,523,35,0.0582022416757189,1
577,497,35,0.0708751952947539,1
577,498,35,0.0629981732233213,1
577,502,35,0.0687959707504385,1
578,497,35,0.067837435462744,1
578,498,35,0.0604775393696014,1
578,501,35,0.0854837889432529,1
578,502,35,0.111459665942774,1
578,503,35,0.0792240430757555,1
579,501,35,0.0753426615640394,1
579,502,35,0.0975743256994262,1
579,503,35,0.0714241470411105,1
531,520,36,0.059359114536723,1
532,511,36,0.0645904700028485,1
532,512,36,0.0576140635055752,1
532,519,36,0.0645957182766263,1
532,520,36,0.0808441439124317,1
532,521,36,0.0634220568364698,1
533,511,36,0.0643004822373412,1
533,512,36,0.0589792928355614,1
533,519,36,0.0680199987300357,1
533,520,36,0.0875283041173922,1
533,521,36,0.0718109153338567,1
534,519,36,0.0640196111361718,1
534,520,36,0.0781202544400868,1
534,521,36,0.0704595791870398,1
535,517,36,0.0630284952724965,1
535,518,36,0.0580488741426679,1
535,519,36,0.0591389759879563,1
535,520,36,0.066834820572252,1
536,516,36,0.0626202208511346,1
536,517,36,0.0811009260266543,1
536,518,36,0.0705305075432201,1
536,519,36,0.061234405314678,1
536,520,36,0.0672101841891707,1
536,521,36,0.0718361129449274,1
537,504,36,0.0621035076584226,1
537,517,36,0.0753154000250785,1
537,518,36,0.0670421686650363,1
537,519,36,0.0586939164746545,1
537,520,36,0.059999551361046,1
537,521,36,0.0604466335236802,1
538,504,36,0.0644455232955895,1
540,497,36,0.0584977312832876,1
541,496,36,0.0645811764304058,1
541,497,36,0.0675586813618961,1
541,523,36,0.0583394987773527,1
541,524,36,0.0593826256238605,1
542,495,36,0.0613538123885302,1
542,496,36,0.0693585680086176,1
542,497,36,0.0667656554001836,1
542,513,36,0.0579764420675963,1
542,523,36,0.0610436570990675,1
542,524,36,0.0651125435111381,1
542,525,36,0.0606918399509073,1
543,495,36,0.0574913128685409,1
543,496,36,0.0596094689898019,1
543,524,36,0.066929702285832,1
543,525,36,0.0665118217543755,1
543,526,36,0.0577283343474492,1
544,525,36,0.058571484272209,1
550,532,36,0.0583192663870921,1
555,535,36,0.0659799534340128,1
555,536,36,0.0685595448621499,1
556,489,36,0.0571848431645963,1
556,535,36,0.0622143464830622,1
556,536,36,0.0652638176316147,1
557,534,36,0.0572836522381045,1
557,535,36,0.0666770421304529,1
557,536,36,0.0666142692379072,1
558,534,36,0.0740717360478239,1
558,535,36,0.0958869761951511,1
558,536,36,0.0927410016753905,1
558,537,36,0.0620835288364457,1
559,533,36,0.062519389128294,1
559,534,36,0.0884872286029175,1
559,535,36,0.112832284134608,1
559,536,36,0.105667482299519,1
559,537,36,0.0683005867782373,1
560,533,36,0.0632918524712836,1
560,534,36,0.0805172708070585,1
560,535,36,0.0898777911735216,1
560,536,36,0.0817353243876644,1
560,537,36,0.0584955612105345,1
561,534,36,0.065348409190428,1
561,535,36,0.0666756032778666,1
561,536,36,0.0600316189035226,1
562,534,36,0.0595047275978436,1
562,535,36,0.0631685121405664,1
562,536,36,0.0571231258237431,1
563,535,36,0.0598525525197705,1
567,493,36,0.0569251302727697,1
567,494,36,0.0679167492630952,1
567,495,36,0.0693896625565174,1
567,496,36,0.0574795956550615,1
568,492,36,0.05940100047902,1
568,493,36,0.0613150223380685,1
568,494,36,0.0680568074097228,1
568,495,36,0.0668789414536072,1
569,494,36,0.0584405309960455,1
569,522,36,0.0639044439598997,1
569,523,36,0.0733804676280341,1
570,522,36,0.0651883899126338,1
570,523,36,0.0733838406759003,1
571,523,36,0.0598164219878187,1
572,497,36,0.0610438163163619,1
572,498,36,0.0690322669061169,1
572,499,36,0.0614118854224231,1
573,497,36,0.058157071139608,1
573,498,36,0.0701379543554445,1
573,499,36,0.0639502572621249,1
573,523,36,0.0572470145695854,1
577,497,36,0.0755670400103862,1
577,498,36,0.0710321422684601,1
577,502,36,0.0574470976361964,1
578,497,36,0.074219507387824,1
578,498,36,0.0685648638991697,1
578,501,36,0.0581596893795602,1
578,502,36,0.0796964584790073,1
578,503,36,0.0660282316558325,1
579,502,36,0.0688179014585059,1
579,503,36,0.0584560163521586,1
532,511,37,0.0581200560671319,1
532,519,37,0.0608493117519913,1
532,520,37,0.0712215518794104,1
533,511,37,0.0570272711155863,1
533,519,37,0.0609467881177761,1
533,520,37,0.0744962093546553,1
533,521,37,0.0634460337816169,1
534,519,37,0.0589349596644803,1
534,520,37,0.0696210937393118,1
534,521,37,0.0652350051982677,1
535,517,37,0.058560203432055,1
535,519,37,0.0590860038044206,1
535,520,37,0.0656042654855684,1
536,517,37,0.0627240187332002,1
536,518,37,0.0598081073068897,1
536,519,37,0.0602714709121089,1
536,520,37,0.0648809884926703,1
536,521,37,0.0633317688366797,1
537,517,37,0.0608681111866024,1
537,518,37,0.0581504370856753,1
537,519,37,0.0602498468447567,1
537,520,37,0.0616845538844632,1
540,497,37,0.0584079622139384,1
541,496,37,0.0592602229060992,1
541,497,37,0.0659388281965667,1
541,512,37,0.0592376376380438,1
541,524,37,0.0586322698970433,1
542,496,37,0.0569800307546485,1
542,497,37,0.0593803258184972,1
542,512,37,0.0637195514025605,1
542,513,37,0.0619742409061922,1
542,524,37,0.0633397827738304,1
542,525,37,0.0607056918555188,1
543,524,37,0.065868949495142,1
543,525,37,0.0657357317952361,1
544,525,37,0.058556718342389,1
555,535,37,0.063908365422891,1
555,536,37,0.0666841892178897,1
556,535,37,0.0644928462136429,1
556,536,37,0.0684423432426718,1
557,534,37,0.0611312914772846,1
557,535,37,0.0730210788129853,1
557,536,37,0.0737262640036918,1
557,537,37,0.057186441234477,1
558,533,37,0.0582317971231062,1
558,534,37,0.0755749713904213,1
558,535,37,0.093014177273998,1
558,536,37,0.0894960588648274,1
558,537,37,0.062761599911612,1
559,533,37,0.066101324187829,1
559,534,37,0.0858474117589449,1
559,535,37,0.100775690146822,1
559,536,37,0.0936762617534207,1
559,537,37,0.0649258995635606,1
560,533,37,0.0649302632968142,1
560,534,37,0.0785309760902328,1
560,535,37,0.0822184191435138,1
560,536,37,0.0741192889464136,1
561,534,37,0.0647519340301657,1
561,535,37,0.0657823116992491,1
561,536,37,0.0592006815349359,1
562,534,37,0.0622873210763221,1
562,535,37,0.0645794722156622,1
562,536,37,0.0569461528525654,1
563,534,37,0.0585580923286702,1
563,535,37,0.0593581297482725,1
567,494,37,0.0584769740656492,1
568,522,37,0.0629152622915044,1
568,523,37,0.0731076989180678,1
569,522,37,0.070055786437668,1
569,523,37,0.08767550345452,1
570,522,37,0.0623362715489404,1
570,523,37,0.0776277658638687,1
571,523,37,0.0575730031344342,1
572,497,37,0.0630273099881939,1
572,498,37,0.0684319469430421,1
573,497,37,0.0577437843219414,1
573,498,37,0.0653626090143124,1
577,497,37,0.066275218957982,1
577,498,37,0.0668756155812356,1
578,497,37,0.0657683005773431,1
578,498,37,0.0641858811670047,1
532,520,38,0.0623309289241732,1
533,520,38,0.0656929966940357,1
534,520,38,0.0647995694858711,1
536,519,38,0.0576588389469184,1
536,520,38,0.0595348845327876,1
537,519,38,0.0627154622778612,1
537,520,38,0.0636703178769744,1
538,516,38,0.0587693265028249,1
538,517,38,0.0588332080194944,1
538,519,38,0.0609760664091325,1
538,520,38,0.0610949191709228,1
540,524,38,0.059249289985218,1
541,512,38,0.064805059534059,1
541,513,38,0.057084141174366,1
541,524,38,0.0593247353950094,1
542,512,38,0.0685447907262035,1
542,513,38,0.0612135773337977,1
542,524,38,0.0624135803907697,1
542,525,38,0.061452910411943,1
543,524,38,0.0648033553193154,1
543,525,38,0.0657763616899885,1
544,524,38,0.0571148642152456,1
544,525,38,0.0590134007181809,1
555,535,38,0.0569196343276449,1
555,536,38,0.0569243164954872,1
556,535,38,0.0624463319779185,1
556,536,38,0.0645088563971339,1
557,534,38,0.0612715324289539,1
557,535,38,0.0731846362528769,1
557,536,38,0.0739362185425546,1
557,537,38,0.0571894545691967,1
558,533,38,0.0605153918071073,1
558,534,38,0.0719645718168123,1
558,535,38,0.0827844130373065,1
558,536,38,0.0792433437499971,1
558,537,38,0.0599330869860454,1
559,533,38,0.0685772356726372,1
559,534,38,0.0793433557986184,1
559,535,38,0.0848716633126463,1
559,536,38,0.0773652519270482,1
559,537,38,0.0598198068295586,1
560,533,38,0.0628981316900159,1
560,534,38,0.0716413194306522,1
560,535,38,0.0728231304375065,1
560,536,38,0.0641694228163148,1
561,534,38,0.0597152364487684,1
561,535,38,0.062757702036368,1
562,534,38,0.0591650050671199,1
562,535,38,0.0634111416063992,1
563,535,38,0.0580757877623559,1
568,522,38,0.06272340545177,1
568,523,38,0.0726086883297167,1
569,522,38,0.0637321295688169,1
569,523,38,0.0779693164450095,1
571,494,38,0.0585657878312321,1
572,497,38,0.0655027792027398,1
572,498,38,0.0679102803233937,1
573,498,38,0.0587668497893567,1
537,518,39,0.0572097046502678,1
537,519,39,0.0658782017890268,1
537,520,39,0.0647463201463044,1
538,516,39,0.0643972745584539,1
538,517,39,0.0620101591484182,1
538,518,39,0.0614275064080833,1
538,519,39,0.0702030978165955,1
538,520,39,0.0704961401953801,1
539,519,39,0.0570219225938823,1
539,520,39,0.0589786087908892,1
540,523,39,0.0610367281982933,1
540,524,39,0.0640747710832711,1
541,511,39,0.0611249994456879,1
541,512,39,0.0661149814935252,1
541,513,39,0.0592065666778913,1
541,523,39,0.0611637835992128,1
541,524,39,0.0654899297773892,1
541,525,39,0.0587148506003978,1
542,511,39,0.0598685568063247,1
542,512,39,0.0670541984161677,1
542,513,39,0.0588163545740369,1
542,524,39,0.066114403593716,1
542,525,39,0.0628561160151086,1
543,524,39,0.0678552265211573,1
543,525,39,0.066797487065187,1
544,514,39,0.0631692020821754,1
544,515,39,0.0604208108373056,1
544,524,39,0.0594694226370479,1
544,525,39,0.0589738853444891,1
545,514,39,0.0641002635411832,1
545,515,39,0.0649457663437378,1
556,535,39,0.0605652622018709,1
556,536,39,0.0598826504853462,1
557,534,39,0.061582607640562,1
557,535,39,0.0709851554758059,1
557,536,39,0.0701801233507093,1
558,533,39,0.059416869136027,1
558,534,39,0.0667245360596744,1
558,535,39,0.0714917377310455,1
558,536,39,0.0682702470382517,1
559,533,39,0.0655818099501232,1
559,534,39,0.0711075287088831,1
559,535,39,0.0702086586280253,1
559,536,39,0.0632593839371026,1
560,533,39,0.0570162025651581,1
560,534,39,0.0632077267704798,1
560,535,39,0.063294458917362,1
561,492,39,0.0591066312894487,1
561,535,39,0.0572850321213225,1
564,533,39,0.0571718640066355,1
564,534,39,0.0631426422786972,1
565,534,39,0.0607924711778957,1
567,493,39,0.0579694954760116,1
568,522,39,0.0570757970087529,1
571,494,39,0.0576222661447044,1
572,497,39,0.0632446003164721,1
572,498,39,0.0635873066972314,1
536,515,40,0.0593869834601772,1
537,515,40,0.0595577410599371,1
537,516,40,0.059868822168482,1
537,518,40,0.0582996472782617,1
537,519,40,0.0657171269595403,1
537,520,40,0.0609491174078236,1
538,515,40,0.0599383824353179,1
538,516,40,0.0663645398601322,1
538,517,40,0.0608409557925044,1
538,518,40,0.0626044701328641,1
538,519,40,0.0716778863359293,1
538,520,40,0.0701224218238367,1
539,509,40,0.0606624967932458,1
539,510,40,0.0611548497399168,1
539,516,40,0.0583977899979082,1
539,519,40,0.0582651619916852,1
539,520,40,0.0631561993364672,1
540,509,40,0.0586343751034912,1
540,510,40,0.0606462507322816,1
540,511,40,0.0573979230799786,1
540,523,40,0.060353756768622,1
540,524,40,0.0649454538060859,1
541,510,40,0.0576520397787545,1
541,511,40,0.0624105965407342,1
541,512,40,0.0643046159900584,1
541,513,40,0.0579068700068867,1
541,523,40,0.0640196347239191,1
541,524,40,0.0710375910380902,1
541,525,40,0.0602819202841701,1
542,511,40,0.0600354872940825,1
542,512,40,0.0642699655892507,1
542,523,40,0.0578317076500631,1
542,524,40,0.068274168501243,1
542,525,40,0.0606834250220522,1
543,523,40,0.0572422970201221,1
543,524,40,0.0687429337005977,1
543,525,40,0.0630968053887247,1
544,513,40,0.0580931424474439,1
544,514,40,0.0812733878411578,1
544,515,40,0.0778929334222623,1
544,524,40,0.0589185779739691,1
545,513,40,0.057931702007874,1
545,514,40,0.094191341494631,1
545,515,40,0.0961593144287288,1
546,514,40,0.0633533044499795,1
546,515,40,0.0672842261279967,1
556,535,40,0.0574573877909631,1
557,534,40,0.0613421305566718,1
557,535,40,0.066482926763913,1
557,536,40,0.063157278475907,1
558,533,40,0.059263849522249,1
558,534,40,0.0652627266983013,1
558,535,40,0.0652620603444396,1
558,536,40,0.0604574190211406,1
559,533,40,0.0618293649621752,1
559,534,40,0.0664276547750139,1
559,535,40,0.0616480695363017,1
560,534,40,0.0583584043568268,1
561,492,40,0.0578507488590842,1
563,534,40,0.0574854572102696,1
564,533,40,0.0652334484069449,1
564,534,40,0.0789298154126681,1
564,535,40,0.0656748577163494,1
565,533,40,0.062373204064301,1
565,534,40,0.0780324313598912,1
565,535,40,0.0631045657575917,1
567,493,40,0.0586376302126209,1
536,514,41,0.0605352173087267,1
536,515,41,0.06374168260648,1
536,516,41,0.0601616581544777,1
537,515,41,0.0654077205810549,1
537,516,41,0.0643613091407333,1
537,519,41,0.0589530278789247,1
538,515,41,0.068181220982943,1
538,516,41,0.0686949562225562,1
538,517,41,0.0571750955280179,1
538,518,41,0.057215666453402,1
538,519,41,0.0636124158542496,1
538,520,41,0.0627719549326839,1
539,509,41,0.0585765025654506,1
539,510,41,0.0623288001299779,1
539,515,41,0.0709179362928911,1
539,516,41,0.0687884757437287,1
539,520,41,0.0603925822007047,1
540,510,41,0.0593738745696062,1
540,511,41,0.0572542088325169,1
540,515,41,0.0662343649796301,1
540,516,41,0.0622990618775488,1
540,524,41,0.0578576836567953,1
541,511,41,0.0611227527127561,1
541,512,41,0.0617632956819421,1
541,523,41,0.0627739657881426,1
541,524,41,0.0678436921127196,1
542,511,41,0.0589621209555151,1
542,512,41,0.0620786697604985,1
542,523,41,0.0584294919303014,1
542,524,41,0.06415751100392,1
543,524,41,0.0615341348198269,1
544,513,41,0.0631602210473847,1
545,513,41,0.065574261870982,1
545,514,41,0.101227478065046,1
546,514,41,0.068860819364748,1
557,534,41,0.0576280392458601,1
557,535,41,0.058231289986539,1
558,534,41,0.0598230442478778,1
558,535,41,0.0580236706346604,1
559,534,41,0.0570444017170748,1
563,534,41,0.0586318806992125,1
564,533,41,0.0663531469781784,1
564,534,41,0.0842973960164824,1
564,535,41,0.0699153155054623,1
565,533,41,0.064316604462632,1
565,534,41,0.0830120760774671,1
565,535,41,0.0669083199928897,1
536,514,42,0.0625693125954891,1
536,515,42,0.0676102264867192,1
536,516,42,0.0678215844965474,1
537,514,42,0.0584027964972761,1
537,515,42,0.0698038692963294,1
537,516,42,0.0721606213786321,1
537,517,42,0.0588780365332692,1
538,514,42,0.0568795941265754,1
538,515,42,0.0736533660706106,1
538,516,42,0.0716435484727736,1
538,519,42,0.0578766128240166,1
538,520,42,0.0593924204359337,1
539,510,42,0.0583278464301784,1
539,511,42,0.0583922114956679,1
539,514,42,0.0637867528946648,1
539,515,42,0.0866828072117745,1
539,516,42,0.0790711296068404,1
540,514,42,0.0612147567211635,1
540,515,42,0.0791832893453296,1
540,516,42,0.0722522715708298,1
541,511,42,0.0573566740068591,1
541,512,42,0.0582481552258701,1
541,523,42,0.0582021591186032,1
541,524,42,0.0590841403723826,1
542,511,42,0.0571882221093994,1
542,512,42,0.0592176588160668,1
542,523,42,0.0579880354454022,1
542,524,42,0.0575750493715139,1
563,534,42,0.0580690357696866,1
564,533,42,0.0622924337205529,1
564,534,42,0.078684644367062,1
564,535,42,0.0671859831604241,1
565,533,42,0.06071348170907,1
565,534,42,0.0766604618311093,1
565,535,42,0.0638893124199963,1
536,515,43,0.0633822466159367,1
536,516,43,0.0705239383555925,1
536,517,43,0.0625333589716422,1
537,515,43,0.0663113200052497,1
537,516,43,0.0767550545947847,1
537,517,43,0.0689388889114283,1
537,518,43,0.0575004885022469,1
538,514,43,0.0570360929330826,1
538,515,43,0.0714053711942467,1
538,516,43,0.0723789436708554,1
538,517,43,0.0597503998830803,1
538,520,43,0.0573689396354636,1
539,514,43,0.0665022215412178,1
539,515,43,0.0901625306652509,1
539,516,43,0.0818840923099887,1
540,514,43,0.0613381265365648,1
540,515,43,0.0809565277345205,1
540,516,43,0.0740077130046705,1
541,515,43,0.0570869658071071,1
542,512,43,0.0569492428474638,1
546,526,43,0.0629595188024067,1
546,527,43,0.0602481308361394,1
564,534,43,0.0676619426227103,1
564,535,43,0.0595437181441576,1
565,534,43,0.0664663681652969,1
565,535,43,0.0577577187836686,1
536,516,44,0.0634272107592584,1
536,517,44,0.061911279311668,1
537,515,44,0.0594146341969688,1
537,516,44,0.0711382163681417,1
537,517,44,0.0710353148204741,1
537,518,44,0.0586124561892975,1
537,520,44,0.0591552751213519,1
538,515,44,0.0619749190539275,1
538,516,44,0.0645558137051039,1
538,517,44,0.0590393472402288,1
538,520,44,0.0573636736708753,1
539,514,44,0.0611709424805234,1
539,515,44,0.0769070599354281,1
539,516,44,0.0719860189760597,1
540,514,44,0.0568751891147641,1
540,515,44,0.0711920966799491,1
540,516,44,0.0671533436150751,1
545,526,44,0.062558273529745,1
545,527,44,0.0571762808123205,1
546,526,44,0.0683928738396126,1
546,527,44,0.0644632553846345,1
564,534,44,0.0578845442040518,1
537,516,45,0.0597916902347575,1
537,517,45,0.0649116348733711,1
537,518,45,0.058006504651551,1
537,520,45,0.063567239421202,1
537,521,45,0.0631338558428218,1
538,520,45,0.0591612251306124,1
538,521,45,0.05803793532485,1
539,515,45,0.0609659708532811,1
539,516,45,0.0598965790501365,1
540,515,45,0.0581205042343309,1
545,526,45,0.0604845862091122,1
546,526,45,0.0630660646570346,1
546,527,45,0.0586142429611567,1
537,517,46,0.057945365210507,1
537,520,46,0.0694553190511725,1
537,521,46,0.0789972999577402,1
537,522,46,0.0685280139409248,1
538,520,46,0.067018787310509,1
538,521,46,0.078862608023627,1
538,522,46,0.0709784624525049,1
539,520,46,0.0586704820476957,1
539,521,46,0.0641158963207171,1
539,522,46,0.0610233657394386,1
541,522,46,0.0572019796630217,1
536,521,47,0.0575880167356011,1
537,520,47,0.067683242358537,1
537,521,47,0.0808339834902752,1
537,522,47,0.0741712527537516,1
538,519,47,0.0570376379305318,1
538,520,47,0.0711705197880915,1
538,521,47,0.089709368760746,1
538,522,47,0.0840877186336505,1
538,523,47,0.0584852179833363,1
539,520,47,0.0603924052925999,1
539,521,47,0.0713570045183745,1
539,522,47,0.0698377766830966,1
540,522,47,0.0598755446764672,1
541,522,47,0.0616805085857985,1
541,523,47,0.059843878125695,1
544,521,47,0.0571402918068526,1
545,521,47,0.065843315510746,1
545,522,47,0.0610991708623765,1
546,521,47,0.0582106742953844,1
537,520,48,0.0653400473340043,1
537,521,48,0.0788399991678243,1
537,522,48,0.0764476413809475,1
538,506,48,0.0598623886104015,1
538,520,48,0.0710186323861846,1
538,521,48,0.0912910274662334,1
538,522,48,0.0903689706297636,1
538,523,48,0.0599715055294869,1
539,518,48,0.0577955122518062,1
539,520,48,0.0592680540382082,1
539,521,48,0.071395629454605,1
539,522,48,0.0729228417423495,1
540,501,48,0.0590283376591689,1
540,518,48,0.0591165145555743,1
540,522,48,0.0607241138861729,1
541,501,48,0.0574522397651113,1
541,522,48,0.0646045106094385,1
541,523,48,0.0635391405172114,1
542,522,48,0.0576368669602932,1
544,521,48,0.0640473503270158,1
544,522,48,0.0654037873241899,1
545,521,48,0.0745005848817825,1
545,522,48,0.0705480332394761,1
546,521,48,0.0628063104866501,1
546,522,48,0.0573468320192914,1
537,520,49,0.0611985755265045,1
537,521,49,0.074956347335429,1
537,522,49,0.075753324244817,1
538,520,49,0.0661539307612813,1
538,521,49,0.0840412094928795,1
538,522,49,0.0867085532379703,1
538,523,49,0.0594675120295153,1
539,518,49,0.0575764233577951,1
539,520,49,0.0583591414739304,1
539,521,49,0.06729922793529,1
539,522,49,0.0695770200334512,1
540,500,49,0.0599731153932412,1
540,501,49,0.0593046976036641,1
540,518,49,0.0595728549090301,1
540,522,49,0.0575174480925674,1
541,522,49,0.0601921689056314,1
541,523,49,0.0592120803138265,1
544,521,49,0.0649650493271689,1
544,522,49,0.0663705547356979,1
545,521,49,0.0725732300485634,1
545,522,49,0.0709878385820631,1
545,523,49,0.0573713043071321,1
546,521,49,0.0592676530465038,1
554,492,49,0.0571737156447999,1
555,492,49,0.0582716957976919,1
537,520,50,0.0568859981999718,1
537,521,50,0.0722606098395061,1
537,522,50,0.0725029739431816,1
538,520,50,0.0597521099947607,1
538,521,50,0.0758275548856216,1
538,522,50,0.0785779392951396,1
538,523,50,0.0579598598812329,1
539,499,50,0.0584726869925745,1
539,500,50,0.0612780544410869,1
539,521,50,0.0625159630079963,1
539,522,50,0.0648971225118347,1
540,499,50,0.05990953462035,1
540,500,50,0.0676786368508735,1
540,501,50,0.0594070625300803,1
544,521,50,0.0618755438744837,1
544,522,50,0.0613832970726756,1
545,521,50,0.0652082625897478,1
545,522,50,0.0646211989406648,1
554,492,50,0.0626925880599012,1
554,493,50,0.0592249946054822,1
555,492,50,0.0632618606505708,1
537,521,51,0.0663514604542453,1
537,522,51,0.0638577225294028,1
538,521,51,0.0654308483672986,1
538,522,51,0.0650866795462057,1
539,499,51,0.0618688036756881,1
539,500,51,0.066088834475625,1
539,522,51,0.0570280377173741,1
540,499,51,0.0615187615055134,1
540,500,51,0.0687095039657136,1
544,521,51,0.0577218064383794,1
554,493,51,0.0614754249167565,1
555,493,51,0.0584389918955331,1
537,521,52,0.0594776724516718,1
538,521,52,0.0592506580745624,1
539,499,52,0.0614544731002027,1
539,500,52,0.0648961554141947,1
540,499,52,0.0586305715792365,1
540,500,52,0.0627769260504308,1
551,502,52,0.0576711517510176,1
539,499,53,0.0585513521298745,1
539,500,53,0.0587282484408735,1
553,518,57,0.0578166999458331,1
