x,y,z,signal,cytoplasm.p
11,446,1,0.0621935715746133,1
11,447,1,0.0737080365719531,1
11,448,1,0.0749740617336636,1
11,449,1,0.0601041807112045,1
12,446,1,0.0697407307937003,1
12,447,1,0.093631291713162,1
12,448,1,0.102788503388569,1
12,449,1,0.0818344224110773,1
13,446,1,0.0701023250631232,1
13,447,1,0.101712371386628,1
13,448,1,0.118469885475826,1
13,449,1,0.0983903143331513,1
13,450,1,0.0669126837261432,1
14,446,1,0.0621962192992495,1
14,447,1,0.0893334508317653,1
14,448,1,0.106484007554495,1
14,449,1,0.0962052810513116,1
14,450,1,0.0761368374284336,1
14,451,1,0.0660327192247594,1
15,447,1,0.0758106778524168,1
15,448,1,0.0933040235130213,1
15,449,1,0.0946662866837826,1
15,450,1,0.0881110453117795,1
15,451,1,0.0882380063617098,1
15,452,1,0.0787460196855791,1
15,453,1,0.0573872850059389,1
16,447,1,0.0675565584646377,1
16,448,1,0.085452352373017,1
16,449,1,0.0945597997985229,1
16,450,1,0.0936560942294652,1
16,451,1,0.097871195190213,1
16,452,1,0.0909918463762097,1
16,453,1,0.0674125139887135,1
17,447,1,0.0596901626733711,1
17,448,1,0.0738621471190444,1
17,449,1,0.0862420111838002,1
17,450,1,0.0900300500824486,1
17,451,1,0.0975398875883444,1
17,452,1,0.0958168203376954,1
17,453,1,0.0770730233255459,1
17,454,1,0.0586166666021935,1
18,448,1,0.0648575068902169,1
18,449,1,0.0745820864456973,1
18,450,1,0.0793739137252667,1
18,451,1,0.0882374225649637,1
18,452,1,0.093518365372885,1
18,453,1,0.0839653277097628,1
18,454,1,0.0699862143769584,1
18,455,1,0.0595172821763528,1
19,449,1,0.061159119122181,1
19,450,1,0.0647477766897012,1
19,451,1,0.0729171511983095,1
19,452,1,0.0813607273725335,1
19,453,1,0.0802179658813614,1
19,454,1,0.0721312251485391,1
19,455,1,0.0633780420999775,1
20,450,1,0.057454598539843,1
20,451,1,0.063594324052058,1
20,452,1,0.0700570660729599,1
20,453,1,0.0712714871404791,1
20,454,1,0.0664915009100625,1
20,455,1,0.0592401792178171,1
21,452,1,0.0585682232661425,1
21,453,1,0.0593673879390942,1
22,447,1,0.0642961008132772,1
22,448,1,0.072265132790054,1
22,449,1,0.0682271522239047,1
23,446,1,0.0594087490540134,1
23,447,1,0.0724410266217921,1
23,448,1,0.0891402612843075,1
23,449,1,0.0840176512302473,1
23,450,1,0.0577542219001289,1
24,447,1,0.0681184009149027,1
24,448,1,0.084482447791116,1
24,449,1,0.0798073149944574,1
25,448,1,0.059747097598456,1
25,449,1,0.0568662434615944,1
2,451,2,0.0892518726076717,1
3,450,2,0.0958027443494844,1
3,451,2,0.106676129756387,1
3,452,2,0.0903579787395142,1
4,451,2,0.0941400853197126,1
4,452,2,0.076344356532386,1
5,450,2,0.0613655590866937,1
5,451,2,0.0608684767966858,1
9,447,2,0.0574118044692743,1
10,447,2,0.0621438250155231,1
10,448,2,0.0593735856197015,1
11,446,2,0.0625659631353702,1
11,447,2,0.0735253671597984,1
11,448,2,0.0737286109845497,1
12,446,2,0.0704902609493615,1
12,447,2,0.0941818238385889,1
12,448,2,0.101643483370591,1
12,449,2,0.0761183033559798,1
13,446,2,0.0753795056253475,1
13,447,2,0.108716410929883,1
13,448,2,0.123004323256679,1
13,449,2,0.094642569203856,1
13,450,2,0.0617333982122186,1
14,446,2,0.0717571706515964,1
14,447,2,0.100881658101641,1
14,448,2,0.113072218700309,1
14,449,2,0.0924895032165668,1
14,450,2,0.0687663740244933,1
14,451,2,0.0603508377848916,1
15,446,2,0.0667998812215396,1
15,447,2,0.0885284363974792,1
15,448,2,0.102816207197792,1
15,449,2,0.0962852494116508,1
15,450,2,0.0849219700807352,1
15,451,2,0.0870488182868823,1
15,452,2,0.0814125024778929,1
15,453,2,0.0580876347084455,1
16,446,2,0.061523054475525,1
16,447,2,0.0778696464187242,1
16,448,2,0.0961233136293872,1
16,449,2,0.102855362858337,1
16,450,2,0.095389622646049,1
16,451,2,0.096742609935178,1
16,452,2,0.0912762615364134,1
16,453,2,0.0655519891405785,1
17,447,2,0.0644483420313938,1
17,448,2,0.0816800052232708,1
17,449,2,0.0964478456508393,1
17,450,2,0.0942008060782417,1
17,451,2,0.0939766517154944,1
17,452,2,0.0908379363249705,1
17,453,2,0.070715995691179,1
18,447,2,0.058104971702723,1
18,448,2,0.0683377492741342,1
18,449,2,0.0811321031316697,1
18,450,2,0.0826016020986679,1
18,451,2,0.0855817960333523,1
18,452,2,0.0906945699967817,1
18,453,2,0.0800854499169381,1
18,454,2,0.0644444854347076,1
19,449,2,0.0619526227357768,1
19,450,2,0.0642640804462953,1
19,451,2,0.0712229907319967,1
19,452,2,0.0815656459273443,1
19,453,2,0.078772762294099,1
19,454,2,0.0673004603950872,1
19,455,2,0.0577862540609845,1
20,451,2,0.0613046083476283,1
20,452,2,0.0678574850479629,1
20,453,2,0.0673752630387642,1
20,454,2,0.0612696925846633,1
22,446,2,0.0590206008780492,1
22,447,2,0.0641856452895316,1
22,448,2,0.0699779409745872,1
22,449,2,0.0657459511867609,1
23,446,2,0.0630397171432823,1
23,447,2,0.0742199732458335,1
23,448,2,0.0886077384039568,1
23,449,2,0.0821363573706002,1
24,446,2,0.0609738314700743,1
24,447,2,0.0723098374681554,1
24,448,2,0.0839524075211702,1
24,449,2,0.0767333125886958,1
25,448,2,0.0576814419057843,1
1,451,3,0.0990532302806668,1
2,450,3,0.114909008377707,1
2,451,3,0.135443262834589,1
2,452,3,0.109783567793969,1
2,453,3,0.0622941969046648,1
3,449,3,0.0884171317148302,1
3,450,3,0.138660761301149,1
3,451,3,0.162375387110315,1
3,452,3,0.128057502776514,1
3,453,3,0.0696417919875819,1
4,450,3,0.117422990486684,1
4,451,3,0.131408095107307,1
4,452,3,0.100752491597337,1
5,450,3,0.0706265804380396,1
5,451,3,0.0725810552837356,1
9,447,3,0.0669377575015405,1
9,448,3,0.0601361303149445,1
10,446,3,0.058606158260764,1
10,447,3,0.0672710818558047,1
10,448,3,0.0615463237882526,1
11,446,3,0.0606697146439246,1
11,447,3,0.0702407733459965,1
11,448,3,0.0689268709541706,1
12,446,3,0.0706866230488333,1
12,447,3,0.0898962957612912,1
12,448,3,0.0923725551653723,1
12,449,3,0.0674480784147298,1
13,446,3,0.0784101183699206,1
13,447,3,0.106330156472624,1
13,448,3,0.112718909627131,1
13,449,3,0.0827138915697674,1
13,450,3,0.0568694631891031,1
14,446,3,0.0802755494694974,1
14,447,3,0.107874127854837,1
14,448,3,0.112459621314757,1
14,449,3,0.0863263314835193,1
14,450,3,0.0640890003918397,1
15,446,3,0.0745083452506495,1
15,447,3,0.0972829757415115,1
15,448,3,0.105360935935395,1
15,449,3,0.0928901234139245,1
15,450,3,0.0806747072265215,1
15,451,3,0.0852709920808384,1
15,452,3,0.0840420291670987,1
15,453,3,0.0572899029911434,1
16,446,3,0.0669325623001941,1
16,447,3,0.0860677036280692,1
16,448,3,0.101063885243534,1
16,449,3,0.104211363482186,1
16,450,3,0.0950490332656113,1
16,451,3,0.0969775615892594,1
16,452,3,0.0946042980838352,1
16,453,3,0.0657847353402858,1
17,446,3,0.0575166166244745,1
17,447,3,0.0697402354510067,1
17,448,3,0.0869226946019818,1
17,449,3,0.100435991203846,1
17,450,3,0.094577980054767,1
17,451,3,0.0884460267052927,1
17,452,3,0.0842945183113098,1
17,453,3,0.0647426640454704,1
18,447,3,0.0591442419525447,1
18,448,3,0.0711505409661145,1
18,449,3,0.0844361745278181,1
18,450,3,0.0845963648167803,1
18,451,3,0.0822927205475603,1
18,452,3,0.0863311080023508,1
18,453,3,0.0780687211091374,1
18,454,3,0.0611813446770899,1
19,449,3,0.0617715808781869,1
19,450,3,0.0655147263967555,1
19,451,3,0.0725092482839678,1
19,452,3,0.0863146496516609,1
19,453,3,0.0846266750720818,1
19,454,3,0.0684602404459481,1
20,451,3,0.0612204708529509,1
20,452,3,0.0701024783834807,1
20,453,3,0.0696270496455092,1
20,454,3,0.0608719913710359,1
22,446,3,0.0622355341770891,1
22,447,3,0.0656929259307937,1
22,448,3,0.0664826437109452,1
22,449,3,0.0616041904293564,1
23,446,3,0.0709446376228532,1
23,447,3,0.0817245094055199,1
23,448,3,0.0855397390798873,1
23,449,3,0.07628459697456,1
24,446,3,0.0739977000059347,1
24,447,3,0.0852265055893998,1
24,448,3,0.0831161982910583,1
24,449,3,0.0711338054593935,1
25,446,3,0.0606272802865024,1
25,447,3,0.0643548755826527,1
25,448,3,0.0580931070658229,1
1,450,4,0.0979026081727016,1
1,451,4,0.113212896025304,1
1,452,4,0.091266855922171,1
2,447,4,0.0575262109406954,1
2,449,4,0.0908702633326675,1
2,450,4,0.149509686214084,1
2,451,4,0.177501855648081,1
2,452,4,0.137103191582609,1
2,453,4,0.0715769248804785,1
3,446,4,0.0626158276331969,1
3,447,4,0.0624868321400606,1
3,448,4,0.0635494719505359,1
3,449,4,0.101681919604843,1
3,450,4,0.172342059510377,1
3,451,4,0.206339834525348,1
3,452,4,0.15825551578242,1
3,453,4,0.0787193065617433,1
4,446,4,0.0595737335526176,1
4,447,4,0.0613298649280673,1
4,448,4,0.0611719921352789,1
4,450,4,0.135792738898828,1
4,451,4,0.155002859778485,1
4,452,4,0.116836056570211,1
4,453,4,0.0609693792827683,1
5,450,4,0.0726959865825345,1
5,451,4,0.075868220161995,1
5,452,4,0.0589898424555487,1
8,447,4,0.0619075760353393,1
8,448,4,0.0569589256177372,1
9,446,4,0.0578721783275212,1
9,447,4,0.0736329331844978,1
9,448,4,0.0646118522957907,1
10,446,4,0.0581550956657703,1
10,447,4,0.0695988563905293,1
10,448,4,0.0623342430026712,1
11,446,4,0.0575979766619054,1
11,447,4,0.0653271625270327,1
11,448,4,0.0631387385065163,1
12,446,4,0.0683392883746466,1
12,447,4,0.0815395873634965,1
12,448,4,0.080384005931658,1
12,449,4,0.0580351991461613,1
13,446,4,0.0790588403904885,1
13,447,4,0.0998753930072519,1
13,448,4,0.0994913255115734,1
13,449,4,0.070602344027672,1
14,445,4,0.0572894489270075,1
14,446,4,0.0855010669681621,1
14,447,4,0.111456481596887,1
14,448,4,0.111068699031006,1
14,449,4,0.0822128524351471,1
14,450,4,0.059045550817773,1
15,446,4,0.080355918821541,1
15,447,4,0.105017486540596,1
15,448,4,0.108257511305843,1
15,449,4,0.0919957291081199,1
15,450,4,0.0765349278398917,1
15,451,4,0.0793648147517394,1
15,452,4,0.079633950948619,1
16,446,4,0.0708101579784659,1
16,447,4,0.0921067094592433,1
16,448,4,0.101912171400272,1
16,449,4,0.101549804632124,1
16,450,4,0.0919434822478142,1
16,451,4,0.0933657290600009,1
16,452,4,0.0920722772450983,1
16,453,4,0.0600357703470503,1
17,446,4,0.0587374358684532,1
17,447,4,0.0734766230799692,1
17,448,4,0.0868709843629275,1
17,449,4,0.0965427096736088,1
17,450,4,0.0891920835651616,1
17,451,4,0.0794700043108967,1
17,452,4,0.0737961073234955,1
18,447,4,0.0574277261987128,1
18,448,4,0.0689446856003313,1
18,449,4,0.080848171520286,1
18,450,4,0.0818193498405421,1
18,451,4,0.0765711350320223,1
18,452,4,0.077034893732009,1
18,453,4,0.0688259448803408,1
19,449,4,0.0585834550539721,1
19,450,4,0.0638385810724556,1
19,451,4,0.070165711237099,1
19,452,4,0.0821449668983707,1
19,453,4,0.0809839425938389,1
19,454,4,0.0614953801509861,1
20,451,4,0.0582963744783216,1
20,452,4,0.0667932412706701,1
20,453,4,0.0674696729973979,1
22,446,4,0.0659632945874706,1
22,447,4,0.0672857534346355,1
22,448,4,0.0599174070310168,1
23,446,4,0.0793321044431485,1
23,447,4,0.087100204194411,1
23,448,4,0.0761569872615786,1
23,449,4,0.062684521050319,1
24,445,4,0.0571815821585299,1
24,446,4,0.0859860192591126,1
24,447,4,0.0945199600933056,1
24,448,4,0.0764911135992515,1
24,449,4,0.0593829499553861,1
25,446,4,0.0652131452534423,1
25,447,4,0.0670718479480971,1
1,450,5,0.103725951230162,1
1,451,5,0.116348686535161,1
1,452,5,0.0925708219754399,1
2,447,5,0.0615708491485248,1
2,448,5,0.064169587930546,1
2,449,5,0.0959471308477446,1
2,450,5,0.16172290284405,1
2,451,5,0.190018976814471,1
2,452,5,0.146426991723437,1
2,453,5,0.0751588953216345,1
3,446,5,0.0687957584607127,1
3,447,5,0.0770581040753683,1
3,448,5,0.0788942332958414,1
3,449,5,0.107749513785765,1
3,450,5,0.17795259391155,1
3,451,5,0.212209291628812,1
3,452,5,0.164713581532417,1
3,453,5,0.0817007801317196,1
4,446,5,0.0658596205410784,1
4,447,5,0.0769508682791314,1
4,448,5,0.0785449931090755,1
4,449,5,0.094050328044237,1
4,450,5,0.135162580435398,1
4,451,5,0.152729873683839,1
4,452,5,0.117772702428396,1
4,453,5,0.0626819263981142,1
5,447,5,0.0620944086848953,1
5,448,5,0.0606417277817337,1
5,449,5,0.0619199831904278,1
5,450,5,0.0716750734970619,1
5,451,5,0.0731738094768587,1
5,452,5,0.0587508278119921,1
8,447,5,0.0637484228052757,1
8,448,5,0.0609537052246766,1
9,446,5,0.0583735241028565,1
9,447,5,0.0784225903913141,1
9,448,5,0.0732314461374262,1
10,447,5,0.0698685999719023,1
10,448,5,0.0657567897566528,1
11,446,5,0.057590847265279,1
11,447,5,0.0633344165613159,1
11,448,5,0.0614445780402035,1
12,446,5,0.0686462711120953,1
12,447,5,0.0761058844070177,1
12,448,5,0.0718848393339462,1
13,445,5,0.0599989026979948,1
13,446,5,0.083031919269897,1
13,447,5,0.0988696232555564,1
13,448,5,0.0916632126342013,1
13,449,5,0.0628835603591112,1
14,445,5,0.0612839218932319,1
14,446,5,0.0920690398267791,1
14,447,5,0.118164872315278,1
14,448,5,0.113236070987042,1
14,449,5,0.0810993456475841,1
15,445,5,0.0593833450501537,1
15,446,5,0.0899032246620654,1
15,447,5,0.118807426139923,1
15,448,5,0.118379155205773,1
15,449,5,0.0971175902512029,1
15,450,5,0.0758506649810548,1
15,451,5,0.0732346717618717,1
15,452,5,0.0683159836802981,1
16,446,5,0.0791751043970109,1
16,447,5,0.103911787297394,1
16,448,5,0.108220643656788,1
16,449,5,0.101853143062612,1
16,450,5,0.0902528304589147,1
16,451,5,0.0888339802823416,1
16,452,5,0.083143359582093,1
17,446,5,0.0651800162623365,1
17,447,5,0.0837186647391389,1
17,448,5,0.0914772291435487,1
17,449,5,0.0940585601680504,1
17,450,5,0.0845046615521511,1
17,451,5,0.0731658014366448,1
17,452,5,0.0640532118822239,1
18,447,5,0.0585063879865527,1
18,448,5,0.0679339978033203,1
18,449,5,0.0765724795336193,1
18,450,5,0.0758053411245864,1
18,451,5,0.0683915411318892,1
18,452,5,0.0636189378663826,1
18,453,5,0.0569190682217093,1
19,450,5,0.0603581558834965,1
19,451,5,0.0639434698878346,1
19,452,5,0.0692616990273262,1
19,453,5,0.0701768033752745,1
20,452,5,0.0580319204492843,1
20,453,5,0.0613950614616497,1
22,446,5,0.0648196721435214,1
22,447,5,0.0665855983310442,1
23,446,5,0.0806060197063363,1
23,447,5,0.0885816208707407,1
23,448,5,0.0690180552883588,1
24,445,5,0.0577874570360977,1
24,446,5,0.0874655312248466,1
24,447,5,0.095951913263513,1
24,448,5,0.0717647541123586,1
25,446,5,0.0629300105305139,1
25,447,5,0.064625680612655,1
1,450,6,0.0988029996632613,1
1,451,6,0.11444424719846,1
1,452,6,0.0927888258330744,1
1,453,6,0.0585781124292049,1
2,447,6,0.0655658705298742,1
2,448,6,0.0697229869107816,1
2,449,6,0.0901015032660067,1
2,450,6,0.149794661583287,1
2,451,6,0.181922482548133,1
2,452,6,0.141880406252716,1
2,453,6,0.0719465094993048,1
3,446,6,0.0718333060029968,1
3,447,6,0.0949744134269761,1
3,448,6,0.0996908778538697,1
3,449,6,0.106277190186025,1
3,450,6,0.159067983944858,1
3,451,6,0.191991372451191,1
3,452,6,0.150774732484281,1
3,453,6,0.07552191664977,1
4,446,6,0.069662248461442,1
4,447,6,0.0963205779601939,1
4,448,6,0.102252023663606,1
4,449,6,0.0959433037357425,1
4,450,6,0.116644052307056,1
4,451,6,0.129918977031478,1
4,452,6,0.103053429172552,1
4,453,6,0.0584608990158531,1
5,447,6,0.0664307742545965,1
5,448,6,0.0682668680934486,1
5,449,6,0.0613432745624166,1
5,450,6,0.06370355890988,1
5,451,6,0.0641886409334408,1
8,447,6,0.0586896411954535,1
8,448,6,0.0590822710434078,1
9,447,6,0.0789626554538693,1
9,448,6,0.0795958980152609,1
10,447,6,0.0740459015675756,1
10,448,6,0.0741527422690451,1
11,446,6,0.0617352026748883,1
11,447,6,0.0709056647673498,1
11,448,6,0.0678228700287761,1
12,445,6,0.0622913486841764,1
12,446,6,0.0780904690121631,1
12,447,6,0.0845153409047486,1
12,448,6,0.073206679002744,1
13,445,6,0.0708277072624693,1
13,446,6,0.101323609929234,1
13,447,6,0.11553624196047,1
13,448,6,0.0950663112905206,1
13,449,6,0.0575312056461896,1
14,445,6,0.0767474357524015,1
14,446,6,0.121320735998101,1
14,447,6,0.150362005875614,1
14,448,6,0.131999982450716,1
14,449,6,0.0830543512175948,1
15,445,6,0.0791177979649058,1
15,446,6,0.126431847025344,1
15,447,6,0.161267588557603,1
15,448,6,0.148749358767089,1
15,449,6,0.106305990825499,1
15,450,6,0.0735320896677836,1
15,451,6,0.0617891301621903,1
16,445,6,0.0699856246832755,1
16,446,6,0.109607037093054,1
16,447,6,0.138113030220716,1
16,448,6,0.130607585932758,1
16,449,6,0.10684278898505,1
16,450,6,0.0869530638266516,1
16,451,6,0.0779033356188288,1
16,452,6,0.0658553157771932,1
17,446,6,0.0773920594018732,1
17,447,6,0.0972902820462427,1
17,448,6,0.0960499439413597,1
17,449,6,0.0902174429410034,1
17,450,6,0.0788231044438089,1
17,451,6,0.0659228592916335,1
18,447,6,0.0575389837058672,1
18,448,6,0.0640964953985494,1
18,449,6,0.0734658198916983,1
18,450,6,0.0727537352849018,1
18,451,6,0.0624180148872652,1
19,450,6,0.0595747596196259,1
19,451,6,0.0585862443050922,1
20,446,6,0.0580581087457423,1
21,446,6,0.0657113656522583,1
21,447,6,0.0601105729907273,1
22,446,6,0.0673551721749875,1
22,447,6,0.0679489878167398,1
23,446,6,0.0789098896631226,1
23,447,6,0.0874151006210843,1
23,448,6,0.064256290592744,1
24,446,6,0.0824257023699931,1
24,447,6,0.0922679081244033,1
24,448,6,0.0683385630514167,1
25,446,6,0.059469003954533,1
25,447,6,0.0626124722761412,1
1,450,7,0.0818635296912656,1
1,451,7,0.0998600609714963,1
1,452,7,0.0837147845547053,1
2,447,7,0.0658611596415908,1
2,448,7,0.071396802945034,1
2,449,7,0.0794733832556998,1
2,450,7,0.118710421529084,1
2,451,7,0.151031779960661,1
2,452,7,0.120996439854122,1
2,453,7,0.065881751744998,1
3,446,7,0.0703564948343305,1
3,447,7,0.103406702864109,1
3,448,7,0.113130940397254,1
3,449,7,0.10256818203476,1
3,450,7,0.126910524975509,1
3,451,7,0.153944277060548,1
3,452,7,0.122496172416243,1
3,453,7,0.0670409008236181,1
4,446,7,0.0697634634851765,1
4,447,7,0.108024983292799,1
4,448,7,0.120676224390429,1
4,449,7,0.09886394450539,1
4,450,7,0.0954692961595468,1
4,451,7,0.101911157127137,1
4,452,7,0.0825848194164523,1
5,447,7,0.0694907950231363,1
5,448,7,0.0756305264322881,1
5,449,7,0.063520004957201,1
5,450,7,0.0576461723266095,1
9,446,7,0.0588063769569221,1
9,447,7,0.0754581648657107,1
9,448,7,0.0785297495273723,1
9,449,7,0.0596133432772986,1
10,446,7,0.0588296639604601,1
10,447,7,0.0737762700280024,1
10,448,7,0.0749411155475995,1
11,446,7,0.0650778400378989,1
11,447,7,0.0741547826091879,1
11,448,7,0.067594534737817,1
12,445,7,0.0702510811915737,1
12,446,7,0.085800967484479,1
12,447,7,0.0901199665752185,1
12,448,7,0.0708519967452683,1
13,445,7,0.0839578268061162,1
13,446,7,0.11638182732014,1
13,447,7,0.126764469644126,1
13,448,7,0.0939558650131719,1
14,444,7,0.0591483757052619,1
14,445,7,0.0966853624724412,1
14,446,7,0.154099791078604,1
14,447,7,0.181529852700179,1
14,448,7,0.144257850686352,1
14,449,7,0.0779806739453423,1
15,444,7,0.0586433915199029,1
15,445,7,0.0988012895515809,1
15,446,7,0.167960470332133,1
15,447,7,0.205837580621741,1
15,448,7,0.17445703128575,1
15,449,7,0.10314494963214,1
15,450,7,0.0660389935655456,1
16,445,7,0.0874759570091604,1
16,446,7,0.145993908888835,1
16,447,7,0.176615439897807,1
16,448,7,0.153871791913045,1
16,449,7,0.102967628741689,1
16,450,7,0.0781918727378761,1
16,451,7,0.0620528529710608,1
17,445,7,0.0576569814118173,1
17,446,7,0.0881438322805493,1
17,447,7,0.106867166921902,1
17,448,7,0.0983924254365361,1
17,449,7,0.081118982447225,1
17,450,7,0.0705423309015624,1
18,447,7,0.0585087054827266,1
18,448,7,0.0619603713107702,1
18,449,7,0.0676516111893857,1
18,450,7,0.0670532608032119,1
20,445,7,0.0627749977520877,1
20,446,7,0.064821240728718,1
21,445,7,0.07009422267192,1
21,446,7,0.0765746496063724,1
21,447,7,0.0639075929241664,1
22,445,7,0.0600649778751648,1
22,446,7,0.0720783768006768,1
22,447,7,0.0687466369769264,1
22,460,7,0.0639069737457994,1
22,461,7,0.0616986475634848,1
23,446,7,0.0766357890474164,1
23,447,7,0.0827396081112791,1
23,448,7,0.0596674948482001,1
23,460,7,0.0596028172450587,1
23,461,7,0.0576020514452543,1
24,446,7,0.0758840829220652,1
24,447,7,0.0849645813462622,1
24,448,7,0.0637775831578955,1
25,446,7,0.0584355009089303,1
25,447,7,0.0634281542691511,1
1,452,8,0.0708057352758441,1
2,448,8,0.065580058559885,1
2,449,8,0.0642283273183005,1
2,450,8,0.0832160511223852,1
2,451,8,0.111518753249802,1
2,452,8,0.0961178648597572,1
2,453,8,0.0580815962451326,1
3,447,8,0.0947515740811417,1
3,448,8,0.106913163029169,1
3,449,8,0.0883214362239677,1
3,450,8,0.090564483570332,1
3,451,8,0.109513098889366,1
3,452,8,0.0916105411944439,1
3,453,8,0.0579535442618889,1
4,446,8,0.0646486079030464,1
4,447,8,0.10262311789826,1
4,448,8,0.118548491643757,1
4,449,8,0.0908944938460983,1
4,450,8,0.0726670444165774,1
4,451,8,0.0735794007919633,1
4,452,8,0.0632624798289379,1
5,447,8,0.0647122299544955,1
5,448,8,0.072250815027433,1
5,449,8,0.0586367220843492,1
9,447,8,0.0624057551555975,1
9,448,8,0.0666993089639195,1
9,449,8,0.0570545267576103,1
10,447,8,0.0637496021926415,1
10,448,8,0.0665845250885413,1
11,446,8,0.0606829355762954,1
11,447,8,0.0676160526603063,1
11,448,8,0.0611148508174051,1
12,445,8,0.0689354922758147,1
12,446,8,0.0855957540828268,1
12,447,8,0.0862460977610227,1
12,448,8,0.0634535052005794,1
13,444,8,0.0573216285112839,1
13,445,8,0.0916331736379939,1
13,446,8,0.126460576901576,1
13,447,8,0.130103409627745,1
13,448,8,0.0868858623345473,1
14,444,8,0.068198298512,1
14,445,8,0.117029936059278,1
14,446,8,0.188534257853517,1
14,447,8,0.21553971643565,1
14,448,8,0.150423864742951,1
14,449,8,0.0671991628142371,1
15,444,8,0.0699992407104139,1
15,445,8,0.124195763961375,1
15,446,8,0.222288524759068,1
15,447,8,0.274480284087055,1
15,448,8,0.205120937682776,1
15,449,8,0.0977205933205349,1
16,444,8,0.0614672104837536,1
16,445,8,0.105724894876487,1
16,446,8,0.187153454713365,1
16,447,8,0.233460389520511,1
16,448,8,0.182192137675454,1
16,449,8,0.0982280719101726,1
16,450,8,0.0626099365933047,1
17,445,8,0.06070730761621,1
17,446,8,0.0944410531815956,1
17,447,8,0.118706682871135,1
17,448,8,0.100515033745103,1
17,449,8,0.0718213764997915,1
17,450,8,0.0585625857945339,1
18,449,8,0.0581294616813743,1
18,450,8,0.0579155090193413,1
20,445,8,0.0681373241851872,1
20,446,8,0.0643890719193246,1
21,444,8,0.0595015963243874,1
21,445,8,0.0797945717139697,1
21,446,8,0.0808129491166058,1
21,447,8,0.0639442070049382,1
22,445,8,0.0673250388277909,1
22,446,8,0.0778656659863646,1
22,447,8,0.0696813722275787,1
22,460,8,0.0630830124534814,1
22,461,8,0.0624373686339383,1
23,445,8,0.0589521846169581,1
23,446,8,0.0788765955577856,1
23,447,8,0.0788242366556801,1
23,460,8,0.0634795460736166,1
23,461,8,0.0631103329618106,1
24,446,8,0.0723504083935395,1
24,447,8,0.0768833011769437,1
24,448,8,0.0573497804877059,1
25,446,8,0.0569935937093554,1
25,447,8,0.0624069404399002,1
1,452,9,0.0613288801396168,1
2,448,9,0.0570570801312573,1
2,451,9,0.0760228850211483,1
2,452,9,0.0737379812171712,1
3,447,9,0.0726247692764496,1
3,448,9,0.0855246488185416,1
3,449,9,0.0708315225805977,1
3,450,9,0.062812525858068,1
3,451,9,0.0705647156737656,1
3,452,9,0.0664085899782455,1
4,447,9,0.0805178722946151,1
4,448,9,0.0963180776589783,1
4,449,9,0.0753995198289454,1
5,448,9,0.0628576728064315,1
12,445,9,0.0653435206297966,1
12,446,9,0.081024619664086,1
12,447,9,0.0757270828759276,1
13,444,9,0.0579844736955575,1
13,445,9,0.0964337283840704,1
13,446,9,0.128563082552492,1
13,447,9,0.122120443189241,1
13,448,9,0.0748159471664652,1
14,444,9,0.0708918836259802,1
14,445,9,0.124027960726967,1
14,446,9,0.186668502422414,1
14,447,9,0.205671971047833,1
14,448,9,0.126962913362298,1
15,444,9,0.0748487931046033,1
15,445,9,0.132711341734283,1
15,446,9,0.225463081731639,1
15,447,9,0.282189373191468,1
15,448,9,0.190234179627112,1
15,449,9,0.0818603276545674,1
16,444,9,0.0659324300201071,1
16,445,9,0.107583609365015,1
16,446,9,0.18036674088001,1
16,447,9,0.235377884675352,1
16,448,9,0.168910797083762,1
16,449,9,0.0824171282238436,1
17,445,9,0.0610237195556484,1
17,446,9,0.085731342351338,1
17,447,9,0.112648500201392,1
17,448,9,0.0897423444314942,1
17,449,9,0.0601107793835163,1
20,445,9,0.0642157137704231,1
21,444,9,0.0614175169970948,1
21,445,9,0.0780573577118677,1
21,446,9,0.0734241757238113,1
21,447,9,0.0582798866429475,1
22,445,9,0.0672871569056008,1
22,446,9,0.0753115611192028,1
22,447,9,0.0659155411930286,1
23,445,9,0.0587360029128037,1
23,446,9,0.0764317668270036,1
23,447,9,0.0717182036930298,1
23,460,9,0.0588742565967617,1
23,461,9,0.0605002838549512,1
24,446,9,0.0644763229966478,1
24,447,9,0.0645803272715024,1
25,447,9,0.0574557602363983,1
2,452,10,0.0579518459440821,1
3,448,10,0.0649979070591806,1
3,449,10,0.0581103261213639,1
4,448,10,0.070280088223836,1
4,449,10,0.059794296680836,1
12,445,10,0.0625477416005683,1
12,446,10,0.0748989937278293,1
12,447,10,0.0648218304224009,1
13,444,10,0.060544593438285,1
13,445,10,0.100259236419331,1
13,446,10,0.126269810995155,1
13,447,10,0.107720300360713,1
13,448,10,0.0605170134647353,1
14,444,10,0.0741949702336781,1
14,445,10,0.126728498329469,1
14,446,10,0.17485093487206,1
14,447,10,0.175164875994967,1
14,448,10,0.0987204484445909,1
15,444,10,0.079676043283705,1
15,445,10,0.133758378249908,1
15,446,10,0.209388055523293,1
15,447,10,0.24945127823418,1
15,448,10,0.159880699778643,1
15,449,10,0.064855708324484,1
16,444,10,0.0713270480792828,1
16,445,10,0.105252102069278,1
16,446,10,0.161961728785628,1
16,447,10,0.208030769367215,1
16,448,10,0.146854755521019,1
16,449,10,0.0684945075458619,1
17,445,10,0.0646673424713524,1
17,446,10,0.0817931379563368,1
17,447,10,0.104320386050282,1
17,448,10,0.0837666304233067,1
20,445,10,0.0595821484814727,1
21,444,10,0.0610771517002567,1
21,445,10,0.0740539921649051,1
21,446,10,0.0685854324148296,1
21,447,10,0.0571243229019194,1
22,445,10,0.0691046105271362,1
22,446,10,0.0753978274080755,1
22,447,10,0.0657294397636394,1
23,445,10,0.0615588960575722,1
23,446,10,0.0770072076135965,1
23,447,10,0.0700285602803281,1
24,446,10,0.0616280435388301,1
24,447,10,0.0589127930789398,1
12,445,11,0.0603648724945449,1
12,446,11,0.0687965191655636,1
12,447,11,0.0577511319052305,1
13,444,11,0.0627600490172259,1
13,445,11,0.098537030121459,1
13,446,11,0.114808901978097,1
13,447,11,0.0896706317827157,1
14,444,11,0.0774409803898073,1
14,445,11,0.122870050005081,1
14,446,11,0.151061453346785,1
14,447,11,0.131859706117426,1
14,448,11,0.0725060639380801,1
15,444,11,0.0823721051111535,1
15,445,11,0.124416368368152,1
15,446,11,0.168342497487669,1
15,447,11,0.177031539554341,1
15,448,11,0.111971897463496,1
16,444,11,0.0765247202422405,1
16,445,11,0.101209457026096,1
16,446,11,0.13217924933032,1
16,447,11,0.150610396648728,1
16,448,11,0.107735573427101,1
17,444,11,0.0617973917706878,1
17,445,11,0.0719973823733293,1
17,446,11,0.0786005009754477,1
17,447,11,0.0860883193192236,1
17,448,11,0.0703122854989228,1
21,445,11,0.0664872610124824,1
21,446,11,0.0630878715294286,1
22,445,11,0.0679586587931395,1
22,446,11,0.0709289222862037,1
22,447,11,0.0624271610362871,1
23,445,11,0.0634568192790773,1
23,446,11,0.072028341291682,1
23,447,11,0.0654767442266394,1
24,446,11,0.0583087049732312,1
12,446,12,0.0594116798316175,1
13,444,12,0.060429284735529,1
13,445,12,0.0874478698990435,1
13,446,12,0.0937924726875115,1
13,447,12,0.0701407730912488,1
14,444,12,0.0751408624888111,1
14,445,12,0.11082497863186,1
14,446,12,0.123208003454756,1
14,447,12,0.097111893810226,1
15,444,12,0.0787985554957894,1
15,445,12,0.11014604070698,1
15,446,12,0.12860282790672,1
15,447,12,0.11761419276643,1
15,448,12,0.0731727775129136,1
16,444,12,0.0748742737686418,1
16,445,12,0.0943595869993017,1
16,446,12,0.104310420227041,1
16,447,12,0.101879408019249,1
16,448,12,0.0722870045287531,1
17,444,12,0.0636876371804415,1
17,445,12,0.074652342551079,1
17,446,12,0.0719493223381723,1
17,447,12,0.0677954197878367,1
21,445,12,0.0602746670518703,1
21,446,12,0.0583160171748993,1
22,443,12,0.0606201331990656,1
22,444,12,0.0614663082524187,1
22,445,12,0.0636775593154005,1
22,446,12,0.0628257526873756,1
22,447,12,0.0569913941519181,1
23,443,12,0.0632405727086178,1
23,444,12,0.0614252537782146,1
23,445,12,0.0630027197616166,1
23,446,12,0.0640635433155485,1
23,447,12,0.0589255481533011,1
13,445,13,0.0701753704196251,1
13,446,13,0.0698692073563957,1
14,444,13,0.0669764237163289,1
14,445,13,0.0891103520207104,1
14,446,13,0.091453517560559,1
14,447,13,0.0683129054792733,1
15,444,13,0.0702071372183234,1
15,445,13,0.0895555589574329,1
15,446,13,0.0936878669251003,1
15,447,13,0.0770266085357642,1
16,444,13,0.0688217226735711,1
16,445,13,0.0810726089360011,1
16,446,13,0.0804260923698072,1
16,447,13,0.0697321979261086,1
17,444,13,0.062773435063828,1
17,445,13,0.0694213939735947,1
17,446,13,0.063112043073491,1
21,443,13,0.0739006423226647,1
21,444,13,0.0659026092105624,1
22,442,13,0.0767399053640707,1
22,443,13,0.0947807226398878,1
22,444,13,0.0798319170149083,1
22,445,13,0.0630971592049344,1
23,442,13,0.0715125362272417,1
23,443,13,0.0883189948921205,1
23,444,13,0.0777165678355779,1
23,445,13,0.0657079690166447,1
23,446,13,0.0583901121861568,1
24,443,13,0.0653785484345614,1
24,444,13,0.0623165109136261,1
24,445,13,0.0579868560580364,1
14,444,14,0.059806615381872,1
14,445,14,0.0708968488467903,1
14,446,14,0.0672945811490686,1
15,444,14,0.0644655551899979,1
15,445,14,0.0757252194438896,1
15,446,14,0.0744059803242334,1
15,447,14,0.0578822561925621,1
16,444,14,0.0681613895843867,1
16,445,14,0.0732828143541444,1
16,446,14,0.0720417155444104,1
16,447,14,0.0600067102423566,1
17,444,14,0.0706684899680839,1
17,445,14,0.0681034403861673,1
17,446,14,0.0652936148534121,1
18,445,14,0.0614206305797406,1
18,446,14,0.0590293401384299,1
19,445,14,0.057343842272319,1
20,443,14,0.0745394339016125,1
20,444,14,0.0662227244263295,1
21,442,14,0.0897904988176406,1
21,443,14,0.121599826224348,1
21,444,14,0.095055567071618,1
21,445,14,0.0609843751931247,1
22,442,14,0.105221732844608,1
22,443,14,0.145495098796336,1
22,444,14,0.114035282835489,1
22,445,14,0.0713223187359458,1
23,442,14,0.0815310780836521,1
23,443,14,0.112765436458713,1
23,444,14,0.097936096876954,1
23,445,14,0.0728744337879196,1
24,443,14,0.0681392937620881,1
24,444,14,0.0686171107594755,1
24,445,14,0.0617112552144254,1
14,444,15,0.0582678922734371,1
14,445,15,0.0631157168651355,1
15,444,15,0.0633101388723906,1
15,445,15,0.0711447737618957,1
15,446,15,0.0655765675732822,1
16,443,15,0.0646221778321785,1
16,444,15,0.0688516378341051,1
16,445,15,0.0727056516619974,1
16,446,15,0.0720852644228932,1
16,447,15,0.0600527594220549,1
17,444,15,0.0774097738001078,1
17,445,15,0.0760437071050918,1
17,446,15,0.0774069491673667,1
17,447,15,0.0645540446240552,1
18,444,15,0.0830762642348517,1
18,445,15,0.0900802094271168,1
18,446,15,0.0913331080074458,1
18,447,15,0.0663240573888005,1
19,444,15,0.0757918548300583,1
19,445,15,0.0897967908492372,1
19,446,15,0.0898021157831939,1
19,447,15,0.0604339197278767,1
20,443,15,0.091328372767172,1
20,444,15,0.0780420610577331,1
20,445,15,0.0713078830345882,1
20,446,15,0.0653365917290225,1
21,442,15,0.102178653975578,1
21,443,15,0.150936638781861,1
21,444,15,0.116369644248651,1
21,445,15,0.0684578462895954,1
22,442,15,0.114019679540639,1
22,443,15,0.17396024973952,1
22,444,15,0.140780273717881,1
22,445,15,0.0838266671371636,1
23,442,15,0.0813479605042985,1
23,443,15,0.123988746097053,1
23,444,15,0.114324185564619,1
23,445,15,0.0827221001058335,1
24,443,15,0.0689568273932624,1
24,444,15,0.0750336148987005,1
14,444,16,0.0622428935542518,1
14,445,16,0.058946735847328,1
15,444,16,0.0691737639053309,1
15,445,16,0.0695476414941687,1
15,446,16,0.058526838563476,1
16,443,16,0.0649783764044027,1
16,444,16,0.0712900978731117,1
16,445,16,0.0732237093563064,1
16,446,16,0.069830381924313,1
17,443,16,0.0801534828771353,1
17,444,16,0.0783365245982936,1
17,445,16,0.084023837116981,1
17,446,16,0.0848304378272741,1
17,447,16,0.0655456322426768,1
18,443,16,0.0901798499687179,1
18,444,16,0.0906751926623613,1
18,445,16,0.112340161168473,1
18,446,16,0.112555694209576,1
18,447,16,0.0732121395662477,1
19,443,16,0.0841146086655911,1
19,444,16,0.0874894079220676,1
19,445,16,0.114758565725324,1
19,446,16,0.114918113248171,1
19,447,16,0.0704067957054826,1
20,443,16,0.0952849873989536,1
20,444,16,0.0803470852101711,1
20,445,16,0.0767930013832799,1
20,446,16,0.0709844006678918,1
21,442,16,0.0974161462659228,1
21,443,16,0.151562987824099,1
21,444,16,0.121926080151354,1
21,445,16,0.0711486362555187,1
22,442,16,0.107940385837048,1
22,443,16,0.177740693383533,1
22,444,16,0.155517568012675,1
22,445,16,0.0929762304855028,1
23,442,16,0.0771715847277073,1
23,443,16,0.127756051365811,1
23,444,16,0.127372514594447,1
23,445,16,0.0903947756253277,1
24,443,16,0.073535492200334,1
24,444,16,0.084244170264663,1
14,443,17,0.0575270365118515,1
14,444,17,0.069508745298844,1
14,445,17,0.0576088093348604,1
15,443,17,0.0636016893261575,1
15,444,17,0.0767334364243692,1
15,445,17,0.0683302837521086,1
16,443,17,0.0666167931268701,1
16,444,17,0.0777084300627538,1
16,445,17,0.0762256570909533,1
16,446,17,0.067826667656094,1
17,443,17,0.0728706479544753,1
17,444,17,0.083532174111919,1
17,445,17,0.0928803521895987,1
17,446,17,0.0856018751032554,1
17,447,17,0.0607876946590641,1
18,443,17,0.0839980851938484,1
18,444,17,0.0992256567135494,1
18,445,17,0.126129912065822,1
18,446,17,0.116350903783409,1
18,447,17,0.0708548567596304,1
19,443,17,0.0845826308509053,1
19,444,17,0.0951398048142215,1
19,445,17,0.124447787247577,1
19,446,17,0.118132344811729,1
19,447,17,0.0707922253935686,1
20,444,17,0.0777416357140384,1
20,445,17,0.0780892188615553,1
20,446,17,0.0702382140754127,1
21,443,17,0.11706885584235,1
21,444,17,0.102270976418574,1
22,442,17,0.0857504366327906,1
22,443,17,0.141626955907801,1
22,444,17,0.134794823866989,1
22,445,17,0.0866670977720618,1
23,443,17,0.110079806312515,1
23,444,17,0.116860658590662,1
23,445,17,0.0851824849559706,1
24,444,17,0.0835333770870321,1
13,444,18,0.0583352529828358,1
14,443,18,0.0615277897157988,1
14,444,18,0.0707297591417381,1
15,443,18,0.0701533984329999,1
15,444,18,0.0832954533767889,1
15,445,18,0.0716429175005329,1
16,443,18,0.0705003918868339,1
16,444,18,0.0896213805663192,1
16,445,18,0.0848742048924196,1
16,446,18,0.0668478292148969,1
17,443,18,0.0708740807736932,1
17,444,18,0.0961944365844829,1
17,445,18,0.100613170567813,1
17,446,18,0.0808294251581063,1
18,443,18,0.0755657190965364,1
18,444,18,0.104460355742857,1
18,445,18,0.12029360754121,1
18,446,18,0.100630955729289,1
18,447,18,0.0611233129217548,1
19,443,18,0.0743257230139895,1
19,444,18,0.0921119518360844,1
19,445,18,0.108549480442125,1
19,446,18,0.0966695999602971,1
19,447,18,0.0603509203420072,1
20,444,18,0.0738046401910872,1
20,445,18,0.0728140845364107,1
20,446,18,0.0632526201505596,1
22,443,18,0.0949557024464174,1
22,444,18,0.0985368060378595,1
23,444,18,0.0952944873641853,1
12,444,19,0.0615215861382546,1
13,444,19,0.0600049116766237,1
14,443,19,0.0580665590562184,1
14,444,19,0.063896671797159,1
15,443,19,0.0692405761996044,1
15,444,19,0.081819420603784,1
15,445,19,0.0718439440770365,1
16,443,19,0.0698248918761251,1
16,444,19,0.0932555388984126,1
16,445,19,0.0873076230504373,1
16,446,19,0.06235574323435,1
17,443,19,0.071437208756187,1
17,444,19,0.101749557470273,1
17,445,19,0.0975988215750143,1
17,446,19,0.0701727934582308,1
18,443,19,0.0691426280788733,1
18,444,19,0.0975786363602483,1
18,445,19,0.0985208843084209,1
18,446,19,0.0753086716201565,1
19,443,19,0.0627026246463843,1
19,444,19,0.0792256706303203,1
19,445,19,0.082678574815098,1
19,446,19,0.0681512055744829,1
20,444,19,0.0648419625647354,1
20,445,19,0.0636141790383615,1
1,485,20,0.0804755735667401,1
12,444,20,0.0643054710458986,1
15,443,20,0.0619476869996508,1
15,444,20,0.0754343530347949,1
15,445,20,0.0681033342413044,1
16,443,20,0.0697910611495366,1
16,444,20,0.097653067496905,1
16,445,20,0.0906862848005368,1
16,446,20,0.0588568665300527,1
17,443,20,0.0794736014423624,1
17,444,20,0.112367711657338,1
17,445,20,0.10122955378681,1
17,446,20,0.064476004562059,1
18,443,20,0.0738532899199272,1
18,444,20,0.0982095378377188,1
18,445,20,0.087860643683206,1
18,446,20,0.0594639561766073,1
19,443,20,0.0613211315646234,1
19,444,20,0.0740295670525591,1
19,445,20,0.0681972311664339,1
20,444,20,0.0600169296338814,1
20,445,20,0.0569907572827406,1
1,484,21,0.0724048253265983,1
1,485,21,0.115313844884898,1
1,486,21,0.107258806084469,1
2,485,21,0.077710458609023,1
5,445,21,0.0573826146319703,1
6,445,21,0.0581654153052212,1
12,444,21,0.0598022516486184,1
15,443,21,0.057910791469878,1
15,444,21,0.0725347820204377,1
15,445,21,0.0651428832511237,1
16,443,21,0.0709897138079748,1
16,444,21,0.100500940066082,1
16,445,21,0.0930359074862132,1
16,446,21,0.0575274139158085,1
17,443,21,0.0855294961006151,1
17,444,21,0.117949209541565,1
17,445,21,0.106519601465195,1
17,446,21,0.0654405842100034,1
18,443,21,0.0802278963229816,1
18,444,21,0.100933138360159,1
18,445,21,0.0891346415035094,1
18,446,21,0.0583051078417655,1
19,443,21,0.063985515047426,1
19,444,21,0.074660450839219,1
19,445,21,0.0670138810590672,1
20,444,21,0.0575645882055791,1
22,448,21,0.0606461209996714,1
22,449,21,0.0623947219867903,1
1,484,22,0.0883686824818424,1
1,485,22,0.137950557817201,1
1,486,22,0.114317356911771,1
2,485,22,0.0899460777020024,1
5,445,22,0.0614969133545617,1
6,445,22,0.0614145567348066,1
15,443,22,0.0631004202110009,1
15,444,22,0.0812978719228722,1
15,445,22,0.0691430585552618,1
16,443,22,0.0875837530143962,1
16,444,22,0.123318960218132,1
16,445,22,0.108873352006652,1
16,446,22,0.0615135073347987,1
17,443,22,0.107371991889966,1
17,444,22,0.14373014560339,1
17,445,22,0.125435819013291,1
17,446,22,0.072621962334519,1
18,442,22,0.0585717024588717,1
18,443,22,0.101550205623828,1
18,444,22,0.121615170053977,1
18,445,22,0.102878184003865,1
18,446,22,0.0646237994898065,1
19,443,22,0.0736121936576699,1
19,444,22,0.0827290408004813,1
19,445,22,0.0710403743922735,1
20,444,22,0.0586503322145508,1
21,448,22,0.0663741695579741,1
21,449,22,0.0590978566474471,1
22,447,22,0.0659398660574486,1
22,448,22,0.0893454452012757,1
22,449,22,0.0809922690686416,1
22,450,22,0.0574339179823833,1
23,448,22,0.0791241961413653,1
23,449,22,0.0714736931043485,1
1,484,23,0.0959878079179916,1
1,485,23,0.142361619885716,1
2,484,23,0.0632106693419575,1
5,445,23,0.062078374913657,1
6,445,23,0.0605015281086221,1
9,478,23,0.0588165196882681,1
9,479,23,0.0610001494991425,1
10,478,23,0.0711792472545985,1
10,479,23,0.0692194887535036,1
11,478,23,0.0585806127304205,1
12,443,23,0.0619744708867285,1
12,444,23,0.0583329944560302,1
13,443,23,0.0671244958001072,1
13,444,23,0.0652861021558918,1
13,474,23,0.0588065715558374,1
13,475,23,0.060628194311711,1
14,443,23,0.0691312646816036,1
14,444,23,0.0736749547563419,1
14,474,23,0.0607320570600817,1
15,443,23,0.0799399312068067,1
15,444,23,0.100397672908331,1
15,445,23,0.0803097752908534,1
16,442,23,0.0582762659237344,1
16,443,23,0.113429325400805,1
16,444,23,0.154386417590119,1
16,445,23,0.130209684223279,1
16,446,23,0.0718820088042682,1
17,442,23,0.0670111566742522,1
17,443,23,0.131530079142553,1
17,444,23,0.173707306531174,1
17,445,23,0.14748617592893,1
17,446,23,0.0859210409121929,1
18,442,23,0.0729306374928376,1
18,443,23,0.127550047774623,1
18,444,23,0.149379764901866,1
18,445,23,0.120731124872308,1
18,446,23,0.0766791787086048,1
19,442,23,0.0606612230548907,1
19,443,23,0.0935168616539936,1
19,444,23,0.0997639762828031,1
19,445,23,0.079225092730511,1
19,446,23,0.0595589381381134,1
20,443,23,0.0624249437880394,1
20,444,23,0.0675209527600636,1
20,445,23,0.059856816005098,1
21,447,23,0.0640486417561814,1
21,448,23,0.0790634753828362,1
21,449,23,0.0657596379771412,1
22,447,23,0.0826465426542424,1
22,448,23,0.114529917896713,1
22,449,23,0.096332996909156,1
22,450,23,0.059507888355984,1
23,448,23,0.103210771241026,1
23,449,23,0.0878562504652683,1
1,484,24,0.0923734161181493,1
2,484,24,0.0676905309724577,1
5,445,24,0.0662135369987498,1
5,446,24,0.0640943076349858,1
6,445,24,0.0677100026578674,1
6,446,24,0.0625498468070163,1
7,445,24,0.0606453426040099,1
9,478,24,0.0700433556948323,1
9,479,24,0.0730418478244974,1
9,480,24,0.0584473655458304,1
10,477,24,0.0585077030034656,1
10,478,24,0.0825668042744395,1
10,479,24,0.0804704963041302,1
11,478,24,0.0635079575152591,1
12,443,24,0.0694234107259903,1
12,444,24,0.0681155291066669,1
13,443,24,0.0853907057954057,1
13,444,24,0.0877882882683131,1
13,445,24,0.0625800214327707,1
13,474,24,0.0934098145597352,1
13,475,24,0.0974778046374077,1
14,443,24,0.086868861465669,1
14,444,24,0.0965377444527987,1
14,445,24,0.0695984023263935,1
14,474,24,0.100684818350286,1
15,442,24,0.0593901088366966,1
15,443,24,0.0989479109888993,1
15,444,24,0.123867634808458,1
15,445,24,0.0964806031349248,1
16,442,24,0.0734691929395645,1
16,443,24,0.137328277661375,1
16,444,24,0.186620843378962,1
16,445,24,0.156757104134149,1
16,446,24,0.0903670718161046,1
17,442,24,0.0796724048736815,1
17,443,24,0.153983503484335,1
17,444,24,0.20706362455175,1
17,445,24,0.17940851223303,1
17,446,24,0.109269354902473,1
18,442,24,0.0819869702699089,1
18,443,24,0.147631063666821,1
18,444,24,0.173729019052578,1
18,445,24,0.142218159206538,1
18,446,24,0.0932888742823074,1
19,442,24,0.0716870324849513,1
19,443,24,0.117632838880684,1
19,444,24,0.11999213254276,1
19,445,24,0.0909352593703977,1
19,446,24,0.0687098047094919,1
20,443,24,0.075764227681014,1
20,444,24,0.075717789303485,1
20,445,24,0.0634183712509516,1
20,446,24,0.058882146698239,1
20,447,24,0.0605971705270531,1
20,459,24,0.0573041912690802,1
21,447,24,0.0710783211807687,1
21,448,24,0.0845459754915757,1
21,449,24,0.0671905296987194,1
22,447,24,0.0887581751594036,1
22,448,24,0.121929347054357,1
22,449,24,0.098442284037426,1
23,448,24,0.109295820354962,1
1,484,25,0.0781990905885549,1
2,484,25,0.0657500613517308,1
4,446,25,0.0583199386378906,1
5,445,25,0.0675475007696682,1
5,446,25,0.067610338528519,1
6,444,25,0.0594996739229811,1
6,445,25,0.0766651439989516,1
6,446,25,0.0737368490053,1
7,444,25,0.0589362039181513,1
7,445,25,0.0752273469643465,1
7,446,25,0.0713383171255631,1
8,445,25,0.0589344112493552,1
9,478,25,0.0697280582764546,1
9,479,25,0.0757054588085753,1
10,444,25,0.0626623544647784,1
10,445,25,0.0575212752045695,1
10,478,25,0.0794945296711689,1
11,444,25,0.0633641017413136,1
11,445,25,0.0571532296862556,1
12,443,25,0.0747424949213221,1
12,444,25,0.0808684274982939,1
12,445,25,0.0638651821544916,1
12,475,25,0.0617013542574893,1
13,442,25,0.0626101724707779,1
13,443,25,0.101112723674352,1
13,444,25,0.112161472188678,1
13,445,25,0.0806825442555674,1
13,474,25,0.107788622270815,1
14,443,25,0.10427843524168,1
14,444,25,0.120563498546004,1
14,445,25,0.0883759534049526,1
15,443,25,0.117704474869284,1
15,444,25,0.145516410326036,1
15,445,25,0.117206773400909,1
15,446,25,0.0706447901789678,1
16,442,25,0.0817523901228478,1
16,443,25,0.144889554147231,1
16,444,25,0.194821737014922,1
16,445,25,0.172670554273378,1
16,446,25,0.106269960541473,1
17,442,25,0.0822275004262306,1
17,443,25,0.15437977763925,1
17,444,25,0.212296731408114,1
17,445,25,0.199551540312923,1
17,446,25,0.128680431595391,1
17,447,25,0.0653529852134073,1
18,442,25,0.0776030576985548,1
18,443,25,0.144811891489192,1
18,444,25,0.178175568886931,1
18,445,25,0.159798295983393,1
18,446,25,0.108881536954971,1
18,447,25,0.0653341739849225,1
19,442,25,0.0743295560229284,1
19,443,25,0.130936186840622,1
19,444,25,0.138770043334466,1
19,445,25,0.111095176277369,1
19,446,25,0.0815843392170925,1
19,447,25,0.063799443102721,1
20,443,25,0.0860078851008749,1
20,444,25,0.0872678600053988,1
20,445,25,0.0734458056881003,1
20,446,25,0.0664813994572742,1
20,447,25,0.065975459968149,1
20,448,25,0.060334574033117,1
21,446,25,0.0620476636666512,1
21,449,25,0.0640323072411648,1
22,448,25,0.105801366353286,1
1,447,26,0.0597325439583618,1
2,447,26,0.0583676153721538,1
4,445,26,0.0597223304637738,1
4,446,26,0.0624586094003966,1
5,444,26,0.0589225878910129,1
5,445,26,0.0729274059714552,1
5,446,26,0.0727112478550482,1
5,447,26,0.0578218243839376,1
6,444,26,0.0646270428050625,1
6,445,26,0.0853130549312403,1
6,446,26,0.0851466669616708,1
6,447,26,0.063088685306711,1
7,444,26,0.0650000181625654,1
7,445,26,0.0875148060289905,1
7,446,26,0.0869409102398468,1
7,447,26,0.0622784815680153,1
8,444,26,0.0607307951156002,1
8,445,26,0.0716382648173747,1
8,446,26,0.0658292749041559,1
9,444,26,0.0678565297441965,1
9,445,26,0.0674229279791537,1
9,478,26,0.0603140585898886,1
9,479,26,0.0683498085099497,1
10,443,26,0.0584595839989403,1
10,444,26,0.077778739240567,1
10,445,26,0.0751893235156726,1
10,446,26,0.0569901675890577,1
10,478,26,0.0671882711719138,1
11,443,26,0.0582615530663458,1
11,444,26,0.0728224935683289,1
11,445,26,0.0683987766733785,1
11,446,26,0.0568722406463496,1
12,443,26,0.0761504888371929,1
12,444,26,0.0901662280446427,1
12,445,26,0.0760913720454813,1
12,446,26,0.0600482423684438,1
12,475,26,0.0582307828499716,1
13,443,26,0.105889466589513,1
13,444,26,0.125665504702784,1
13,445,26,0.0994709810795131,1
13,446,26,0.0679860500647106,1
14,443,26,0.110257610751786,1
14,444,26,0.131490345582199,1
14,445,26,0.107802043699038,1
14,446,26,0.0723975661973617,1
15,443,26,0.126026409030597,1
15,444,26,0.154316208660232,1
15,445,26,0.13771514030511,1
15,446,26,0.0924716472918483,1
15,447,26,0.060766996410794,1
16,442,26,0.0807288175188653,1
16,443,26,0.141161109692177,1
16,444,26,0.186186156577542,1
16,445,26,0.181358924089251,1
16,446,26,0.123757432852996,1
16,447,26,0.0738608674837525,1
17,442,26,0.0761240764571355,1
17,443,26,0.140864198922833,1
17,444,26,0.19683246274103,1
17,445,26,0.202674086302661,1
17,446,26,0.142612959127246,1
17,447,26,0.0815957026143621,1
18,442,26,0.06780800385103,1
18,443,26,0.127827993995126,1
18,444,26,0.169649011017648,1
18,445,26,0.167896087575833,1
18,446,26,0.122244962907324,1
18,447,26,0.0749781836925071,1
19,442,26,0.0684214916740441,1
19,443,26,0.123686103505111,1
19,444,26,0.146789157995732,1
19,445,26,0.130239876539844,1
19,446,26,0.0975107685142823,1
19,447,26,0.0687698944957803,1
20,443,26,0.0847548037155042,1
20,444,26,0.0947957067563706,1
20,445,26,0.0856668475532383,1
20,446,26,0.0752302246695191,1
20,447,26,0.065440979304771,1
20,448,26,0.0578786826488436,1
21,444,26,0.0621930821288565,1
21,445,26,0.0694776212662601,1
21,446,26,0.0710279672371851,1
1,446,27,0.0589530750544193,1
1,447,27,0.0656454732801301,1
1,448,27,0.0634481566788754,1
1,449,27,0.0613707837727243,1
1,450,27,0.059107138426016,1
2,446,27,0.0612113423947394,1
2,447,27,0.0665499336571019,1
2,448,27,0.0628663000250125,1
2,449,27,0.0588452377706258,1
3,446,27,0.0595044209571285,1
3,447,27,0.0591634364819233,1
4,445,27,0.0621207208170267,1
4,446,27,0.0630323577661196,1
5,444,27,0.0612443711379192,1
5,445,27,0.0743961796152235,1
5,446,27,0.0728701231270975,1
5,447,27,0.0588206180593643,1
6,444,27,0.064498536757683,1
6,445,27,0.0833577781021355,1
6,446,27,0.0845665145225514,1
6,447,27,0.0632129750442577,1
7,444,27,0.0667678549576208,1
7,445,27,0.0890903614048598,1
7,446,27,0.0912481744262965,1
7,447,27,0.0650802224003779,1
8,444,27,0.0690487134629332,1
8,445,27,0.0843471661633199,1
8,446,27,0.079693397968793,1
9,444,27,0.0769370989316354,1
9,445,27,0.087032749134023,1
9,446,27,0.0737942910669521,1
10,443,27,0.061159879827032,1
10,444,27,0.0838619367163384,1
10,445,27,0.0913014119719895,1
10,446,27,0.075521020315372,1
11,443,27,0.0613558527286731,1
11,444,27,0.0779930044402519,1
11,445,27,0.0810295730910224,1
11,446,27,0.0715870911995719,1
12,443,27,0.0754231842364406,1
12,444,27,0.0944459830207847,1
12,445,27,0.0960115607795392,1
12,446,27,0.0867172983952878,1
12,447,27,0.0669759755491298,1
13,443,27,0.0980872412648203,1
13,444,27,0.125955303766312,1
13,445,27,0.128827383261172,1
13,446,27,0.112279705772101,1
13,447,27,0.0809746608152699,1
14,443,27,0.103197208286319,1
14,444,27,0.131562417944124,1
14,445,27,0.136140669965618,1
14,446,27,0.115342103006183,1
14,447,27,0.0823509881803685,1
15,443,27,0.117218496511325,1
15,444,27,0.148636255518707,1
15,445,27,0.151330613131412,1
15,446,27,0.119892993240789,1
15,447,27,0.0822214855506649,1
16,443,27,0.12177757169425,1
16,444,27,0.1631118555509,1
16,445,27,0.172805429012533,1
16,446,27,0.136169871596795,1
16,447,27,0.0902415260310134,1
17,443,27,0.115281576846569,1
17,444,27,0.16293808461642,1
17,445,27,0.178079271908512,1
17,446,27,0.141336225128254,1
17,447,27,0.0916665561973834,1
18,443,27,0.101445145797281,1
18,444,27,0.142392696742806,1
18,445,27,0.151045909021304,1
18,446,27,0.12076859400892,1
18,447,27,0.0809126191428911,1
19,443,27,0.0981248460309794,1
19,444,27,0.128864038620502,1
19,445,27,0.127320550787109,1
19,446,27,0.101358378268778,1
19,447,27,0.0728271344576134,1
20,443,27,0.0732336456948634,1
20,444,27,0.0891768930558898,1
20,445,27,0.0887211836746748,1
20,446,27,0.0778157837977273,1
20,447,27,0.0649446400288035,1
21,444,27,0.0681316690227681,1
21,445,27,0.0804584901407462,1
21,446,27,0.0763950819829898,1
1,447,28,0.0723838381284236,1
1,448,28,0.0716308169861596,1
1,449,28,0.0710717696839515,1
1,450,28,0.0710130361931338,1
1,451,28,0.0607561814286495,1
2,446,28,0.0678609760345657,1
2,447,28,0.0737339536093169,1
2,448,28,0.0680596851148954,1
2,449,28,0.0645342604009936,1
2,450,28,0.0625392205268503,1
3,445,28,0.0584749573132537,1
3,446,28,0.0644578007180676,1
3,447,28,0.0641466488462808,1
4,445,28,0.0659341165440403,1
4,446,28,0.0654337024847239,1
4,447,28,0.0585677809958804,1
5,445,28,0.0751696631282844,1
5,446,28,0.0736913836223477,1
5,447,28,0.0603258996390414,1
6,444,28,0.0629690364584488,1
6,445,28,0.0794395171474903,1
6,446,28,0.0812531672447709,1
6,447,28,0.0627857065893693,1
7,444,28,0.0688132900539055,1
7,445,28,0.089354402648319,1
7,446,28,0.0915140024416149,1
7,447,28,0.0664785512367858,1
8,444,28,0.0790359661725285,1
8,445,28,0.0987539017672223,1
8,446,28,0.0949171482734288,1
8,447,28,0.0650179979229573,1
9,444,28,0.0850170640840411,1
9,445,28,0.103051848793482,1
9,446,28,0.0943083426182569,1
9,447,28,0.0637253186067793,1
10,444,28,0.0842302829784305,1
10,445,28,0.0962137431556613,1
10,446,28,0.0860721911969961,1
10,447,28,0.0609929788239583,1
11,444,28,0.0789420987320831,1
11,445,28,0.0861734651900988,1
11,446,28,0.0805752023144675,1
11,447,28,0.0613316516999265,1
12,444,28,0.0932218909768658,1
12,445,28,0.114291563710081,1
12,446,28,0.116438426119826,1
12,447,28,0.0842317749034483,1
13,444,28,0.119849273351139,1
13,445,28,0.162423883518797,1
13,446,28,0.169726343447225,1
13,447,28,0.118321058584133,1
13,448,28,0.0591978686960684,1
14,444,28,0.125574279090038,1
14,445,28,0.167069230887532,1
14,446,28,0.170418938677801,1
14,447,28,0.12065736598645,1
14,448,28,0.0653496593410357,1
15,444,28,0.133444236631149,1
15,445,28,0.159549704714426,1
15,446,28,0.14981427479518,1
15,447,28,0.108924148220498,1
15,448,28,0.0659471192897484,1
16,443,28,0.101747363809772,1
16,444,28,0.141788307893319,1
16,445,28,0.163909463432529,1
16,446,28,0.147880315392713,1
16,447,28,0.108007469390416,1
16,448,28,0.0674936794272291,1
17,443,28,0.0957444236442447,1
17,444,28,0.136515160835886,1
17,445,28,0.156014066505937,1
17,446,28,0.137197990739073,1
17,447,28,0.100191197562197,1
17,448,28,0.0651547360941502,1
18,443,28,0.0838518293666133,1
18,444,28,0.120542151634683,1
18,445,28,0.134596191446838,1
18,446,28,0.116149405451959,1
18,447,28,0.0857355940427918,1
18,448,28,0.0611806783232282,1
19,443,28,0.075749632762362,1
19,444,28,0.105734919669096,1
19,445,28,0.116240678240199,1
19,446,28,0.100177776133974,1
19,447,28,0.0771852420334035,1
19,448,28,0.060634645560602,1
20,443,28,0.0619497804122251,1
20,444,28,0.0793499308831828,1
20,445,28,0.085881083268239,1
20,446,28,0.0781255734771066,1
20,447,28,0.0669698604256381,1
21,444,28,0.071935600166171,1
21,445,28,0.0818501790262846,1
21,446,28,0.0758646878968344,1
1,447,29,0.0825250834463737,1
1,448,29,0.0792342683642171,1
1,449,29,0.0786044106445654,1
1,450,29,0.0800828965432911,1
1,451,29,0.0720963152825109,1
2,446,29,0.0758760925726618,1
2,447,29,0.0807302976500093,1
2,448,29,0.0741259524850305,1
2,449,29,0.0708546798515255,1
2,450,29,0.0727353132542477,1
2,451,29,0.0657976614258152,1
3,446,29,0.069754335026965,1
3,447,29,0.0706889877205018,1
3,448,29,0.0625327692779592,1
3,449,29,0.0575465789605031,1
4,445,29,0.0679183886115337,1
4,446,29,0.0684056996772158,1
4,447,29,0.0637104288412859,1
5,445,29,0.0730184075006017,1
5,446,29,0.0735256796974503,1
5,447,29,0.0632839800606167,1
6,444,29,0.0633037524898047,1
6,445,29,0.076612030288932,1
6,446,29,0.0780049280465203,1
6,447,29,0.0644938486929039,1
7,444,29,0.0720022355523397,1
7,445,29,0.0899912246503659,1
7,446,29,0.0897842598584754,1
7,447,29,0.0695442566524288,1
8,443,29,0.0621937602765918,1
8,444,29,0.0861802407705155,1
8,445,29,0.109938091126639,1
8,446,29,0.107174173247098,1
8,447,29,0.0771721213489587,1
9,443,29,0.0659439349438607,1
9,444,29,0.0893989716968733,1
9,445,29,0.110495410626356,1
9,446,29,0.106465703462578,1
9,447,29,0.0746685296426749,1
10,444,29,0.0851377389993115,1
10,445,29,0.0957590362537072,1
10,446,29,0.0903293196265248,1
10,447,29,0.0661268874089831,1
11,444,29,0.0834548652700896,1
11,445,29,0.0926185753698818,1
11,446,29,0.0903055608680404,1
11,447,29,0.0667923508332089,1
12,444,29,0.0979823111708835,1
12,445,29,0.137032239638681,1
12,446,29,0.149536588039899,1
12,447,29,0.102364065463358,1
12,448,29,0.0568735497663256,1
13,444,29,0.122102198066692,1
13,445,29,0.199774845516766,1
13,446,29,0.229667078760337,1
13,447,29,0.1566553583861,1
13,448,29,0.0781736806877583,1
14,444,29,0.123618760486523,1
14,445,29,0.199739251606066,1
14,446,29,0.229632098131067,1
14,447,29,0.163707741017479,1
14,448,29,0.0860664888590824,1
15,444,29,0.117160034279601,1
15,445,29,0.168921989469864,1
15,446,29,0.183657443920367,1
15,447,29,0.140736931232187,1
15,448,29,0.0818643906440427,1
16,444,29,0.115919896670571,1
16,445,29,0.150804570984637,1
16,446,29,0.151722948132525,1
16,447,29,0.119968202773108,1
16,448,29,0.0752179590409146,1
17,444,29,0.107051257495832,1
17,445,29,0.129830074811843,1
17,446,29,0.123189475279239,1
17,447,29,0.099544232828804,1
17,448,29,0.0683575806726905,1
18,444,29,0.095735407227833,1
18,445,29,0.112130501476451,1
18,446,29,0.104859637335554,1
18,447,29,0.0854642877731591,1
18,448,29,0.0637537300484219,1
19,443,29,0.0605222086660818,1
19,444,29,0.0831224372502234,1
19,445,29,0.0985057763562648,1
19,446,29,0.094634012748517,1
19,447,29,0.0792307478929301,1
20,444,29,0.0713955174128053,1
20,445,29,0.0794019477629522,1
20,446,29,0.0774761379271824,1
21,445,29,0.0790992992740729,1
1,447,30,0.0914470073422996,1
1,448,30,0.0835486560503563,1
1,449,30,0.0832946513933801,1
1,450,30,0.0908380778514544,1
1,451,30,0.08913030725494,1
1,452,30,0.0644239287129214,1
1,482,30,0.0624235462140109,1
2,446,30,0.081777811817518,1
2,447,30,0.0849862407952354,1
2,448,30,0.0786974053383601,1
2,449,30,0.0765165235000481,1
2,450,30,0.0850582188061713,1
2,451,30,0.0838459796052789,1
2,452,30,0.0579428295276705,1
3,446,30,0.076062123238809,1
3,447,30,0.0792604153821173,1
3,448,30,0.0733687622084283,1
3,449,30,0.0669021753847138,1
3,450,30,0.0664632133040933,1
3,451,30,0.0606247740883501,1
4,445,30,0.0727445537542589,1
4,446,30,0.0759760102702939,1
4,447,30,0.0748900008991649,1
4,448,30,0.0684862636281748,1
4,449,30,0.0595636203059557,1
5,445,30,0.0741295614103699,1
5,446,30,0.0756363879874962,1
5,447,30,0.0710605949886604,1
5,448,30,0.0635747992942169,1
6,444,30,0.07318728987445,1
6,445,30,0.0783635561567181,1
6,446,30,0.0756515372182101,1
6,447,30,0.0687471028349359,1
6,448,30,0.0607057095463293,1
7,443,30,0.0644123058504312,1
7,444,30,0.0807352569738826,1
7,445,30,0.0910196622272325,1
7,446,30,0.0869531286929567,1
7,447,30,0.0739919445955895,1
7,448,30,0.0601913079528543,1
8,443,30,0.0675190185647837,1
8,444,30,0.0923629490552777,1
8,445,30,0.114575772477496,1
8,446,30,0.11240021557314,1
8,447,30,0.086788851826772,1
8,448,30,0.0597642871693128,1
9,443,30,0.069923606598644,1
9,444,30,0.0949172190366707,1
9,445,30,0.114278673006173,1
9,446,30,0.112398304965608,1
9,447,30,0.0839265671439852,1
10,444,30,0.0913685603916623,1
10,445,30,0.0973978067923843,1
10,446,30,0.0918599344468197,1
10,447,30,0.0704300886059575,1
11,444,30,0.0915318347785861,1
11,445,30,0.102438366867405,1
11,446,30,0.0993619467175432,1
11,447,30,0.0724653809708962,1
12,445,30,0.164882741062296,1
12,446,30,0.179053740719519,1
12,447,30,0.120507171005413,1
12,448,30,0.0754035592306734,1
13,444,30,0.142827312780983,1
13,445,30,0.245223622694923,1
13,446,30,0.287489540013453,2
13,447,30,0.197391810787017,1
13,448,30,0.104218239310528,1
13,449,30,0.0587649922542555,1
14,444,30,0.141605113653786,1
14,445,30,0.253175382543727,2
14,446,30,0.308823690363452,2
14,447,30,0.22338059028432,1
14,448,30,0.113164376029074,1
15,444,30,0.12229079390036,1
15,445,30,0.209903377038913,1
15,446,30,0.252362312893733,1
15,447,30,0.192093212550229,1
15,448,30,0.0999663001854091,1
16,445,30,0.154384825417175,1
16,446,30,0.171656505222374,1
16,447,30,0.13439295941596,1
16,448,30,0.0784416846727667,1
17,445,30,0.109492612930822,1
17,447,30,0.0915156358931166,1
17,448,30,0.0643928990313267,1
18,445,30,0.0919089733734904,1
19,444,30,0.065542035111211,1
19,445,30,0.0810109328737056,1
19,446,30,0.0849556474869661,1
20,445,30,0.0754691803437074,1
1,447,31,0.0986556646965866,1
1,448,31,0.0907974833383229,1
1,449,31,0.0942563611201085,1
1,450,31,0.110258872696267,1
1,451,31,0.110287095435931,1
1,452,31,0.0812836367173668,1
1,481,31,0.0588151457019869,1
1,482,31,0.0914455331080924,1
2,446,31,0.0898600354967292,1
2,447,31,0.0924700551189044,1
2,448,31,0.0885581923407188,1
2,449,31,0.088551145501208,1
2,450,31,0.102809767742774,1
2,451,31,0.101863958044757,1
2,452,31,0.0720812132272916,1
3,446,31,0.0851103772124246,1
3,447,31,0.0908420170052562,1
3,448,31,0.0873455639419956,1
3,449,31,0.0777993962102793,1
3,450,31,0.0768367153759939,1
3,451,31,0.070078418881218,1
4,446,31,0.0837579560292311,1
4,447,31,0.0883901178472161,1
4,448,31,0.0846583534167277,1
4,449,31,0.0720905421813552,1
4,450,31,0.0635107054878215,1
5,445,31,0.0733978812824903,1
5,446,31,0.0775121564173344,1
5,447,31,0.0793458148212761,1
5,448,31,0.0755307207764558,1
5,449,31,0.064765449809378,1
6,444,31,0.0847189031640887,1
6,445,31,0.0811035619574169,1
6,446,31,0.0759245418056496,1
6,447,31,0.0728517954474327,1
6,448,31,0.0691921682451744,1
6,449,31,0.0596124941183952,1
7,443,31,0.0752034289885678,1
7,444,31,0.0929686706124879,1
7,445,31,0.0937610714988966,1
7,446,31,0.0875101238611482,1
7,447,31,0.0770031917996159,1
7,448,31,0.0677290202791412,1
8,443,31,0.0720444930016569,1
8,444,31,0.0974335068479476,1
8,445,31,0.112025901610977,1
8,446,31,0.111132598238486,1
8,447,31,0.0894756082879041,1
8,448,31,0.068019125983385,1
9,443,31,0.0725844696101596,1
9,444,31,0.0995519578160501,1
9,445,31,0.113889604908063,1
9,446,31,0.113935931243792,1
9,447,31,0.0901886540954038,1
9,448,31,0.065677977195932,1
10,444,31,0.0977730465736297,1
10,445,31,0.101899610924826,1
10,446,31,0.0970896859461277,1
10,447,31,0.07946685534663,1
10,448,31,0.0626438144953878,1
11,445,31,0.116046456728796,1
11,446,31,0.112320606925948,1
11,447,31,0.0864285018110201,1
11,448,31,0.0728012233171864,1
11,449,31,0.0620704553274956,1
12,444,31,0.13486275657926,1
12,445,31,0.195850929399702,1
12,446,31,0.204100460970628,2
12,447,31,0.145371534382019,1
12,448,31,0.104331543054762,1
12,449,31,0.0812526777990141,1
13,444,31,0.181607527152092,1
13,445,31,0.292989094063502,2
13,446,31,0.329950174186079,2
13,447,31,0.236316016561618,2
13,448,31,0.137669957975126,1
13,449,31,0.0825818473602905,1
14,444,31,0.182241082251135,2
14,445,31,0.310717739297461,2
14,446,31,0.374572035706566,2
14,447,31,0.278780967292003,2
14,448,31,0.148810368475523,1
14,449,31,0.0737062910786516,1
15,444,31,0.145555790070181,1
15,445,31,0.251635173407211,2
15,446,31,0.311237919889028,2
15,447,31,0.237163571498189,1
15,448,31,0.125709802492244,1
15,449,31,0.0635393469100004,1
15,466,31,0.0692512319644546,1
15,467,31,0.0809521581043301,1
15,468,31,0.0592903444594221,1
16,445,31,0.154650494215199,1
16,446,31,0.185218080046058,1
16,447,31,0.143866128966669,1
16,448,31,0.0870085422083396,1
16,466,31,0.0656430083605355,1
16,467,31,0.0759613622792104,1
18,451,31,0.062222873453717,1
18,452,31,0.0577200019757097,1
19,451,31,0.0602757049127522,1
1,448,32,0.0981370821748997,1
1,449,32,0.110730391765121,1
1,450,32,0.130948806285436,1
1,451,32,0.127920811780815,1
1,452,32,0.101212122441543,1
1,453,32,0.0726914872197339,1
1,481,32,0.0844511409534903,1
2,447,32,0.101645570886228,1
2,448,32,0.100081196102587,1
2,449,32,0.103000156245238,1
2,450,32,0.115251986017561,1
2,451,32,0.110283840326802,1
2,452,32,0.0849527108124252,1
2,453,32,0.0619068566090462,1
2,481,32,0.0747381429819423,1
3,446,32,0.101699445301099,1
3,447,32,0.114760405569614,1
3,448,32,0.109111375964821,1
3,449,32,0.0926933780135588,1
3,450,32,0.0832316662111086,1
3,451,32,0.0729401433550061,1
3,481,32,0.057730203676424,1
4,446,32,0.0983447369083992,1
4,447,32,0.118983862489849,1
4,448,32,0.116177923038464,1
4,449,32,0.0945013316698625,1
4,450,32,0.0738641107990085,1
4,451,32,0.058023823955018,1
5,444,32,0.0741130794719326,1
5,446,32,0.0826255200744467,1
5,447,32,0.0984884629497346,1
5,448,32,0.0985124575856922,1
5,449,32,0.0826856393454193,1
5,450,32,0.0635801301251104,1
6,443,32,0.0841081102412055,1
6,444,32,0.0960008696330681,1
6,445,32,0.0854735400670439,1
6,446,32,0.079055650147664,1
6,447,32,0.0824697524881064,1
6,448,32,0.0815535336190973,1
6,449,32,0.0704008044176643,1
7,443,32,0.0878643174748505,1
7,444,32,0.104495147670149,1
7,445,32,0.0976145840871584,1
7,446,32,0.0884243377716353,1
7,447,32,0.0815348816079069,1
7,448,32,0.0742338310473818,1
7,449,32,0.0624728269150916,1
8,443,32,0.0785159624890659,1
8,444,32,0.0999520767737774,1
8,445,32,0.106702040896814,1
8,446,32,0.105762823974171,1
8,447,32,0.0933597318752457,1
8,448,32,0.0766757466913703,1
8,449,32,0.059785463069466,1
9,443,32,0.0783314355418101,1
9,444,32,0.10047001652935,1
9,445,32,0.110149920891413,1
9,446,32,0.111942707626192,1
9,447,32,0.100533267073779,1
9,448,32,0.0799893829190554,1
9,449,32,0.0603404178975146,1
10,444,32,0.0985114020339998,1
10,445,32,0.105047159926719,1
10,446,32,0.104761358986361,1
10,447,32,0.0965177184553271,1
10,448,32,0.0797622034277148,1
10,449,32,0.0630479551640325,1
11,445,32,0.123827771515493,1
11,446,32,0.122887611082958,1
11,447,32,0.104787234745167,1
11,448,32,0.091162934204432,1
11,449,32,0.0824821596431947,1
11,450,32,0.0569876319062212,1
11,475,32,0.0602439558048644,1
12,444,32,0.144509661682827,1
12,445,32,0.209391263456928,2
12,446,32,0.213658121832225,2
12,447,32,0.16543353854988,1
12,448,32,0.12739112532708,1
12,449,32,0.108557618214949,1
12,450,32,0.0716706390005664,1
13,444,32,0.204194552494673,2
13,445,32,0.315651895044337,2
13,446,32,0.340486962438777,2
13,447,32,0.25690198715449,2
13,448,32,0.158485307616776,1
13,449,32,0.104316505865848,1
13,450,32,0.0647644237423697,1
14,443,32,0.106160454424557,1
14,444,32,0.214528533295945,2
14,445,32,0.34505454100461,2
14,446,32,0.399893600389405,2
14,447,32,0.307519146410374,2
14,448,32,0.172552308896081,1
14,449,32,0.0910974605148186,1
14,467,32,0.0636956452206554,1
15,444,32,0.164945555233399,1
15,445,32,0.271332994550381,2
15,446,32,0.328554982520064,2
15,447,32,0.257010655906377,2
15,448,32,0.143784267689608,1
15,449,32,0.0773086295396153,1
15,466,32,0.0918744586022297,1
15,467,32,0.117880309731654,1
15,468,32,0.0800065371082913,1
16,445,32,0.149645893660963,1
16,446,32,0.183681503422629,2
16,447,32,0.148844806586605,1
16,449,32,0.0646041980717866,1
16,463,32,0.0598657262766467,1
16,464,32,0.0589923899322588,1
16,465,32,0.059563301871367,1
16,466,32,0.0895327967812726,1
16,467,32,0.113083175208938,1
17,446,32,0.099246991830997,1
17,451,32,0.0627255519367758,1
17,452,32,0.0627368740554876,1
17,463,32,0.0675447999726005,1
18,451,32,0.0694009905721661,1
18,452,32,0.0717554487460423,1
18,453,32,0.0603815962073922,1
18,455,32,0.0575395557087396,1
19,453,32,0.0595910646499583,1
1,448,33,0.0977893575008989,1
1,449,33,0.118354175781365,1
1,450,33,0.131952736192841,1
1,451,33,0.130191887267928,1
1,452,33,0.115393170479123,1
1,453,33,0.089074864254873,1
1,454,33,0.0619998041273463,1
2,447,33,0.102174290242324,1
2,448,33,0.0998791434590752,1
2,449,33,0.106898857060421,1
2,450,33,0.108904169398521,1
2,451,33,0.105662564254203,1
2,452,33,0.0940204777500082,1
2,453,33,0.0755318235036428,1
3,446,33,0.108436377193743,1
3,447,33,0.126502185687842,1
3,448,33,0.117822932536306,1
3,449,33,0.100318665748694,1
3,450,33,0.081453002640035,1
3,451,33,0.071027625214849,1
3,452,33,0.061581434150133,1
4,446,33,0.101730144754231,1
4,447,33,0.132860793701279,1
4,448,33,0.130521561418295,1
4,449,33,0.106779385120264,1
4,450,33,0.0764931185577734,1
4,451,33,0.0606398112772643,1
5,444,33,0.0769844041588784,1
5,446,33,0.0845376431198362,1
5,447,33,0.1059526463707,1
5,448,33,0.107972170326557,1
5,449,33,0.0921678312094768,1
5,450,33,0.0693358235232679,1
5,479,33,0.0655216552975297,1
6,443,33,0.0870607418931507,1
6,444,33,0.0985788865790718,1
6,445,33,0.089406814622856,1
6,446,33,0.0817211304607168,1
6,447,33,0.0845325363725422,1
6,448,33,0.0840207353282089,1
6,449,33,0.0750884623081479,1
6,450,33,0.0613171983077584,1
7,443,33,0.090072785183649,1
7,444,33,0.104110773533755,1
7,445,33,0.0976048718322009,1
7,446,33,0.0873594630221018,1
7,447,33,0.0808166170113135,1
7,448,33,0.0739087506108047,1
7,449,33,0.0650592352022031,1
8,443,33,0.083026983533771,1
8,444,33,0.0945170588003857,1
8,445,33,0.0980218855139435,1
8,446,33,0.0990453991485578,1
8,447,33,0.0947405586031449,1
8,448,33,0.0802912589092101,1
8,449,33,0.0649395037968253,1
9,444,33,0.0915437878695386,1
9,445,33,0.100459637920531,1
9,446,33,0.108886655496139,1
9,447,33,0.110636760202149,1
9,448,33,0.0920727313092341,1
9,449,33,0.0706827664521471,1
9,476,33,0.058443273071671,1
10,445,33,0.100376325997009,1
10,446,33,0.109192706517568,1
10,447,33,0.11205009084585,1
10,448,33,0.0964138380161459,1
10,449,33,0.077779152026145,1
10,450,33,0.0591357798481949,1
10,475,33,0.0581339079717434,1
11,445,33,0.12015684578227,1
11,446,33,0.125910109642454,1
11,447,33,0.117980769947474,1
11,448,33,0.104289887093002,1
11,449,33,0.09512498581197,1
11,450,33,0.0702927194625239,1
12,444,33,0.134638519659397,1
12,445,33,0.194565161293488,1
12,446,33,0.201940743238596,2
12,447,33,0.167775707507404,1
12,448,33,0.134598514839948,1
12,449,33,0.118885560552908,1
12,450,33,0.0854669413947322,1
13,444,33,0.196610608183646,1
13,445,33,0.297923485687851,2
13,446,33,0.313905528996276,2
13,447,33,0.244233810054287,2
13,448,33,0.158773939086813,1
13,449,33,0.113578777367802,1
13,450,33,0.0767443280666926,1
14,443,33,0.108832297532448,1
14,444,33,0.216660771302354,2
14,445,33,0.332080855401165,2
14,446,33,0.365024894980273,2
14,447,33,0.285674439269712,2
14,448,33,0.172225229397919,1
14,449,33,0.102645125266506,1
14,450,33,0.0678654695004294,1
14,467,33,0.0702518831749825,1
15,444,33,0.165713206675936,1
15,445,33,0.252920422582985,2
15,446,33,0.292890520867467,2
15,447,33,0.240471941761286,1
15,448,33,0.14815856825393,1
15,449,33,0.087281688322263,1
15,450,33,0.0610010517304773,1
15,465,33,0.0586216141321931,1
15,466,33,0.0998577965477539,1
15,467,33,0.132694629815309,1
15,468,33,0.0910856902289078,1
16,445,33,0.138498206340519,1
16,446,33,0.173241071117719,1
16,447,33,0.157312607377323,1
16,448,33,0.111718423530835,1
16,450,33,0.0601968805581578,1
16,451,33,0.0592966659757029,1
16,452,33,0.0602165114608618,1
16,455,33,0.0655198685256705,1
16,456,33,0.0707759911264782,1
16,462,33,0.0604608923169329,1
16,463,33,0.0742603495723023,1
16,464,33,0.0757905751947664,1
16,465,33,0.0769046362943913,1
16,467,33,0.136152581778012,1
17,446,33,0.104934693547515,1
17,447,33,0.102726385056011,1
17,451,33,0.0654428545306826,1
17,452,33,0.0725602567875394,1
17,453,33,0.0669571879083924,1
17,454,33,0.0636064363603049,1
17,455,33,0.0721013630604366,1
17,456,33,0.0762519102537164,1
17,457,33,0.0582872460201102,1
17,462,33,0.0649768962732586,1
17,463,33,0.086219968433933,1
18,453,33,0.0758402568875515,1
18,454,33,0.0690134851623163,1
18,455,33,0.0708984764013551,1
18,456,33,0.0702207178638408,1
1,449,34,0.115332113595194,1
1,450,34,0.114723762004158,1
1,451,34,0.113851321994169,1
1,452,34,0.112237625230889,1
1,453,34,0.0966374734484522,1
1,454,34,0.0773777416392522,1
1,455,34,0.0652081328571376,1
2,447,34,0.104163904934585,1
2,448,34,0.101222536431983,1
2,449,34,0.104221977968478,1
2,450,34,0.0933269625972865,1
2,451,34,0.0905030551793834,1
2,452,34,0.0912178759648686,1
2,453,34,0.0808444269653995,1
2,454,34,0.0661428386231058,1
2,455,34,0.0572004818410671,1
3,446,34,0.109617627991599,1
3,447,34,0.12949038766274,1
3,448,34,0.126231905485217,1
3,449,34,0.106977722693574,1
3,450,34,0.080475608948361,1
3,451,34,0.0673634455773587,1
3,452,34,0.0635423779355305,1
3,453,34,0.0581200796548792,1
4,446,34,0.100738975818125,1
4,447,34,0.135699319625581,1
4,448,34,0.143697559130473,1
4,449,34,0.11944995637682,1
4,450,34,0.0820228118519561,1
4,451,34,0.062158148675081,1
4,479,34,0.0687172702315175,1
5,446,34,0.0849684615306957,1
5,447,34,0.107960647711993,1
5,448,34,0.119796377827782,1
5,449,34,0.105619434058235,1
5,450,34,0.0796950314202947,1
5,451,34,0.0625899872560119,1
6,444,34,0.093735455205311,1
6,446,34,0.0822257903145502,1
6,447,34,0.0852583608421505,1
6,448,34,0.0892743517308642,1
6,449,34,0.083221753460299,1
6,450,34,0.069766653728001,1
6,451,34,0.0579954066164386,1
7,444,34,0.0944427750871497,1
7,445,34,0.0913435691733806,1
7,446,34,0.0858895512695256,1
7,447,34,0.0812519937543419,1
7,448,34,0.0767570123778119,1
7,449,34,0.0698553436579105,1
7,450,34,0.0604371748370063,1
8,444,34,0.0870938413995724,1
8,445,34,0.0887277823469865,1
8,446,34,0.096754651480183,1
8,447,34,0.0968505179822135,1
8,448,34,0.0838685176978396,1
8,449,34,0.0682346590244881,1
8,450,34,0.0575085083363345,1
8,477,34,0.0599623829682123,1
9,445,34,0.0896875913730362,1
9,446,34,0.10951117648796,1
9,447,34,0.117207634353686,1
9,448,34,0.100512934435592,1
9,449,34,0.0762712640003895,1
9,450,34,0.0616338048461121,1
9,476,34,0.0604306174432524,1
10,445,34,0.0890716975997957,1
10,446,34,0.108047014248792,1
10,447,34,0.117074811748547,1
10,448,34,0.10668326504995,1
10,449,34,0.086146616436716,1
10,450,34,0.0694938083578559,1
10,475,34,0.0610609056392926,1
11,445,34,0.106199350619881,1
11,446,34,0.121341811650328,1
11,447,34,0.12251979554518,1
11,448,34,0.113324713741457,1
11,449,34,0.0991018092462649,1
11,450,34,0.0788909192173435,1
11,451,34,0.0574393667520134,1
11,456,34,0.0580938441829266,1
12,445,34,0.158200119957848,1
12,446,34,0.172773054829341,1
12,447,34,0.153514307808592,1
12,448,34,0.131808485324128,1
12,449,34,0.115467707760642,1
12,450,34,0.0909211303097552,1
12,451,34,0.06453873027911,1
12,455,34,0.0582142065605451,1
12,456,34,0.0655532569819968,1
13,444,34,0.160725943115977,1
13,445,34,0.238516116517056,1
13,446,34,0.252754294078636,2
13,447,34,0.201211905434268,1
13,448,34,0.144556577712239,1
13,449,34,0.112654562252452,1
13,450,34,0.0858910019159855,1
13,451,34,0.0686051694623966,1
13,452,34,0.0696213532045323,1
13,453,34,0.0771761666476235,1
13,454,34,0.0710730552161803,1
13,455,34,0.0647283698705967,1
13,456,34,0.0590085416422337,1
14,444,34,0.18260018211628,1
14,445,34,0.267325011701881,2
14,446,34,0.28361676213257,2
14,447,34,0.22381663338121,1
14,448,34,0.150487268607737,1
14,449,34,0.105066584436634,1
14,450,34,0.0784796314612619,1
14,451,34,0.0703144319839286,1
14,452,34,0.0813970937819584,1
14,453,34,0.0938279014839807,1
14,454,34,0.0854436013187626,1
14,455,34,0.0688884877923501,1
14,467,34,0.0658905971502416,1
15,444,34,0.142336286645099,1
15,445,34,0.201709937131105,1
15,446,34,0.22520000758582,1
15,447,34,0.195884600908996,1
15,448,34,0.136300535923054,1
15,450,34,0.0689544214430361,1
15,451,34,0.0652024541069712,1
15,452,34,0.0750929557740116,1
15,453,34,0.0844989886989216,1
15,454,34,0.0800274948217818,1
15,455,34,0.0732945964339289,1
15,456,34,0.0683693922371591,1
15,462,34,0.0657588595814798,1
15,463,34,0.0668251672866627,1
15,464,34,0.0628502662537742,1
15,465,34,0.0646744541771683,1
15,467,34,0.114352644181757,1
16,445,34,0.117906562894417,1
16,446,34,0.152006909228593,1
16,447,34,0.156776575819559,1
16,448,34,0.120364241050549,1
16,451,34,0.0632324113480464,1
16,452,34,0.0700360140084801,1
16,453,34,0.0743146485666245,1
16,454,34,0.0742735705046731,1
16,455,34,0.0820457450392845,1
16,456,34,0.0872728075353984,1
16,457,34,0.0665384818057798,1
16,462,34,0.074594929974111,1
16,463,34,0.0890079399187997,1
17,446,34,0.100806354218334,1
17,447,34,0.110792297807953,1
17,453,34,0.079053132155638,1
17,454,34,0.0762218771544459,1
17,455,34,0.0839029145303637,1
17,456,34,0.0895180662330736,1
17,457,34,0.0691678433807544,1
1,450,35,0.100847786096495,1
1,451,35,0.0962296766789735,1
1,452,35,0.0983129111403327,1
1,453,35,0.0957534990300247,1
1,454,35,0.0910045070995817,1
1,455,35,0.0805057069139367,1
1,480,35,0.0646378813749543,1
2,447,35,0.102111806299683,1
2,448,35,0.104139208563145,1
2,450,35,0.0883504255654195,1
2,451,35,0.0808212991791558,1
2,452,35,0.0832966858365862,1
2,453,35,0.0798244514928827,1
2,454,35,0.0736067448880398,1
2,455,35,0.0652139531337879,1
2,480,35,0.0608715137191528,1
3,446,35,0.101135438675018,1
3,447,35,0.117143074689281,1
3,448,35,0.122208118846016,1
3,449,35,0.107227764609001,1
3,450,35,0.0826264576874025,1
3,451,35,0.0673565520582055,1
3,452,35,0.0646757220185866,1
3,453,35,0.0605271738868918,1
3,479,35,0.0616693161996969,1
4,446,35,0.0948744780385335,1
4,447,35,0.122355589442238,1
4,448,35,0.139318965596138,1
4,449,35,0.121385295662506,1
4,450,35,0.0872045269038544,1
4,451,35,0.064426216724411,1
5,446,35,0.082988476536277,1
5,447,35,0.101644780696693,1
5,448,35,0.119643305141572,1
5,449,35,0.109806282794635,1
5,450,35,0.0863559753849591,1
5,451,35,0.0663037601322348,1
6,446,35,0.0811830821505572,1
6,447,35,0.0852871143061291,1
6,448,35,0.0911688901106294,1
6,449,35,0.0870459110970256,1
6,450,35,0.0752087657163981,1
6,451,35,0.0625772970479557,1
7,446,35,0.0837821865426618,1
7,447,35,0.0822893357058204,1
7,448,35,0.0773106993644423,1
7,449,35,0.0719126433910953,1
7,450,35,0.0657584408989649,1
7,451,35,0.0581022591117817,1
7,477,35,0.0578153495472992,1
8,445,35,0.0809851042903942,1
8,446,35,0.0954059571610655,1
8,447,35,0.0969206384580482,1
8,448,35,0.0827606483818853,1
8,449,35,0.0687809040768402,1
8,450,35,0.061246275848515,1
8,476,35,0.0571015607257591,1
9,445,35,0.0822322415634412,1
9,446,35,0.107148934357469,1
9,447,35,0.114191575249207,1
9,448,35,0.09838445867488,1
9,449,35,0.0775180061786689,1
9,450,35,0.0661381682491372,1
9,451,35,0.0585454316052981,1
10,445,35,0.0816497126587797,1
10,446,35,0.103941000722446,1
10,447,35,0.114090265874483,1
10,448,35,0.108432614948046,1
10,449,35,0.0915064248777895,1
10,450,35,0.0782275433087552,1
10,451,35,0.0662196816069257,1
10,452,35,0.0576379991721644,1
10,456,35,0.0693880114142053,1
10,457,35,0.0624619352727682,1
10,474,35,0.058130540820814,1
11,446,35,0.112856614895964,1
11,447,35,0.121009590023251,1
11,448,35,0.118295583817032,1
11,449,35,0.103676935891239,1
11,450,35,0.0872827615647659,1
11,451,35,0.0706145270991609,1
11,452,35,0.0597098466485066,1
11,455,35,0.0806352862038191,1
11,456,35,0.120855337949676,1
11,457,35,0.105687791349958,1
11,473,35,0.0586976728234147,1
12,445,35,0.124735746466815,1
12,446,35,0.143002451804807,1
12,447,35,0.13702653140383,1
12,448,35,0.125128116849549,1
12,449,35,0.10909811965083,1
12,450,35,0.0914299887826109,1
12,451,35,0.0747187774413955,1
12,452,35,0.0710001749739096,1
12,453,35,0.0774513295139424,1
12,454,35,0.0750694741715582,1
12,455,35,0.0958288913673845,1
12,456,35,0.13049462421086,1
12,457,35,0.113195936434984,1
12,458,35,0.0625754395128545,1
13,444,35,0.122589686040479,1
13,445,35,0.174313782896298,1
13,446,35,0.188671526749024,1
13,447,35,0.158701654435162,1
13,448,35,0.127493413593317,1
13,449,35,0.108738595206234,1
13,450,35,0.0921017796200542,1
13,451,35,0.0826740105859923,1
13,452,35,0.0977950244571917,1
13,453,35,0.124943802192019,1
13,454,35,0.118118758269275,1
13,455,35,0.0976579029851049,1
13,456,35,0.0909725339080944,1
13,457,35,0.076013544273211,1
13,461,35,0.0594104296810097,1
13,462,35,0.0702134174560464,1
13,463,35,0.0632626626339796,1
14,444,35,0.137079120286472,1
14,445,35,0.191732343604036,1
14,446,35,0.200776735084029,1
14,447,35,0.164137214926742,1
14,448,35,0.125264855020742,1
14,450,35,0.089796419342217,1
14,451,35,0.0862478196665768,1
14,452,35,0.116830772914812,1
14,453,35,0.159597446314995,1
14,454,35,0.152141901906484,1
14,455,35,0.106450512953306,1
14,456,35,0.0710338052046459,1
14,461,35,0.0651511330657476,1
14,462,35,0.0786629790211519,1
14,463,35,0.0725470240612949,1
14,464,35,0.0616734499524141,1
14,466,35,0.0599898391060885,1
14,467,35,0.0662160962693336,1
15,445,35,0.148994966186021,1
15,446,35,0.16206938326438,1
15,447,35,0.150818806190142,1
15,448,35,0.120152293347038,1
15,451,35,0.0784376452710388,1
15,452,35,0.101868486892242,1
15,453,35,0.137263529294991,1
15,454,35,0.135591122628641,1
15,455,35,0.104120208632682,1
15,456,35,0.0774670625414024,1
15,457,35,0.0588964408731127,1
15,461,35,0.0646746959515783,1
15,462,35,0.0788678150188471,1
15,463,35,0.0808508782142905,1
15,464,35,0.0781972271565169,1
16,446,35,0.124808738750885,1
16,447,35,0.139745396685997,1
16,448,35,0.116918519334829,1
16,449,35,0.0893930983477915,1
16,455,35,0.0957565536433021,1
16,456,35,0.0876392196022106,1
16,457,35,0.0687804028372097,1
17,447,35,0.10313092671636,1
17,448,35,0.0886906257480264,1
1,451,36,0.0807147002520964,1
1,452,36,0.0814952482954786,1
1,453,36,0.090480469911328,1
1,454,36,0.0992498695361696,1
1,455,36,0.0879042928096149,1
1,456,36,0.0600611802478468,1
1,479,36,0.0572323547846283,1
2,448,36,0.10337162788385,1
2,451,36,0.0732814344709264,1
2,452,36,0.0734964426846517,1
2,453,36,0.0764299269827129,1
2,454,36,0.0790298864306577,1
2,455,36,0.0694513150310655,1
2,479,36,0.0575696064988207,1
3,447,36,0.105491859726875,1
3,448,36,0.111638720532653,1
3,449,36,0.0995286531217015,1
3,450,36,0.0788711467881555,1
3,451,36,0.0650609217261363,1
3,452,36,0.062831089415206,1
3,453,36,0.061421721513054,1
4,446,36,0.0899211395561522,1
4,447,36,0.110599503355263,1
4,448,36,0.126554786364357,1
4,449,36,0.113928548278882,1
4,450,36,0.0849008590468871,1
4,451,36,0.0644452166548744,1
4,452,36,0.0569577816119923,1
5,446,36,0.0816782774207798,1
5,447,36,0.0968175482084021,1
5,448,36,0.113347464123744,1
5,449,36,0.106170432041671,1
5,450,36,0.0841844519853948,1
5,451,36,0.0656215788920986,1
6,446,36,0.0798290805882935,1
6,447,36,0.0869643387698688,1
6,448,36,0.0913848005556896,1
6,449,36,0.0860462328810744,1
6,450,36,0.074005867263443,1
6,451,36,0.0630150974320208,1
7,446,36,0.0828158908861001,1
7,447,36,0.087797953347776,1
7,448,36,0.0804820307125679,1
7,449,36,0.0723459621031703,1
7,450,36,0.0663775485027772,1
7,451,36,0.0617616209518826,1
8,445,36,0.0754414411528634,1
8,446,36,0.0956816920302569,1
8,447,36,0.101960443725154,1
8,448,36,0.085612583940537,1
8,449,36,0.0708976154485781,1
8,450,36,0.0632144610723386,1
8,451,36,0.0597636267123879,1
9,445,36,0.0777392651454331,1
9,446,36,0.103067605408689,1
9,447,36,0.111174454696099,1
9,448,36,0.09489274674883,1
9,449,36,0.0779589024545693,1
9,450,36,0.066416751338817,1
9,451,36,0.0618698002580122,1
10,446,36,0.100076242675651,1
10,447,36,0.111662402630958,1
10,448,36,0.105405870594033,1
10,449,36,0.092489320411525,1
10,450,36,0.0778112372594321,1
10,451,36,0.0714076356179891,1
10,452,36,0.0630521007106234,1
10,453,36,0.0608988283305451,1
10,454,36,0.0603039276524162,1
10,455,36,0.0705970072998417,1
10,456,36,0.0970351392804586,1
10,457,36,0.0913399720419149,1
10,473,36,0.057424754142551,1
11,446,36,0.10331827239942,1
11,447,36,0.116031042135925,1
11,448,36,0.114915058634894,1
11,449,36,0.103528934570703,1
11,450,36,0.0859812958127125,1
11,451,36,0.0767925001436494,1
11,452,36,0.067309954463382,1
11,453,36,0.0646950403836387,1
11,454,36,0.0667985662046267,1
11,455,36,0.107065704991064,1
11,456,36,0.1806858831012,1
11,457,36,0.167629333741433,1
11,458,36,0.0867112481381012,1
11,461,36,0.0569884103018826,1
11,462,36,0.0596107309342833,1
12,446,36,0.119310753286033,1
12,447,36,0.123166571576595,1
12,448,36,0.115818268861258,1
12,450,36,0.0884839381121669,1
12,451,36,0.0800138846915803,1
12,452,36,0.0821131706149882,1
12,453,36,0.0939346242467135,1
12,454,36,0.0962860101165018,1
12,455,36,0.122961240236206,1
12,456,36,0.187208201874886,1
12,457,36,0.172578880493433,1
12,458,36,0.0935300884833012,1
12,461,36,0.080099773576496,1
12,462,36,0.0994133915944402,1
12,463,36,0.0838187298601916,1
13,445,36,0.125216700634595,1
13,446,36,0.137975997202682,1
13,447,36,0.127368516471277,1
13,451,36,0.0931989165109797,1
13,452,36,0.119606897453589,1
13,453,36,0.164101019528485,1
13,454,36,0.16406199360055,1
13,455,36,0.127994110705601,1
13,456,36,0.116980578698019,1
13,457,36,0.101202616579375,1
13,458,36,0.072930348542933,1
13,459,36,0.0618380275623771,1
13,460,36,0.0677100675241725,1
13,461,36,0.0975989218229404,1
13,462,36,0.127879674749496,1
13,463,36,0.109296103407929,1
13,464,36,0.0719636577916038,1
14,445,36,0.130349677503601,1
14,446,36,0.13908774670307,1
14,447,36,0.123923325479871,1
14,450,36,0.103060505496747,1
14,452,36,0.142764581166995,1
14,453,36,0.213624580055541,1
14,454,36,0.218088348945434,1
14,455,36,0.146277987923639,1
14,457,36,0.064568474428476,1
14,458,36,0.064514063392354,1
14,459,36,0.0691846142690964,1
14,460,36,0.0723698329034545,1
14,461,36,0.0918287986203621,1
14,462,36,0.11532758474771,1
14,463,36,0.103237519746483,1
14,464,36,0.0799833208679951,1
14,465,36,0.0699150619371787,1
15,446,36,0.118221093711007,1
15,447,36,0.117686713295555,1
15,448,36,0.108896574143885,1
15,449,36,0.104952785349707,1
15,450,36,0.100939389113198,1
15,451,36,0.0915940179774488,1
15,452,36,0.123492353748654,1
15,453,36,0.184044212213113,1
15,454,36,0.193560122761959,1
15,455,36,0.137590125244334,1
15,461,36,0.076025621199837,1
15,462,36,0.0894415475807793,1
15,463,36,0.0907193076467797,1
15,464,36,0.0918078409068715,1
16,447,36,0.111831220138502,1
16,448,36,0.107490237267263,1
16,449,36,0.0950310181235985,1
16,450,36,0.0846192095500562,1
16,453,36,0.120957779536271,1
16,454,36,0.129853155422592,1
17,448,36,0.0851684325555069,1
17,449,36,0.0757503050131605,1
1,452,37,0.0703758721687509,1
1,453,37,0.0825326374224517,1
1,454,37,0.0949882771254612,1
1,455,37,0.0825467605861574,1
1,456,37,0.0599512436545422,1
2,452,37,0.0670091635096039,1
2,453,37,0.0717626901844684,1
2,454,37,0.0780126471368296,1
2,455,37,0.0674187883294997,1
2,473,37,0.0616491191910573,1
2,474,37,0.0634524968243816,1
2,475,37,0.0574705969294603,1
3,448,37,0.0988840294722298,1
3,451,37,0.0642379511192056,1
3,452,37,0.0611112359951288,1
3,453,37,0.0614568554626817,1
3,454,37,0.0589279423096537,1
3,472,37,0.0605650322213346,1
3,473,37,0.0743492341011271,1
3,474,37,0.0673370037126171,1
4,447,37,0.0979404900948916,1
4,448,37,0.104907803515574,1
4,449,37,0.0973004955408307,1
4,451,37,0.0637735732408518,1
4,452,37,0.0585702871940327,1
4,453,37,0.0573620932918051,1
4,472,37,0.0611765327766373,1
4,473,37,0.0720442571241837,1
4,474,37,0.0635899485249308,1
5,446,37,0.0879057670438222,1
5,447,37,0.0938874605459545,1
5,448,37,0.101227525240541,1
5,449,37,0.095740030426307,1
5,451,37,0.0632727051173995,1
5,452,37,0.0571025337203359,1
5,453,37,0.0569797418047438,1
6,446,37,0.0804158199058509,1
6,447,37,0.0889753475489453,1
6,448,37,0.089310311251648,1
6,449,37,0.0811009083358439,1
6,450,37,0.0695853700960012,1
6,451,37,0.0611374773640183,1
7,446,37,0.0827117391878248,1
7,447,37,0.09736352200166,1
7,448,37,0.0898764171872404,1
7,449,37,0.0752264034544539,1
7,450,37,0.0672124309221026,1
7,451,37,0.0636208779585994,1
7,452,37,0.0590409806917305,1
8,446,37,0.0930534685640902,1
8,447,37,0.10693609031956,1
8,448,37,0.0924346263224353,1
8,451,37,0.063608641814679,1
8,452,37,0.0587246513094077,1
9,446,37,0.0978528675105482,1
9,447,37,0.108444314470715,1
9,448,37,0.0943124586801636,1
9,451,37,0.0645501703365585,1
9,452,37,0.0597725310869998,1
9,453,37,0.0592330675120012,1
9,454,37,0.0613559529765992,1
9,455,37,0.0569750360491542,1
9,457,37,0.0581605975078318,1
10,447,37,0.105860335721577,1
10,448,37,0.099166876047237,1
10,451,37,0.0726822585135964,1
10,452,37,0.0675090527415425,1
10,453,37,0.0671913198882545,1
10,454,37,0.072609266229526,1
10,455,37,0.0834792667946884,1
10,456,37,0.111633118442665,1
10,457,37,0.110561633226946,1
10,458,37,0.0695446576441332,1
11,447,37,0.104926249133976,1
11,448,37,0.103801974539763,1
11,452,37,0.0719562630328201,1
11,453,37,0.0706593497159988,1
11,454,37,0.07808043242568,1
11,455,37,0.11927750635619,1
11,456,37,0.19960166427597,1
11,457,37,0.19816125489835,1
11,458,37,0.107505215486809,1
11,460,37,0.0596754380221089,1
11,461,37,0.075822330199591,1
11,462,37,0.0823427206749341,1
11,463,37,0.0667590921094928,1
12,453,37,0.101019764362178,1
12,454,37,0.109737949090659,1
12,455,37,0.133908030712757,1
12,456,37,0.198559887827996,1
12,457,37,0.195799213263711,1
12,458,37,0.110820803600585,1
12,459,37,0.0652684821086465,1
12,460,37,0.075780237864505,1
12,461,37,0.119893288087631,1
12,462,37,0.151998052029476,1
12,463,37,0.122393848768385,1
12,464,37,0.0710806799555003,1
12,468,37,0.0587949310025368,1
12,469,37,0.0589454915936571,1
13,446,37,0.10521793521729,1
13,450,37,0.0943674181314107,1
13,452,37,0.12440746399354,1
13,453,37,0.180958982039629,1
13,454,37,0.196283906089441,1
13,455,37,0.155382221518574,1
13,456,37,0.129853674353033,1
13,457,37,0.114464862889614,1
13,458,37,0.0832099065142093,1
13,459,37,0.0726455088032775,1
13,460,37,0.0919691162322102,1
13,461,37,0.153473772264829,1
13,462,37,0.198084948535781,1
13,463,37,0.158964457321887,1
13,464,37,0.0909808014135288,1
13,465,37,0.059642208783077,1
13,468,37,0.0573500163651791,1
14,449,37,0.101506969282998,1
14,450,37,0.108630056186958,1
14,451,37,0.106314199361565,1
14,452,37,0.149234110562188,1
14,453,37,0.237898023186378,1
14,454,37,0.263491436657039,1
14,455,37,0.184345687211563,1
14,456,37,0.101457930356327,1
14,461,37,0.134161905637123,1
14,462,37,0.162857426314472,1
14,463,37,0.135920784985135,1
14,464,37,0.0942727840891775,1
14,465,37,0.077772046217266,1
15,448,37,0.0967448507711731,1
15,449,37,0.106665975231167,1
15,450,37,0.115809093227552,1
15,451,37,0.109008981553721,1
15,452,37,0.135176060832989,1
15,453,37,0.208649263689597,1
15,454,37,0.233815738933832,1
15,455,37,0.168176876119887,1
15,456,37,0.0941447792814285,1
16,448,37,0.0922070576332639,1
16,449,37,0.0964961651512168,1
16,450,37,0.0995575834937851,1
16,451,37,0.0932561639737165,1
16,452,37,0.0993964437979934,1
16,453,37,0.133254296295884,1
16,454,37,0.147040284947536,1
16,455,37,0.115916264157484,1
17,448,37,0.0796490235191541,1
17,449,37,0.0805064971034718,1
17,450,37,0.0772115423716612,1
17,454,37,0.10382533820348,1
18,449,37,0.066934461113853,1
1,453,38,0.0750352129685812,1
1,454,38,0.0838883608902695,1
1,455,38,0.0748405963624108,1
1,456,38,0.060539657702159,1
1,473,38,0.0651037747660732,1
1,474,38,0.0686236858440399,1
1,475,38,0.0612132588992089,1
2,453,38,0.0680718504955738,1
2,454,38,0.0730913467122407,1
2,455,38,0.0656173095098343,1
2,472,38,0.0864074084679824,1
2,473,38,0.113313167539146,1
2,474,38,0.102049805905862,1
2,475,38,0.0712715284190369,1
3,452,38,0.0603781229115998,1
3,453,38,0.0614189853343653,1
3,454,38,0.0601050534578553,1
3,471,38,0.0612698282142103,1
3,472,38,0.11913142743706,1
3,473,38,0.156402721818468,1
3,474,38,0.126908673337345,1
3,475,38,0.0759489079486274,1
4,445,38,0.104665510175141,1
4,446,38,0.110012463293927,1
4,447,38,0.095791717077614,1
4,448,38,0.0892312038440857,1
4,452,38,0.0601145121445291,1
4,453,38,0.0606612938181326,1
4,454,38,0.057499521404607,1
4,471,38,0.0594754316156767,1
4,472,38,0.109803570203693,1
4,473,38,0.138028114330377,1
4,474,38,0.10988912296321,1
4,475,38,0.0697756052781076,1
5,445,38,0.103508330673422,1
5,446,38,0.10959551447849,1
5,447,38,0.0965490783653842,1
5,448,38,0.0906288545327583,1
5,452,38,0.0569464830810278,1
5,453,38,0.0580270908580213,1
5,472,38,0.0705356555690719,1
5,473,38,0.0825228956828101,1
5,474,38,0.0705571675946244,1
6,446,38,0.083761995430959,1
6,447,38,0.0895700536281588,1
6,448,38,0.0860553200607281,1
6,449,38,0.0752275120785778,1
7,446,38,0.0786097886509535,1
7,447,38,0.100904750506264,1
7,448,38,0.0956369755582819,1
7,449,38,0.0760469681111583,1
7,452,38,0.0607849879650596,1
8,447,38,0.104272844945566,1
8,448,38,0.095302707694125,1
8,452,38,0.0612811444359854,1
8,453,38,0.0568805376364681,1
8,454,38,0.0571820716042867,1
9,447,38,0.101320626079198,1
9,453,38,0.0622025644032776,1
9,454,38,0.0686385048462914,1
9,455,38,0.0645597410650321,1
9,456,38,0.061472783089057,1
9,457,38,0.0646481302511633,1
9,458,38,0.0600701141071429,1
10,454,38,0.0786181387135035,1
10,455,38,0.0865360737326563,1
10,456,38,0.107136456439139,1
10,457,38,0.112378019502916,1
10,458,38,0.0779299956702331,1
10,459,38,0.0589719865308302,1
10,460,38,0.0577153433956147,1
10,461,38,0.0587549851524566,1
11,455,38,0.111805191059338,1
11,456,38,0.172836612014485,1
11,457,38,0.183484168328581,1
11,458,38,0.112009213279751,1
11,459,38,0.068024161967437,1
11,460,38,0.0697217072754897,1
11,461,38,0.0884176624391448,1
11,462,38,0.0945893375550998,1
11,463,38,0.0752816282678583,1
12,453,38,0.10314072742537,1
12,454,38,0.113176028376249,1
12,455,38,0.128491930112713,1
12,456,38,0.169990679537525,1
12,457,38,0.177275543006455,1
12,458,38,0.113142274309839,1
12,460,38,0.0972284821482739,1
12,461,38,0.158692632121813,1
12,462,38,0.191479872150635,1
12,463,38,0.145297999579761,1
12,464,38,0.0779246707362764,1
12,468,38,0.0616672522718067,1
13,452,38,0.118030339598459,1
13,453,38,0.176061823674418,1
13,454,38,0.20169995951399,1
13,455,38,0.165015693400045,1
13,456,38,0.126685037905038,1
13,457,38,0.112816904923357,1
13,460,38,0.117803555201886,1
13,461,38,0.209192654624524,1
13,462,38,0.254158118860168,1
13,463,38,0.189551632776892,1
13,464,38,0.0995269783916421,1
13,465,38,0.0647112923415396,1
14,449,38,0.094584602314826,1
14,450,38,0.10485510848807,1
14,451,38,0.106586472728837,1
14,452,38,0.14004346325496,1
14,453,38,0.230782401804444,1
14,454,38,0.273965505089623,1
14,455,38,0.202982283809097,1
14,456,38,0.112060764301511,1
14,460,38,0.110968203433565,1
14,461,38,0.178964579034663,1
14,462,38,0.207566704026513,1
14,463,38,0.160325222670693,1
15,448,38,0.0838496416030497,1
15,449,38,0.101049732595144,1
15,450,38,0.120565244039305,1
15,451,38,0.120001732755918,1
15,452,38,0.131499403277168,1
15,453,38,0.199818105445345,1
15,454,38,0.23768037904189,1
15,455,38,0.17952444601109,1
15,456,38,0.101558272633411,1
15,461,38,0.107743487116325,1
15,462,38,0.115638884042917,1
16,448,38,0.078014634404541,1
16,449,38,0.0941256437214181,1
16,450,38,0.110452174285525,1
16,451,38,0.111432669765971,1
16,452,38,0.106468026855688,1
16,453,38,0.129891862915938,1
16,454,38,0.147180148495248,1
16,455,38,0.1199478347533,1
17,447,38,0.0596983830033109,1
17,448,38,0.0733992080932769,1
17,449,38,0.0825083125580318,1
17,450,38,0.0848735267446842,1
17,451,38,0.084240891567786,1
17,454,38,0.0974004604139574,1
18,448,38,0.0672485319693703,1
18,449,38,0.0672167710676088,1
1,455,39,0.0631275873989725,1
2,454,39,0.0633020895536189,1
2,455,39,0.0591652173568457,1
3,445,39,0.0895350376172677,1
3,446,39,0.0941088905238867,1
3,454,39,0.0574284397280691,1
3,473,39,0.231445311855023,1
4,444,39,0.0851947800692593,1
4,445,39,0.142805270031116,1
4,446,39,0.146281667612221,1
4,447,39,0.105622594816376,1
5,444,39,0.0933728938382482,1
5,445,39,0.138006059786637,1
5,446,39,0.144773962391507,1
5,447,39,0.10918200947416,1
5,448,39,0.0835267961055308,1
6,445,39,0.0918629654723498,1
6,446,39,0.0971909009698621,1
6,447,39,0.0947878048610196,1
6,448,39,0.0843568607274669,1
7,446,39,0.0776501211513878,1
7,447,39,0.0983137013298678,1
7,448,39,0.0948314952659863,1
7,449,39,0.0761008955984603,1
7,460,39,0.0573236747483635,1
8,447,39,0.0958079100661467,1
8,448,39,0.0918981583913458,1
8,458,39,0.0582776693946997,1
8,459,39,0.058510792998364,1
9,457,39,0.0657258898076683,1
9,458,39,0.0657422656012427,1
9,459,39,0.0624921157954595,1
9,460,39,0.0570208611452531,1
10,458,39,0.0856620769313435,1
10,459,39,0.0722852944170727,1
10,460,39,0.0646501175188747,1
10,461,39,0.0619357515995087,1
11,460,39,0.0776401317403993,1
11,461,39,0.0920473390992481,1
11,462,39,0.0977362968633108,1
11,463,39,0.0779777903432329,1
11,468,39,0.0574750019412716,1
12,453,39,0.100728149042106,1
12,454,39,0.111377674933103,1
12,455,39,0.114475583520769,1
12,457,39,0.136236412631975,1
12,460,39,0.107344771629563,1
12,461,39,0.168840529184506,1
12,462,39,0.197616236408858,1
12,463,39,0.145695476709789,1
12,464,39,0.0816500546811158,1
13,452,39,0.106499233445388,1
13,453,39,0.15044540035625,1
13,454,39,0.180763144767535,1
13,455,39,0.15137506424123,1
13,456,39,0.114830307858786,1
13,460,39,0.125295224245411,1
13,461,39,0.221578250511878,1
13,462,39,0.264083465526932,1
13,463,39,0.189670149413283,1
13,464,39,0.102085753632773,1
14,450,39,0.0956164660119903,1
14,451,39,0.0978652156962683,1
14,452,39,0.121614603948042,1
14,453,39,0.191997422708377,1
14,454,39,0.242772832161007,1
14,455,39,0.189693973038073,1
14,456,39,0.113231282674337,1
14,460,39,0.110796354900491,1
14,461,39,0.184965148631585,1
14,462,39,0.216053245282474,1
14,463,39,0.161564782379915,1
14,464,39,0.107813401199371,1
15,449,39,0.0889422244547763,1
15,450,39,0.111633826075085,1
15,451,39,0.114138467436124,1
15,452,39,0.117096559651573,1
15,453,39,0.16505813955134,1
15,454,39,0.207174133147927,1
15,455,39,0.167114884972463,1
15,456,39,0.103714204531999,1
15,461,39,0.109425081210255,1
15,462,39,0.118447005360929,1
15,463,39,0.101222159028026,1
16,448,39,0.0672667652980458,1
16,449,39,0.0857215239515176,1
16,450,39,0.106635523449382,1
16,451,39,0.110131557830127,1
16,452,39,0.102476696956794,1
16,453,39,0.115528634911961,1
16,454,39,0.133904103352828,1
16,455,39,0.117535126637426,1
17,448,39,0.067591568578592,1
17,449,39,0.0799567610645169,1
17,450,39,0.0849465190287547,1
17,451,39,0.0838937801752155,1
17,454,39,0.086730194996133,1
18,448,39,0.0646222485954204,1
18,449,39,0.0665984949318894,1
18,450,39,0.0622923924419951,1
19,449,39,0.0618843480011696,1
3,445,40,0.0988423735104691,1
3,446,40,0.101155641580594,1
4,444,40,0.095063881752547,1
4,445,40,0.16637932466015,1
4,446,40,0.174466431003056,1
4,447,40,0.116438803523783,1
5,444,40,0.103718792348852,1
5,445,40,0.157580623156205,1
5,446,40,0.169922970908854,1
5,447,40,0.120449463581603,1
5,448,40,0.0793213425334354,1
6,445,40,0.102978054526003,1
6,446,40,0.107773018975965,1
6,447,40,0.0972802159750755,1
6,448,40,0.0814990164381124,1
7,447,40,0.087147438658412,1
7,448,40,0.0862997893708516,1
11,461,40,0.0882820623767599,1
11,462,40,0.0932418933865901,1
12,460,40,0.103874212015919,1
12,461,40,0.151690786239059,1
12,462,40,0.174479298119217,1
12,463,40,0.127710420868627,1
13,453,40,0.120566694685765,1
13,454,40,0.14483954812292,1
13,455,40,0.124373179202815,1
13,460,40,0.115177495911536,1
13,461,40,0.192728230089606,1
13,462,40,0.231769549029633,1
13,463,40,0.166924295974147,1
13,464,40,0.0985496731540205,1
14,450,40,0.0846138551314154,1
14,452,40,0.101569700896985,1
14,453,40,0.14508266703451,1
14,454,40,0.187032060371801,1
14,455,40,0.153546752755025,1
14,456,40,0.100901330282903,1
14,460,40,0.096444714377383,1
14,461,40,0.155301433484015,1
14,462,40,0.187788566603731,1
14,463,40,0.143110566244632,1
14,464,40,0.105018323905625,1
15,449,40,0.0776636428275369,1
15,450,40,0.0951952478142886,1
15,451,40,0.0960720279697847,1
15,452,40,0.0971822737512812,1
15,453,40,0.126356531348163,1
15,454,40,0.161787320981971,1
15,455,40,0.139010897822313,1
15,456,40,0.0957579807020148,1
15,461,40,0.0988930517855783,1
15,462,40,0.110398205519665,1
15,463,40,0.0938217214941838,1
16,448,40,0.0593749478121091,1
16,449,40,0.077376232023424,1
16,450,40,0.0949935136053655,1
16,451,40,0.0936513589891914,1
16,452,40,0.0859851052339041,1
16,453,40,0.0945975284003554,1
16,454,40,0.11136016103072,1
16,455,40,0.105220518075621,1
17,448,40,0.0641319477827659,1
17,449,40,0.077804856773783,1
17,450,40,0.082323060287546,1
17,451,40,0.0753494253505823,1
18,448,40,0.0662265043628369,1
18,449,40,0.0679173566475886,1
18,450,40,0.0616046091118713,1
19,448,40,0.0663877914820493,1
19,449,40,0.0595744765666581,1
3,445,41,0.0918364351535558,1
3,446,41,0.0946038676074467,1
4,444,41,0.0923687221564334,1
4,445,41,0.151563612899403,1
4,446,41,0.164084956272562,1
4,447,41,0.110784006714771,1
5,444,41,0.102027185256186,1
5,445,41,0.145399155634127,1
5,446,41,0.160733597339981,1
5,447,41,0.114680325167475,1
5,448,41,0.0746314497038936,1
6,445,41,0.101643129554381,1
6,446,41,0.10611084939195,1
6,447,41,0.0917135901655322,1
11,462,41,0.0843035583154688,1
12,461,41,0.122395016361877,1
12,462,41,0.134964620266045,1
12,463,41,0.105409833335582,1
13,460,41,0.0956282304009643,1
13,461,41,0.14339698046642,1
13,462,41,0.17004289101621,1
13,463,41,0.13379791131441,1
13,464,41,0.0918612199790484,1
14,453,41,0.106101779903107,1
14,454,41,0.128148457130166,1
14,455,41,0.113111657413822,1
14,460,41,0.0811978362865036,1
14,461,41,0.114149117304037,1
14,462,41,0.13762522381234,1
14,463,41,0.116899413259503,1
15,450,41,0.0776234198214257,1
15,453,41,0.0971601425473616,1
15,454,41,0.11664151662422,1
15,455,41,0.10558295560701,1
15,461,41,0.0838896935979929,1
15,462,41,0.0930010035171218,1
16,449,41,0.0690232858713262,1
16,450,41,0.0825046269725136,1
16,451,41,0.0755784800678346,1
17,448,41,0.059569198808196,1
17,449,41,0.0721740604976656,1
17,450,41,0.0796953026793888,1
17,451,41,0.0674953423634149,1
18,448,41,0.0664054704986629,1
18,449,41,0.0653767203841444,1
18,450,41,0.0617005345832701,1
19,448,41,0.061348988694204,1
3,446,42,0.0785970984428973,1
4,445,42,0.118001751248712,1
4,446,42,0.129998856937765,1
4,447,42,0.095550886177514,1
5,444,42,0.0938527570727153,1
5,445,42,0.121517304490362,1
5,446,42,0.133078390670272,1
5,447,42,0.100582294206576,1
6,445,42,0.0959155645448985,1
6,446,42,0.096904014993127,1
12,461,42,0.101120295341241,1
12,462,42,0.104627168291878,1
13,460,42,0.0819677049772883,1
13,461,42,0.106406179782225,1
13,462,42,0.117887586551701,1
13,463,42,0.107386439385198,1
14,461,42,0.086450963243402,1
14,462,42,0.0976529495581685,1
15,450,42,0.0657760255645892,1
16,449,42,0.0628975007177752,1
16,450,42,0.0745241490413515,1
16,451,42,0.0647299384557932,1
17,449,42,0.0654090061132837,1
17,450,42,0.0757046509282298,1
17,451,42,0.0616789635883493,1
18,448,42,0.0617946555919991,1
18,449,42,0.0591144388338104,1
18,450,42,0.0577634741940138,1
4,446,43,0.0931406370842978,1
5,445,43,0.0992011490440877,1
5,446,43,0.102240052881842,1
5,447,43,0.0835384602465788,1
6,446,43,0.0854649010545893,1
13,461,43,0.0830595700066885,1
13,462,43,0.0875092216298133,1
15,450,43,0.0606306120558109,1
16,449,43,0.0591500386414477,1
16,450,43,0.0697839494437207,1
16,451,43,0.0613785205538441,1
17,449,43,0.0593935349569943,1
17,450,43,0.0700438687283364,1
17,451,43,0.0591699584940563,1
5,446,44,0.0855464321031883,1
16,450,44,0.0623194416912302,1
17,450,44,0.0603146011080769,1
