x,y,z,signal,cytoplasm.p
18,688,40,0.0581299157455101,1
18,689,40,0.0595536839673987,1
19,688,40,0.0582604208544746,1
19,689,40,0.059363944127986,1
32,699,40,0.0598372263809517,1
17,689,41,0.0569089077995528,1
18,688,41,0.0602203208820534,1
18,689,41,0.0620424271867469,1
18,690,41,0.057094973847321,1
19,688,41,0.0612414403603151,1
19,689,41,0.0621786523244357,1
20,684,41,0.058261718180577,1
20,685,41,0.060024430537528,1
20,686,41,0.0571445670860537,1
20,688,41,0.0597905285382022,1
20,689,41,0.0591242749244414,1
21,685,41,0.0572997803603321,1
26,696,41,0.0580858184519022,1
31,699,41,0.0575338297830786,1
32,698,41,0.0649029250976745,1
32,699,41,0.0648074772781589,1
32,700,41,0.0598654962961104,1
33,699,41,0.0627912791946728,1
33,700,41,0.0600649896690384,1
17,687,42,0.0572041733235221,1
17,688,42,0.058508481399127,1
17,689,42,0.0594276310457401,1
18,684,42,0.0577013853461403,1
18,685,42,0.057218184445428,1
18,687,42,0.0591279723038332,1
18,688,42,0.0626975886623322,1
18,689,42,0.0645216114714952,1
18,690,42,0.0580373338372934,1
19,683,42,0.05877991740137,1
19,684,42,0.0618790053764024,1
19,685,42,0.0608335079612893,1
19,686,42,0.0580697257112956,1
19,687,42,0.0604219194614295,1
19,688,42,0.0645698720025045,1
19,689,42,0.0651887083472226,1
19,690,42,0.0575316361225782,1
20,683,42,0.0586280417933368,1
20,684,42,0.0636728948383687,1
20,685,42,0.0629265077500374,1
20,686,42,0.058514832400092,1
20,687,42,0.0593456931085,1
20,688,42,0.0623829693916899,1
20,689,42,0.0616571390251448,1
21,684,42,0.0585984922428862,1
21,685,42,0.0593278371837815,1
25,696,42,0.059876688682212,1
26,695,42,0.0597897973180354,1
26,696,42,0.0606091413088162,1
26,697,42,0.0574113209204543,1
27,696,42,0.0573643754063579,1
30,700,42,0.0574432764211311,1
30,701,42,0.0591575277512206,1
31,699,42,0.0599969508119044,1
31,700,42,0.0586352183654578,1
31,701,42,0.0596595575712282,1
31,702,42,0.0570545562422945,1
32,698,42,0.0659801421359913,1
32,699,42,0.0663768113856735,1
32,700,42,0.0623145236459147,1
32,701,42,0.0611918471215825,1
33,698,42,0.0642455227860941,1
33,699,42,0.0665292059241477,1
33,700,42,0.0634985460040799,1
33,701,42,0.0633945240384148,1
34,699,42,0.0638381270083198,1
34,700,42,0.0616398433094251,1
7,689,43,0.0575717470868896,1
8,689,43,0.0595513016049198,1
9,689,43,0.0611566129240287,1
10,689,43,0.0579579433767634,1
16,688,43,0.056867876913096,1
17,686,43,0.0575155080003506,1
17,687,43,0.0590905208580317,1
17,688,43,0.0602275387327322,1
17,689,43,0.0602499235049355,1
18,683,43,0.0583017171030887,1
18,684,43,0.0606654511585971,1
18,685,43,0.0602126194825546,1
18,686,43,0.059719735811569,1
18,687,43,0.0608710478611433,1
18,688,43,0.0632361087274382,1
18,689,43,0.0637354436473149,1
18,690,43,0.0577389488337416,1
19,683,43,0.0627876525785229,1
19,684,43,0.0669549883509551,1
19,685,43,0.0639142092872887,1
19,686,43,0.0608049962717207,1
19,687,43,0.0619838941917814,1
19,688,43,0.0650237651271762,1
19,689,43,0.0645720833538154,1
19,690,43,0.0573638741667274,1
20,683,43,0.0627397989361549,1
20,684,43,0.0676628920295398,1
20,685,43,0.0640879271493368,1
20,686,43,0.059458825841566,1
20,687,43,0.0600313948199231,1
20,688,43,0.0623426402407158,1
20,689,43,0.0614855912358498,1
21,684,43,0.0609520069068698,1
21,685,43,0.059992410170546,1
21,688,43,0.0573139389056587,1
21,689,43,0.0573231322301753,1
25,696,43,0.0624867200982609,1
25,697,43,0.0588328011308532,1
26,695,43,0.0609608523121134,1
26,696,43,0.0640563903311748,1
26,697,43,0.0624717300848414,1
27,696,43,0.0584079975955594,1
27,697,43,0.0582209998317722,1
29,699,43,0.0576035020917143,1
29,700,43,0.0586256122553632,1
29,701,43,0.0586290029940399,1
30,699,43,0.0592483287845149,1
30,700,43,0.0605760064207735,1
30,701,43,0.0616728071862997,1
30,702,43,0.0582384488678495,1
31,699,43,0.0623342901781658,1
31,700,43,0.0617407634863181,1
31,701,43,0.0619999102722092,1
31,702,43,0.0586489287435854,1
32,698,43,0.0666366304223631,1
32,699,43,0.0664971501755447,1
32,700,43,0.0642215871195049,1
32,701,43,0.0631310842825121,1
33,698,43,0.0658148804813561,1
33,699,43,0.0674802992775639,1
33,700,43,0.0652668663479553,1
33,701,43,0.0652574725275866,1
34,699,43,0.0662921077850605,1
34,700,43,0.0642166926619367,1
8,688,44,0.0580628557798897,1
8,689,44,0.0570824782381802,1
9,688,44,0.058702838540077,1
9,689,44,0.0590459577064143,1
10,688,44,0.057769677771558,1
10,689,44,0.059213719662265,1
11,689,44,0.057039666476801,1
13,686,44,0.0569478688611826,1
16,685,44,0.0569971023867687,1
16,686,44,0.0568729600726427,1
16,687,44,0.0576299321625822,1
16,688,44,0.0581860604810598,1
16,689,44,0.0573782980742114,1
17,684,44,0.058244711414762,1
17,685,44,0.060095883721086,1
17,686,44,0.0617265695593705,1
17,687,44,0.0616250714826682,1
17,688,44,0.0619936359314231,1
17,689,44,0.0611914048513203,1
17,690,44,0.057078415248705,1
18,682,44,0.0580910195501854,1
18,683,44,0.0614808972741339,1
18,684,44,0.0640460647947871,1
18,685,44,0.0637769993611495,1
18,686,44,0.0646891021682518,1
18,687,44,0.0638233080060683,1
18,688,44,0.0640003340496775,1
18,689,44,0.062751557428192,1
18,690,44,0.0582930368120763,1
19,682,44,0.0598489553883048,1
19,683,44,0.0672525182986667,1
19,684,44,0.0717085798921247,1
19,685,44,0.0669735931866509,1
19,686,44,0.0645503708324107,1
19,687,44,0.0644976109386008,1
19,688,44,0.0653738839575296,1
19,689,44,0.0629114587672496,1
19,690,44,0.0574826856499599,1
20,682,44,0.0592921489220918,1
20,683,44,0.0671999294160249,1
20,684,44,0.0709487242000758,1
20,685,44,0.0647123891717898,1
20,686,44,0.0608054798205406,1
20,687,44,0.0615036476564205,1
20,688,44,0.0627019995710804,1
20,689,44,0.0607813613489097,1
21,683,44,0.060866949490047,1
21,684,44,0.0631566769883504,1
21,685,44,0.0599805455336459,1
21,688,44,0.0586871232034274,1
21,689,44,0.0594996385413601,1
22,684,44,0.0579763595104806,1
22,689,44,0.0574672297785309,1
25,696,44,0.0635707304078048,1
25,697,44,0.062647152161633,1
26,695,44,0.0615409045033067,1
26,696,44,0.0658455445528674,1
26,697,44,0.0665053351238635,1
26,698,44,0.0590449021547218,1
27,696,44,0.0597882641144598,1
27,697,44,0.0601819318232961,1
27,699,44,0.0570741045878829,1
27,700,44,0.0570780968141162,1
28,698,44,0.0597455113224489,1
28,699,44,0.0602726267117274,1
28,700,44,0.0612406796554642,1
28,701,44,0.0598447803570298,1
28,702,44,0.0568596860678404,1
29,696,44,0.0688589382418995,1
29,697,44,0.0658416289868128,1
29,698,44,0.0633997251366981,1
29,699,44,0.0621100355674924,1
29,700,44,0.0631512223217835,1
29,701,44,0.0624006778929877,1
29,702,44,0.0588913105380714,1
30,697,44,0.0695549890774577,1
30,698,44,0.0671863133888866,1
30,699,44,0.0648850927607033,1
30,700,44,0.0649556673006739,1
30,701,44,0.0645254032018763,1
30,702,44,0.0608002610314469,1
30,703,44,0.0571970969993272,1
31,698,44,0.0687550460088446,1
31,699,44,0.0672245137456654,1
31,700,44,0.0660489240071658,1
31,701,44,0.0646300089642875,1
31,702,44,0.0606004256361828,1
32,698,44,0.0690538084163536,1
32,699,44,0.0692476820084835,1
32,700,44,0.0677984979888615,1
32,701,44,0.0656900954011158,1
33,699,44,0.0698118950273538,1
33,700,44,0.0683734493296975,1
33,701,44,0.067118533996973,1
34,700,44,0.069157128646536,1
8,688,45,0.0574786993206634,1
8,689,45,0.0573664688189322,1
9,688,45,0.0580079435041372,1
9,689,45,0.0594357334369433,1
10,688,45,0.0579549713206015,1
10,689,45,0.0606801581190489,1
11,688,45,0.0568550510754928,1
11,689,45,0.0593858158666851,1
12,685,45,0.0590632829068181,1
12,686,45,0.0603812129064983,1
13,685,45,0.0590128346122453,1
13,686,45,0.060894865588996,1
13,687,45,0.0577273672498092,1
14,685,45,0.0579763005411124,1
14,686,45,0.0583214482537189,1
15,684,45,0.0572475570877737,1
15,685,45,0.0581100371714592,1
16,684,45,0.0576857348757959,1
16,685,45,0.0591084947214867,1
16,686,45,0.0582909669872493,1
16,687,45,0.057772643930783,1
16,688,45,0.0582734648787406,1
16,689,45,0.0569392357456648,1
17,684,45,0.058808104759413,1
17,685,45,0.0615953096424918,1
17,686,45,0.0636495724532097,1
17,687,45,0.0621830632331838,1
17,688,45,0.0614988652406521,1
17,689,45,0.0597259393891132,1
18,682,45,0.0607700923026293,1
18,683,45,0.0621150833454181,1
18,684,45,0.0639110131475273,1
18,685,45,0.0646699312266204,1
18,686,45,0.0674431426786038,1
18,687,45,0.0654503141557714,1
18,688,45,0.0633019893056928,1
18,689,45,0.0605833068285679,1
18,690,45,0.0569912644193079,1
19,682,45,0.0631281181232871,1
19,683,45,0.0686159490629201,1
19,684,45,0.0714665578107853,1
19,685,45,0.0669698722195117,1
19,686,45,0.0658284021575052,1
19,687,45,0.0649277099231672,1
19,688,45,0.0636113897872413,1
19,689,45,0.0604658988163008,1
19,690,45,0.0569787393254829,1
20,682,45,0.0630293149467158,1
20,683,45,0.0696829585035858,1
20,684,45,0.0716704915771457,1
20,685,45,0.0649984554743057,1
20,686,45,0.0617074693809811,1
20,687,45,0.0619657139355373,1
20,688,45,0.0619400740542045,1
20,689,45,0.0602635277382002,1
20,690,45,0.0575346140756769,1
21,683,45,0.0646232392808077,1
21,684,45,0.0651973473596772,1
21,687,45,0.0569745583972711,1
21,688,45,0.0589100510033143,1
21,689,45,0.0605434966080348,1
21,690,45,0.0584678927829324,1
22,689,45,0.0594303082550605,1
22,690,45,0.0581036684796838,1
23,689,45,0.0580914854081949,1
23,695,45,0.0574122172548523,1
25,696,45,0.0658683480075854,1
25,697,45,0.0672872925351479,1
25,698,45,0.0574012135707292,1
26,695,45,0.0635293810867592,1
26,696,45,0.0680874360996131,1
26,697,45,0.0707062067760427,1
26,698,45,0.0619352975353729,1
27,696,45,0.0634726938330212,1
27,697,45,0.0642072221813892,1
27,698,45,0.0604342204716549,1
27,699,45,0.0612903200696914,1
27,700,45,0.063394311748689,1
27,701,45,0.0620627244433127,1
27,702,45,0.0580531730096163,1
28,696,45,0.066044259530134,1
28,697,45,0.0643181671508917,1
28,698,45,0.0619736806971934,1
28,699,45,0.0647883299242748,1
28,700,45,0.0679310080563479,1
28,701,45,0.0662883042608058,1
28,702,45,0.0613641084402338,1
28,703,45,0.0597044391574343,1
29,695,45,0.0721025955202339,1
29,696,45,0.0738114275653775,1
29,697,45,0.0710736213221159,1
29,698,45,0.0666922326397246,1
29,699,45,0.0661809033503376,1
29,700,45,0.0674685348885899,1
29,701,45,0.0664090735270655,1
29,702,45,0.0626411313891306,1
29,703,45,0.0607114649566745,1
30,696,45,0.0755140737237873,1
30,697,45,0.0742147308689924,1
30,698,45,0.0712513019257131,1
30,699,45,0.0692094934455783,1
30,700,45,0.0682686548653078,1
30,701,45,0.0668867548949057,1
30,702,45,0.0635508813184381,1
30,703,45,0.061295338362933,1
31,697,45,0.0735476870656965,1
31,698,45,0.0723694790872448,1
31,699,45,0.0710697116529982,1
31,700,45,0.0693846855418337,1
31,701,45,0.0666927279824183,1
31,702,45,0.063083543177796,1
32,698,45,0.0722026429504762,1
32,699,45,0.0721533268677745,1
32,700,45,0.0713798728393977,1
32,701,45,0.0675863320986877,1
33,699,45,0.0725386798956818,1
33,700,45,0.072377233559175,1
4,687,46,0.0587465643266646,1
5,687,46,0.0569194574195401,1
7,686,46,0.0568962234884335,1
8,689,46,0.0578344084471309,1
9,686,46,0.0570145927014037,1
9,688,46,0.0575088444617337,1
9,689,46,0.0604493755993057,1
10,686,46,0.0592883689855844,1
10,688,46,0.0580129676943156,1
10,689,46,0.0613262736935384,1
10,690,46,0.0569424141946157,1
11,686,46,0.0593316407080362,1
11,688,46,0.0569200765979071,1
11,689,46,0.0592416357612139,1
12,685,46,0.0607970295100646,1
12,686,46,0.0625435252907355,1
12,687,46,0.058191574116995,1
13,684,46,0.0570734146462739,1
13,685,46,0.062099491844442,1
13,686,46,0.0640927567405998,1
13,687,46,0.0595328323987711,1
14,684,46,0.0568435107701182,1
14,685,46,0.0607918461025918,1
14,686,46,0.0606011981349074,1
15,684,46,0.0583763546325345,1
15,685,46,0.0599364305492275,1
16,684,46,0.0591017840073752,1
16,685,46,0.0608984332357776,1
16,686,46,0.0582647079275494,1
17,683,46,0.0575029121432837,1
17,684,46,0.0593422492973918,1
17,685,46,0.0616112726504882,1
17,686,46,0.0629128622382149,1
17,687,46,0.0615811393032915,1
17,688,46,0.0598205911221569,1
17,689,46,0.0574836173659789,1
18,682,46,0.0635238261722662,1
18,683,46,0.0630170139364903,1
18,684,46,0.0621432294249034,1
18,685,46,0.0629542351470078,1
18,686,46,0.0665891718747627,1
18,687,46,0.0656599856416665,1
18,688,46,0.06177375095094,1
18,689,46,0.05804531828976,1
19,682,46,0.066107952344825,1
19,683,46,0.0682562182255353,1
19,684,46,0.0671187816683199,1
19,685,46,0.0632176100366054,1
19,686,46,0.0637747939067754,1
19,687,46,0.0635769398822858,1
19,688,46,0.0606927598730526,1
19,689,46,0.057593919569367,1
20,683,46,0.0696661935121807,1
20,684,46,0.0687715161534083,1
20,685,46,0.0626670071479366,1
20,686,46,0.0605668189931938,1
20,687,46,0.0609339033108045,1
20,688,46,0.0597834463170705,1
20,689,46,0.058478259597878,1
20,690,46,0.0579769374102899,1
21,687,46,0.0568819175196861,1
21,688,46,0.0578854287445761,1
21,689,46,0.0592022737078797,1
21,690,46,0.0580334713436704,1
22,689,46,0.0591881977196687,1
22,690,46,0.0575156200421504,1
22,692,46,0.057238163267405,1
23,689,46,0.0582466102284209,1
24,695,46,0.0573979584615996,1
25,696,46,0.0645782220650544,1
25,697,46,0.0670835002952714,1
25,698,46,0.0587203878240803,1
25,704,46,0.0600894973385001,1
25,705,46,0.0591790161890258,1
26,696,46,0.0675276457833647,1
26,697,46,0.0711832453777686,1
26,698,46,0.0639431514532458,1
26,699,46,0.0594447557502918,1
26,700,46,0.059431293043511,1
26,701,46,0.0584036869347373,1
27,696,46,0.0670576422272759,1
27,697,46,0.0677674918950141,1
27,698,46,0.0635976499244296,1
27,699,46,0.066373379368439,1
27,700,46,0.0710388352917611,1
27,701,46,0.0685488890972997,1
27,702,46,0.0615124458861695,1
27,703,46,0.0600147890458124,1
28,695,46,0.070401470771526,1
28,696,46,0.0718545762541393,1
28,697,46,0.069389161316887,1
28,698,46,0.0651848163689154,1
28,699,46,0.0699114589087761,1
28,700,46,0.0754892653105473,1
28,701,46,0.0727956448149461,1
28,702,46,0.0660085594745707,1
28,703,46,0.0642722241160563,1
28,704,46,0.060505225488014,1
29,695,46,0.0762147477578195,1
29,696,46,0.0810987441600276,1
29,697,46,0.0779173762254189,1
29,698,46,0.0711925271563376,1
29,699,46,0.0705394649902635,1
29,700,46,0.071568108959919,1
29,701,46,0.069494114998571,1
29,702,46,0.0665454166034908,1
29,703,46,0.0664716754084431,1
29,704,46,0.0622230208771377,1
30,695,46,0.0760554479063185,1
30,696,46,0.0805284985747811,1
30,697,46,0.0793501549667823,1
30,698,46,0.0758411650158231,1
30,699,46,0.0734600290997321,1
30,700,46,0.0707008051819073,1
30,701,46,0.0677043415985114,1
30,702,46,0.0659565072131803,1
30,703,46,0.0661503041451314,1
31,696,46,0.0778481638778559,1
31,697,46,0.0770276404997093,1
31,698,46,0.0765150610597145,1
31,699,46,0.0751845764815252,1
31,700,46,0.072178223735067,1
31,701,46,0.0677043828770692,1
31,702,46,0.0651850345555781,1
32,698,46,0.0756294767775325,1
32,699,46,0.0755695344146649,1
32,700,46,0.074535412190695,1
32,701,46,0.0688191516091137,1
33,699,46,0.0768366623035624,1
33,700,46,0.0771614419963613,1
4,687,47,0.0592563604124761,1
5,687,47,0.05747022542244,1
9,689,47,0.0594812342015165,1
10,689,47,0.0600742950353547,1
10,690,47,0.0570044912486155,1
11,685,47,0.0586486162059335,1
11,686,47,0.0583806829841671,1
11,689,47,0.057022966351701,1
12,684,47,0.0574159912944229,1
12,685,47,0.0604889853239867,1
12,686,47,0.0612405558197907,1
13,684,47,0.0581576785241014,1
13,685,47,0.0620626477831339,1
13,686,47,0.0640638617501373,1
13,687,47,0.0584959327175547,1
14,684,47,0.0573838942672622,1
14,685,47,0.0603451413439147,1
14,686,47,0.0608089826010171,1
15,684,47,0.0575708566494284,1
15,685,47,0.0593455397881424,1
16,684,47,0.0581213651871079,1
16,685,47,0.0603280579179209,1
16,686,47,0.0577198014798575,1
17,683,47,0.057827709526893,1
17,684,47,0.0587834673573411,1
17,685,47,0.0610610943412711,1
17,686,47,0.0623951288754315,1
17,687,47,0.0621142636711989,1
17,688,47,0.0596238928972858,1
18,682,47,0.0635680414046107,1
18,683,47,0.0628410788261944,1
18,684,47,0.0606978017540415,1
18,685,47,0.0622013319434804,1
18,686,47,0.0664429396352749,1
18,687,47,0.0665979111351434,1
18,688,47,0.0615986826903581,1
19,683,47,0.0670145179282448,1
19,684,47,0.0634892111530795,1
19,685,47,0.0611313681374634,1
19,686,47,0.0632093189434237,1
19,687,47,0.0631409085792694,1
19,688,47,0.05890626516987,1
20,686,47,0.0598052708802749,1
20,687,47,0.0598007715174743,1
20,688,47,0.0577938139339994,1
20,689,47,0.0577211754661387,1
20,690,47,0.0593728956780925,1
20,691,47,0.0578239354873224,1
21,688,47,0.0570536481140228,1
21,689,47,0.0587804245379373,1
21,690,47,0.0590131117682762,1
21,691,47,0.0577808583637859,1
22,688,47,0.0574729380133814,1
22,689,47,0.0602203326759271,1
22,690,47,0.0591584830549869,1
22,691,47,0.0588616253580738,1
22,692,47,0.0598675484301269,1
22,693,47,0.0570888056513978,1
23,689,47,0.0603160930330946,1
23,692,47,0.0619723774741542,1
23,693,47,0.0609590832310647,1
24,694,47,0.0604064694869372,1
24,695,47,0.0580172547673904,1
25,695,47,0.0620807336883887,1
25,696,47,0.0632879958745973,1
25,697,47,0.0646378400963965,1
25,698,47,0.0586120434037195,1
25,704,47,0.0581208934321616,1
25,705,47,0.0581232993823879,1
26,696,47,0.0674340731897607,1
26,697,47,0.0695893387344872,1
26,698,47,0.0642373437347122,1
26,699,47,0.06089876346424,1
26,700,47,0.0629601792593315,1
26,701,47,0.0614159719996456,1
26,702,47,0.0577539978165294,1
26,703,47,0.0582344684354898,1
26,704,47,0.0585801645632214,1
26,705,47,0.0583065290035413,1
27,696,47,0.0708797005544913,1
27,697,47,0.0699492287891664,1
27,698,47,0.0655028735537291,1
27,699,47,0.0698362965519525,1
27,700,47,0.0782087025955863,1
27,701,47,0.0750358793224429,1
27,702,47,0.0666680964772832,1
27,703,47,0.0631363738348478,1
28,695,47,0.0745027254698514,1
28,696,47,0.0769889683879841,1
28,697,47,0.0733748596411096,1
28,698,47,0.0677842274017351,1
28,699,47,0.0736765469292857,1
28,700,47,0.0823361102087487,1
28,701,47,0.0796884386449198,1
28,702,47,0.0731178298555401,1
28,703,47,0.0699021240577756,1
28,704,47,0.0650829644760034,1
29,695,47,0.0792342270856593,1
29,696,47,0.0850444494586754,1
29,697,47,0.0809619529164032,1
29,698,47,0.0741631208778643,1
29,699,47,0.0743019170800105,1
29,700,47,0.076412985083203,1
29,701,47,0.0744991342353225,1
29,702,47,0.0735002108272855,1
29,703,47,0.0734503581233324,1
29,704,47,0.0686923320856673,1
30,695,47,0.0777738506799357,1
30,696,47,0.0830961133242184,1
30,697,47,0.0815200802964659,1
30,698,47,0.0791972591886777,1
30,699,47,0.0774170683109654,1
30,700,47,0.0738641874591873,1
30,701,47,0.0705647746431339,1
30,702,47,0.071331146450379,1
30,703,47,0.0726967944628801,1
30,704,47,0.069216782059499,1
31,696,47,0.0795549260981724,1
31,697,47,0.0785405763033905,1
31,698,47,0.0792465457866953,1
31,699,47,0.0785241179527005,1
31,700,47,0.074245589539419,1
31,701,47,0.0691908650221352,1
31,702,47,0.0685583713717209,1
31,703,47,0.0691103718344182,1
32,698,47,0.0771250873808099,1
32,699,47,0.0778664738667102,1
32,700,47,0.0754453036464865,1
33,699,47,0.0793723805216912,1
4,687,48,0.0591382624586,1
5,687,48,0.057489685313976,1
9,689,48,0.05723967878017,1
10,689,48,0.057004957106625,1
11,684,48,0.059445646187753,1
11,685,48,0.0602112808778944,1
12,684,48,0.059804751949834,1
12,685,48,0.0609746983197881,1
12,686,48,0.0584574139261871,1
13,683,48,0.0574630901288768,1
13,684,48,0.0610292803670782,1
13,685,48,0.062725062491019,1
13,686,48,0.0629975540449543,1
14,683,48,0.0581138642834613,1
14,684,48,0.0600458128304702,1
14,685,48,0.0610484807933937,1
14,686,48,0.0615867295994055,1
15,684,48,0.0587175867790865,1
15,685,48,0.0591547090154163,1
15,686,48,0.0573824966932337,1
16,684,48,0.0584154218390272,1
16,685,48,0.0591039010076969,1
17,683,48,0.0587036169357384,1
17,684,48,0.0593998564732751,1
17,685,48,0.0609309607393268,1
17,686,48,0.0624922514250066,1
17,687,48,0.0630323695599932,1
17,688,48,0.0611371884141137,1
18,683,48,0.0620557955425385,1
18,684,48,0.0590074978844149,1
18,685,48,0.0607648735135355,1
18,686,48,0.065666419199747,1
18,687,48,0.0668670886105807,1
18,688,48,0.0626690356942058,1
19,685,48,0.0577000172567959,1
19,686,48,0.0613249999551833,1
19,687,48,0.061721551266129,1
19,688,48,0.0575909003377105,1
20,686,48,0.0577413311962205,1
20,687,48,0.0580005782300377,1
20,689,48,0.0571335339172464,1
20,690,48,0.0600807109026248,1
20,691,48,0.0583516641580311,1
21,688,48,0.0574204316878552,1
21,689,48,0.0595810280634752,1
21,690,48,0.0605505847261033,1
21,691,48,0.0589315748227404,1
22,689,48,0.0622307812460048,1
22,690,48,0.0613443183202354,1
22,691,48,0.0605921817184957,1
22,692,48,0.0599355931841978,1
23,691,48,0.0627541166987759,1
23,692,48,0.0628720495384208,1
23,693,48,0.0601356349722509,1
24,692,48,0.0702920295209149,1
24,693,48,0.0657922185531219,1
24,694,48,0.0616393715544788,1
24,695,48,0.0593416772945193,1
24,696,48,0.0576515562299345,1
25,694,48,0.0659907743130941,1
25,695,48,0.0637559826782906,1
25,696,48,0.0644068924624221,1
25,697,48,0.0635287560114553,1
25,698,48,0.0586511695795805,1
26,695,48,0.0692137097554111,1
26,696,48,0.0698184524211077,1
26,697,48,0.0689772956609961,1
26,698,48,0.0641576761181512,1
26,699,48,0.0619131545375797,1
26,700,48,0.0649622011066805,1
26,701,48,0.0634225521791635,1
26,702,48,0.0594753549554979,1
26,703,48,0.0581320858182632,1
26,704,48,0.057687592410897,1
26,705,48,0.0572081950344395,1
27,696,48,0.075356442705409,1
27,697,48,0.0716470394593764,1
27,698,48,0.066784101018585,1
27,699,48,0.0718961909373422,1
27,700,48,0.0827434647079653,1
27,701,48,0.0807092161008454,1
27,702,48,0.0722037987500947,1
27,703,48,0.06590324607974,1
27,704,48,0.061643192769544,1
28,695,48,0.0782573287366789,1
28,696,48,0.0809262941393977,1
28,697,48,0.0759196591419551,1
28,698,48,0.0703661835015407,1
28,699,48,0.0764837542220888,1
28,700,48,0.0873766172113376,1
28,701,48,0.0864767859297766,1
28,702,48,0.0809204266872528,1
28,703,48,0.0754581707626475,1
28,704,48,0.0691935953038871,1
29,695,48,0.0795304597072685,1
29,696,48,0.0839024604662279,1
29,697,48,0.0797694035875832,1
29,698,48,0.076196237273113,1
29,699,48,0.0779578351090032,1
29,700,48,0.081035487718662,1
29,701,48,0.0802671286437055,1
29,702,48,0.0811773739157066,1
29,703,48,0.0807970627687883,1
29,704,48,0.0753492012669828,1
30,696,48,0.0815677747215396,1
30,697,48,0.0804895964825196,1
30,698,48,0.0815071954894944,1
30,699,48,0.0816098139841941,1
30,700,48,0.0774130348061743,1
30,701,48,0.0744192366382252,1
30,702,48,0.0770251166107464,1
30,703,48,0.0793247627567963,1
30,704,48,0.0757524102196085,1
31,697,48,0.0784980888735369,1
31,698,48,0.0813036214362806,1
31,699,48,0.0826140269445668,1
31,700,48,0.077221278214366,1
31,701,48,0.0723839855518443,1
31,702,48,0.0725614361749052,1
31,703,48,0.0735837232466591,1
32,698,48,0.0789291018833118,1
32,699,48,0.0809791896627546,1
32,700,48,0.0770123261547641,1
11,684,49,0.0594395900336295,1
11,685,49,0.0593006758927467,1
12,684,49,0.0609482151764887,1
12,685,49,0.060896622876171,1
13,683,49,0.0582489807970262,1
13,684,49,0.0622472808752526,1
13,685,49,0.0628028018092368,1
13,686,49,0.0601919153373477,1
14,683,49,0.059163000108598,1
14,684,49,0.0619518089584943,1
14,685,49,0.062979621460057,1
14,686,49,0.0631208236124295,1
15,684,49,0.0592949558640225,1
15,685,49,0.0600797261141743,1
15,686,49,0.059832007591858,1
16,684,49,0.058314024010251,1
16,685,49,0.058685790495704,1
16,686,49,0.057683317131696,1
17,683,49,0.0570220287387452,1
17,684,49,0.0587147621463454,1
17,685,49,0.0605437855579394,1
17,686,49,0.0621772193687862,1
17,687,49,0.0617770001631329,1
17,688,49,0.0599334820808129,1
18,684,49,0.0580592763392345,1
18,685,49,0.060439462848496,1
18,686,49,0.0645802329205132,1
18,687,49,0.0650180038198942,1
18,688,49,0.0622295134045866,1
19,685,49,0.0572395195628756,1
19,686,49,0.0604260826988308,1
19,687,49,0.0605589760672111,1
19,688,49,0.0577347325239088,1
20,686,49,0.0569548744221356,1
20,687,49,0.0571018555726006,1
20,689,49,0.056847385057615,1
20,690,49,0.0587120731431513,1
21,688,49,0.0570510947403758,1
21,689,49,0.0592118857149111,1
21,690,49,0.060975671314365,1
21,691,49,0.0579538567995408,1
22,689,49,0.0624075596182672,1
22,690,49,0.0631901126201713,1
22,691,49,0.0611290388474159,1
22,692,49,0.0580552841130012,1
23,690,49,0.0660588603457228,1
23,691,49,0.0640330797398894,1
23,692,49,0.0619705140421162,1
23,693,49,0.057910585077089,1
24,691,49,0.072321513403077,1
24,692,49,0.0695291487002727,1
24,693,49,0.065125174749826,1
24,694,49,0.0623241769315039,1
24,695,49,0.059859711401081,1
24,696,49,0.0570753370476802,1
25,692,49,0.0816210358549799,1
25,693,49,0.0720302990747093,1
25,694,49,0.0666170113135328,1
25,695,49,0.0647967153684458,1
25,696,49,0.064231794717156,1
25,697,49,0.0611087887663448,1
26,694,49,0.0724481206367975,1
26,695,49,0.0704020014958406,1
26,696,49,0.0701556215781845,1
26,697,49,0.0666917137092837,1
26,698,49,0.061329528802668,1
26,699,49,0.0597485187602318,1
26,700,49,0.062418227176991,1
26,701,49,0.0627461263493725,1
26,702,49,0.0598298964884732,1
26,703,49,0.0569944782498797,1
27,695,49,0.0749853838523754,1
27,696,49,0.0759766648302819,1
27,697,49,0.0706198579300544,1
27,698,49,0.0656830721493523,1
27,699,49,0.069274230018088,1
27,700,49,0.0791149674352278,1
27,701,49,0.0813776574781698,1
27,702,49,0.0746934677885251,1
27,703,49,0.067198614399112,1
27,704,49,0.0619244648624179,1
27,705,49,0.0588951848255681,1
28,695,49,0.0790133396259153,1
28,696,49,0.0810625782464548,1
28,697,49,0.075259833189338,1
28,698,49,0.0712667577971422,1
28,699,49,0.0757649471073072,1
28,700,49,0.0861074489822972,1
28,701,49,0.0895601585681596,1
28,702,49,0.0851487898589292,1
28,703,49,0.0787672545551006,1
28,704,49,0.0717860538481853,1
29,696,49,0.0813168246778409,1
29,697,49,0.0771779534194827,1
29,698,49,0.076954435925913,1
29,699,49,0.0791392569180268,1
29,700,49,0.0817379721123007,1
29,701,49,0.0834259584857534,1
29,702,49,0.084796147139613,1
29,703,49,0.0852181083513552,1
29,704,49,0.0807008601413585,1
30,696,49,0.0803163385815442,1
30,697,49,0.0789459081532747,1
30,698,49,0.0820392996873303,1
30,699,49,0.0835401349766382,1
30,700,49,0.0795924836888369,1
30,701,49,0.0774371473808684,1
30,702,49,0.0802647934567211,1
30,703,49,0.0840691255918284,1
30,704,49,0.0833411605341511,1
31,697,49,0.0785441203624248,1
31,698,49,0.0817599146142417,1
31,699,49,0.0841328596850772,1
31,700,49,0.0789071888660549,1
31,701,49,0.0745710355860796,1
31,702,49,0.074975736463723,1
31,703,49,0.076863452087577,1
32,698,49,0.0806739642124811,1
32,699,49,0.0831480063683144,1
32,700,49,0.078927026161548,1
11,684,50,0.058112390049254,1
12,684,50,0.0607141067843739,1
12,685,50,0.058703664111233,1
13,683,50,0.0589732838569326,1
13,684,50,0.0631420289972669,1
13,685,50,0.0618530470604808,1
14,683,50,0.0598920266149045,1
14,684,50,0.0633029328155854,1
14,685,50,0.0634516063869204,1
14,686,50,0.0605637643799163,1
15,683,50,0.0575955707116791,1
15,684,50,0.0609340389403516,1
15,685,50,0.0615188853411869,1
15,686,50,0.0605981906971245,1
16,684,50,0.0593457992533629,1
16,685,50,0.060172101629602,1
16,686,50,0.0592282556115487,1
17,684,50,0.0588007512791871,1
17,685,50,0.0614786682320125,1
17,686,50,0.0617365000009907,1
17,687,50,0.0600558906955111,1
18,684,50,0.0574688868177798,1
18,685,50,0.0606261952501259,1
18,686,50,0.0623437665556501,1
18,687,50,0.0617427448570927,1
18,688,50,0.0593027044390159,1
19,685,50,0.0572803440565434,1
19,686,50,0.0590625988621459,1
19,687,50,0.0590197988946404,1
19,688,50,0.0571896727558594,1
21,689,50,0.0579136278964928,1
21,690,50,0.0593214508011956,1
22,689,50,0.0612251530207932,1
22,690,50,0.063165003463153,1
22,691,50,0.0606770622272136,1
23,690,50,0.0669796375469007,1
23,691,50,0.0643278617150387,1
23,692,50,0.0613423074647767,1
24,691,50,0.069358001902682,1
24,692,50,0.0674521119195209,1
24,693,50,0.0637751123413641,1
24,694,50,0.0613392469545624,1
24,695,50,0.0589518249038115,1
25,692,50,0.0743436673927604,1
25,693,50,0.0697096303488637,1
25,694,50,0.0663686441281652,1
25,695,50,0.0655193378013559,1
25,696,50,0.0629030733230786,1
25,697,50,0.0580863255884695,1
26,693,50,0.0769761307565072,1
26,694,50,0.072011092751457,1
26,695,50,0.0711251723438758,1
26,696,50,0.0697299452962399,1
26,697,50,0.0647522465678177,1
26,698,50,0.0584463276849485,1
26,700,50,0.0572556712728505,1
26,701,50,0.0591065074537753,1
26,702,50,0.0573597404140103,1
27,694,50,0.0755677417458688,1
27,695,50,0.0750645974048006,1
27,696,50,0.0752557466121154,1
27,697,50,0.06987820018506,1
27,698,50,0.0646258457268861,1
27,699,50,0.0658109413275543,1
27,700,50,0.0721498535719822,1
27,701,50,0.0789040399017882,1
27,702,50,0.0742971995305472,1
27,703,50,0.0665835874755855,1
27,704,50,0.0605891978684602,1
27,705,50,0.0588921420061643,1
28,695,50,0.078446125066199,1
28,696,50,0.0788352108551191,1
28,697,50,0.0740138104373518,1
28,698,50,0.0719549244281599,1
28,699,50,0.0750320345196303,1
28,700,50,0.0827223890557381,1
28,701,50,0.0909589001901455,1
28,702,50,0.0870300660277658,1
28,703,50,0.0799488414783555,1
29,696,50,0.0781633610483074,1
29,697,50,0.0753643563946336,1
29,698,50,0.0778576992247085,1
29,699,50,0.0806072698569441,1
29,700,50,0.0817643255229899,1
29,701,50,0.0858021173871607,1
29,702,50,0.0862314497699393,1
29,703,50,0.0878649425501544,1
29,704,50,0.0859569591544189,1
30,697,50,0.0774637543598413,1
30,698,50,0.0813999773840679,1
30,699,50,0.0834556849443089,1
30,700,50,0.0802878622735965,1
30,701,50,0.0792862852439865,1
30,702,50,0.0814876648347164,1
30,703,50,0.0873753729576667,1
31,698,50,0.0817202164355083,1
31,699,50,0.083192251085343,1
31,700,50,0.0789274861226206,1
31,701,50,0.075221603347875,1
31,702,50,0.0752908982525536,1
32,699,50,0.0830997635281156,1
10,682,51,0.0588870175680598,1
10,683,51,0.0598379281164344,1
12,684,51,0.0589808909054421,1
13,683,51,0.0580809711698287,1
13,684,51,0.0619925626889202,1
13,685,51,0.0590683129939333,1
14,683,51,0.0586467291861482,1
14,684,51,0.0630090766595183,1
14,685,51,0.062527980965254,1
14,686,51,0.0578495753686553,1
15,683,51,0.0569338695331504,1
15,684,51,0.0611868170344673,1
15,685,51,0.062946946533087,1
15,686,51,0.0626610512417392,1
15,687,51,0.0571487539112023,1
16,684,51,0.0599407530039232,1
16,685,51,0.0633631936130419,1
16,686,51,0.0647949875659549,1
16,687,51,0.0618689334082983,1
17,684,51,0.059381505205863,1
17,685,51,0.0631573492391489,1
17,686,51,0.0639281496459526,1
17,687,51,0.0617543736165196,1
18,684,51,0.0589440763288181,1
18,685,51,0.0615519376721139,1
18,686,51,0.0611744275701894,1
18,687,51,0.0599635210770203,1
19,685,51,0.0589658301287806,1
19,686,51,0.058379303100949,1
19,687,51,0.0581179508606839,1
21,689,51,0.0572078648059771,1
22,688,51,0.057962961670005,1
22,689,51,0.061222434532915,1
22,690,51,0.0626019639347118,1
22,691,51,0.0602515982349949,1
23,689,51,0.0663444843779765,1
23,690,51,0.0680056986582251,1
23,691,51,0.0661267163978151,1
23,692,51,0.0602131914854271,1
24,690,51,0.071367164940531,1
24,691,51,0.0698451242663857,1
24,692,51,0.0659795760300557,1
24,693,51,0.0615061361637624,1
24,694,51,0.0578078427467158,1
25,691,51,0.0696491159831236,1
25,692,51,0.0684183368128406,1
25,693,51,0.0669376808413617,1
25,694,51,0.0650891621566108,1
25,695,51,0.0645532308467728,1
25,696,51,0.0601879113172408,1
26,693,51,0.0731718281060841,1
26,694,51,0.0716186103269233,1
26,695,51,0.0717676554052785,1
26,696,51,0.0686346954250998,1
26,697,51,0.0620684031934791,1
27,694,51,0.0750329013693442,1
27,695,51,0.0758019975614043,1
27,696,51,0.0739571113897401,1
27,697,51,0.0685201828088157,1
27,698,51,0.0632383613573069,1
27,699,51,0.0627509854253196,1
27,700,51,0.0659275296656022,1
27,701,51,0.0739095820788976,1
27,702,51,0.0715703438989773,1
27,703,51,0.0642895729042074,1
27,704,51,0.0585155164447641,1
27,705,51,0.0572745178829563,1
28,696,51,0.0767079616572676,1
28,697,51,0.0727371236138542,1
28,698,51,0.0720121365092757,1
28,699,51,0.0744576551816667,1
28,700,51,0.0790876646177091,1
28,701,51,0.0884118657502418,1
28,702,51,0.0860912029213331,1
28,703,51,0.0790031497190746,1
28,704,51,0.0737748783509108,1
29,697,51,0.0744666303195206,1
29,698,51,0.0792273276695692,1
29,699,51,0.082860129706192,1
29,700,51,0.0828494798382786,1
29,701,51,0.0866658240337067,1
29,702,51,0.086685861825052,1
29,703,51,0.0884760126290686,1
30,697,51,0.0765042224898226,1
30,698,51,0.0814420343375329,1
30,699,51,0.083708999659676,1
30,700,51,0.0818789501810737,1
30,701,51,0.0809634153567368,1
30,702,51,0.0825217339862548,1
31,698,51,0.0824111192452147,1
31,699,51,0.0823043611008609,1
31,700,51,0.0794670558424822,1
31,701,51,0.0759351975704998,1
10,682,52,0.0608804652692593,1
10,683,52,0.0608545246441482,1
13,684,52,0.0594448206165969,1
14,683,52,0.057029452982213,1
14,684,52,0.0613042427375449,1
14,685,52,0.0590469365979279,1
15,684,52,0.0607793092148932,1
15,685,52,0.0623877930860161,1
15,686,52,0.06203914848987,1
15,687,52,0.0570342766765392,1
16,684,52,0.061086079662616,1
16,685,52,0.066329010815737,1
16,686,52,0.0701001431964964,1
16,687,52,0.0671969986384209,1
17,684,52,0.0616398256186146,1
17,685,52,0.0653119248422664,1
17,686,52,0.0673605560783125,1
17,687,52,0.0647503123725377,1
18,684,52,0.0612501560329485,1
18,685,52,0.0618432463514708,1
18,686,52,0.0602890437838596,1
18,687,52,0.0586556217668864,1
19,685,52,0.0588083524307598,1
22,688,52,0.0577109501776771,1
22,689,52,0.0605288427200145,1
22,690,52,0.061611968489034,1
22,691,52,0.0590421659760332,1
23,689,52,0.0661954275057476,1
23,690,52,0.0682929207603595,1
23,691,52,0.0676417633048812,1
23,692,52,0.0600825743346628,1
24,690,52,0.0702246216360216,1
24,691,52,0.070150909925658,1
24,692,52,0.0651653623743162,1
24,693,52,0.0588535347607443,1
25,691,52,0.0669960782067802,1
25,692,52,0.0646697425246419,1
25,693,52,0.0636552806880603,1
25,694,52,0.0635549973803448,1
25,695,52,0.063122669353657,1
25,696,52,0.0576713758346171,1
26,692,52,0.0673171841079345,1
26,693,52,0.0687096042136397,1
26,694,52,0.071162393809141,1
26,695,52,0.0725755239569899,1
26,696,52,0.0675369924282388,1
26,697,52,0.0592300128987237,1
27,694,52,0.07440513116533,1
27,695,52,0.0769237777513385,1
27,696,52,0.0731340995042516,1
27,697,52,0.0681566366533025,1
27,698,52,0.0634600979759543,1
27,699,52,0.0611558876007987,1
27,700,52,0.0610494243032863,1
27,701,52,0.0665301966095349,1
27,702,52,0.0662938061028673,1
27,703,52,0.060233931012255,1
28,695,52,0.0790955547191865,1
28,696,52,0.0748795161454828,1
28,697,52,0.0726363331695715,1
28,698,52,0.0727708894741376,1
28,699,52,0.0736274254454994,1
28,700,52,0.0746718673089201,1
28,701,52,0.0812617001123626,1
28,702,52,0.0813495055017477,1
28,703,52,0.0752543372442133,1
28,704,52,0.0731511593424981,1
28,705,52,0.0740533729865381,1
29,697,52,0.0744129151219444,1
29,698,52,0.0799007047830196,1
29,699,52,0.0831994748329587,1
29,700,52,0.0821831613582127,1
29,701,52,0.0843742684849863,1
29,702,52,0.0851868781739083,1
29,703,52,0.0859945167450833,1
29,704,52,0.0911107463134946,1
30,697,52,0.0761672774163454,1
30,698,52,0.0816045775042899,1
30,699,52,0.0837104326153254,1
30,700,52,0.0823776010562782,1
30,701,52,0.0811255457379158,1
31,698,52,0.0847554877601764,1
31,699,52,0.0840327768732139,1
31,700,52,0.0814284772797629,1
10,682,53,0.0577013558614561,1
10,683,53,0.0573668049443315,1
14,684,53,0.0584607869740534,1
15,684,53,0.0596314291825534,1
15,685,53,0.0606620486260467,1
15,686,53,0.0596719942110007,1
16,684,53,0.060821165672506,1
16,685,53,0.0649185460833348,1
16,686,53,0.0694012500373866,1
16,687,53,0.0650252393613834,1
17,684,53,0.0631938984536156,1
17,685,53,0.0649925408466662,1
17,686,53,0.0679899892185125,1
17,687,53,0.0643651716343563,1
18,684,53,0.0634953498643186,1
18,685,53,0.0617589083609412,1
18,686,53,0.0597497099414713,1
18,687,53,0.0572036367022706,1
19,685,53,0.0588730949002064,1
20,688,53,0.0570393657330227,1
22,688,53,0.0575629075785828,1
22,689,53,0.0597793833275952,1
22,690,53,0.0609164483777904,1
23,689,53,0.0644295956692141,1
23,690,53,0.0673972880978208,1
23,691,53,0.0657961164283659,1
23,692,53,0.0586352773348261,1
24,690,53,0.0685720817498485,1
24,691,53,0.0678915929305823,1
24,692,53,0.0633678580900737,1
25,691,53,0.064364906272199,1
25,692,53,0.0622665402709364,1
25,693,53,0.0611258309137808,1
25,694,53,0.061975591304726,1
25,695,53,0.0613643738023911,1
26,693,53,0.0657825711644695,1
26,694,53,0.0698928894547013,1
26,695,53,0.0717159274754138,1
26,696,53,0.0651139469821034,1
27,694,53,0.0724853833806205,1
27,695,53,0.0756147108477125,1
27,696,53,0.0708915416036441,1
27,697,53,0.066339566332661,1
27,698,53,0.062873700680733,1
27,699,53,0.0585141955309144,1
27,701,53,0.0581851995282828,1
27,702,53,0.0585777704068688,1
28,695,53,0.0778862580897718,1
28,696,53,0.0735366597938261,1
28,697,53,0.0723524782183665,1
28,698,53,0.0736653250585,1
28,699,53,0.072175634979799,1
28,700,53,0.0712205376062758,1
28,701,53,0.0729868058161346,1
28,702,53,0.0733560484126248,1
28,703,53,0.0685986238625163,1
28,704,53,0.0693326037957592,1
28,705,53,0.07210197044493,1
29,697,53,0.0736405284391337,1
29,698,53,0.0784909535799737,1
29,699,53,0.0805409293176168,1
29,700,53,0.0802630951389144,1
29,701,53,0.0805289290511697,1
29,702,53,0.0802534536471988,1
30,698,53,0.0810438967505802,1
30,699,53,0.0830590746639949,1
30,700,53,0.0817818099406881,1
15,684,54,0.0588863806988823,1
15,685,54,0.0604123546298927,1
15,686,54,0.0570523566848572,1
16,684,54,0.0597834109354495,1
16,685,54,0.0631626741731056,1
16,686,54,0.0652684054484677,1
16,687,54,0.0593249653755457,1
17,683,54,0.0586862386629031,1
17,684,54,0.0631055918246,1
17,685,54,0.0629507028818472,1
17,686,54,0.06418280296598,1
17,687,54,0.0602951824950987,1
18,684,54,0.0632259070267239,1
18,685,54,0.05968516207094,1
20,688,54,0.0569381035337936,1
22,689,54,0.0594021857633226,1
22,690,54,0.0606158166413067,1
23,689,54,0.0632008509421371,1
23,690,54,0.0664410997909843,1
23,691,54,0.0641558952432288,1
23,692,54,0.0573758449484905,1
24,690,54,0.0663968668678293,1
24,691,54,0.0654589118896682,1
24,692,54,0.0614137724422084,1
25,691,54,0.0622607258912229,1
25,692,54,0.0604848397773958,1
25,693,54,0.0590795820402137,1
25,694,54,0.0603353406349048,1
25,695,54,0.0597397677059774,1
26,693,54,0.0630211358953338,1
26,694,54,0.0675829000814532,1
26,695,54,0.0690690755858041,1
26,696,54,0.0625965977221973,1
27,694,54,0.0700684176763559,1
27,695,54,0.0719690711796129,1
27,696,54,0.067618547064585,1
27,697,54,0.0640309686365046,1
27,698,54,0.0626710937251592,1
28,695,54,0.074164683566124,1
28,696,54,0.0714222482274516,1
28,697,54,0.0721580974896693,1
28,698,54,0.0753259496450657,1
28,699,54,0.071838784257311,1
28,700,54,0.0702680525757678,1
28,701,54,0.0692760639654419,1
28,702,54,0.0673633748141168,1
28,703,54,0.0633601331028276,1
28,704,54,0.0645772195857935,1
28,705,54,0.0680554805989363,1
28,706,54,0.0707439294809384,1
29,698,54,0.0770840918759741,1
29,699,54,0.0775796881379011,1
29,700,54,0.0790327877235776,1
29,701,54,0.0792146964308813,1
15,685,55,0.0590894535124656,1
16,684,55,0.0579559148304942,1
16,685,55,0.0606778877983697,1
16,686,55,0.0587222925346761,1
17,683,55,0.0604236472639204,1
17,684,55,0.062769260032553,1
17,685,55,0.0606676919945922,1
17,686,55,0.057551756471039,1
18,683,55,0.0611259252647701,1
18,684,55,0.0644264290141369,1
18,685,55,0.0592574926243473,1
19,684,55,0.0602277864040791,1
19,685,55,0.0570662793527107,1
22,689,55,0.0582264309105918,1
22,690,55,0.0584501901785715,1
23,689,55,0.0613883684383487,1
23,690,55,0.0635541777061255,1
23,691,55,0.0607303056698434,1
24,690,55,0.063662156516403,1
24,691,55,0.0621898506074741,1
24,692,55,0.0590376960979167,1
25,691,55,0.0605190066293836,1
25,692,55,0.0586544011009628,1
25,693,55,0.0574103420289407,1
25,694,55,0.0586025493354247,1
25,695,55,0.0582929424610871,1
26,693,55,0.06045146901188,1
26,694,55,0.0646093991700698,1
26,695,55,0.0653680341961951,1
26,696,55,0.0601780516388625,1
27,695,55,0.0680671447399842,1
27,696,55,0.0643263756869578,1
27,697,55,0.0612744750004317,1
27,698,55,0.0606786956787153,1
28,696,55,0.0692694947778143,1
28,697,55,0.0705997021999726,1
28,698,55,0.0740070112691878,1
28,699,55,0.0694434603112092,1
28,700,55,0.0685668747546285,1
28,701,55,0.0670859003485609,1
28,702,55,0.0626666533317269,1
28,703,55,0.0583339910383543,1
28,704,55,0.0584345691929113,1
28,705,55,0.0626330054101801,1
28,706,55,0.0659658833427385,1
28,707,55,0.0655713251964411,1
29,698,55,0.0756397197568047,1
29,699,55,0.0742970580040633,1
29,700,55,0.0766671135758525,1
11,681,56,0.0568444955585687,1
12,681,56,0.0626818615318091,1
12,682,56,0.0610424364331439,1
13,681,56,0.0579811596170595,1
13,682,56,0.0591699584940563,1
15,685,56,0.0568442066086641,1
16,685,56,0.0587250699919226,1
17,683,56,0.0620256798861523,1
17,684,56,0.0622376040019161,1
17,685,56,0.0585801822540319,1
18,683,56,0.0633053151780644,1
18,684,56,0.0656055805024813,1
18,685,56,0.0592748355155616,1
19,684,56,0.0625727505096605,1
19,685,56,0.0587520838595367,1
23,689,56,0.0598625655185063,1
23,690,56,0.0615733081711825,1
23,691,56,0.0582786659770238,1
24,690,56,0.0619138857577465,1
24,691,56,0.0595175593323837,1
24,692,56,0.0585532509435335,1
24,693,56,0.0577387188532052,1
25,692,56,0.0578333057199438,1
25,693,56,0.0577890079304837,1
25,694,56,0.0593091438940333,1
25,695,56,0.0597228611880884,1
26,693,56,0.0593577051688208,1
26,694,56,0.0629437503933257,1
26,695,56,0.064152368875005,1
26,696,56,0.0605120718316726,1
27,695,56,0.0667564738695407,1
27,696,56,0.0636655944305743,1
27,697,56,0.0606996357013953,1
27,698,56,0.0586239257314301,1
28,696,56,0.0698565820146446,1
28,697,56,0.0701509217195317,1
28,698,56,0.0706271642347856,1
28,699,56,0.0654226516251062,1
28,700,56,0.064218856837753,1
28,701,56,0.0631456909950378,1
28,702,56,0.0582236593502821,1
28,705,56,0.0593088490471918,1
28,706,56,0.0635564362329311,1
28,707,56,0.0645655023723141,1
29,699,56,0.0720852113504618,1
11,681,57,0.0627519879045806,1
11,682,57,0.0579955599367962,1
12,680,57,0.0612411867920315,1
12,681,57,0.0712216403334628,1
12,682,57,0.0663308683508381,1
13,681,57,0.0648850868637665,1
13,682,57,0.0637448728493046,1
13,683,57,0.0570255138284112,1
14,682,57,0.0575181616219237,1
17,683,57,0.0612918591702038,1
17,684,57,0.0604549305137987,1
18,684,57,0.0655811789778825,1
18,685,57,0.0592338164229785,1
19,685,57,0.0595518205353607,1
23,690,57,0.0594697056900157,1
23,691,57,0.0568533763454333,1
24,691,57,0.0583992524382419,1
24,692,57,0.0597173298613427,1
24,693,57,0.0616333389881026,1
24,694,57,0.0579759880034604,1
25,692,57,0.0586355132122993,1
25,693,57,0.0606079324367662,1
25,694,57,0.0615758615448295,1
25,695,57,0.0608961629150984,1
26,694,57,0.0628798806705298,1
26,695,57,0.0638672224946345,1
26,696,57,0.0613163078702972,1
27,695,57,0.0671533554089488,1
27,696,57,0.0654380603210406,1
27,697,57,0.0618883579182134,1
27,698,57,0.0569236796263097,1
28,697,57,0.070187482727872,1
28,699,57,0.060409653832825,1
28,700,57,0.0584048073527349,1
28,701,57,0.0576661275608392,1
28,706,57,0.0607791676884093,1
11,680,58,0.0580970285288143,1
11,681,58,0.0650015926446988,1
11,682,58,0.0589491653853016,1
12,680,58,0.0645637097035181,1
12,681,58,0.0764032669313086,1
12,682,58,0.0701107105072941,1
13,680,58,0.0607319509152187,1
13,681,58,0.0718421808929246,1
13,682,58,0.0689366126938123,1
13,683,58,0.0574590389332753,1
14,681,58,0.0595861878832006,1
14,682,58,0.0604410550214399,1
17,683,58,0.0604205867537061,1
17,684,58,0.0603277925557636,1
18,684,58,0.0659083764147813,1
18,685,58,0.06094596254662,1
19,685,58,0.0601973051376095,1
23,690,58,0.0580447462868876,1
23,693,58,0.0574588502312967,1
24,692,58,0.0615496437636874,1
24,693,58,0.068685957496955,1
24,694,58,0.0664128475666361,1
25,693,58,0.0678155991056658,1
25,694,58,0.0690144994354508,1
25,695,58,0.0647909363703533,1
26,694,58,0.0665208676554713,1
26,695,58,0.0667761460508025,1
26,696,58,0.0642664333240901,1
26,697,58,0.0583413916940748,1
27,696,58,0.0700664245117077,1
27,697,58,0.0651220906518644,1
11,680,59,0.0571920787060856,1
11,681,59,0.0622450754208785,1
12,680,59,0.0638231075102161,1
12,681,59,0.0732924912274809,1
12,682,59,0.0674233230739213,1
13,680,59,0.0627182869106023,1
13,681,59,0.0713768595046781,1
13,682,59,0.0674528549335613,1
14,681,59,0.0613482338862899,1
14,682,59,0.0600276148834157,1
17,683,59,0.0586320929889384,1
17,684,59,0.0599037792100048,1
17,685,59,0.0587176693362021,1
18,684,59,0.0650474944009764,1
18,685,59,0.0650473764622398,1
18,686,59,0.057503177505441,1
19,685,59,0.0614506047096429,1
23,693,59,0.058392966303582,1
24,692,59,0.063158381203094,1
24,693,59,0.0722232645385675,1
24,694,59,0.0734140153016547,1
24,695,59,0.0604215361605356,1
25,693,59,0.0736561553217307,1
25,694,59,0.0759690754725829,1
25,695,59,0.0665560428836568,1
25,696,59,0.0570174586127027,1
26,695,59,0.0700418991514355,1
26,696,59,0.0685389940373005,1
26,697,59,0.0603918863621589,1
27,696,59,0.076675823351549,1
27,697,59,0.0686295356053743,1
1,680,60,0.0635030394699437,1
1,681,60,0.0580057203589527,1
2,680,60,0.0587992947357903,1
11,680,60,0.0577422923969237,1
11,681,60,0.0594247769283149,1
12,680,60,0.0634193619363389,1
12,681,60,0.0687454634864974,1
12,682,60,0.0627363669189203,1
13,680,60,0.0640510889849654,1
13,681,60,0.0693562033369492,1
13,682,60,0.0646337063436793,1
14,680,60,0.0592883571917107,1
14,681,60,0.0626219545505624,1
14,682,60,0.059658218966568,1
17,683,60,0.0576868140152356,1
17,684,60,0.0605421992819324,1
17,685,60,0.0623969805135958,1
17,686,60,0.0570965778141386,1
18,685,60,0.0709542968053793,1
18,686,60,0.0656550263177932,1
19,686,60,0.0591865111957356,1
23,693,60,0.0592209139251965,1
23,694,60,0.0604520056331315,1
24,692,60,0.0635396299629682,1
24,693,60,0.0740081375841222,1
24,694,60,0.0787800037325251,1
24,695,60,0.0638556291168285,1
25,693,60,0.0794538761886691,1
25,694,60,0.0827096339813768,1
25,695,60,0.0691499579713518,1
25,696,60,0.0581423287975353,1
26,695,60,0.0745640948914317,1
26,696,60,0.0753673874201637,1
26,697,60,0.0637518430286366,1
1,679,61,0.0735553589805111,1
1,680,61,0.0656951019004837,1
1,681,61,0.0588571024075259,1
2,679,61,0.0660152937764295,1
2,680,61,0.0618472857531988,1
12,680,61,0.060402441879083,1
12,681,61,0.061476545334754,1
13,680,61,0.0611899895864813,1
13,681,61,0.0632402012015976,1
13,682,61,0.05803055235994,1
14,681,61,0.060441326280534,1
17,684,61,0.0611422656767235,1
17,685,61,0.0641502459777466,1
17,686,61,0.0608556214743984,1
18,685,61,0.0725619079298516,1
18,686,61,0.0706566253311838,1
19,686,61,0.0623412898421819,1
23,692,61,0.0577672541305212,1
23,693,61,0.061180407064134,1
23,694,61,0.062489167327045,1
24,693,61,0.0731290222416418,1
24,694,61,0.0770158761107352,1
24,695,61,0.0643247481323929,1
25,694,61,0.0817832193085903,1
25,695,61,0.070094016279131,1
25,696,61,0.059149820454785,1
26,696,61,0.0776367645894699,1
1,678,62,0.0802535597920617,1
1,679,62,0.0728482513883984,1
1,680,62,0.0652424530294829,1
1,681,62,0.0574333872580687,1
2,678,62,0.0722574726691131,1
2,679,62,0.0664487658088621,1
2,680,62,0.0611947071359446,1
3,679,62,0.0584825997433842,1
12,680,62,0.0586865983760496,1
13,680,62,0.0587728469741119,1
13,681,62,0.0587628162845656,1
14,681,62,0.0580707399844302,1
17,685,62,0.0625986380623401,1
17,686,62,0.0603330762111624,1
18,686,62,0.0693301860516592,1
23,692,62,0.0579012443291517,1
23,693,62,0.0601230568059945,1
23,694,62,0.0595692577775643,1
24,693,62,0.069994475985456,1
24,694,62,0.0717769371838475,1
24,695,62,0.0633020659658716,1
25,694,62,0.0767145072571479,1
25,695,62,0.0695580318968615,1
25,696,62,0.059519794271442,1
1,677,63,0.0845894771945639,1
1,678,63,0.077595633455087,1
1,679,63,0.0719236765599025,1
1,680,63,0.0634317219159327,1
2,677,63,0.0810464678150377,1
2,678,63,0.0735770243264212,1
2,679,63,0.0685174112485061,1
2,680,63,0.0605586458387487,1
3,678,63,0.0683173635635161,1
3,679,63,0.0620758510246942,1
4,679,63,0.0589200404143027,1
12,680,63,0.0569233965733419,1
17,685,63,0.0602928708958617,1
17,686,63,0.0577299029326458,1
18,686,63,0.063043727060326,1
23,692,63,0.0573677307634137,1
23,693,63,0.0582671669502071,1
24,693,63,0.0653611996464102,1
24,694,63,0.0658442531237018,1
24,695,63,0.0617019793327932,1
25,695,63,0.0678957325802363,1
1,677,64,0.0826471500387358,1
1,678,64,0.0771299936322517,1
1,679,64,0.0715110737869081,1
1,680,64,0.0617359162042446,1
2,677,64,0.0818459391287045,1
2,678,64,0.0766223027528883,1
2,679,64,0.0707912347081814,1
2,680,64,0.0604525481513197,1
3,677,64,0.0782167637082316,1
3,678,64,0.072244847327362,1
3,679,64,0.065514814850808,1
4,678,64,0.0681955682302481,1
4,679,64,0.0617572984971869,1
5,679,64,0.0597351621983139,1
17,686,64,0.0569653061033862,1
23,693,64,0.0596366361777735,1
23,694,64,0.0570233319617845,1
24,694,64,0.0642028879328198,1
24,695,64,0.0614856030297235,1
1,677,65,0.082448511721648,1
1,678,65,0.0769089292644029,1
1,679,65,0.069332403299907,1
1,680,65,0.058488437710845,1
2,677,65,0.0830254562271323,1
2,678,65,0.0794268977026761,1
2,679,65,0.0712009479821295,1
2,680,65,0.0587387449884293,1
3,677,65,0.0787009670882049,1
3,678,65,0.074902213455338,1
3,679,65,0.0670758932467619,1
4,678,65,0.0688934471162233,1
4,679,65,0.0630448120967026,1
5,679,65,0.0612612068925662,1
5,680,65,0.0570513129270385,1
23,694,65,0.05689658320158,1
1,678,66,0.0774708896534045,1
1,679,66,0.0668053771666643,1
2,678,66,0.0817008567918984,1
2,679,66,0.070958206474497,1
3,678,66,0.0761730210328169,1
3,679,66,0.0678695383868415,1
4,679,66,0.0638058707638647,1
5,680,66,0.0584827471668049,1
23,694,67,0.0572132133276811,1
16,688,68,0.0576715822274061,1
16,689,69,0.0602582322889276,1
