x,y,z,signal,cytoplasm.p
416,618,33,0.0653485389230382,1
416,619,33,0.0623917676214389,1
416,620,33,0.0643108549492236,1
416,621,33,0.06597331938008,1
416,622,33,0.0719612105628197,1
416,623,33,0.0879921217867473,1
417,619,33,0.0628493109500078,1
417,620,33,0.0625863311551779,1
419,615,33,0.0689067270179625,1
420,614,33,0.0688569096956303,1
421,613,33,0.0709871722282015,1
421,614,33,0.0751629524141729,1
415,618,34,0.0617043911799563,1
415,619,34,0.060641993143891,1
415,620,34,0.063390862040644,1
415,621,34,0.065909213779811,1
415,622,34,0.0691092926949784,1
416,619,34,0.0585981856021711,1
416,620,34,0.0614332972000495,1
416,621,34,0.0641975865866105,1
416,622,34,0.0663279552640445,1
416,623,34,0.0739834471096188,1
416,626,34,0.0666429283508966,1
417,620,34,0.0580225620105366,1
417,621,34,0.0573118336992107,1
417,624,34,0.0570450562770628,1
419,614,34,0.0609617899250693,1
419,615,34,0.0703998314230875,1
420,611,34,0.0580128084770212,1
420,612,34,0.0607697090017354,1
420,613,34,0.0645802329205132,1
420,614,34,0.0692059552834808,1
420,615,34,0.0658622092963464,1
421,611,34,0.059082365394397,1
421,612,34,0.0644536256867927,1
421,613,34,0.0702611944382356,1
421,614,34,0.0725587294809007,1
421,615,34,0.0593199765669883,1
422,610,34,0.0569427680108255,1
422,611,34,0.0641823783865283,1
422,612,34,0.0679618077574062,1
422,613,34,0.0677566533251223,1
422,614,34,0.0650740483075178,1
422,630,34,0.0603643948426617,1
423,611,34,0.0616215687021918,1
423,612,34,0.0632995951493402,1
423,613,34,0.0587363095535189,1
424,611,34,0.0602047293810773,1
424,612,34,0.0601961611318647,1
425,610,34,0.062201862667795,1
425,611,34,0.0666461893569631,1
425,612,34,0.0628294205820833,1
426,609,34,0.0583455136529184,1
426,610,34,0.0690122468055821,1
426,611,34,0.073399031185172,1
426,612,34,0.0650180509953888,1
427,610,34,0.0638851963580895,1
427,611,34,0.0638662789847418,1
414,618,35,0.05905911377248,1
414,619,35,0.0618588850279416,1
414,620,35,0.0634601097698279,1
414,621,35,0.0651810836079026,1
414,622,35,0.0651687059374983,1
414,623,35,0.0668380226089502,1
414,624,35,0.0758816356932812,1
415,619,35,0.0603297503387908,1
415,620,35,0.0608986455255034,1
415,621,35,0.0635998612757405,1
415,622,35,0.0642464662959868,1
415,623,35,0.0671258579925148,1
415,626,35,0.0784374506721234,1
416,620,35,0.0574234509195117,1
416,621,35,0.060356758309468,1
416,622,35,0.0602840254906181,1
416,623,35,0.0610000905297742,1
416,624,35,0.0661154886300925,1
416,625,35,0.0665242878788322,1
416,626,35,0.0586113298743632,1
419,614,35,0.061841548033664,1
419,630,35,0.0589429677046942,1
420,612,35,0.0577722842176364,1
420,613,35,0.0622118520787835,1
420,614,35,0.0643652482945351,1
420,615,35,0.0573580715808876,1
420,630,35,0.058822145366003,1
421,611,35,0.0574519095366489,1
421,612,35,0.0628593888150488,1
421,613,35,0.066609964474022,1
421,614,35,0.064386435988562,1
421,630,35,0.0624441972867863,1
422,611,35,0.0612131291665987,1
422,612,35,0.0642671350595727,1
422,613,35,0.0628421461717605,1
422,630,35,0.0723206701411104,1
422,631,35,0.0723676156552068,1
423,611,35,0.0579633980433303,1
423,612,35,0.0593895663185084,1
423,629,35,0.0582903006333876,1
423,630,35,0.0796887452856349,1
424,630,35,0.0747845341839767,1
439,624,35,0.0629414152063414,1
414,618,36,0.056982979223063,1
414,619,36,0.0590484933892508,1
414,620,36,0.0618464601820427,1
414,621,36,0.0663946791042657,1
414,622,36,0.0684628056134687,1
414,623,36,0.0673850165722795,1
414,624,36,0.0711513606403337,1
414,625,36,0.0754659547192619,1
415,619,36,0.0620668817837772,1
415,620,36,0.0579961614243527,1
415,621,36,0.0630764963382853,1
415,622,36,0.0649665117675026,1
415,623,36,0.0624965620858286,1
415,624,36,0.0656213607054359,1
415,625,36,0.0688345662019849,1
415,626,36,0.065103816044631,1
418,630,36,0.0619770891266806,1
419,614,36,0.0586605339152651,1
419,630,36,0.0573635262474545,1
419,631,36,0.072721779784225,1
420,613,36,0.0594421846858343,1
420,630,36,0.0582160758895199,1
420,631,36,0.0698989927843194,1
421,611,36,0.0584492938441735,1
421,612,36,0.063677612387832,1
421,613,36,0.062528741670105,1
421,630,36,0.0648492099000983,1
421,631,36,0.0716346264073511,1
422,611,36,0.0611652519364833,1
422,612,36,0.0644026820495261,1
422,613,36,0.0599986019542166,1
422,630,36,0.080286706473978,1
422,631,36,0.0831403462473734,1
423,612,36,0.0583996239452621,1
423,629,36,0.0652096483699027,1
423,630,36,0.0983668445245715,1
424,629,36,0.0661503395267524,1
424,630,36,0.0970505715641403,1
424,631,36,0.0919645755908518,1
425,630,36,0.0703753237536258,1
437,626,36,0.0618839588033389,1
439,625,36,0.0682939822089888,1
440,624,36,0.0645073467813056,1
440,625,36,0.0933526555510508,1
441,625,36,0.0993834705369694,1
414,620,37,0.0598571993059919,1
414,621,37,0.0657778241303221,1
414,622,37,0.0700246093326526,1
414,623,37,0.0685269642861692,1
414,624,37,0.0709295414645708,1
415,619,37,0.0642044977965742,1
415,620,37,0.0580254515095828,1
415,621,37,0.0615933164778436,1
415,622,37,0.0645615101460808,1
415,623,37,0.060873919669379,1
415,624,37,0.0615664559305871,1
415,625,37,0.0605250863712543,1
418,614,37,0.0645026823042738,1
418,630,37,0.0641875558970642,1
419,615,37,0.05829135618508,1
419,630,37,0.0601251620124424,1
419,631,37,0.0728522259238212,1
420,630,37,0.060390677490109,1
420,631,37,0.0727900486218953,1
421,611,37,0.0583485682661958,1
421,612,37,0.0644451223038851,1
421,630,37,0.0653086461453894,1
422,611,37,0.0623972340818795,1
422,612,37,0.068519657981438,1
422,613,37,0.0573094985122264,1
422,630,37,0.0789591644672665,1
423,611,37,0.0579768725439848,1
423,612,37,0.0620693938788663,1
423,629,37,0.0635287619083922,1
424,629,37,0.0680208478889391,1
425,629,37,0.0574700603082088,1
426,630,37,0.0641832924117368,1
435,627,37,0.0572121695698623,1
436,627,37,0.0687166156715295,1
438,626,37,0.0639350962375373,1
440,625,37,0.0743997590558787,1
441,625,37,0.0888119729140954,1
441,626,37,0.104234314360324,1
413,621,38,0.0649090225303558,1
413,622,38,0.0741767604927499,1
413,623,38,0.0719413791642635,1
413,624,38,0.0680746456436308,1
414,621,38,0.0644365068791778,1
414,622,38,0.0709665801247943,1
414,623,38,0.0695229922982231,1
414,624,38,0.0709205427389696,1
414,625,38,0.0681636363173186,1
415,619,38,0.0629202511000618,1
415,620,38,0.0579271200879578,1
415,621,38,0.0595088731444345,1
415,622,38,0.063114561065517,1
415,623,38,0.0604686408919263,1
415,624,38,0.0608429548540895,1
415,625,38,0.0576085734573873,1
417,619,38,0.0599142462728765,1
418,614,38,0.0604343737920125,1
419,630,38,0.0603091169568258,1
420,630,38,0.0598637802874931,1
421,612,38,0.0635128991483219,1
422,611,38,0.0623424102601795,1
422,612,38,0.0715643113326011,1
423,611,38,0.0574698008429883,1
423,612,38,0.0632805244556349,1
427,600,38,0.0588531042843558,1
428,599,38,0.0643047044441109,1
429,599,38,0.0602853994768992,1
440,625,38,0.0655575558489452,1
441,624,38,0.0607398587075066,1
441,625,38,0.0859495820864457,1
413,621,39,0.0620813351759453,1
413,622,39,0.0708627173764236,1
413,623,39,0.0695740479772893,1
413,624,39,0.0676584044606128,1
413,625,39,0.0652322985042632,1
414,620,39,0.0577217415720743,1
414,621,39,0.0637429976233929,1
414,622,39,0.0693893854004865,1
414,623,39,0.0683268045593795,1
414,624,39,0.0688083543177796,1
414,625,39,0.065546280905728,1
414,626,39,0.0586649507209501,1
415,617,39,0.058158280011658,1
415,618,39,0.067126990204386,1
415,619,39,0.0633148092463592,1
415,620,39,0.0597623175924118,1
415,621,39,0.0587866929817866,1
415,622,39,0.0598498988981975,1
415,623,39,0.0591289511953468,1
415,624,39,0.0604191537980566,1
416,615,39,0.0583234826969249,1
416,619,39,0.0722065408257202,1
416,620,39,0.05773417231491,1
417,618,39,0.0720261063526238,1
418,615,39,0.062553721094513,1
418,616,39,0.0614050980481328,1
420,630,39,0.0603599721400399,1
421,612,39,0.0587081221954758,1
422,611,39,0.0585872349904795,1
422,612,39,0.0676324461446912,1
423,612,39,0.0590438996754609,1
426,600,39,0.0667132788072676,1
427,599,39,0.0741574952001293,1
427,600,39,0.0696599132744577,1
427,629,39,0.0618371017432949,1
428,598,39,0.065984051805109,1
428,599,39,0.0745067589746425,1
428,600,39,0.069377013627019,1
429,598,39,0.0586084698600011,1
429,599,39,0.0658516478824855,1
429,600,39,0.0602193655782871,1
434,627,39,0.0624815484846618,1
435,627,39,0.0721029434395068,1
437,627,39,0.0747088411028385,1
438,627,39,0.0791814966765336,1
439,626,39,0.0624964854256499,1
440,625,39,0.0616511123557055,1
440,626,39,0.0749302474930234,1
441,624,39,0.0571031352078925,1
441,625,39,0.0814203513008124,1
441,626,39,0.0891420362622931,1
442,624,39,0.0689227607892007,1
442,625,39,0.0966871256565532,1
412,623,40,0.0593695462179736,1
412,624,40,0.0616725536180161,1
413,621,40,0.0575884766966737,1
413,622,40,0.0651000714897446,1
413,623,40,0.0666757919798451,1
413,624,40,0.0665875502171347,1
413,625,40,0.0632645614476385,1
414,621,40,0.0602644476603455,1
414,622,40,0.0646398509518552,1
414,623,40,0.0653333543107033,1
414,624,40,0.0642392366514343,1
414,625,40,0.0594034536047409,1
415,619,40,0.0582273567296739,1
415,620,40,0.0575237460211008,1
415,623,40,0.056924428537287,1
415,624,40,0.058081649317564,1
416,616,40,0.058875489056559,1
416,617,40,0.0601619942798769,1
416,618,40,0.0608122377101468,1
416,619,40,0.0596807629560656,1
417,615,40,0.0576659683435448,1
417,616,40,0.0634363981868382,1
417,617,40,0.0589311089647309,1
426,600,40,0.0745417219131022,1
426,601,40,0.0585622968446293,1
427,599,40,0.103298293577443,1
427,600,40,0.099334455198046,1
427,601,40,0.0635927141883036,1
428,598,40,0.0752247287243944,1
428,599,40,0.108358938619303,1
428,600,40,0.102693857552462,1
428,601,40,0.0622671653462403,1
429,598,40,0.0598564798796987,1
429,599,40,0.0785645709393481,1
429,600,40,0.073246943287413,1
433,627,40,0.0572480524304673,1
434,627,40,0.067829085400194,1
435,627,40,0.072686586865229,1
436,627,40,0.0728972077579535,1
437,627,40,0.0692258456514054,1
438,627,40,0.0704409684544072,1
439,626,40,0.0586248102719545,1
440,625,40,0.0570182311114273,1
440,626,40,0.0722208526914044,1
441,625,40,0.0728493953941432,1
442,624,40,0.0608467112028496,1
442,625,40,0.083607112385143,1
442,626,40,0.0919210503001163,1
443,625,40,0.084597614967388,1
412,624,41,0.0603068525330835,1
413,622,41,0.0608208413409804,1
413,623,41,0.0648286767660595,1
413,624,41,0.0658486581355131,1
413,625,41,0.0624893147504657,1
414,620,41,0.0575321904346401,1
414,621,41,0.0571472914708687,1
414,622,41,0.0596487013105258,1
414,623,41,0.0620345488791433,1
414,624,41,0.060294722534026,1
426,599,41,0.0803171110802688,1
426,600,41,0.0782839003340308,1
426,601,41,0.0578162635725077,1
427,598,41,0.0846226710519749,1
427,599,41,0.13830803012778,1
427,600,41,0.133151736770552,1
427,601,41,0.0736345017696943,1
428,598,41,0.0901715293908521,1
428,599,41,0.152882698698702,1
428,600,41,0.145545057645152,1
428,601,41,0.0760431409991562,1
429,598,41,0.064047067274048,1
429,599,41,0.0953126086510611,1
429,600,41,0.0898407996887927,1
437,627,41,0.0645494509102653,1
442,625,41,0.071252168775427,1
412,624,42,0.0607543062027378,1
413,622,42,0.0582864086550804,1
413,623,42,0.0637932925976082,1
413,624,42,0.0655198213501759,1
413,625,42,0.061919387599808,1
414,620,42,0.059005734700303,1
414,623,42,0.0603399933180629,1
414,624,42,0.0586526379168509,1
416,633,42,0.0628885668584791,1
417,629,42,0.0575394141822557,1
417,633,42,0.0618101114634282,1
418,629,42,0.0608159291926018,1
418,630,42,0.0627654506113614,1
419,630,42,0.0615453625875495,1
424,629,42,0.0589470719727273,1
426,599,42,0.0809663402374041,1
426,600,42,0.0790326226093464,1
427,598,42,0.0892827961444034,1
427,599,42,0.164984416047103,1
427,600,42,0.160699937624561,1
427,601,42,0.0810040688392366,1
428,598,42,0.100863613474944,1
428,599,42,0.193085820338922,1
428,600,42,0.187058584793659,1
428,601,42,0.0906228219663822,1
429,598,42,0.0648776390325514,1
429,599,42,0.108342556928792,1
429,600,42,0.104143713822882,1
429,601,42,0.0573777850407073,1
429,628,42,0.0598255032705355,1
432,627,42,0.0582718196333653,1
433,627,42,0.0710358809264097,1
412,624,43,0.0596681906867459,1
413,622,43,0.0580028426537801,1
413,623,43,0.0634409211373861,1
413,624,43,0.0631603625738686,1
413,625,43,0.0584289788967973,1
414,622,43,0.0575121644371685,1
414,623,43,0.0617154302457004,1
414,624,43,0.0596231498832454,1
414,633,43,0.0690070103256779,1
415,623,43,0.0584675330697859,1
415,624,43,0.0580842616605793,1
415,633,43,0.0653199682641012,1
416,632,43,0.0724389803847124,1
416,633,43,0.0684330732579765,1
416,634,43,0.0621326090416742,1
417,628,43,0.0620190163475355,1
417,629,43,0.0654108105759534,1
417,632,43,0.0725833845737831,1
417,633,43,0.0693759875600108,1
417,634,43,0.0627260118978484,1
418,628,43,0.0643513433174921,1
418,629,43,0.0707238150294144,1
418,630,43,0.0658607999284442,1
418,633,43,0.0651525719183339,1
419,629,43,0.0618219407187073,1
419,630,43,0.0622654316468125,1
424,629,43,0.0591674463989671,1
425,629,43,0.071785475948376,1
426,600,43,0.081193095149293,1
427,599,43,0.171589445256754,1
427,600,43,0.172014284173669,1
427,601,43,0.0869453506332791,1
428,598,43,0.106938755735007,1
428,599,43,0.207909363231778,1
428,600,43,0.208016239314868,1
428,601,43,0.101864111365114,1
428,628,43,0.0623825153275541,1
429,598,43,0.0666938542973526,1
429,599,43,0.113699888656398,1
429,600,43,0.112766285617616,1
429,601,43,0.0608910502708675,1
432,627,43,0.0603330526234151,1
433,627,43,0.0730308972128057,1
433,628,43,0.109972741527446,1
434,627,43,0.0719506373550851,1
412,624,44,0.0580150670038268,1
413,621,44,0.0569228540551536,1
413,622,44,0.0599142580667501,1
413,623,44,0.0634272874194372,1
413,624,44,0.060712101825852,1
413,633,44,0.0706106999871588,1
414,621,44,0.060663245704223,1
414,622,44,0.0657316452180135,1
414,623,44,0.0689544981032149,1
414,624,44,0.0634303479296515,1
414,632,44,0.0663795239766149,1
414,633,44,0.066653784611599,1
414,634,44,0.0602483667136126,1
415,622,44,0.0629841326167313,1
415,623,44,0.0694689173875004,1
415,624,44,0.0651219904039383,1
415,632,44,0.0678287315839842,1
415,633,44,0.0662907632834635,1
415,634,44,0.0618809100869982,1
416,628,44,0.0585097905191031,1
416,629,44,0.0600249022924743,1
416,631,44,0.0639859219360672,1
416,632,44,0.0763803750225381,1
416,633,44,0.0727209719038794,1
416,634,44,0.065608039525139,1
417,628,44,0.0705196807672019,1
417,629,44,0.0738247782303585,1
417,630,44,0.0664663740622337,1
417,631,44,0.0683961879181105,1
417,632,44,0.0800929803052688,1
417,633,44,0.0754562247734939,1
417,634,44,0.0674912380953819,1
418,628,44,0.073962807830717,1
418,629,44,0.0795465819325592,1
418,630,44,0.0706355909575144,1
418,632,44,0.069508161502098,1
418,633,44,0.0679691022682638,1
419,629,44,0.0654207705022577,1
419,630,44,0.0638105057562123,1
420,630,44,0.0581116175505294,1
426,599,44,0.0765924937372172,1
426,600,44,0.076558686598376,1
427,599,44,0.15055201697412,1
427,600,44,0.15515395109392,1
427,601,44,0.0805400683648398,1
428,598,44,0.0990139802691324,1
428,599,44,0.184720897508124,1
428,600,44,0.191037825972053,1
428,601,44,0.0964163265234878,1
428,628,44,0.0657319459617918,1
429,599,44,0.102467804376055,1
429,600,44,0.105113170237584,1
429,601,44,0.0569523328423622,1
432,627,44,0.0611757425871022,1
433,627,44,0.0734705079564774,1
433,628,44,0.106069794917746,1
434,627,44,0.0735463779457204,1
434,628,44,0.106890778256965,1
435,627,44,0.0651646016694653,1
412,624,45,0.0569817231755184,1
412,633,45,0.0604525894298775,1
413,621,45,0.0596094630928651,1
413,622,45,0.0653640891454565,1
413,623,45,0.0641928100677789,1
413,624,45,0.0600359236674079,1
413,629,45,0.0572572457549839,1
413,632,45,0.0622737522246784,1
413,633,45,0.0642521568400269,1
413,634,45,0.0586455203140982,1
414,621,45,0.067820045396035,1
414,622,45,0.0787380352331125,1
414,623,45,0.0766539634067236,1
414,624,45,0.0680287085057322,1
414,625,45,0.0584493764012891,1
414,628,45,0.0599045281209821,1
414,631,45,0.0581894335289261,1
414,632,45,0.0638944368581007,1
414,633,45,0.0659734432157534,1
414,634,45,0.061156430118987,1
415,621,45,0.0599512200667948,1
415,622,45,0.0750604695490202,1
415,623,45,0.0786406591152538,1
415,624,45,0.0714357758005375,1
415,625,45,0.0589634831479226,1
415,628,45,0.057136759541692,1
415,631,45,0.0584178159953798,1
415,632,45,0.0670235992109615,1
415,633,45,0.0681117786548436,1
415,634,45,0.0643989905670711,1
416,623,45,0.0604983614535449,1
416,624,45,0.0572413829949136,1
416,628,45,0.0623728620419649,1
416,629,45,0.0628461266041201,1
416,630,45,0.0590196927497775,1
416,631,45,0.0622820845964179,1
416,632,45,0.0743984322450922,1
416,633,45,0.0727374184606957,1
416,634,45,0.067973719569801,1
417,628,45,0.0738193412546021,1
417,629,45,0.0774940292335218,1
417,630,45,0.0689514316960638,1
417,631,45,0.0676597371683362,1
417,632,45,0.0779786748837572,1
417,633,45,0.0750323588511559,1
417,634,45,0.0706816047555918,1
418,628,45,0.0754537126784047,1
418,629,45,0.0814486330098447,1
418,630,45,0.0729940708423081,1
418,632,45,0.06963385471061,1
418,633,45,0.0687598166307394,1
419,628,45,0.0596126887173106,1
419,629,45,0.0677836553988627,1
426,598,45,0.06338285400043,1
426,599,45,0.0728092549451476,1
426,600,45,0.0703853662370457,1
427,598,45,0.0765234288130749,1
427,599,45,0.114929458954631,1
427,600,45,0.117979743880466,1
427,601,45,0.0670287885153711,1
428,598,45,0.0819376836718914,1
428,599,45,0.135917777547352,1
428,600,45,0.14232146174591,1
428,601,45,0.0785748257124939,1
429,599,45,0.0796781720779003,1
429,600,45,0.0828981885364869,1
433,627,45,0.0705460164870806,1
434,627,45,0.0724629691237331,1
412,623,46,0.0581776868307625,1
412,629,46,0.0588380140230101,1
413,621,46,0.0606134755573855,1
413,622,46,0.0719346094807837,1
413,623,46,0.0674179922430278,1
413,624,46,0.0604213415616202,1
413,628,46,0.0602898988396998,1
413,629,46,0.0603454126030089,1
413,630,46,0.0580772855843105,1
413,632,46,0.0569005459431292,1
413,633,46,0.0602614932949941,1
413,634,46,0.058122119995022,1
414,621,46,0.0716715943043327,1
414,622,46,0.0892391529149314,1
414,623,46,0.0822644683232121,1
414,624,46,0.0704743215291125,1
414,625,46,0.0611762733114169,1
414,627,46,0.0575178608781454,1
414,628,46,0.0592989716780031,1
414,629,46,0.0582229163362416,1
414,631,46,0.0575081899017457,1
414,632,46,0.0626836011281736,1
414,633,46,0.0679834731033163,1
414,634,46,0.0643085256591761,1
414,635,46,0.0587786436630149,1
415,621,46,0.061637502225504,1
415,622,46,0.0814933494818196,1
415,623,46,0.0820436280389628,1
415,624,46,0.0739085913935103,1
415,625,46,0.06115145900124,1
415,628,46,0.0592820474693036,1
415,631,46,0.0586618017566833,1
415,632,46,0.066988907531596,1
415,633,46,0.0706527982191817,1
415,634,46,0.0669626425749593,1
416,622,46,0.0595726662070515,1
416,623,46,0.0648874102568772,1
416,624,46,0.0602889022573757,1
416,628,46,0.0646905292269644,1
416,629,46,0.0633045072977188,1
416,630,46,0.0586373530565899,1
416,631,46,0.0619507828914861,1
416,632,46,0.0706368705928063,1
416,633,46,0.0719838076247487,1
416,634,46,0.0703401485254403,1
417,628,46,0.0719282348920714,1
417,629,46,0.0746850233749858,1
417,630,46,0.0666928577150285,1
417,631,46,0.0638355795316096,1
417,632,46,0.0697011387598298,1
417,633,46,0.0717910367598059,1
418,628,46,0.0703893938449,1
418,629,46,0.0765559209350032,1
418,630,46,0.0700900771253292,1
418,631,46,0.0633030271665747,1
418,632,46,0.0643418020737027,1
419,628,46,0.0586160238360791,1
419,629,46,0.066572047170211,1
419,630,46,0.0675044177491949,1
420,629,46,0.0572680135616338,1
426,598,46,0.0581842088428955,1
426,599,46,0.0666896202967093,1
426,600,46,0.0609541180102546,1
427,598,46,0.060768447057254,1
427,599,46,0.079825613189438,1
427,600,46,0.0783574410332264,1
428,598,46,0.0603858596927196,1
428,599,46,0.086217969372348,1
428,600,46,0.0888359852408634,1
429,627,46,0.057053087905024,1
412,622,47,0.0596035071866677,1
412,623,47,0.0592696697988994,1
412,628,47,0.057615172129699,1
412,629,47,0.0579967334272251,1
412,630,47,0.0574556364007249,1
413,621,47,0.0605189004845206,1
413,622,47,0.0760249843306595,1
413,623,47,0.0703743271713017,1
413,624,47,0.0605086339175012,1
413,628,47,0.0580157392546253,1
413,629,47,0.0610969241294447,1
413,630,47,0.0596556243143632,1
413,633,47,0.0588693562422567,1
413,634,47,0.0582404833110555,1
414,621,47,0.0692373741629062,1
414,622,47,0.0886527615166469,1
414,623,47,0.0809539389792525,1
414,624,47,0.0680755596688394,1
414,625,47,0.0612169562786007,1
414,626,47,0.057698808384746,1
414,628,47,0.0589982632813406,1
414,629,47,0.0608569188005008,1
414,630,47,0.0585881726034353,1
414,631,47,0.0585559399467275,1
414,632,47,0.0641075108765462,1
414,633,47,0.0684602935183795,1
414,634,47,0.0648720664272479,1
414,635,47,0.0590890643146349,1
415,621,47,0.0584846047019061,1
415,622,47,0.0771208356893562,1
415,623,47,0.0769555563439105,1
415,624,47,0.0692156321568174,1
415,625,47,0.0603782172625891,1
415,627,47,0.0575018447977176,1
415,628,47,0.0602181331184898,1
415,629,47,0.0583256350788675,1
415,631,47,0.0598926575871452,1
415,632,47,0.0673482727588975,1
415,633,47,0.0692036083026229,1
415,634,47,0.0653789553232026,1
416,622,47,0.060291827138043,1
416,623,47,0.065635536941573,1
416,624,47,0.0598562027236677,1
416,627,47,0.0572225776633657,1
416,628,47,0.0628326108249079,1
416,629,47,0.0606850112980592,1
416,630,47,0.0579958547836376,1
416,631,47,0.0614105704055102,1
416,632,47,0.0667919144598835,1
416,633,47,0.0676142540945735,1
416,634,47,0.0679031332359568,1
417,628,47,0.0640533357178973,1
417,629,47,0.0655456912120451,1
417,630,47,0.0611512997839457,1
417,631,47,0.0593146575299685,1
417,632,47,0.061582985044519,1
417,633,47,0.0651872989793204,1
418,628,47,0.0610108878211083,1
418,629,47,0.0663711916048754,1
418,630,47,0.0633870054439577,1
418,631,47,0.0593840703733837,1
419,629,47,0.0620802973150633,1
419,630,47,0.0643062612354337,1
419,631,47,0.0629064994433763,1
420,629,47,0.0572026460168834,1
420,630,47,0.0623055603019345,1
426,599,47,0.0586208888089631,1
427,594,47,0.06398941292267,1
428,594,47,0.0776350603747263,1
428,627,47,0.0598131963633732,1
429,594,47,0.0669045518502559,1
429,627,47,0.0640908697208145,1
412,622,48,0.0612741624627797,1
412,623,48,0.0599668587432656,1
413,621,48,0.0582923704582146,1
413,622,48,0.0755838050017913,1
413,623,48,0.0704812563268235,1
413,624,48,0.0601298146956006,1
413,628,48,0.0575220005277994,1
413,629,48,0.0629328882356865,1
413,630,48,0.0609009394339299,1
413,633,48,0.0582646253704338,1
413,634,48,0.0578590871277606,1
414,621,48,0.0618449977417091,1
414,622,48,0.0797141846711156,1
414,623,48,0.0738444798963045,1
414,624,48,0.0632306009884398,1
414,625,48,0.0601721252173493,1
414,626,48,0.0589981394456672,1
414,628,48,0.0617920196612365,1
414,629,48,0.0665975219373126,1
414,630,48,0.0623504831666985,1
414,631,48,0.0584504968192866,1
414,632,48,0.0647878168907707,1
414,633,48,0.0669453468592396,1
414,634,48,0.063293975368542,1
414,635,48,0.0581254576612673,1
415,622,48,0.0679350887366336,1
415,623,48,0.0680072613464849,1
415,624,48,0.0619696825740233,1
415,625,48,0.0591496199589328,1
415,626,48,0.0592611487251813,1
415,627,48,0.0587952199524414,1
415,628,48,0.0621424628231156,1
415,629,48,0.0623958070231668,1
415,630,48,0.0589367523332764,1
415,631,48,0.0593106535098615,1
415,632,48,0.0659020195168795,1
415,633,48,0.0657850655687482,1
415,634,48,0.062279112540256,1
416,623,48,0.0593262155261535,1
416,627,48,0.0574807573516168,1
416,628,48,0.0612260139735702,1
416,629,48,0.0598254089195462,1
416,630,48,0.0581450531823504,1
416,631,48,0.0594148228989474,1
416,632,48,0.0627500596062375,1
416,633,48,0.0625306699684481,1
417,628,48,0.0585852536197049,1
417,629,48,0.0595574049345379,1
417,630,48,0.057753632206446,1
418,629,48,0.0593763159014534,1
418,630,48,0.0587591601837316,1
419,629,48,0.0579968100874039,1
419,630,48,0.0609646440424946,1
419,631,48,0.0595386526754214,1
420,630,48,0.0608866452590562,1
420,631,48,0.0620690813412144,1
427,593,48,0.0863086465699689,1
427,594,48,0.0751798707259356,1
427,627,48,0.0588771166111238,1
428,593,48,0.106976602275576,1
428,594,48,0.0960539774461508,1
429,593,48,0.0800656597969397,1
429,594,48,0.072199959844219,1
429,627,48,0.0688468731091472,1
412,622,49,0.05707448199184,1
413,622,49,0.0659291395293565,1
413,623,49,0.0631428840531072,1
413,624,49,0.0577864368660262,1
413,628,49,0.0574487605723822,1
413,629,49,0.0625192652926206,1
413,630,49,0.0592830263608172,1
413,632,49,0.0573481942116989,1
413,633,49,0.0574943321001974,1
414,622,49,0.065048302281322,1
414,623,49,0.0625305815143957,1
414,624,49,0.0579319555761576,1
414,625,49,0.0593367474553302,1
414,626,49,0.0593252248407662,1
414,628,49,0.0627889911831831,1
414,629,49,0.0700866510050315,1
414,630,49,0.0654330833063568,1
414,631,49,0.0610776470429504,1
414,632,49,0.0638833211321779,1
414,633,49,0.062634285045472,1
414,634,49,0.0593194340488,1
415,622,49,0.0584093597879669,1
415,623,49,0.0586870052646909,1
415,625,49,0.0591315989199831,1
415,626,49,0.0613296644322151,1
415,627,49,0.0588212372377314,1
415,628,49,0.0610542538945494,1
415,629,49,0.0654659882138631,1
415,630,49,0.0625720133925568,1
415,631,49,0.0605877118403793,1
415,632,49,0.0625920158022811,1
415,633,49,0.0610030154104414,1
415,634,49,0.0589466061147178,1
416,628,49,0.0575543275354965,1
416,629,49,0.059623403451529,1
416,630,49,0.059549084356672,1
416,631,49,0.0589069786992263,1
416,632,49,0.0593588786592498,1
416,633,49,0.058883043032637,1
418,630,49,0.0570271177952287,1
419,630,49,0.0580194897064486,1
420,630,49,0.057147385821858,1
427,593,49,0.100641865062423,1
427,594,49,0.0799418654020866,1
427,627,49,0.061105539554152,1
428,592,49,0.0968451576666359,1
428,593,49,0.120762991918932,1
428,594,49,0.0963488832569735,1
429,591,49,0.0827863177479023,1
429,592,49,0.0803220645072052,1
429,593,49,0.0827027109775395,1
429,594,49,0.0648809590079862,1
431,590,49,0.0814327348681535,1
432,589,49,0.0990522278014059,1
413,622,50,0.0578349391714455,1
413,628,50,0.0570789872515774,1
413,629,50,0.0603563985963215,1
414,628,50,0.0628756230821392,1
414,629,50,0.0707025978507033,1
414,630,50,0.0673743961890503,1
414,631,50,0.0639796711830284,1
414,632,50,0.0613937995171682,1
415,626,50,0.0602376696702046,1
415,627,50,0.0587584230666279,1
415,628,50,0.0620437598944703,1
415,629,50,0.0695200851083664,1
415,630,50,0.0671784822567775,1
415,631,50,0.062817113674921,1
415,632,50,0.0591288391535471,1
416,628,50,0.0569124636524608,1
416,629,50,0.0617891360591271,1
416,630,50,0.0620157494445321,1
416,631,50,0.0590101691967985,1
417,630,50,0.0573533599283612,1
418,630,50,0.0574615569253013,1
426,593,50,0.0620647411957082,1
427,592,50,0.0811313070451978,1
427,593,50,0.0985282083039627,1
427,594,50,0.0740025590818818,1
428,591,50,0.092628470429881,1
428,592,50,0.0999096424163552,1
428,593,50,0.112072475618053,1
428,594,50,0.0795118076960781,1
429,590,50,0.0907212831206175,1
429,591,50,0.103501832249036,1
429,592,50,0.0926904295451443,1
429,593,50,0.0779424146191952,1
430,590,50,0.101970904891089,1
430,591,50,0.0798998025516848,1
430,592,50,0.0654349290475843,1
431,588,50,0.188120800024682,1
431,589,50,0.204551293585086,1
431,590,50,0.113288447579958,1
432,588,50,0.136909359269036,1
432,589,50,0.150220432216221,1
432,590,50,0.0814608219782704,1
433,588,50,0.0658976262989419,1
433,589,50,0.0655239668967667,1
435,587,50,0.0568555582120601,1
413,629,51,0.056890338345478,1
413,631,51,0.0583471353105464,1
414,628,51,0.0603697728490498,1
414,629,51,0.065507325741035,1
414,630,51,0.0665032711959733,1
414,631,51,0.0668316716079852,1
414,632,51,0.0600022993336084,1
415,626,51,0.057287709330643,1
415,627,51,0.057503661054261,1
415,628,51,0.0618317119430331,1
415,629,51,0.0684527395423015,1
415,630,51,0.0684254662094669,1
415,631,51,0.0650006845164271,1
415,632,51,0.0569327903937106,1
416,628,51,0.0571118037050313,1
416,629,51,0.0620407760444348,1
416,630,51,0.0629782356799022,1
416,631,51,0.0599403991877135,1
417,630,51,0.0580605029020949,1
426,593,51,0.0602727269596535,1
427,591,51,0.0674973473219368,1
427,592,51,0.0743527722632245,1
427,593,51,0.0823399196299403,1
427,594,51,0.0641348667664963,1
427,627,51,0.0627177267016036,1
428,590,51,0.0808617108872456,1
428,591,51,0.0919567149740587,1
428,592,51,0.0937567844258219,1
428,593,51,0.0881498648469254,1
428,594,51,0.0602759761718464,1
428,627,51,0.0622754151608642,1
429,586,51,0.09096378285384,1
429,589,51,0.0910034102693315,1
429,590,51,0.0953827409207694,1
429,591,51,0.111002617956899,1
429,592,51,0.100012579345644,1
429,593,51,0.0705487231810851,1
429,627,51,0.0621935538838028,1
430,588,51,0.162460586053622,1
430,589,51,0.177630479634197,1
430,590,51,0.111671625440159,1
430,591,51,0.0877950402609824,1
430,592,51,0.0734866773572628,1
430,626,51,0.0585220030752761,1
430,627,51,0.068073914423464,1
431,587,51,0.118787282203715,1
431,588,51,0.239481964006418,1
431,589,51,0.26657546385541,1
431,590,51,0.140297786346525,1
431,626,51,0.0603788305440193,1
432,587,51,0.0894615146088826,1
432,588,51,0.169547288857346,1
432,589,51,0.193158505982277,1
432,590,51,0.0975414443796672,1
433,587,51,0.0617260270411822,1
433,588,51,0.0769333425828753,1
433,589,51,0.0795553742653714,1
434,586,51,0.0683592612996868,1
434,587,51,0.0575270247179778,1
435,586,51,0.069062936874565,1
435,587,51,0.0569525687198354,1
436,586,51,0.0661483994345357,1
437,586,51,0.0652095835035976,1
413,621,52,0.0570500038070624,1
413,631,52,0.0576636685381814,1
414,629,52,0.0583983266191597,1
414,630,52,0.0632038996584777,1
414,631,52,0.0660702886092975,1
414,632,52,0.0575206501292656,1
415,628,52,0.0589375720074956,1
415,629,52,0.0637887165746289,1
415,630,52,0.0668654374682686,1
415,631,52,0.0647966917806985,1
416,629,52,0.0602387134280234,1
416,630,52,0.0628330766829174,1
416,631,52,0.0597742117139961,1
417,630,52,0.0577392082989621,1
427,590,52,0.0621474693224835,1
427,591,52,0.0606284183953105,1
427,592,52,0.0630772334553889,1
427,593,52,0.0629962921004729,1
427,627,52,0.0602449052116939,1
428,586,52,0.0939373250437812,1
428,589,52,0.0758174239481492,1
428,590,52,0.0760185507725789,1
428,591,52,0.0812755932955319,1
428,592,52,0.0808514738049103,1
428,593,52,0.0660597271954367,1
428,626,52,0.0572307036423162,1
428,627,52,0.063042624333139,1
429,585,52,0.0970989441369493,1
429,586,52,0.0984931451175769,1
429,587,52,0.0900259752990997,1
429,588,52,0.0918414947253551,1
429,589,52,0.0927069468652025,1
429,590,52,0.0920840298401987,1
429,591,52,0.100738374330568,1
429,592,52,0.0934014173216905,1
429,593,52,0.0619952988676089,1
429,626,52,0.060125521725589,1
429,627,52,0.0641065673666535,1
430,586,52,0.0873862528061164,1
430,588,52,0.160607343922471,1
430,589,52,0.175028786486825,1
430,590,52,0.111775482291593,1
430,591,52,0.0846429034422354,1
430,592,52,0.0707848070470376,1
430,626,52,0.0622158619958272,1
431,587,52,0.128713973372075,1
431,588,52,0.243971962471328,1
431,589,52,0.270933606812821,1
431,590,52,0.145031057043382,1
431,591,52,0.0578034259410308,1
432,587,52,0.0955813438562363,1
432,588,52,0.17557297940516,1
432,589,52,0.198524411856032,1
432,590,52,0.100657810379609,1
433,586,52,0.0687535010113954,1
433,587,52,0.0642474510844372,1
433,588,52,0.0823855737148711,1
433,589,52,0.0849366121748818,1
434,586,52,0.0723461213204647,1
435,586,52,0.0696346213123977,1
436,585,52,0.0751503152785482,1
436,586,52,0.0681054099630682,1
437,585,52,0.0746595721956315,1
437,586,52,0.0671074713434817,1
437,624,52,0.0598688634470398,1
438,585,52,0.0893032467213267,1
438,586,52,0.0834270199343827,1
439,584,52,0.0948112923604098,1
442,584,52,0.107666720792684,1
446,620,52,0.0579904767772495,1
454,592,52,0.070801459996643,1
455,594,52,0.0741035559189536,1
456,595,52,0.0760302326044374,1
456,596,52,0.0761448336747738,1
456,609,52,0.0686291051289858,1
456,610,52,0.0812832298287256,1
456,611,52,0.0772765973787597,1
457,600,52,0.0975986564607831,1
458,599,52,0.120094314664135,1
414,630,53,0.0589500322350155,1
414,631,53,0.0617199531962483,1
415,629,53,0.0572256322766431,1
415,630,53,0.0622747488070025,1
415,631,53,0.0614443598535408,1
416,630,53,0.0605067468977159,1
416,631,53,0.0581278164359989,1
418,625,53,0.0591656950087289,1
418,626,53,0.0600460605018171,1
419,625,53,0.0644066271002648,1
419,626,53,0.063099140575709,1
420,625,53,0.0700799815694778,1
420,626,53,0.0658519781109479,1
421,625,53,0.0690439369441017,1
421,626,53,0.0647234518252812,1
426,591,53,0.0582137760841566,1
427,590,53,0.0613745165337371,1
427,591,53,0.0582709527836514,1
427,627,53,0.0568635131798425,1
428,586,53,0.0908377004474973,1
428,589,53,0.0731846893253083,1
428,590,53,0.0695673372631778,1
428,591,53,0.0688079356352647,1
428,592,53,0.0661846066266663,1
428,626,53,0.0570869540132335,1
428,627,53,0.060857083914732,1
429,585,53,0.0916691803342723,1
429,586,53,0.111365326747383,1
429,587,53,0.103197125729203,1
429,588,53,0.0922809993241639,1
429,589,53,0.0891973613236236,1
429,590,53,0.0846858980086563,1
429,591,53,0.0827517145225892,1
429,592,53,0.07523606263698,1
429,626,53,0.0607292796028352,1
429,627,53,0.0636890170636595,1
430,586,53,0.107613023285918,1
430,587,53,0.115845618854271,1
430,588,53,0.139958370456516,1
430,589,53,0.147194890837321,1
430,590,53,0.105183874510165,1
430,591,53,0.0775458515143758,1
430,592,53,0.0607517764168381,1
430,626,53,0.0618346073390162,1
431,587,53,0.125300790953778,1
431,588,53,0.200424027498407,1
431,589,53,0.217172649006866,1
431,590,53,0.129190599188223,1
431,591,53,0.0608834668101053,1
431,604,53,0.0854645059598218,1
431,605,53,0.0859837312476229,1
431,626,53,0.0618313227452024,1
432,584,53,0.123281715165119,1
432,586,53,0.077492572690125,1
432,587,53,0.0931690839075613,1
432,588,53,0.152731347918046,1
432,589,53,0.165476338517386,1
432,590,53,0.0922875390271073,1
432,604,53,0.068791123468365,1
432,605,53,0.0673782409918629,1
432,626,53,0.0615679360617312,1
433,584,53,0.147283144393905,1
433,586,53,0.0759504116675188,1
433,587,53,0.065871573632031,1
433,588,53,0.0820872122990666,1
433,589,53,0.0804410411046689,1
434,584,53,0.140839478963645,1
434,586,53,0.0763628021507874,1
435,586,53,0.0685422727341775,1
436,585,53,0.0760188692071677,1
436,586,53,0.0689301791357317,1
436,624,53,0.058277899375236,1
437,584,53,0.0772259544852715,1
437,585,53,0.0767483556745468,1
437,586,53,0.0677072252006209,1
438,584,53,0.0803157429909245,1
438,585,53,0.0909698272140898,1
438,586,53,0.0821123096622112,1
439,584,53,0.0939647045214787,1
439,587,53,0.0771305302535032,1
439,623,53,0.0692575063052407,1
441,587,53,0.109769179268106,1
441,622,53,0.0622202139352071,1
442,584,53,0.117887645521069,1
442,586,53,0.140047874163708,1
442,587,53,0.0787870269842886,1
443,587,53,0.080534849575746,1
445,587,53,0.101592522042514,1
445,588,53,0.0646188932383647,1
445,620,53,0.0715768482202997,1
446,588,53,0.123962268850691,1
446,589,53,0.0645921447329079,1
448,590,53,0.0672343380424227,1
451,592,53,0.0725117898637411,1
452,592,53,0.0857751447981045,1
453,591,53,0.12162520664046,1
453,592,53,0.0783837354745473,1
453,593,53,0.0629430722455903,1
453,614,53,0.0678454081213369,1
454,592,53,0.0726291624943873,1
454,593,53,0.0700728757605987,1
454,594,53,0.0668556721408796,1
454,595,53,0.0581861725228596,1
454,612,53,0.057564039790454,1
454,613,53,0.0920020447274639,1
455,593,53,0.0725170204467085,1
455,594,53,0.074817680865893,1
455,595,53,0.0690507479061393,1
455,596,53,0.0654694261280345,1
455,597,53,0.0880203799080323,1
455,598,53,0.122781749273002,1
455,599,53,0.0968052236104293,1
455,600,53,0.0594544208297547,1
455,610,53,0.0695762062561688,1
455,611,53,0.065124968357037,1
455,612,53,0.0716472576460391,1
456,596,53,0.0819888337019469,1
456,597,53,0.154554350557138,1
456,600,53,0.0953454368983886,1
456,601,53,0.0618267880007808,1
456,602,53,0.0631351354781137,1
456,603,53,0.0599571287974976,1
456,604,53,0.0631371463335725,1
456,605,53,0.0779064609953482,1
456,607,53,0.0869833033187111,1
456,608,53,0.0726843342353602,1
456,609,53,0.097971979737559,1
456,610,53,0.125508233397552,1
457,597,53,0.16798005995628,1
457,598,53,0.278352590212991,1
457,599,53,0.22812293047002,1
457,600,53,0.110669830223886,1
457,601,53,0.068143197534269,1
457,602,53,0.0702599914631225,1
457,603,53,0.0667186096381611,1
458,598,53,0.164134290046074,1
458,604,53,0.0754909282467331,1
415,630,54,0.0581185287604931,1
415,631,54,0.0571730846725591,1
416,630,54,0.0576071169139905,1
417,625,54,0.0615000918035126,1
418,624,54,0.0574864243079095,1
418,625,54,0.0760692703262459,1
418,626,54,0.0662624638836207,1
419,624,54,0.0583562106963263,1
419,625,54,0.0865788795970986,1
419,626,54,0.0719252569389727,1
420,624,54,0.0620127596975598,1
420,625,54,0.0978442579827777,1
420,626,54,0.0823249001318366,1
421,625,54,0.0877484367692221,1
421,626,54,0.0752494663743925,1
425,591,54,0.0632982919263009,1
425,592,54,0.0580815372757643,1
426,590,54,0.0638437821707389,1
426,591,54,0.0626000533271791,1
427,589,54,0.0620450041481412,1
427,590,54,0.0606518528222693,1
428,586,54,0.086216689737056,1
428,587,54,0.0803553763033528,1
428,588,54,0.0704705592834156,1
428,589,54,0.066951921943804,1
428,590,54,0.0623343550444709,1
428,591,54,0.0583497948290563,1
429,585,54,0.0866138484324951,1
429,586,54,0.124045663331328,1
429,587,54,0.114491599601197,1
429,588,54,0.0871010592502512,1
429,589,54,0.0774397420330732,1
429,590,54,0.0726610767165063,1
429,591,54,0.0653451953598561,1
429,592,54,0.0575375566471546,1
429,626,54,0.0605695846565666,1
430,585,54,0.101324034508686,1
430,586,54,0.129149650858882,1
430,587,54,0.12474308225623,1
430,588,54,0.112821610678947,1
430,589,54,0.108738642381728,1
430,590,54,0.0888533399259515,1
430,591,54,0.0660414054127087,1
430,604,54,0.094278598468891,1
430,605,54,0.0848119037548203,1
430,626,54,0.062266487198505,1
431,584,54,0.120594575403093,1
431,586,54,0.100835862490226,1
431,587,54,0.116179031662588,1
431,588,54,0.144544465403993,1
431,589,54,0.146985773663488,1
431,590,54,0.100791800578239,1
431,591,54,0.0585249869253117,1
431,603,54,0.078595730353553,1
431,604,54,0.154241105272777,1
431,605,54,0.137581916708268,1
431,626,54,0.0617738688896766,1
432,583,54,0.114311801997278,1
432,584,54,0.157935135204496,1
432,585,54,0.119141735282637,1
432,586,54,0.0793331953764619,1
432,587,54,0.0882261240339992,1
432,588,54,0.122879496897881,1
432,589,54,0.121192890407646,1
432,590,54,0.0750289799063529,1
432,604,54,0.103657605732313,1
432,605,54,0.0900500230074887,1
432,626,54,0.0601531134930123,1
433,583,54,0.141457713820807,1
433,584,54,0.216825201488896,1
433,585,54,0.170182931472027,1
433,586,54,0.0860473120205142,1
433,587,54,0.0694287120721996,1
433,588,54,0.0806835762195125,1
433,589,54,0.0697731639462603,1
433,626,54,0.0635849892010575,1
434,583,54,0.137213287393208,1
434,584,54,0.210357393999258,1
434,585,54,0.168285002353585,1
434,586,54,0.0844787798964083,1
434,625,54,0.0653595602979717,1
435,584,54,0.124586518583418,1
435,586,54,0.0697177209461932,1
436,586,54,0.0665496270163868,1
436,624,54,0.0615440947461312,1
437,585,54,0.0750993480535344,1
437,586,54,0.0640556119355134,1
438,584,54,0.0753734966467187,1
438,585,54,0.0827605658247696,1
438,586,54,0.0714011312966666,1
438,623,54,0.0628903241456542,1
439,584,54,0.0859839494342856,1
439,585,54,0.111231336548752,1
439,586,54,0.105678945944714,1
439,587,54,0.0588803953080008,1
440,584,54,0.108106278463924,1
440,587,54,0.0839785309513231,1
440,622,54,0.0585950602256517,1
441,586,54,0.134125285659414,1
441,587,54,0.0816237130643003,1
442,586,54,0.122997789450672,1
442,587,54,0.070260044535554,1
443,587,54,0.0790652621546954,1
443,621,54,0.0605455723297986,1
444,620,54,0.0694737174940792,1
444,621,54,0.112012102778797,1
445,587,54,0.0916264157483878,1
445,620,54,0.0992811233013638,1
446,588,54,0.0887054152655938,1
446,620,54,0.087198258460005,1
447,589,54,0.0803308686338911,1
448,589,54,0.0970498285500999,1
448,590,54,0.0654740493265085,1
449,590,54,0.0860507853163065,1
450,591,54,0.0938056405474509,1
451,592,54,0.0692407000352778,1
452,592,54,0.08345136838655,1
453,591,54,0.112205380780307,1
453,592,54,0.0781528055313834,1
453,593,54,0.0643663746094695,1
454,592,54,0.0726056160256287,1
454,593,54,0.0690772133586282,1
454,594,54,0.0639486238106232,1
454,612,54,0.0607487277004975,1
455,594,54,0.0740215177337874,1
455,595,54,0.0689972744829731,1
455,596,54,0.0667763760313389,1
455,597,54,0.0902665408370423,1
455,598,54,0.125268994670396,1
455,599,54,0.0997714182170814,1
455,600,54,0.0610650629797571,1
455,602,54,0.0646328159062181,1
455,603,54,0.078454887914327,1
455,604,54,0.0749717796191107,1
455,605,54,0.0605096835722568,1
455,609,54,0.0600280394628674,1
455,610,54,0.0750854135918072,1
456,596,54,0.0883567411847635,1
456,597,54,0.164130197571915,1
456,598,54,0.263804304537443,1
456,599,54,0.208256433345791,1
456,600,54,0.0995364842538106,1
456,601,54,0.0625629910792083,1
456,602,54,0.0751575626139111,1
456,603,54,0.0858642887921498,1
456,604,54,0.0852371672511868,1
456,605,54,0.0844139961484039,1
456,606,54,0.0913934277742705,1
456,607,54,0.0804517322511401,1
456,608,54,0.0761010960943125,1
456,609,54,0.129993891716955,1
457,597,54,0.191681594565685,1
457,598,54,0.306934099513687,1
457,599,54,0.245172861862698,1
457,600,54,0.116716277989339,1
457,601,54,0.0680998550485752,1
457,602,54,0.0750009340747937,1
457,603,54,0.078886136801575,1
457,604,54,0.0855456360167164,1
457,605,54,0.114523678937547,1
458,598,54,0.187424713807503,1
417,624,55,0.0593378678733278,1
417,625,55,0.0792315027008442,1
418,624,55,0.07274120429414,1
418,625,55,0.101264994377153,1
418,626,55,0.07569618882388,1
419,624,55,0.0704213021700822,1
419,625,55,0.110540840627687,1
419,626,55,0.081716914150884,1
420,624,55,0.0769993705845506,1
420,625,55,0.122657724897613,1
420,626,55,0.0978735598618815,1
421,624,55,0.0593859338054217,1
421,625,55,0.0983525621435715,1
421,626,55,0.0830677903366283,1
422,625,55,0.0653334722494399,1
422,626,55,0.0661658838522339,1
423,626,55,0.0604641710138099,1
424,591,55,0.05933758482036,1
425,590,55,0.0675259297747474,1
425,591,55,0.0709053345388874,1
425,592,55,0.061763643601215,1
426,590,55,0.0673737770106833,1
426,591,55,0.0671379467130144,1
426,592,55,0.057342497770722,1
427,589,55,0.061953271398828,1
427,590,55,0.0606994469994168,1
427,591,55,0.0570856448932574,1
428,586,55,0.0893222643426005,1
428,587,55,0.0815956082633729,1
428,588,55,0.0668089919889406,1
428,589,55,0.0617227129626843,1
428,590,55,0.0570548510891359,1
429,585,55,0.0936450846484053,1
429,586,55,0.142892214467724,1
429,587,55,0.128392625696511,1
429,588,55,0.084174509749901,1
429,589,55,0.0669999407004032,1
429,590,55,0.0620202193226486,1
429,626,55,0.0594322070687195,1
430,584,55,0.105997781525189,1
430,585,55,0.116068322570559,1
430,586,55,0.158114201588248,1
430,587,55,0.141803521990338,1
430,588,55,0.0968189398854938,1
430,589,55,0.0782123881811045,1
430,590,55,0.0699231525345082,1
430,603,55,0.0665875620110083,1
430,604,55,0.134373676432529,1
430,605,55,0.106405106539722,1
430,625,55,0.0597881756604074,1
430,626,55,0.0631654339395416,1
431,583,55,0.124093723366485,1
431,584,55,0.146217591496636,1
431,585,55,0.118198555618446,1
431,586,55,0.115013301602467,1
431,587,55,0.112766203060501,1
431,588,55,0.10359214973351,1
431,589,55,0.0922017150084968,1
431,590,55,0.0737195179079593,1
431,603,55,0.112082771669757,1
431,604,55,0.219112505346163,1
431,605,55,0.176526301800698,1
431,606,55,0.0592802194188866,1
431,625,55,0.0638180420414799,1
431,626,55,0.0646771490772992,1
432,583,55,0.132006940836174,1
432,584,55,0.183833502866336,1
432,585,55,0.128053693355322,1
432,586,55,0.0854869791860774,1
432,587,55,0.086785295973864,1
432,588,55,0.099505831976173,1
432,589,55,0.0852848439854499,1
432,590,55,0.0591756136564754,1
432,603,55,0.0695997232402432,1
432,604,55,0.137400786396625,1
432,605,55,0.106549864545002,1
432,625,55,0.059587384961377,1
432,626,55,0.0625093938203687,1
433,583,55,0.170901414255283,1
433,584,55,0.263960408249182,1
433,585,55,0.194843874115778,1
433,586,55,0.0962354792648133,1
433,587,55,0.0751339984543421,1
433,588,55,0.0792331833278405,1
433,589,55,0.0604229219406904,1
433,625,55,0.0586968413553218,1
434,583,55,0.167505014519202,1
434,584,55,0.26376609238679,1
434,585,55,0.199394186450575,1
434,586,55,0.0941401619798913,1
434,587,55,0.0586163599614784,1
434,625,55,0.0685554052124959,1
435,584,55,0.162713140064138,1
435,585,55,0.13148664230587,1
435,586,55,0.0746664185392901,1
435,624,55,0.0606085693059437,1
435,625,55,0.0759451928784251,1
436,585,55,0.0907500542754066,1
436,586,55,0.0658120794363623,1
436,624,55,0.0671726265985063,1
437,585,55,0.0747624796402359,1
437,586,55,0.0604609100077434,1
437,623,55,0.0609928962668427,1
438,584,55,0.0699975659803544,1
438,585,55,0.0738919679285891,1
438,586,55,0.0632903428554553,1
438,623,55,0.0774176285199642,1
439,584,55,0.0781224775852714,1
439,585,55,0.0864843929782862,1
439,586,55,0.07608575816162,1
440,585,55,0.0984922546801157,1
440,586,55,0.0894054937090063,1
440,587,55,0.058267963036679,1
440,622,55,0.065818471715885,1
441,586,55,0.0913704533083844,1
441,587,55,0.062914654907011,1
442,586,55,0.109440955764199,1
442,587,55,0.0658474787481473,1
442,621,55,0.0588902962649368,1
443,587,55,0.078320844643265,1
444,620,55,0.0857735349343501,1
445,587,55,0.0873972093147448,1
446,588,55,0.0695062803792495,1
447,588,55,0.0880007490053283,1
447,589,55,0.0655305891568258,1
448,588,55,0.0956500667580425,1
448,589,55,0.0823030519808849,1
448,590,55,0.0632615540098557,1
449,590,55,0.0815772628928976,1
450,591,55,0.0803754317855085,1
451,592,55,0.064843253993901,1
452,591,55,0.134389975565924,1
452,592,55,0.0792344806539429,1
453,591,55,0.099040941064315,1
453,592,55,0.0774561767960159,1
453,593,55,0.0661601461326992,1
454,592,55,0.0735017499277979,1
454,593,55,0.0703575857676439,1
454,594,55,0.0657436572783344,1
454,595,55,0.0606061161802228,1
454,603,55,0.0736891604771631,1
454,604,55,0.0663337637468212,1
455,594,55,0.0777761210006149,1
455,595,55,0.0745693844437674,1
455,596,55,0.070685667745067,1
455,597,55,0.0876283928261924,1
455,598,55,0.114826238972374,1
455,599,55,0.0985955159409299,1
455,600,55,0.0642004171162884,1
455,602,55,0.091149683787377,1
455,603,55,0.133741277133104,1
455,604,55,0.11585148040948,1
455,605,55,0.0680531631027625,1
455,609,55,0.0623023169866785,1
456,597,55,0.167105308347053,1
456,598,55,0.240193134588007,1
456,599,55,0.191833806299117,1
456,600,55,0.0996274975768307,1
456,601,55,0.0665933881845954,1
456,602,55,0.102149216466927,1
456,603,55,0.143397357870377,1
456,604,55,0.127359800798643,1
456,605,55,0.0892611602831775,1
456,606,55,0.0792001192030398,1
456,607,55,0.0694010908200922,1
457,597,55,0.243272184771694,1
457,598,55,0.326180828577179,2
457,599,55,0.241796110720131,1
457,603,55,0.102343520535446,1
457,604,55,0.102125145170791,1
457,605,55,0.108395393482781,1
457,606,55,0.123156393463628,1
458,598,55,0.250215615598219,2
413,608,56,0.0607355952221791,1
413,609,56,0.0625794317390878,1
413,610,56,0.0580233698908821,1
413,611,56,0.0576252205100558,1
414,608,56,0.0635274174067951,1
414,609,56,0.0620904105617252,1
415,608,56,0.0607633108252758,1
416,607,56,0.0587181116064643,1
416,608,56,0.0570229427639537,1
417,624,56,0.0727455562335198,1
417,625,56,0.098179616780248,1
418,624,56,0.086392896106446,1
418,625,56,0.127329667451447,1
418,626,56,0.0890135007302295,1
419,624,56,0.0796693089818462,1
419,625,56,0.133468072049812,1
419,626,56,0.0988038488221647,1
420,624,56,0.080936047672913,1
420,625,56,0.134883313301046,1
420,626,56,0.108471062976172,1
420,627,56,0.0597354393543449,1
421,624,56,0.0575190343685744,1
421,625,56,0.0978895464576251,1
421,626,56,0.0851002639657627,1
422,625,56,0.0747007564024458,1
422,626,56,0.0784253678485606,1
422,627,56,0.0579115403808553,1
423,625,56,0.0627829291321228,1
423,626,56,0.0718859420611332,1
423,627,56,0.0585376476486837,1
424,591,56,0.06091522181493,1
424,626,56,0.0569199704530442,1
425,590,56,0.0705826246709155,1
425,591,56,0.0730676469231246,1
425,592,56,0.0604702802403648,1
426,589,56,0.0618201008744167,1
426,590,56,0.0694402818622583,1
426,591,56,0.0690316005522552,1
426,592,56,0.0577378166218704,1
427,586,56,0.0706198402392439,1
427,587,56,0.0652514517550841,1
427,588,56,0.059217859311919,1
427,589,56,0.0601949050843201,1
427,590,56,0.060115137219833,1
427,591,56,0.0575052591241417,1
428,585,56,0.069278163274953,1
428,586,56,0.0961978921894647,1
428,587,56,0.0863064057339738,1
428,588,56,0.0657536172046387,1
428,589,56,0.0571128887414078,1
429,585,56,0.101387969097787,1
429,586,56,0.154944621630361,1
429,587,56,0.136977763736254,1
429,588,56,0.082592733105677,1
429,589,56,0.058422604308085,1
429,626,56,0.0597010189340735,1
430,584,56,0.109332169073576,1
430,585,56,0.126109001527826,1
430,586,56,0.177238380510558,1
430,587,56,0.156007343997951,1
430,588,56,0.0925703502204935,1
430,589,56,0.0609148621017834,1
430,603,56,0.0752736909908863,1
430,604,56,0.152523822917157,1
430,605,56,0.112661379111427,1
430,624,56,0.0574153249405612,1
430,625,56,0.0658295579571237,1
430,626,56,0.0661315400921413,1
431,583,56,0.132768447670535,1
431,584,56,0.153634239709822,1
431,585,56,0.12229069954937,1
431,586,56,0.122094048499994,1
431,587,56,0.112086805174548,1
431,588,56,0.0841552621480909,1
431,589,56,0.0639095625010673,1
431,603,56,0.1259086118205,1
431,604,56,0.242999510412717,1
431,605,56,0.184667589199189,1
431,606,56,0.0622915963555232,1
431,624,56,0.0686373431497361,1
431,625,56,0.0751264326843904,1
431,626,56,0.0709414827616497,1
432,583,56,0.139837329931162,1
432,584,56,0.183681078843178,1
432,585,56,0.12322462102274,1
432,586,56,0.0866354135304791,1
432,587,56,0.0861019117586147,1
432,588,56,0.0856741184763485,1
432,589,56,0.0651553552725173,1
432,603,56,0.0755407042905075,1
432,604,56,0.148914378647314,1
432,605,56,0.108709145903709,1
432,624,56,0.063033307172949,1
432,625,56,0.0689365360336335,1
433,583,56,0.17453266539752,1
433,584,56,0.25784184094631,1
433,585,56,0.181225417439441,1
433,586,56,0.0942467078345193,1
433,587,56,0.0774609886964684,1
433,588,56,0.0756823840947631,1
433,625,56,0.0639286331947726,1
434,583,56,0.183284686749526,1
434,584,56,0.28435340748126,1
434,585,56,0.205959741565092,1
434,586,56,0.0947079131608591,1
434,587,56,0.0598280271594984,1
434,624,56,0.0602661282873418,1
434,625,56,0.0712339885191829,1
435,583,56,0.143562613628076,1
435,584,56,0.21793061767913,1
435,585,56,0.164035115362483,1
435,586,56,0.077762729057076,1
435,624,56,0.0648575186840905,1
436,584,56,0.143039555331336,1
436,585,56,0.117570944631726,1
436,586,56,0.0658605817417815,1
437,584,56,0.0851955584649207,1
437,585,56,0.0775032638365962,1
437,623,56,0.0707324658357427,1
438,584,56,0.0685313339163595,1
438,585,56,0.068553642028384,1
438,586,56,0.057731206155685,1
438,622,56,0.0575006005440467,1
438,623,56,0.100222852319095,1
439,584,56,0.0736716642655912,1
439,585,56,0.0725785962610779,1
439,586,56,0.0604232285814055,1
439,622,56,0.0694567225221378,1
440,584,56,0.082442508639956,1
440,585,56,0.0761564447433903,1
440,586,56,0.0622667761484096,1
441,585,56,0.0868892589701608,1
441,586,56,0.0688813583957237,1
441,621,56,0.0613648101757165,1
442,586,56,0.0933632995220273,1
442,587,56,0.0589860153435466,1
442,620,56,0.0601031959227541,1
442,621,56,0.0667992502492989,1
443,587,56,0.0691898271612533,1
443,620,56,0.0644135677949127,1
444,587,56,0.0824792288655907,1
445,587,56,0.078837109668778,1
445,619,56,0.0661005752768517,1
446,588,56,0.0606776637147702,1
446,619,56,0.0653486745525853,1
447,588,56,0.0717911488016056,1
447,589,56,0.059378090879439,1
447,618,56,0.0572639623660322,1
448,588,56,0.0834661814918646,1
448,589,56,0.0772557870886898,1
448,590,56,0.0618057241424273,1
449,589,56,0.0907394751707352,1
449,590,56,0.0764244428314619,1
450,590,56,0.0980665253257397,1
450,591,56,0.0698473356176966,1
451,591,56,0.0922722069913517,1
451,592,56,0.060314630592761,1
452,590,56,0.128704856707737,1
452,591,56,0.102885036244461,1
452,592,56,0.0748260957947481,1
452,593,56,0.056966969039572,1
453,591,56,0.0880772440698752,1
453,592,56,0.0763860124941467,1
453,593,56,0.066618072762162,1
454,592,56,0.0735892781611521,1
454,593,56,0.0710750542777654,1
454,594,56,0.0683217744722643,1
454,595,56,0.0646686280035812,1
454,596,56,0.0581196845601116,1
454,602,56,0.0605527665927301,1
454,603,56,0.0943593216371444,1
454,604,56,0.0777781495468841,1
455,594,56,0.0818222688242725,1
455,595,56,0.079238478777113,1
455,596,56,0.0723733887563624,1
455,597,56,0.0817443054224551,1
455,598,56,0.099899818119598,1
455,599,56,0.0939428504735901,1
455,600,56,0.0647100303970582,1
455,602,56,0.125813010680626,1
455,603,56,0.208950549986069,1
455,604,56,0.166831985325025,1
455,605,56,0.0756786513337503,1
456,595,56,0.097478830704416,1
456,598,56,0.211811437094827,2
456,599,56,0.16692936733982,1
456,600,56,0.0955761191702057,1
456,601,56,0.0723224569129696,1
456,602,56,0.143012606330027,1
456,603,56,0.229497364918396,1
456,604,56,0.186847851859134,1
456,605,56,0.0967724661263437,1
456,606,56,0.067386449527929,1
457,597,56,0.31555034979214,2
457,598,56,0.352853004083605,2
457,599,56,0.229215750803186,2
457,602,56,0.0960590606056975,1
457,603,56,0.135424486987725,1
457,604,56,0.122186536057221,1
458,597,56,0.332702085902236,2
458,598,56,0.343044369590563,2
458,599,56,0.197330836460204,2
459,598,56,0.185498903971733,2
413,608,57,0.0595994559910661,1
413,609,57,0.0654584106500377,1
413,610,57,0.0601903290613407,1
413,611,57,0.0588211487836789,1
413,612,57,0.0575215759483477,1
414,608,57,0.0619932172489082,1
414,609,57,0.0641082715813971,1
415,607,57,0.0575096405482057,1
415,608,57,0.0628999715343065,1
415,609,57,0.0579681863560355,1
416,606,57,0.0578574006038275,1
416,607,57,0.0624993218522647,1
416,608,57,0.0605571244290468,1
416,625,57,0.0646636450919606,1
417,603,57,0.0569439297073808,1
417,604,57,0.0637005514720972,1
417,605,57,0.0597252730352515,1
417,606,57,0.0574687629821064,1
417,624,57,0.0815413210629243,1
417,625,57,0.105047148132846,1
417,626,57,0.0714951815421537,1
418,600,57,0.0573717524743311,1
418,624,57,0.0890643795011909,1
418,625,57,0.129430922951756,1
418,626,57,0.0937103932237874,1
419,600,57,0.0570997208814685,1
419,624,57,0.0853478763432161,1
419,625,57,0.137156169663081,1
419,626,57,0.10984675936903,1
419,627,57,0.0619384111180186,1
420,624,57,0.0787337304692273,1
420,625,57,0.125244876198765,1
420,626,57,0.10562022424777,1
420,627,57,0.0604854294710787,1
421,624,57,0.0584105214845222,1
421,625,57,0.09076639468736,1
421,626,57,0.0827974983401302,1
422,625,57,0.0804084546317514,1
422,626,57,0.0844497551733355,1
422,627,57,0.0602991570305215,1
423,625,57,0.0672364255580602,1
423,626,57,0.0766494109714916,1
423,627,57,0.0602288124710873,1
424,590,57,0.0574674774498777,1
424,591,57,0.0599230975750569,1
424,626,57,0.0592523740831796,1
425,589,57,0.0604868329420441,1
425,590,57,0.0716855877354281,1
425,591,57,0.071075136834881,1
425,592,57,0.0579881415902652,1
426,589,57,0.0634221099089013,1
426,590,57,0.07025300359298,1
426,591,57,0.0675670785999408,1
427,586,57,0.0714337944297629,1
427,587,57,0.0669056074019483,1
427,588,57,0.0593836222061846,1
427,589,57,0.0593170693771316,1
427,590,57,0.060014665210139,1
427,591,57,0.0573672118329727,1
428,585,57,0.0723634524178054,1
428,586,57,0.098149872630882,1
428,587,57,0.08807911339885,1
428,588,57,0.0658505274644879,1
429,585,57,0.098293303825376,1
429,586,57,0.14358771099122,1
429,587,57,0.126232801819615,1
429,588,57,0.077926481095883,1
429,625,57,0.0573523043766688,1
429,626,57,0.0596550876931117,1
430,584,57,0.0966230082624105,1
430,585,57,0.118706093177452,1
430,586,57,0.164626613508061,1
430,587,57,0.145438629729261,1
430,588,57,0.0870602937259517,1
430,603,57,0.0654907494516085,1
430,604,57,0.124377271676975,1
430,605,57,0.0913057462205588,1
430,624,57,0.0590357029332685,1
430,625,57,0.0670300091812948,1
431,584,57,0.130388750607031,1
431,585,57,0.109426626207704,1
431,586,57,0.11538071614854,1
431,587,57,0.10457581776597,1
431,588,57,0.0737154961970418,1
431,603,57,0.106521016730034,1
431,604,57,0.195382641852231,1
431,605,57,0.147203016816271,1
431,624,57,0.0700643841715648,1
431,625,57,0.0775892234847538,1
431,626,57,0.0724515821387162,1
432,583,57,0.132732393798762,1
432,584,57,0.15431684552941,1
432,585,57,0.107885874553,1
432,586,57,0.0853406231109163,1
432,587,57,0.0834748794736875,1
432,588,57,0.0741108032543166,1
432,603,57,0.0658581993793026,1
432,604,57,0.121043273326419,1
432,605,57,0.0885904073066161,1
432,624,57,0.0648015508566457,1
432,625,57,0.0713016086938021,1
433,583,57,0.154952617876701,1
433,584,57,0.205348818909599,1
433,585,57,0.142217805390329,1
433,586,57,0.0860595422674977,1
433,587,57,0.0753090667149241,1
433,588,57,0.0680555041866836,1
433,624,57,0.0582890622766535,1
433,625,57,0.064657972238731,1
434,583,57,0.178750048472821,1
434,584,57,0.265061366355173,1
434,585,57,0.187835423663775,1
434,586,57,0.0903664644316112,1
434,587,57,0.0595822133477778,1
434,624,57,0.0613727474526884,1
435,583,57,0.172927047437696,1
435,584,57,0.264179514834004,1
435,585,57,0.19307182101089,1
435,586,57,0.0854575062958056,1
436,584,57,0.185185776626109,1
436,585,57,0.143655655497365,1
436,586,57,0.0711043384660586,1
436,623,57,0.0596094159173704,1
437,584,57,0.0947692354069448,1
437,585,57,0.0831113392151111,1
438,584,57,0.0691360883759298,1
438,585,57,0.0672394860682745,1
438,622,57,0.0687333983537451,1
439,584,57,0.0702496187512401,1
439,585,57,0.066403465540141,1
440,584,57,0.0757512249353059,1
440,585,57,0.0680978382961796,1
440,621,57,0.0616696346342857,1
441,584,57,0.085085415478827,1
441,585,57,0.0794121435667297,1
441,586,57,0.0600706448314575,1
442,585,57,0.116460504251314,1
442,586,57,0.0817750107725242,1
442,619,57,0.0583848108399474,1
442,620,57,0.0647739826769697,1
443,586,57,0.112397491188325,1
443,587,57,0.0618321424194217,1
443,619,57,0.0570750598916492,1
443,620,57,0.0712781624729696,1
444,587,57,0.072059359179403,1
444,619,57,0.0615327136580511,1
445,587,57,0.0727474904287998,1
446,587,57,0.0825235089642403,1
446,588,57,0.0590788979955415,1
446,617,57,0.0698565171483395,1
446,618,57,0.0705715089449927,1
447,588,57,0.0702123501104803,1
447,589,57,0.05830950695664,1
447,617,57,0.0832432065164832,1
447,618,57,0.0809402344980617,1
448,588,57,0.0859079379185587,1
448,589,57,0.0773328541561092,1
448,590,57,0.060887240849676,1
448,617,57,0.0629143659571063,1
449,589,57,0.0895515018648945,1
449,590,57,0.0739051004069075,1
450,589,57,0.0961997379306922,1
450,590,57,0.0854427698506697,1
450,591,57,0.0661177176722139,1
451,589,57,0.0964403152625085,1
451,590,57,0.092724077466691,1
451,591,57,0.0775926378111778,1
451,592,57,0.0588689965291102,1
452,590,57,0.0956391928065296,1
452,591,57,0.0859163056719192,1
452,592,57,0.0727986227680448,1
452,593,57,0.0583526489464816,1
453,591,57,0.0819861446987529,1
453,592,57,0.0768642127924279,1
453,593,57,0.0675018761694215,1
453,594,57,0.0580656450310099,1
454,592,57,0.0744198381257818,1
454,593,57,0.0720978602799601,1
454,594,57,0.0715420386021976,1
454,595,57,0.0679064119328338,1
454,596,57,0.0600776091138527,1
454,602,57,0.0702839389235854,1
454,603,57,0.10985972083618,1
454,604,57,0.0869293758314091,1
455,595,57,0.0848316879778819,1
455,596,57,0.0753749472931786,1
455,597,57,0.0789323628893783,1
455,598,57,0.0896442724750897,1
455,599,57,0.091895080190321,1
455,600,57,0.0699642070087123,1
455,601,57,0.0681867523096886,1
455,602,57,0.150803462360513,1
455,603,57,0.256288446259045,1
455,604,57,0.196715031141016,1
455,605,57,0.0857535914939941,1
456,597,57,0.172611101356267,2
456,598,57,0.182523262472281,2
456,599,57,0.140348535384876,1
456,600,57,0.0918024511066097,1
456,601,57,0.0823768639391746,1
456,602,57,0.175066526882531,1
456,603,57,0.292644453487463,1
456,604,57,0.230654792091462,1
456,605,57,0.10868206716979,1
457,596,57,0.18784685192735,2
457,597,57,0.350824103998189,2
457,598,57,0.349742016090052,2
457,599,57,0.20050644308753,2
457,603,57,0.163591099607,1
457,604,57,0.13939141536202,1
458,596,57,0.207513159840105,2
458,597,57,0.405394168712589,2
458,598,57,0.396588485235438,2
458,599,57,0.206185924474109,2
459,597,57,0.221023820511207,2
459,598,57,0.215330068537502,2
413,609,58,0.0626097419943893,1
413,610,58,0.060353343983044,1
413,611,58,0.0575646707626947,1
414,608,58,0.0596961421673158,1
414,609,58,0.0650139349334821,1
414,610,58,0.0590647866257095,1
415,608,58,0.0630366979116258,1
415,609,58,0.0622798496573597,1
416,604,58,0.0642952339635633,1
416,605,58,0.0618892188709904,1
416,606,58,0.0593964893223457,1
416,607,58,0.0590629998538503,1
416,608,58,0.0583934203677179,1
416,625,58,0.0609979853233262,1
417,600,58,0.0577908182900902,1
417,601,58,0.0595817121081474,1
417,602,58,0.0568661078320473,1
417,603,58,0.0666512076502047,1
417,604,58,0.0768858014781592,1
417,605,58,0.069366387346853,1
417,606,58,0.0602832824765776,1
417,624,58,0.0761551651080984,1
417,625,58,0.0947148361646964,1
417,626,58,0.0690934948012133,1
418,599,58,0.0599609912911206,1
418,600,58,0.0685353674211506,1
418,601,58,0.0653663889508198,1
418,603,58,0.0604567703580894,1
418,604,58,0.0665488427237885,1
418,605,58,0.0569329673018155,1
418,624,58,0.0767979489132795,1
418,625,58,0.107672452615282,1
418,626,58,0.0857252036400989,1
419,599,58,0.0625501003752999,1
419,600,58,0.0695338131773045,1
419,601,58,0.0625957603571676,1
419,624,58,0.0768027195351742,1
419,625,58,0.1165981859324,1
419,626,58,0.103250917586958,1
420,598,58,0.0598426633567082,1
420,599,58,0.063296841279841,1
420,600,58,0.0630123258717111,1
420,624,58,0.0675276634741751,1
420,625,58,0.0993309170359486,1
420,626,58,0.0895958999022807,1
421,597,58,0.057329524509698,1
421,598,58,0.0616021323984031,1
421,599,58,0.0580534796503315,1
421,626,58,0.0738130197383213,1
422,625,58,0.0764086036591389,1
422,626,58,0.0785551004588006,1
422,627,58,0.05700840681467,1
423,625,58,0.0643996628178697,1
423,626,58,0.0715526353976795,1
425,589,58,0.0592852318151913,1
425,590,58,0.0682683246368454,1
425,591,58,0.0636284201408037,1
426,589,58,0.0623553776242666,1
426,590,58,0.0676835254115048,1
426,591,58,0.061721309491719,1
427,586,58,0.0677454373512733,1
427,587,58,0.0654366037776438,1
427,588,58,0.0577746665801154,1
427,590,58,0.0580533735054685,1
428,585,58,0.0700637944778819,1
428,586,58,0.0932726636029642,1
428,587,58,0.0857044110408395,1
428,588,58,0.064177867229854,1
429,585,58,0.0858487149819842,1
429,586,58,0.117183574851423,1
429,587,58,0.104461322840497,1
429,588,58,0.0701488106161469,1
430,585,58,0.10123851713079,1
430,586,58,0.13045503217699,1
430,587,58,0.11566790876599,1
430,588,58,0.0757295360016485,1
430,604,58,0.0792009034956381,1
430,605,58,0.060447087587816,1
430,625,58,0.0642484712545087,1
431,585,58,0.0948705506786053,1
431,586,58,0.101487391452725,1
431,587,58,0.0903437730186929,1
431,588,58,0.0646884122266428,1
431,603,58,0.0711958471317724,1
431,604,58,0.12153986617067,1
431,605,58,0.093916732940374,1
431,624,58,0.0645937604935991,1
431,625,58,0.0736939193051842,1
432,584,58,0.118184131710962,1
432,585,58,0.0943023867120596,1
432,586,58,0.0832577483627037,1
432,587,58,0.0776576102611607,1
432,588,58,0.0631264257024172,1
432,604,58,0.0783757097435229,1
432,605,58,0.0603697551582393,1
432,624,58,0.0620353803472362,1
433,584,58,0.146951500666637,1
433,585,58,0.106658415358152,1
433,586,58,0.0765639348721539,1
433,587,58,0.0679724930069406,1
433,588,58,0.057788135183833,1
433,624,58,0.0576108850566243,1
434,583,58,0.161329412043319,1
434,584,58,0.22882159954553,1
434,585,58,0.16298734762669,1
434,586,58,0.0825410582482437,1
434,624,58,0.0601992688175736,1
435,583,58,0.185410650415149,1
435,584,58,0.281791212016768,1
435,585,58,0.206816825951579,1
435,586,58,0.0905500301781639,1
436,584,58,0.200501678362573,1
436,585,58,0.153880908577382,1
436,586,58,0.0733070448675751,1
437,584,58,0.0984616849595937,1
437,585,58,0.0858069941539183,1
438,584,58,0.0703513055299209,1
438,585,58,0.0670168708060396,1
439,584,58,0.0681362568396212,1
439,585,58,0.0629044944848545,1
439,621,58,0.0576796492369883,1
440,585,58,0.0623400396915742,1
441,584,58,0.0763812123875678,1
441,585,58,0.0719869330012682,1
441,620,58,0.0569736207843152,1
442,584,58,0.0966087907477156,1
442,585,58,0.097364418336058,1
442,586,58,0.0695961025210301,1
443,585,58,0.115102675577048,1
443,586,58,0.0825702421886108,1
443,619,58,0.059056041468392,1
444,586,58,0.092872267489206,1
444,587,58,0.0622037909661381,1
445,586,58,0.0975071595889429,1
445,587,58,0.0665087494502875,1
446,587,58,0.077305981814979,1
446,588,58,0.0578586330636247,1
446,616,58,0.0572864591800352,1
446,617,58,0.0984727594069587,1
446,618,58,0.0944014611477251,1
447,587,58,0.094404981619012,1
447,588,58,0.0765163937674378,1
447,589,58,0.0579299034421411,1
447,616,58,0.0698610400988874,1
447,617,58,0.119990304492343,1
447,618,58,0.107833250288738,1
448,589,58,0.0806056481993161,1
449,590,58,0.0685846481222313,1
450,589,58,0.0908037694729827,1
450,590,58,0.0746737956072633,1
450,591,58,0.0618418546743792,1
451,589,58,0.0829388950914181,1
451,590,58,0.0753484759437529,1
451,591,58,0.0677250339498447,1
452,590,58,0.07679433998794,1
452,591,58,0.0742517223537213,1
452,592,58,0.0682527036511851,1
452,593,58,0.0570943723597645,1
453,592,58,0.0744478014002253,1
453,593,58,0.0670357763855136,1
453,594,58,0.0598099353573067,1
454,593,58,0.0722934852623283,1
454,594,58,0.0743234762810576,1
454,595,58,0.0708127231459866,1
454,596,58,0.0604505844713557,1
454,599,58,0.0594890535397519,1
454,602,58,0.0736192404971806,1
454,603,58,0.11101461232641,1
454,604,58,0.0878407179336605,1
455,596,58,0.0784600595279261,1
455,597,58,0.0764683396292176,1
455,598,58,0.082727395555106,1
455,599,58,0.0873723537260102,1
455,600,58,0.0738196950708118,1
455,601,58,0.0752008166455525,1
455,602,58,0.152638777803703,1
455,603,58,0.252899240785895,1
455,604,58,0.19371323082979,1
455,605,58,0.0869870714613449,1
456,597,58,0.163089730243917,2
456,602,58,0.181237081580489,1
456,603,58,0.300558496528308,1
456,604,58,0.237981028469184,1
456,605,58,0.112350185961082,1
457,596,58,0.185324578725192,2
457,597,58,0.333448284288588,2
457,598,58,0.315138342609765,2
457,603,58,0.172941046765728,1
457,604,58,0.146655745696911,1
458,596,58,0.207308654070873,2
458,597,58,0.398577356913658,2
458,598,58,0.380436091215895,2
458,599,58,0.190410285748576,2
459,597,58,0.221727443013654,2
459,598,58,0.21419915399242,2
414,608,59,0.0584678220196905,1
414,609,59,0.0625740360418892,1
414,610,59,0.0587730238822168,1
415,608,59,0.0617854209889248,1
415,609,59,0.0626813190136208,1
416,603,59,0.0593232552638653,1
416,604,59,0.0663677006182726,1
416,605,59,0.0636020195546199,1
416,606,59,0.0577869322087199,1
417,600,59,0.056916803797967,1
417,601,59,0.0604989924257856,1
417,602,59,0.0602265067687871,1
417,603,59,0.0696409192409312,1
417,604,59,0.0773700520336271,1
417,605,59,0.0702530861500956,1
417,606,59,0.0590120680104575,1
417,625,59,0.0727458392864876,1
418,599,59,0.0605426533460682,1
418,600,59,0.0696486029496195,1
418,601,59,0.0689843778821279,1
418,602,59,0.0613289744906061,1
418,603,59,0.0642892131910608,1
418,604,59,0.0678518004008596,1
418,605,59,0.0587583228187018,1
418,625,59,0.076751593092866,1
419,598,59,0.0586739730342986,1
419,599,59,0.068936347331655,1
419,600,59,0.0759376801809048,1
419,601,59,0.0679602568630202,1
419,625,59,0.0850020327920637,1
420,597,59,0.0590449906087743,1
420,598,59,0.0734866242848313,1
420,599,59,0.079440908824582,1
420,600,59,0.0739457303016599,1
420,601,59,0.0572963601369712,1
421,597,59,0.0683414938290207,1
421,598,59,0.0830986490070549,1
421,599,59,0.0820731186200451,1
421,600,59,0.0670236935619508,1
422,597,59,0.0686837461456442,1
422,598,59,0.0749900424324704,1
422,599,59,0.0694701557442345,1
422,626,59,0.0653966225459426,1
425,590,59,0.062727509719803,1
425,591,59,0.0584862735350287,1
426,589,59,0.0582307769530348,1
426,590,59,0.0624895034524442,1
426,591,59,0.058301569679668,1
427,586,59,0.0631673327532006,1
427,587,59,0.0633542597537458,1
428,585,59,0.0664989723290249,1
428,586,59,0.0847230899892374,1
428,587,59,0.0812946934739213,1
428,588,59,0.0628037453191295,1
429,585,59,0.0755151823479112,1
429,586,59,0.0933106398761436,1
429,587,59,0.0867216975101623,1
429,588,59,0.0658496547178372,1
430,586,59,0.098142560429214,1
430,587,59,0.0880826043854528,1
430,588,59,0.0671856057564671,1
431,586,59,0.0924912369159945,1
431,587,59,0.0803959590226106,1
431,588,59,0.061225436073761,1
431,604,59,0.0638726653673277,1
431,624,59,0.058203928199652,1
432,585,59,0.0894041315165987,1
432,586,59,0.0862890569458226,1
432,587,59,0.0754657542234097,1
432,588,59,0.0577194830452688,1
433,585,59,0.0912547907894187,1
433,586,59,0.0766961736805462,1
433,587,59,0.0656841689796025,1
434,584,59,0.180049874876436,1
434,585,59,0.138477331184144,1
434,586,59,0.079882335824797,1
435,583,59,0.16767326592081,1
435,584,59,0.245949134626879,1
435,585,59,0.191852971343812,1
435,586,59,0.0934984101386554,1
436,584,59,0.178321765744798,1
436,585,59,0.144886959495026,1
436,586,59,0.0756788872112235,1
437,584,59,0.095801447023382,1
437,585,59,0.0864536286588488,1
437,586,59,0.0589261437439208,1
438,584,59,0.0712509009340088,1
438,585,59,0.0678419996918497,1
439,585,59,0.0624591990940795,1
440,585,59,0.0608057923581926,1
441,585,59,0.0665988959235938,1
442,585,59,0.0795462693949073,1
442,586,59,0.0613908569456905,1
443,586,59,0.0664132072797827,1
444,585,59,0.090058986351469,1
444,586,59,0.0739369143811004,1
444,587,59,0.0593385755057472,1
445,586,59,0.0895290994018808,1
445,587,59,0.0656119432973199,1
445,617,59,0.0666645701090594,1
445,618,59,0.0762592873216896,1
446,586,59,0.103837886885052,1
446,587,59,0.0769194965752006,1
446,588,59,0.0597125828271953,1
446,616,59,0.0685472497488613,1
446,617,59,0.120284137060663,1
446,618,59,0.118293295805542,1
446,619,59,0.0942483884615156,1
447,589,59,0.0613728889791723,1
447,616,59,0.0829545396648257,1
447,617,59,0.138993666972899,1
447,618,59,0.12566633027394,1
447,619,59,0.0838023009941858,1
448,617,59,0.0910045483781395,1
448,618,59,0.0824567261546509,1
449,590,59,0.065959072380701,1
450,589,59,0.0890283138355441,1
450,590,59,0.0689696827155498,1
450,591,59,0.0606028905557773,1
451,589,59,0.0765183279627178,1
451,590,59,0.0689962366220912,1
451,591,59,0.0642996507692483,1
452,591,59,0.0688818183567964,1
452,592,59,0.0667328743283507,1
452,593,59,0.0593519497584756,1
453,592,59,0.0727822115928494,1
453,593,59,0.0695910429492308,1
453,594,59,0.0650812838490071,1
453,595,59,0.0608442875618129,1
454,594,59,0.0783237636269954,1
454,595,59,0.0757234326720304,1
454,596,59,0.0639948675892369,1
454,597,59,0.0573210093329168,1
454,598,59,0.0580829112620454,1
454,599,59,0.0627718369939473,1
454,600,59,0.0605842208537764,1
454,601,59,0.0585013578994375,1
454,602,59,0.0773320344818899,1
454,603,59,0.104225716626428,1
454,604,59,0.0854037321288612,1
455,595,59,0.0951978011879356,1
455,597,59,0.0794434739921026,1
455,598,59,0.0814951834291735,1
455,599,59,0.0842905319820133,1
455,600,59,0.0796977970836675,1
455,601,59,0.0829407821112034,1
455,602,59,0.138612524357887,1
455,603,59,0.207119032170196,1
455,604,59,0.163637378767234,1
456,599,59,0.104139173181524,1
456,600,59,0.0837186529452652,1
456,601,59,0.0902707748376856,1
456,602,59,0.162122927450788,1
456,603,59,0.24798511103649,1
456,604,59,0.203684821275167,1
456,605,59,0.10811954657179,1
457,597,59,0.268213208327079,2
457,603,59,0.155284320573337,1
457,604,59,0.137567881998614,1
458,597,59,0.315533814781271,2
458,598,59,0.297814439532008,2
414,609,60,0.0592171398856258,1
415,603,60,0.0571141329950787,1
415,604,60,0.0570166920109149,1
415,609,60,0.0591376255894224,1
416,603,60,0.0636767101564972,1
416,604,60,0.0653308009370563,1
416,605,60,0.0618825435384999,1
417,601,60,0.0577418147450405,1
417,602,60,0.0623694889940986,1
417,603,60,0.0697526897815897,1
417,604,60,0.0715022578663486,1
417,605,60,0.066411332053871,1
417,606,60,0.0569377320267734,1
418,599,60,0.0579480011412696,1
418,600,60,0.0636645152911346,1
418,601,60,0.0667968619898831,1
418,602,60,0.0651232936269775,1
418,603,60,0.0659709841930957,1
418,604,60,0.0645667230382377,1
418,605,60,0.0573815590802779,1
419,598,60,0.0610545369475172,1
419,599,60,0.0694057376063135,1
419,600,60,0.0726793690145501,1
419,601,60,0.0681592136146968,1
419,602,60,0.0605309243387151,1
420,597,60,0.0635221986177014,1
420,598,60,0.0827666750513246,1
420,599,60,0.09020158607787,1
420,600,60,0.0775756428392364,1
420,601,60,0.0577126131138629,1
421,597,60,0.0756524099648609,1
421,598,60,0.100899207385644,1
421,599,60,0.103949103113649,1
421,600,60,0.0780448797935374,1
422,597,60,0.0763442385936494,1
422,598,60,0.0924427523013857,1
422,599,60,0.0889721749969312,1
422,600,60,0.0633421356516252,1
423,619,60,0.0635638958580199,1
424,619,60,0.0587639013209422,1
426,590,60,0.0568754249922373,1
426,591,60,0.0568857446316882,1
427,587,60,0.0601810413858349,1
428,586,60,0.0728007928407979,1
428,587,60,0.0736927340208816,1
428,588,60,0.0607709532554063,1
429,586,60,0.0746070953547894,1
429,587,60,0.073350004052375,1
429,588,60,0.0622822025351545,1
430,586,60,0.076461251511149,1
430,587,60,0.0698801107925927,1
430,588,60,0.0608979968624522,1
431,586,60,0.085738760697869,1
431,587,60,0.0723565294139681,1
431,588,60,0.0575956945473525,1
432,585,60,0.0866273877994547,1
432,586,60,0.0887981210094839,1
432,587,60,0.0740362423850496,1
433,585,60,0.083968907150418,1
433,586,60,0.0775077631993968,1
433,587,60,0.0642666338199423,1
434,585,60,0.112356023928543,1
434,586,60,0.0759780683012472,1
435,584,60,0.176377698992605,1
435,585,60,0.151531167952969,1
435,586,60,0.0870208255277546,1
436,584,60,0.133709716727194,1
436,585,60,0.118642288320961,1
436,586,60,0.0720454424084864,1
437,584,60,0.0842538707257469,1
437,585,60,0.0790710529466616,1
437,586,60,0.0585454139144876,1
438,585,60,0.0650898874798407,1
439,585,60,0.0598776970584098,1
443,586,60,0.0580028662415274,1
444,586,60,0.0657930205365307,1
444,587,60,0.0590587953378912,1
445,586,60,0.0820744218430843,1
445,587,60,0.0654751284659482,1
445,617,60,0.0753378378697132,1
445,618,60,0.0901525412542624,1
446,586,60,0.0967628246346282,1
446,587,60,0.0761366782111392,1
446,588,60,0.0628678804040826,1
446,616,60,0.0884373169295961,1
446,617,60,0.130922494153305,1
446,618,60,0.132698250534522,1
446,619,60,0.104489486610793,1
447,589,60,0.0644206028405497,1
447,615,60,0.0646575771439635,1
447,616,60,0.107715865864218,1
447,617,60,0.144019638026204,1
447,618,60,0.130843027032596,1
447,619,60,0.0943478344042013,1
448,617,60,0.0946254327054306,1
448,618,60,0.0865236370928837,1
449,590,60,0.0603087808314266,1
450,589,60,0.0840576737405063,1
450,590,60,0.0616505344558962,1
450,591,60,0.0593393951799665,1
451,590,60,0.0625506193057409,1
451,591,60,0.0618392305374902,1
451,592,60,0.0574301498397496,1
452,591,60,0.0642734447819799,1
452,592,60,0.0644353805642434,1
452,593,60,0.0607341740604033,1
453,592,60,0.0690024932720668,1
453,593,60,0.0702431262237913,1
453,594,60,0.0687825375283419,1
453,595,60,0.0641372373351016,1
454,593,60,0.0759160030411211,1
454,594,60,0.0795682708662166,1
454,595,60,0.0775445895698944,1
454,596,60,0.0666959064313691,1
454,597,60,0.0610204113740872,1
454,598,60,0.0607571190416053,1
454,599,60,0.06352117844763,1
454,600,60,0.0642352503221379,1
454,601,60,0.0629995825912235,1
454,602,60,0.0748448775385488,1
454,603,60,0.0910011458455891,1
454,604,60,0.0795257657455525,1
454,605,60,0.0605905364731204,1
455,599,60,0.0803487540432937,1
455,600,60,0.0811985085373021,1
455,601,60,0.0842776884535996,1
455,602,60,0.11409512495043,1
455,603,60,0.149660282186826,1
455,604,60,0.126610111425688,1
456,603,60,0.172734241191132,1
456,604,60,0.151580890924312,1
456,605,60,0.0994159272772767,1
457,604,60,0.11373107165835,1
415,603,61,0.0594024393316063,1
416,602,61,0.0606183700149537,1
416,603,61,0.0663940717197723,1
416,604,61,0.0618902508349355,1
416,605,61,0.0573660442394806,1
417,602,61,0.0627080911068248,1
417,603,61,0.0675261125797891,1
417,604,61,0.0639764986310143,1
417,605,61,0.0596529176203586,1
418,601,61,0.0598933298379437,1
418,602,61,0.0628428950827378,1
418,603,61,0.0631192668211067,1
418,604,61,0.0597796899683103,1
419,598,61,0.05938309148187,1
419,599,61,0.0655985631476547,1
419,600,61,0.0651382777434602,1
419,601,61,0.0620169583165821,1
419,602,61,0.0589586653505333,1
420,597,61,0.062479643774066,1
420,598,61,0.080857866084433,1
420,599,61,0.0886760897987427,1
420,600,61,0.0742094059350358,1
421,597,61,0.0726238316634938,1
421,598,61,0.0994624423149846,1
421,599,61,0.105412828979491,1
421,600,61,0.0781917960776973,1
422,597,61,0.0714205381157711,1
422,598,61,0.091291316416138,1
422,599,61,0.0904124605388781,1
422,600,61,0.0633590716541983,1
423,590,61,0.0574647648589363,1
423,591,61,0.0601345027603797,1
423,619,61,0.0607897467930806,1
424,591,61,0.0573136440588173,1
426,591,61,0.0587942410609278,1
428,587,61,0.0648867085213945,1
428,588,61,0.0600202319185057,1
429,587,61,0.0646658505463347,1
429,588,61,0.0605059743989913,1
430,586,61,0.0681915288285202,1
430,587,61,0.0639407337091459,1
430,588,61,0.0590950497055164,1
431,586,61,0.0799656831299393,1
431,587,61,0.0688919728820161,1
432,586,61,0.0853777443282554,1
432,587,61,0.0722531679052278,1
433,586,61,0.0747153572180347,1
433,587,61,0.0634008396577588,1
434,585,61,0.0870980754002157,1
434,586,61,0.0704430677639184,1
435,585,61,0.106593501877538,1
435,586,61,0.0761403166211628,1
436,585,61,0.0903377935247482,1
436,586,61,0.0670435308574439,1
437,585,61,0.0696016161569653,1
437,586,61,0.0578131912684198,1
444,586,61,0.0639613317094899,1
444,587,61,0.0610761020455011,1
445,586,61,0.0765307174269957,1
445,587,61,0.0677698329789353,1
445,588,61,0.06112168536719,1
445,616,61,0.0607864327145827,1
445,617,61,0.0781672176449937,1
445,618,61,0.0945548817532074,1
446,586,61,0.090045700552793,1
446,587,61,0.0792819922739749,1
446,588,61,0.0688259271895303,1
446,589,61,0.0579988032520522,1
446,615,61,0.0755577877165013,1
446,616,61,0.111935548744882,1
446,617,61,0.123593722092746,1
446,618,61,0.125531903701984,1
446,619,61,0.10426973136292,1
447,589,61,0.0698726983429985,1
447,615,61,0.098463778372168,1
447,616,61,0.139614626214875,1
447,617,61,0.135570141327403,1
447,618,61,0.119762930402087,1
447,619,61,0.0979636119841985,1
448,590,61,0.0573614033501961,1
448,615,61,0.0723459208246126,1
448,616,61,0.0974879001932591,1
448,617,61,0.09106822350202,1
448,618,61,0.0842229059104573,1
449,590,61,0.0610188545827644,1
450,589,61,0.0861278287959785,1
450,590,61,0.0610488464034771,1
450,591,61,0.0599057782715899,1
451,590,61,0.0607878420824848,1
451,591,61,0.0614123158988116,1
451,592,61,0.0599019629534615,1
452,591,61,0.062603886336118,1
452,592,61,0.0638135957511108,1
452,593,61,0.0624872803072597,1
452,594,61,0.0586700751590545,1
453,593,61,0.0702240437362124,1
453,594,61,0.0712060429355499,1
453,595,61,0.0650867797941318,1
454,594,61,0.0779944373959014,1
454,595,61,0.0755135135147885,1
454,597,61,0.0644650185687464,1
454,598,61,0.0637712911262989,1
454,599,61,0.0622450990086258,1
454,600,61,0.0627473116336751,1
454,601,61,0.0630813790019798,1
454,602,61,0.0685761801209448,1
454,603,61,0.0764504306320677,1
454,604,61,0.0726896296846328,1
455,603,61,0.102800922337531,1
456,604,61,0.106183016104865,1
416,602,62,0.0604750449653227,1
416,603,62,0.0641025102741151,1
416,604,62,0.0574090977752697,1
417,602,62,0.0634029802458277,1
417,603,62,0.0682830905666654,1
417,604,62,0.0623807285556949,1
418,602,62,0.0648048118627121,1
418,603,62,0.067785300644238,1
418,604,62,0.0619550404798767,1
419,599,62,0.0589930326983732,1
419,600,62,0.0577408417504637,1
419,602,62,0.0593219933193839,1
419,603,62,0.0570506111915558,1
420,598,62,0.0695834182099108,1
420,599,62,0.0765833829698163,1
420,600,62,0.0655279768138105,1
421,597,62,0.0625247199591875,1
421,598,62,0.0829914367985653,1
421,599,62,0.0883070300072943,1
421,600,62,0.0666334873550332,1
422,597,62,0.0592448790764699,1
422,598,62,0.0748719857571521,1
422,599,62,0.0744117593223259,1
423,590,62,0.0589945482111383,1
423,591,62,0.0645673893920994,1
424,591,62,0.058602950327129,1
425,591,62,0.0571245941610136,1
425,592,62,0.05700985746113,1
426,591,62,0.0601759700201619,1
426,592,62,0.0573264286178627,1
428,587,62,0.0579255279150139,1
428,588,62,0.0584541470231838,1
428,589,62,0.0569019199294104,1
429,587,62,0.0596926806653971,1
429,588,62,0.0593981581554684,1
429,589,62,0.0574010071779402,1
430,587,62,0.0619815472109234,1
430,588,62,0.0585205642226898,1
431,586,62,0.0710709146281113,1
431,587,62,0.0650456781444331,1
432,586,62,0.0749980386788106,1
432,587,62,0.0665486245371258,1
433,586,62,0.066653991004388,1
433,587,62,0.0593078347740572,1
434,586,62,0.0621503706154034,1
435,586,62,0.0637293049360758,1
436,586,62,0.0602677971204644,1
438,619,62,0.0599268716146275,1
438,620,62,0.0610553271370523,1
439,619,62,0.0698314020943844,1
439,620,62,0.06787093596087,1
440,619,62,0.0657353956698368,1
444,587,62,0.062869696660626,1
444,588,62,0.0629999717890542,1
444,589,62,0.0584006087337125,1
444,617,62,0.0570724357547603,1
445,586,62,0.0708512714220383,1
445,587,62,0.0697751630078454,1
445,588,62,0.0680738495571589,1
445,589,62,0.0624275325433073,1
445,616,62,0.0659972137681115,1
445,617,62,0.0737222776743953,1
446,587,62,0.0814820155692341,1
446,588,62,0.0739035907910793,1
446,589,62,0.0624994751726222,1
446,615,62,0.0947983190993858,1
446,616,62,0.127199533849502,1
446,618,62,0.103715902849806,1
446,619,62,0.0945202195585261,1
447,589,62,0.0710613615904482,1
447,614,62,0.0597291709104955,1
447,615,62,0.126585367878753,1
447,616,62,0.163588823389384,1
447,617,62,0.120735311697456,1
447,618,62,0.0989668047744997,1
447,619,62,0.0915959993482234,1
448,590,62,0.0591992780639705,1
448,616,62,0.105075288315394,1
449,590,62,0.0615093146127133,1
450,590,62,0.060865192202872,1
450,591,62,0.0594818356890731,1
450,592,62,0.0572355509243897,1
451,591,62,0.0606330887692791,1
451,592,62,0.0613313627500219,1
451,593,62,0.0576965085793826,1
452,592,62,0.0628660700444761,1
452,593,62,0.0634472072720459,1
452,594,62,0.0606378358034265,1
452,603,62,0.0633348529346413,1
452,604,62,0.0632010219533051,1
453,593,62,0.0680981095552738,1
453,594,62,0.0706521259683832,1
453,595,62,0.0638309681270093,1
453,603,62,0.0623009960728288,1
453,604,62,0.062520769011512,1
453,605,62,0.0640437649894237,1
453,606,62,0.0641503992981041,1
454,595,62,0.0706221754262282,1
454,598,62,0.0621007184073025,1
454,603,62,0.0667315828991851,1
416,602,63,0.0568745463486497,1
416,603,63,0.0596256501844609,1
417,602,63,0.0672595297565565,1
417,603,63,0.073432431435372,1
417,604,63,0.064712454038095,1
418,601,63,0.0574824969479814,1
418,602,63,0.07713150324808,1
418,603,63,0.0833203738318286,1
418,604,63,0.0688470795019362,1
419,601,63,0.0575196948254993,1
419,602,63,0.0693393557884285,1
419,603,63,0.0697832241204907,1
420,598,63,0.0587699515781288,1
420,599,63,0.0640796065714709,1
420,600,63,0.0582253753588994,1
421,598,63,0.0639508646466183,1
421,599,63,0.0666759099185817,1
423,591,63,0.0635379021604773,1
423,592,63,0.0573729023770128,1
424,591,63,0.0588660952361902,1
424,592,63,0.0568666857318566,1
425,591,63,0.0570859987094672,1
425,592,63,0.0570754078109221,1
426,591,63,0.0584493646074154,1
428,589,63,0.0579092700601761,1
429,588,63,0.0592235439590222,1
429,589,63,0.0585280297447155,1
430,587,63,0.0613965592836043,1
430,588,63,0.0588034049007602,1
431,587,63,0.0624139460008531,1
432,587,63,0.0613086300585457,1
438,618,63,0.0586710540505682,1
438,619,63,0.0809077010975756,1
438,620,63,0.0720033028979057,1
439,618,63,0.071108843725796,1
439,619,63,0.095050218549914,1
439,620,63,0.0808426991629086,1
440,618,63,0.0626265482643522,1
440,619,63,0.0790286775586078,1
444,587,63,0.0643127065873879,1
444,588,63,0.0697397519021867,1
444,589,63,0.0679619669747006,1
444,617,63,0.0623331815540419,1
445,587,63,0.0716917559313514,1
445,588,63,0.0743776750274538,1
445,589,63,0.0703984043643748,1
445,615,63,0.0634192734822865,1
445,616,63,0.0753462999740629,1
445,617,63,0.0739001351860974,1
446,588,63,0.0769113941839975,1
446,589,63,0.0672481545654132,1
446,614,63,0.0622850389617693,1
446,615,63,0.112175542279952,1
446,616,63,0.135408293999192,1
447,588,63,0.0968659030904006,1
447,589,63,0.0726735605317735,1
447,590,63,0.0574221123148515,1
447,614,63,0.0745845572622287,1
447,615,63,0.144372097940478,1
447,616,63,0.170553436012999,1
447,617,63,0.111554700976712,1
448,589,63,0.0893630593515841,1
448,590,63,0.0617391831072479,1
448,616,63,0.107244169887259,1
449,590,63,0.0646405762750852,1
449,591,63,0.0577514385459456,1
450,591,63,0.0599808049988664,1
450,592,63,0.0604335305300459,1
451,592,63,0.062437757831769,1
451,593,63,0.0617032530711483,1
451,603,63,0.0947212756197138,1
451,604,63,0.0936320052425184,1
451,605,63,0.0611002617956899,1
451,611,63,0.0603778103739479,1
452,593,63,0.0642725720353292,1
452,594,63,0.0620380693504302,1
452,602,63,0.0724296868122697,1
452,603,63,0.11606787440336,1
452,604,63,0.112298493412839,1
452,605,63,0.0734026047288905,1
452,606,63,0.0583989988699582,1
452,607,63,0.0582691188362975,1
453,595,63,0.0622906410517569,1
453,602,63,0.069872161721747,1
453,603,63,0.0936955860154096,1
453,604,63,0.0928798745377155,1
453,605,63,0.0819082461632406,1
453,606,63,0.0798498201151214,1
453,607,63,0.0640579176378135,1
416,603,64,0.0571454693173885,1
417,601,64,0.0569197109878237,1
417,602,64,0.0766546828330168,1
417,603,64,0.0853319310260302,1
417,604,64,0.0699189008430544,1
417,605,64,0.0568561950812376,1
418,601,64,0.0677217729437782,1
418,602,64,0.101662035133855,1
418,603,64,0.110761173775369,1
418,604,64,0.0795200398198915,1
419,601,64,0.0670155734799372,1
419,602,64,0.0926522527761127,1
419,603,64,0.0952257939470633,1
419,604,64,0.0636099155530341,1
420,599,64,0.0592825310181236,1
420,602,64,0.0598443086020835,1
423,592,64,0.059233521576137,1
424,592,64,0.0587517418372006,1
427,590,64,0.0570065610734425,1
428,589,64,0.060156262457279,1
428,590,64,0.0602791310330499,1
429,589,64,0.0605344801916231,1
429,590,64,0.0593972087486389,1
430,588,64,0.0605075960566193,1
430,589,64,0.057065577617228,1
431,588,64,0.0573609198013761,1
437,619,64,0.0773044545083403,1
438,618,64,0.0799543197326697,1
438,619,64,0.117610277200376,1
438,620,64,0.096068772860655,1
439,618,64,0.0891706894783457,1
439,619,64,0.122285392306224,1
440,618,64,0.0698800046477297,1
443,616,64,0.0572345779298129,1
444,588,64,0.071411468626928,1
444,589,64,0.0699034626624358,1
444,615,64,0.0601100245756022,1
444,616,64,0.0624686636776902,1
444,617,64,0.0676773100400869,1
445,588,64,0.0755251481711523,1
445,589,64,0.0720579733992482,1
445,614,64,0.0588442883637963,1
445,615,64,0.0794504913469292,1
445,616,64,0.0848198587226027,1
446,589,64,0.0686624228220702,1
446,614,64,0.0744151264732553,1
446,615,64,0.124640286853426,1
446,616,64,0.138833034413674,1
447,589,64,0.0724148619130814,1
447,590,64,0.0589320819593077,1
447,614,64,0.0854482304141735,1
447,615,64,0.148523411735546,1
447,616,64,0.165008015588293,1
447,617,64,0.108590947701907,1
448,590,64,0.0624939143611924,1
448,592,64,0.0574227550809659,1
448,616,64,0.105297060315663,1
449,591,64,0.0589707658649066,1
449,592,64,0.0617191453159027,1
449,593,64,0.0600182033722364,1
450,592,64,0.06369593417056,1
450,593,64,0.0631184884254452,1
450,606,64,0.0598349619572094,1
450,607,64,0.0752014947932878,1
450,608,64,0.0587100622876926,1
450,610,64,0.0592550394986264,1
450,611,64,0.0797798529596443,1
451,593,64,0.065417515393128,1
451,594,64,0.0587327124220531,1
451,602,64,0.0711356629944947,1
451,603,64,0.137193060899884,1
451,604,64,0.132584463241468,1
451,605,64,0.0748936039275675,1
451,606,64,0.0716771433218889,1
451,607,64,0.0863612885250421,1
451,608,64,0.0658681180270491,1
452,602,64,0.102378619103452,1
452,603,64,0.193914304581788,1
452,604,64,0.184818645133003,1
452,605,64,0.100975325046234,1
452,606,64,0.0715777740393819,1
452,607,64,0.074315356199044,1
453,603,64,0.148444322018794,1
453,604,64,0.145171498490903,1
417,601,65,0.0582841029527803,1
417,602,65,0.0801939948331511,1
417,603,65,0.0900358703590989,1
417,604,65,0.0725444235121533,1
417,605,65,0.0585943820779164,1
418,601,65,0.0716364367669577,1
418,602,65,0.113029489496046,1
418,603,65,0.124367529937333,1
418,604,65,0.0883569121959315,1
418,605,65,0.0602363546532917,1
419,601,65,0.071066680627468,1
419,602,65,0.106241973679282,1
419,603,65,0.111796982523272,1
419,604,65,0.0761098471485669,1
420,602,65,0.065757090500431,1
420,603,65,0.0641577468813932,1
428,590,65,0.0609282658391959,1
428,591,65,0.0571745942883874,1
429,590,65,0.0602268723788705,1
430,589,65,0.0583125320852333,1
438,618,65,0.113101290598877,1
438,619,65,0.172169644871368,1
444,589,65,0.0636244927808756,1
444,615,65,0.0817958092687204,1
444,616,65,0.0784999699963854,1
445,589,65,0.0672478066461403,1
445,615,65,0.095104800597204,1
446,614,65,0.0814895636483754,1
447,590,65,0.0604409017010823,1
447,616,65,0.140010841400422,1
449,607,65,0.0581583743626473,1
450,593,65,0.0753461466537054,1
450,603,65,0.0592217512902262,1
450,606,65,0.0881032377674178,1
450,607,65,0.123964332778581,1
451,602,65,0.0806791122383329,1
451,603,65,0.159657630452272,1
451,604,65,0.151657527515343,1
452,603,65,0.258249106991474,1
452,604,65,0.246692526071301,1
417,602,66,0.0735151182835894,1
417,603,66,0.0803675534779048,1
417,604,66,0.0694323268944759,1
418,601,66,0.0685224590264318,1
418,602,66,0.103249384383383,1
418,603,66,0.11333581177657,1
418,604,66,0.0891135776451559,1
418,605,66,0.0626183338313493,1
419,601,66,0.0679184180962178,1
419,602,66,0.0989164331401056,1
419,603,66,0.105285844341814,1
419,604,66,0.0799218158168677,1
420,602,66,0.0630815323223373,1
420,603,66,0.0624430827657256,1
418,602,67,0.0819749228279671,1
418,603,67,0.0912828896934093,1
418,604,67,0.0854748904655778,1
419,602,67,0.0793914924939542,1
419,603,67,0.086474875322244,1
