x,y,z,signal,cytoplasm.p
67,963,1,0.0857690414684864,1
67,964,1,0.0835567289568753,1
68,945,1,0.0703787498739235,1
68,946,1,0.0696086512026024,1
68,947,1,0.0700426244746655,1
68,948,1,0.07183257478283,1
68,949,1,0.0707859274650352,1
69,945,1,0.0795205528533956,1
69,946,1,0.0741750444841327,1
69,947,1,0.07304158246234,1
69,948,1,0.0755449854666454,1
69,949,1,0.0745991285931333,1
70,938,1,0.0573005528590567,1
70,939,1,0.0646755804921027,1
70,940,1,0.0681862156884372,1
70,941,1,0.0745265608885146,1
70,948,1,0.0698922643793974,1
70,949,1,0.0697779227742814,1
71,939,1,0.0592716275819266,1
71,940,1,0.0669193649555706,1
66,963,2,0.0831219831860876,1
66,964,2,0.0768736478913545,1
67,945,2,0.0587230237548429,1
67,946,2,0.060566087773027,1
67,947,2,0.0603503955146295,1
67,948,2,0.062120125226407,1
67,949,2,0.0630830891136602,1
67,962,2,0.064570786027713,1
67,963,2,0.0995298325090674,1
67,964,2,0.0948215530304924,1
67,965,2,0.0594777609057242,1
68,944,2,0.0636540541251998,1
68,945,2,0.070602621183703,1
68,946,2,0.0739520930964985,1
68,947,2,0.0733665626509911,1
68,948,2,0.0726523964254939,1
68,949,2,0.0703828187603356,1
68,950,2,0.0608716375548262,1
68,963,2,0.0708604883343022,1
68,964,2,0.0719795736241055,1
69,944,2,0.079566773044262,1
69,945,2,0.0802208199987866,1
69,946,2,0.0765734879098171,1
69,947,2,0.0752812508639013,1
69,948,2,0.075416131499993,1
69,949,2,0.0722032798196537,1
69,950,2,0.0605043409474896,1
70,938,2,0.061840168150446,1
70,939,2,0.0648606145759258,1
70,940,2,0.0607743439940831,1
70,941,2,0.0656774110899964,1
70,945,2,0.0912861330086653,1
70,946,2,0.0710906870572993,1
70,947,2,0.0662825193657764,1
70,948,2,0.0706037887771951,1
70,949,2,0.069455578516393,1
70,950,2,0.0575340066911835,1
71,939,2,0.0587571552252097,1
71,940,2,0.0588251704945964,1
71,943,2,0.122964695841188,1
71,944,2,0.123568164768529,1
66,964,3,0.0654767442266394,1
67,945,3,0.057078828034283,1
67,946,3,0.0598318896531214,1
67,947,3,0.0585606339084435,1
67,948,3,0.0628529906385892,1
67,949,3,0.0678253880208021,1
67,963,3,0.0846548034607565,1
67,964,3,0.0873628950393363,1
67,965,3,0.0688002165449555,1
68,944,3,0.0597435535394217,1
68,945,3,0.0734626355458106,1
68,946,3,0.07826426353439,1
68,947,3,0.0733006113094945,1
68,948,3,0.0709205604297801,1
68,949,3,0.0716489441699722,1
68,950,3,0.0577865960833206,1
68,964,3,0.0739693003581658,1
68,965,3,0.0739128548788378,1
69,943,3,0.0680185303927652,1
69,944,3,0.0760762287117042,1
69,945,3,0.0787843851565891,1
69,946,3,0.0761611210142958,1
69,947,3,0.0731046796864113,1
69,948,3,0.0715009369524989,1
69,949,3,0.0683824126736778,1
69,965,3,0.0580919512662044,1
70,938,3,0.0620515438510847,1
70,939,3,0.0590514418576653,1
70,942,3,0.0807190462945395,1
70,943,3,0.11351348648323,1
70,944,3,0.119519292560057,1
70,945,3,0.0925267305787688,1
70,946,3,0.0653480317864709,1
70,947,3,0.0637244222723813,1
70,948,3,0.0707018017642314,1
70,949,3,0.0670263530804607,1
71,938,3,0.0590135776262857,1
71,942,3,0.0980372824160043,1
71,943,3,0.14887345390572,1
71,944,3,0.160048267135579,1
71,945,3,0.110441913615442,1
71,946,3,0.0586549082375301,1
72,942,3,0.090665197354436,1
72,943,3,0.137784653396452,1
72,944,3,0.156564993726131,1
72,945,3,0.114159319004752,1
73,944,3,0.0992459067946204,1
73,945,3,0.0875669585383069,1
74,945,3,0.0831295312652288,1
74,946,3,0.088924775418699,1
74,959,3,0.0724592068780362,1
75,945,3,0.0792820866249642,1
75,946,3,0.0953524011807838,1
67,946,4,0.0583123846618126,1
67,948,4,0.0594013660891034,1
67,949,4,0.0647009609082151,1
67,963,4,0.0576141814443117,1
67,964,4,0.0666098524322223,1
67,965,4,0.0672057261049279,1
68,945,4,0.0716396211128454,1
68,946,4,0.0777348955152427,1
68,947,4,0.0668438841641583,1
68,948,4,0.0641067796563794,1
68,949,4,0.0654558159978329,1
68,964,4,0.0661462057740352,1
68,965,4,0.0819833141690749,1
68,966,4,0.0595721767612947,1
69,944,4,0.0683441828322148,1
69,945,4,0.0711778260928227,1
69,946,4,0.0692203673970911,1
69,947,4,0.0625620475693157,1
69,948,4,0.0623266831296563,1
69,949,4,0.0590649163583198,1
69,965,4,0.0589434158718932,1
70,942,4,0.0684130590543785,1
70,943,4,0.118625942012071,1
70,944,4,0.134884009139592,1
70,945,4,0.0915442419336745,1
70,948,4,0.0659237556260315,1
70,949,4,0.0603538039441167,1
71,942,4,0.0935131288929808,1
71,943,4,0.179742337826925,1
71,944,4,0.207027275833136,1
71,945,4,0.123930696650908,1
72,942,4,0.0859929953353814,1
72,943,4,0.161236782959607,1
72,944,4,0.192203178628218,1
72,945,4,0.121432707034612,1
72,959,4,0.0591852787359383,1
73,943,4,0.0834278101239178,1
73,944,4,0.105581575723792,1
73,945,4,0.0842531925780115,1
73,946,4,0.0602418859800374,1
73,959,4,0.0775934869700812,1
73,960,4,0.0649106088063628,1
74,944,4,0.0574928047935586,1
74,945,4,0.0798099627190936,1
74,946,4,0.0875768123197483,1
74,959,4,0.0711005467356775,1
74,960,4,0.0588441645281229,1
75,945,4,0.0824262036096235,1
75,946,4,0.0996859833963016,1
67,965,5,0.0606896344965332,1
68,945,5,0.0629483559009892,1
68,946,5,0.068437401609609,1
68,964,5,0.0601342491920961,1
68,965,5,0.0772742445009649,1
68,966,5,0.0580655094014628,1
69,944,5,0.0597935064913009,1
69,945,5,0.0593344594438405,1
69,946,5,0.0572467374135544,1
70,942,5,0.0593700946330987,1
70,943,5,0.115126593552827,1
70,944,5,0.138440852732919,1
70,945,5,0.0848363583518505,1
71,942,5,0.0924194652978477,1
71,943,5,0.201898002240459,1
71,944,5,0.239159590263846,1
71,945,5,0.130512232464232,1
72,942,5,0.0881026657645454,1
72,943,5,0.183387647266562,1
72,944,5,0.21689759228541,1
72,945,5,0.12129152257305,1
73,943,5,0.091825938606,1
73,944,5,0.111458757814503,1
73,945,5,0.0797271638290764,1
73,959,5,0.0675093004128894,1
73,960,5,0.0657673865521346,1
74,945,5,0.0729785795892581,1
74,946,5,0.0773438932218532,1
74,959,5,0.0609428430670374,1
74,960,5,0.0571513485634071,1
75,945,5,0.0796143908091569,1
75,946,5,0.0905575251848737,1
68,965,6,0.0586753882991375,1
70,943,6,0.0925341371314261,1
70,944,6,0.116500568040131,1
70,945,6,0.067467497027708,1
71,942,6,0.0802234913111702,1
71,943,6,0.18853813803795,1
71,944,6,0.22616033554231,1
71,945,6,0.11636583482746,1
72,942,6,0.0814439685328129,1
72,943,6,0.180009893644734,1
72,944,6,0.209105615836927,1
72,945,6,0.106474442722958,1
73,943,6,0.0905523299835273,1
73,944,6,0.104319631242368,1
73,945,6,0.0668639514401877,1
73,959,6,0.0575216526085265,1
73,960,6,0.0699774161472094,1
73,961,6,0.0633612181392041,1
74,945,6,0.0587980563790562,1
74,946,6,0.0581800632963047,1
74,960,6,0.0606589173525905,1
75,945,6,0.063929311342508,1
75,946,6,0.0662557885511302,1
70,943,7,0.069726595836121,1
70,944,7,0.0878842550182697,1
71,942,7,0.065001344973352,1
71,943,7,0.149411054048681,1
71,944,7,0.179404749987333,1
71,945,7,0.0931124202415706,1
72,942,7,0.0712985010080932,1
72,943,7,0.154879224600926,1
72,944,7,0.177368714608354,1
72,945,7,0.089636394167486,1
73,943,7,0.0799407037055313,1
73,944,7,0.088761784084743,1
73,959,7,0.0570674823278238,1
73,960,7,0.0801455456001633,1
73,961,7,0.0731907867579896,1
74,960,7,0.0718620535700386,1
74,961,7,0.065517161831666,1
70,944,8,0.0584405015113613,1
71,943,8,0.0986275068232277,1
71,944,8,0.115981154050351,1
71,945,8,0.0640550340357041,1
72,943,8,0.110308890514452,1
72,944,8,0.123997603296171,1
72,945,8,0.0661216332382684,1
73,943,8,0.0596108075944621,1
73,944,8,0.064581306163016,1
73,960,8,0.075310069194185,1
73,961,8,0.0655447535990892,1
74,960,8,0.071087626547085,1
74,961,8,0.0616744111531172,1
71,944,9,0.0624245545902087,1
72,943,9,0.0642880573914423,1
72,944,9,0.0705256602611466,1
73,960,9,0.0571690393738944,1
86,959,14,0.0610847233671453,1
86,960,14,0.0695401346935853,1
87,959,14,0.0623022521203734,1
87,960,14,0.074884788007008,1
86,959,15,0.0626739773272686,1
86,960,15,0.0749665549330801,1
87,959,15,0.0667113917874823,1
87,960,15,0.0856341018630263,1
87,961,15,0.0610023667473902,1
88,960,15,0.0598839713991959,1
86,960,16,0.0663400439845442,1
87,959,16,0.0609732476733282,1
87,960,16,0.0797716444235782,1
87,961,16,0.057996774705783,1
58,954,17,0.0635614191445517,1
59,953,17,0.0668066273172721,1
59,954,17,0.0864079097076129,1
59,955,17,0.0702118901494076,1
60,954,17,0.0665643634615227,1
60,955,17,0.0577069992300016,1
87,960,17,0.0612948784018603,1
58,953,18,0.0813010503718231,1
58,954,18,0.0959803659837133,1
58,955,18,0.0595233088457921,1
59,952,18,0.0571634726655277,1
59,953,18,0.114301895143405,1
59,954,18,0.136408968797467,1
59,955,18,0.0845662786450783,1
60,953,18,0.0780829032422113,1
60,954,18,0.0932427838240513,1
60,955,18,0.0605395751450434,1
58,953,19,0.0905191597138636,1
58,954,19,0.0973622600571786,1
59,952,19,0.0722627032520805,1
59,953,19,0.130328189065796,1
59,954,19,0.139623530589487,1
59,955,19,0.0759193407073663,1
60,953,19,0.0834613165189806,1
60,954,19,0.089481546503291,1
58,953,20,0.0830712341477365,1
58,954,20,0.0792087228338735,1
59,952,20,0.0701257889747661,1
59,953,20,0.111060195648098,1
59,954,20,0.105740132561253,1
60,953,20,0.0694023822492578,1
60,954,20,0.0661157363014393,1
58,953,21,0.062412672262498,1
59,953,21,0.0730349071298495,1
59,954,21,0.0665738516328807,1
68,972,21,0.0602881946249562,1
55,946,22,0.0599903462426558,1
68,971,22,0.0579483844421635,1
68,972,22,0.0607506677927143,1
58,940,23,0.0601096707593924,1
58,947,24,0.0670792132221967,1
58,948,24,0.0573799256287762,1
59,947,24,0.067460904252333,1
59,948,24,0.0597419259848569,1
60,963,24,0.0624902995389162,1
62,967,24,0.059636547723721,1
63,966,24,0.0648243602083006,1
63,967,24,0.0703200753524741,1
64,966,24,0.0587864747951239,1
64,967,24,0.0640027105152196,1
64,972,24,0.0585196855791023,1
58,947,25,0.0667591510788611,1
59,947,25,0.072622410501718,1
59,948,25,0.062813870359665,1
59,962,25,0.0609212072058115,1
59,963,25,0.0665078295281422,1
60,962,25,0.081028205001678,1
60,963,25,0.088065208421807,1
60,964,25,0.0671965032957272,1
61,962,25,0.0703214670295657,1
61,963,25,0.0742355470559991,1
61,966,25,0.0605969110618326,1
61,967,25,0.0605682932274011,1
62,941,25,0.0590317814702771,1
62,942,25,0.0624869500787972,1
62,966,25,0.064956870275787,1
62,967,25,0.067432304108712,1
63,940,25,0.0572591858472006,1
63,941,25,0.0691350741027952,1
63,942,25,0.0676943639813966,1
63,966,25,0.0780530411541089,1
63,967,25,0.0826727604353845,1
63,968,25,0.0637858447663931,1
64,940,25,0.0597628011412318,1
64,941,25,0.0664465013851197,1
64,942,25,0.0591509880482771,1
64,966,25,0.0758213454111406,1
64,967,25,0.0804101116710004,1
64,968,25,0.0639537010732331,1
64,971,25,0.0609909031021945,1
64,972,25,0.0630644842779644,1
65,966,25,0.0573277731194598,1
65,967,25,0.0622206915870903,1
65,971,25,0.0609317037533673,1
65,972,25,0.0622438960335127,1
66,971,25,0.0577841606484102,1
66,972,25,0.0574113563020753,1
87,955,25,0.0569560243248172,1
88,954,25,0.0630949950291181,1
88,955,25,0.0868542252684592,1
88,956,25,0.0729363575215618,1
89,954,25,0.0595727369702935,1
89,955,25,0.0769503021731958,1
89,956,25,0.0631052439053271,1
58,947,26,0.057667825878646,1
59,947,26,0.0654393812348903,1
59,962,26,0.0732437530445885,1
59,963,26,0.0787410780525163,1
60,961,26,0.0690973867795205,1
60,962,26,0.113276700881795,1
60,963,26,0.118417697584888,1
60,964,26,0.0760760223189152,1
61,940,26,0.061326043713002,1
61,941,26,0.0821192090783012,1
61,942,26,0.0977538992197456,1
61,943,26,0.0933512166984645,1
61,944,26,0.0634423069175409,1
61,961,26,0.0610685598632967,1
61,962,26,0.0977071600984383,1
61,963,26,0.0976257587824495,1
61,964,26,0.0632475310940761,1
61,966,26,0.0622153430653863,1
61,967,26,0.0605153623224232,1
62,940,26,0.0837404244360382,1
62,941,26,0.109758163790109,1
62,942,26,0.120657436749691,1
62,943,26,0.109878095691339,1
62,944,26,0.0731978335975004,1
62,966,26,0.0640846602463335,1
62,967,26,0.0658583939782179,1
63,939,26,0.0637012060320852,1
63,940,26,0.0960968186922141,1
63,941,26,0.114464037318458,1
63,942,26,0.112230560700567,1
63,943,26,0.098426828165997,1
63,944,26,0.0698014928307873,1
63,966,26,0.0795151512592602,1
63,967,26,0.0835492693317865,1
63,968,26,0.0666681554466514,1
64,939,26,0.0687560190034214,1
64,940,26,0.0950073124375455,1
64,941,26,0.102941493517662,1
64,942,26,0.0924475995834593,1
64,943,26,0.0780689216049896,1
64,944,26,0.0578982192005584,1
64,965,26,0.0609544954142117,1
64,966,26,0.0849184024339536,1
64,967,26,0.0885312551332835,1
64,968,26,0.0706485642185384,1
64,971,26,0.0657841928220975,1
64,972,26,0.0651763601615025,1
65,939,26,0.0666638506827662,1
65,940,26,0.0838304883522289,1
65,941,26,0.0850357101982946,1
65,942,26,0.0745710061013954,1
65,943,26,0.0596522099879391,1
65,966,26,0.0666913068206424,1
65,967,26,0.0707813337512453,1
65,968,26,0.0610961811154042,1
65,970,26,0.0583481259959337,1
65,971,26,0.067413428013922,1
65,972,26,0.0658085825528226,1
66,940,26,0.0653978667996135,1
66,941,26,0.0649336363446804,1
66,942,26,0.0600417911195528,1
66,967,26,0.0577905411340593,1
66,970,26,0.058201994004372,1
66,971,26,0.0622193824671142,1
66,972,26,0.0586563765748006,1
72,971,26,0.0569490128669275,1
87,955,26,0.061681699767038,1
88,954,26,0.0732112373349129,1
88,955,26,0.0986734380641894,1
88,956,26,0.082656838705946,1
89,954,26,0.0704799884854053,1
89,955,26,0.0906154390014722,1
89,956,26,0.0740367377277432,1
59,962,27,0.0771601682580062,1
59,963,27,0.0811670542762557,1
60,941,27,0.0604662467355737,1
60,942,27,0.0702995068368142,1
60,943,27,0.070348404237001,1
60,961,27,0.0809725084333273,1
60,962,27,0.129637905434457,1
60,963,27,0.12999191034618,1
60,964,27,0.0761155848681016,1
61,940,27,0.0831792247518876,1
61,941,27,0.113708710473894,1
61,942,27,0.135508541925287,1
61,943,27,0.130972276094016,1
61,944,27,0.0819931148780848,1
61,961,27,0.0739209277853568,1
61,962,27,0.114401742077796,1
61,963,27,0.108641555213774,1
61,964,27,0.0638192391196562,1
62,939,27,0.0767174557255624,1
62,940,27,0.120047893977416,1
62,941,27,0.15110869960466,1
62,942,27,0.163444784810397,1
62,943,27,0.151272834944361,1
62,944,27,0.0983512943021532,1
62,962,27,0.0622387480076609,1
62,963,27,0.056944613752053,1
62,966,27,0.05718582205611,1
62,967,27,0.0573363826472302,1
63,938,27,0.0575939018785565,1
63,939,27,0.0963841528361483,1
63,940,27,0.137974086595149,1
63,941,27,0.155305065997102,1
63,942,27,0.151339269834677,1
63,943,27,0.137224986915877,1
63,944,27,0.101146701824361,1
63,966,27,0.0690298845436379,1
63,967,27,0.0716275029076616,1
63,968,27,0.0614578697358163,1
64,938,27,0.0671668829820347,1
64,939,27,0.106859524491771,1
64,940,27,0.1356407040735,1
64,941,27,0.139816478362535,1
64,942,27,0.12611410827512,1
64,943,27,0.110554887131214,1
64,944,27,0.0869708725758754,1
64,965,27,0.0600157856281365,1
64,966,27,0.078181694624909,1
64,967,27,0.0796299115468911,1
64,968,27,0.0667198303040848,1
64,971,27,0.0635293103235173,1
64,972,27,0.0597415014054052,1
65,938,27,0.0676020297445268,1
65,939,27,0.103408507326779,1
65,940,27,0.118898639958795,1
65,941,27,0.115518680882593,1
65,942,27,0.101119457976211,1
65,943,27,0.0852227138590187,1
65,944,27,0.0643565974882068,1
65,966,27,0.0669622887587495,1
65,967,27,0.0683374249426087,1
65,968,27,0.0612414167725678,1
65,969,27,0.0572503994113253,1
65,970,27,0.0618465604299688,1
65,971,27,0.065440666767119,1
65,972,27,0.0597579479622215,1
66,938,27,0.0573870196437816,1
66,939,27,0.0888460041365361,1
66,940,27,0.09927614628668,1
66,941,27,0.0966919080723215,1
66,942,27,0.0884095541510048,1
66,943,27,0.0766074896475736,1
66,970,27,0.0611486284715621,1
66,971,27,0.0603156625567061,1
67,939,27,0.0650755225417251,1
67,940,27,0.0761164753055628,1
67,941,27,0.0760084021442961,1
67,942,27,0.0709017374074216,1
67,943,27,0.0625706099215915,1
72,971,27,0.0625977004493843,1
73,971,27,0.0592499386482692,1
88,954,27,0.0640897964783116,1
88,955,27,0.0820709190626078,1
88,956,27,0.0702574498833492,1
89,954,27,0.0647250027196673,1
89,955,27,0.080200451978979,1
89,956,27,0.0677071957159367,1
59,962,28,0.0711040672069645,1
59,963,28,0.0709998093638262,1
60,941,28,0.06768686307775,1
60,942,28,0.078233452039458,1
60,943,28,0.0744565347636692,1
60,961,28,0.080177506997777,1
60,962,28,0.120366588031407,1
60,963,28,0.113655590866937,1
60,964,28,0.0672640821917886,1
61,939,28,0.0617536659841002,1
61,940,28,0.0971579252991139,1
61,941,28,0.135966910825012,1
61,942,28,0.161370030144198,1
61,943,28,0.151216212556928,1
61,944,28,0.0879459959468702,1
61,961,28,0.0761667525889676,1
61,962,28,0.110722772922738,1
61,963,28,0.0990779502398544,1
61,964,28,0.0591781670301224,1
62,939,28,0.0957444590258657,1
62,940,28,0.143649039134243,1
62,941,28,0.177136563999267,1
62,942,28,0.190778537659678,1
62,943,28,0.177075754786685,1
62,944,28,0.11298220785655,1
62,962,28,0.0609870229177609,1
63,938,28,0.0739384357908024,1
63,939,28,0.126097419943893,1
63,940,28,0.170337549155686,1
63,941,28,0.186742485391872,1
63,942,28,0.184221450546448,1
63,943,28,0.173236648415097,1
63,944,28,0.130105733020855,1
63,945,28,0.0591943010492868,1
63,966,28,0.0588109175982805,1
63,967,28,0.0600021460132508,1
64,938,28,0.0877596940216288,1
64,939,28,0.141786137820566,1
64,940,28,0.169801989352868,1
64,941,28,0.169704442223841,1
64,942,28,0.154750529851568,1
64,943,28,0.143345075628451,1
64,944,28,0.118147806580095,1
64,945,28,0.0590671277096307,1
64,965,28,0.0570858689768569,1
64,966,28,0.0671922575012103,1
64,967,28,0.0667788881264281,1
64,968,28,0.0597156492343464,1
64,970,28,0.0591510352237718,1
64,971,28,0.0641375085941957,1
65,938,28,0.0875887595137641,1
65,939,28,0.139054039812155,1
65,940,28,0.156381162617421,1
65,941,28,0.150909111880743,1
65,942,28,0.1349208532009,1
65,943,28,0.122874201448608,1
65,944,28,0.100229067690513,1
65,966,28,0.063555817054564,1
65,967,28,0.0634476495423081,1
65,968,28,0.0613070084009177,1
65,969,28,0.062565727257897,1
65,970,28,0.0670211048066828,1
65,971,28,0.0667450927814606,1
65,972,28,0.0571740576671359,1
66,938,28,0.0721982497325385,1
66,939,28,0.119949273605886,1
66,940,28,0.138215636921542,1
66,941,28,0.135990970327274,1
66,942,28,0.12712572778815,1
66,943,28,0.117890110440663,1
66,944,28,0.0910116659808922,1
66,968,28,0.0568425495694151,1
66,969,28,0.0622536318762175,1
66,970,28,0.0638596980032406,1
66,971,28,0.0584813377989028,1
67,939,28,0.0892097566848384,1
67,940,28,0.114797461920648,1
67,941,28,0.120079595909809,1
67,942,28,0.113659577196234,1
67,943,28,0.101936679069733,1
67,944,28,0.0733387350060946,1
68,939,28,0.0605030023428294,1
68,940,28,0.087293623722405,1
68,941,28,0.0964521622085981,1
68,942,28,0.0856657802076722,1
68,943,28,0.0670581729515905,1
69,941,28,0.0646250791250984,1
88,955,28,0.0570717576070249,1
59,962,29,0.0630358310619119,1
59,963,29,0.0596717996120853,1
60,941,29,0.068803129631749,1
60,942,29,0.0785818371703836,1
60,943,29,0.0686573160747762,1
60,961,29,0.0725060226595223,1
60,962,29,0.097743467538495,1
60,963,29,0.0865739025824149,1
60,964,29,0.0573085373115233,1
61,939,29,0.0656271338065916,1
61,940,29,0.0999407664489392,1
61,941,29,0.139698858060542,1
61,942,29,0.162727823436842,1
61,943,29,0.143773287593232,1
61,944,29,0.0818172741187783,1
61,961,29,0.0700369752091832,1
61,962,29,0.0932033863890961,1
61,963,29,0.0801929864569534,1
62,938,29,0.0608041589066909,1
62,939,29,0.105688593333367,1
62,940,29,0.150078551916113,1
62,941,29,0.184234470982967,1
62,942,29,0.200117528309778,1
62,943,29,0.183573282837942,1
62,944,29,0.116998988934799,1
62,962,29,0.0570866060939606,1
63,938,29,0.0853620820640373,1
63,939,29,0.14716993500066,1
63,940,29,0.187636696892635,1
63,941,29,0.205639703009504,1
63,942,29,0.20740887840922,1
63,943,29,0.198410199983526,1
63,944,29,0.146242264280329,1
63,945,29,0.0653766260331551,1
64,938,29,0.100438102307231,1
64,939,29,0.165333219860544,1
64,940,29,0.191578339201808,1
64,941,29,0.191006525031365,1
64,942,29,0.18015821339986,1
64,943,29,0.174620199527811,1
64,944,29,0.143600436580898,1
64,945,29,0.0703434272223172,1
64,970,29,0.0574879869961693,1
64,971,29,0.061097189491602,1
65,938,29,0.100429787626302,1
65,939,29,0.164163633203736,1
65,940,29,0.186049559932833,1
65,941,29,0.181922270258408,1
65,942,29,0.169477020958091,1
65,943,29,0.165867883328963,1
65,944,29,0.141855249920203,1
65,945,29,0.0725154459645752,1
65,967,29,0.0572566029888695,1
65,968,29,0.0603850754001213,1
65,969,29,0.0641293059550665,1
65,970,29,0.0650144420700494,1
65,971,29,0.0649534146708051,1
66,938,29,0.0801107477759349,1
66,939,29,0.139721808938681,1
66,940,29,0.169710032519955,1
66,941,29,0.171110590398485,1
66,942,29,0.164000099351592,1
66,943,29,0.161200882408192,1
66,944,29,0.13584923155365,1
66,945,29,0.0683259612974129,1
66,968,29,0.0597269772499951,1
66,969,29,0.0645208035911496,1
66,970,29,0.0595664803203178,1
67,939,29,0.106942942560156,1
67,940,29,0.147083627433229,1
67,941,29,0.158939595836215,1
67,942,29,0.150054032452778,1
67,943,29,0.135890144501371,1
67,944,29,0.10450572677482,1
68,939,29,0.073074911949298,1
68,940,29,0.113855013476624,1
68,941,29,0.133093357095944,1
68,942,29,0.119470949471932,1
68,943,29,0.0914122625905027,1
68,944,29,0.0596700423249103,1
69,940,29,0.0708541963027055,1
69,941,29,0.0888995483229442,1
69,942,29,0.0780374732408801,1
59,962,30,0.0568529222812975,1
60,941,30,0.0593264808883108,1
60,942,30,0.0673312895808297,1
60,961,30,0.0626955188375052,1
60,962,30,0.0785554601719471,1
60,963,30,0.0685452329964657,1
61,939,30,0.0611447423901917,1
61,940,30,0.0878475053079508,1
61,941,30,0.120375787252861,1
61,942,30,0.137924646676774,1
61,943,30,0.115240770043712,1
61,944,30,0.0660657007924445,1
61,961,30,0.0585645376806244,1
61,962,30,0.0766931308611424,1
61,963,30,0.069733359622664,1
62,938,30,0.0595781857399236,1
62,939,30,0.102579574916714,1
62,940,30,0.140359892885209,1
62,941,30,0.171163037754643,1
62,942,30,0.18774542461389,1
62,943,30,0.168542509791038,1
62,944,30,0.107621196440364,1
62,968,30,0.0579558794488732,1
63,938,30,0.0854072879817691,1
63,939,30,0.150812531849356,1
63,940,30,0.187664565816089,1
63,941,30,0.203468002701835,1
63,942,30,0.207168165447856,1
63,943,30,0.19704534216056,1
63,944,30,0.142525554729565,1
63,945,30,0.0637416059463013,1
64,938,30,0.100442135812022,1
64,939,30,0.172133237183385,1
64,940,30,0.200357415699986,1
64,941,30,0.198950571686797,1
64,942,30,0.193376610087838,1
64,943,30,0.194724779579578,1
64,944,30,0.161766528382712,1
64,945,30,0.0772831370817031,1
65,938,30,0.100313099040328,1
65,939,30,0.172474669825789,1
65,940,30,0.201480734990432,1
65,941,30,0.198758284370674,1
65,942,30,0.194074146951477,1
65,943,30,0.210691066272795,1
65,944,30,0.191061390131622,1
65,945,30,0.0937644622375733,1
65,968,30,0.0639096155734988,1
65,969,30,0.0669208156020305,1
65,970,30,0.0644155019901926,1
65,971,30,0.062889604719361,1
66,938,30,0.0806465316623522,1
66,939,30,0.149846424894773,1
66,940,30,0.192106763711062,1
66,941,30,0.199022844544574,1
66,942,30,0.198020837038575,1
66,943,30,0.21485449237611,1
66,944,30,0.194605284051673,1
66,945,30,0.0942012306576934,1
66,968,30,0.0661712323739379,1
66,969,30,0.068033614757174,1
66,970,30,0.0580866794046792,1
67,938,30,0.0587806427245999,1
67,939,30,0.118125079785555,1
67,940,30,0.16967377815233,1
67,941,30,0.189095941086488,1
67,942,30,0.179522110824106,1
67,943,30,0.169582186929501,1
67,944,30,0.138008701614336,1
67,945,30,0.0647646301351587,1
68,939,30,0.0828125355290444,1
68,940,30,0.134567449776733,1
68,941,30,0.165371290484712,1
68,942,30,0.151430542622918,1
68,943,30,0.115447174626604,1
68,944,30,0.0752310384468016,1
69,940,30,0.0797250173440706,1
69,941,30,0.105845251357168,1
69,942,30,0.0968760045431888,1
69,943,30,0.0673328758568367,1
56,949,31,0.0609948304621227,1
59,962,31,0.0569852141621212,1
60,962,31,0.0686731788348464,1
60,963,31,0.0642204490106969,1
61,940,31,0.0710069800390104,1
61,941,31,0.092242386181807,1
61,942,31,0.103286570467027,1
61,943,31,0.0843455975781233,1
61,962,31,0.0677769034061934,1
61,963,31,0.0712675420897404,1
61,964,31,0.0616643273911395,1
61,968,31,0.0587628516661866,1
61,969,31,0.0574544864980432,1
62,939,31,0.0875114388780611,1
62,940,31,0.117583068733847,1
62,941,31,0.142210009639841,1
62,942,31,0.15781221945323,1
62,943,31,0.138966104690159,1
62,944,31,0.0917417480388911,1
62,963,31,0.0621931705829089,1
62,964,31,0.0588156764263015,1
62,968,31,0.0624877579591428,1
62,969,31,0.0608782185363274,1
63,938,31,0.0741377581525623,1
63,939,31,0.131602033565742,1
63,940,31,0.165977979139562,1
63,941,31,0.181991288007055,1
63,942,31,0.189556987195533,1
63,943,31,0.176405107954987,1
63,944,31,0.12717863510538,1
63,945,31,0.0598040443174145,1
64,938,31,0.0872057062912202,1
64,939,31,0.155176748651701,1
64,940,31,0.188141227013858,1
64,941,31,0.192818830627048,1
64,942,31,0.196309451619785,1
64,943,31,0.202516024807894,1
64,944,31,0.171917043685357,1
64,945,31,0.08260591275949,1
65,938,31,0.0885410676361671,1
65,939,31,0.160991328861034,1
65,940,31,0.199108656769311,1
65,941,31,0.204379315319402,1
65,942,31,0.211788368277952,1
65,943,31,0.249469299273129,1
65,944,31,0.236001096547197,1
65,945,31,0.115755254194302,1
65,968,31,0.0630143485210435,1
65,969,31,0.0652938979063798,1
65,970,31,0.0624656385490969,1
65,971,31,0.0583136937817886,1
66,938,31,0.0755389882818902,1
66,939,31,0.147613125184987,1
66,940,31,0.201055235616593,1
66,941,31,0.216683887294724,1
66,942,31,0.223142471975162,1
66,943,31,0.258420377624738,1
66,944,31,0.243246120310909,1
66,945,31,0.118212720060709,1
66,968,31,0.0656085466617063,1
66,969,31,0.0656540061477218,1
67,938,31,0.0587713550490941,1
67,939,31,0.119719540740899,1
67,940,31,0.179375253509314,1
67,941,31,0.206334928273906,1
67,942,31,0.198501531741135,1
67,943,31,0.191075424841276,1
67,944,31,0.159080355718326,1
67,945,31,0.075829577534954,1
68,939,31,0.0851654251177241,1
68,940,31,0.140527224364671,1
68,941,31,0.17755056434629,1
68,942,31,0.167063133454851,1
68,943,31,0.128529458218693,1
68,944,31,0.0842391460744846,1
69,940,31,0.0810798503744272,1
69,941,31,0.108463314401178,1
69,942,31,0.103701644056553,1
69,943,31,0.0747642899998424,1
55,948,32,0.0571691337248837,1
55,949,32,0.0684272824660103,1
55,950,32,0.057042703399268,1
56,948,32,0.0766633513301555,1
56,949,32,0.0941812164540955,1
56,950,32,0.075143799163352,1
57,948,32,0.0641634904978647,1
57,949,32,0.0765494932738595,1
57,950,32,0.0605362728604191,1
57,962,32,0.0576522166868594,1
57,963,32,0.05993579368005,1
58,961,32,0.058621962051466,1
58,962,32,0.0600335472018657,1
58,963,32,0.0581059211095525,1
59,962,32,0.0610246394777937,1
60,962,32,0.063579039191797,1
60,963,32,0.0669682977373784,1
60,964,32,0.059340238441933,1
61,941,32,0.0705609180464477,1
61,942,32,0.075995706039303,1
61,943,32,0.0638175938742809,1
61,962,32,0.0674948647115318,1
61,963,32,0.0834030606800461,1
61,964,32,0.075793140362287,1
61,965,32,0.0578152610932468,1
61,968,32,0.0598460069198903,1
61,969,32,0.0610147208300472,1
62,940,32,0.095007294746735,1
62,941,32,0.113566110747493,1
62,942,32,0.12448322783792,1
62,943,32,0.109951170532525,1
62,944,32,0.0767228396288874,1
62,962,32,0.0602282168804676,1
62,963,32,0.0820270222648521,1
62,964,32,0.0785417792785036,1
62,965,32,0.061348334134216,1
62,967,32,0.0575441199378453,1
62,968,32,0.0629646963129426,1
62,969,32,0.0635510464326693,1
63,940,32,0.139531267115859,1
63,941,32,0.157383500351882,1
63,942,32,0.165347313539565,1
63,943,32,0.152441100687319,1
63,944,32,0.111404222942707,1
63,963,32,0.0630545479394074,1
63,964,32,0.0643326972032385,1
63,968,32,0.0572407991981676,1
64,939,32,0.127254387155887,1
64,940,32,0.16465523723943,1
64,941,32,0.177580273114035,1
64,942,32,0.187160071076487,1
64,943,32,0.196413850989407,1
64,944,32,0.169127273634758,1
64,945,32,0.0821199226076575,1
64,969,32,0.0578419447323984,1
65,939,32,0.136927557216091,1
65,940,32,0.181417539641332,1
65,941,32,0.195259973772312,1
65,942,32,0.213150702211955,1
65,943,32,0.263069805673759,1
65,944,32,0.253227322763318,1
65,945,32,0.125606216899904,1
65,968,32,0.0611480918503106,1
65,969,32,0.0641697176631562,1
65,970,32,0.0624797027434343,1
66,940,32,0.186336410527948,1
66,941,32,0.206109264295331,1
66,942,32,0.218492194767238,1
66,943,32,0.262747998037122,1
66,944,32,0.252976702948082,1
66,945,32,0.125109800963758,1
66,967,32,0.0570634783077169,1
66,968,32,0.0623476467400837,1
66,969,32,0.0632228170318254,1
66,970,32,0.058030345967151,1
67,940,32,0.165150320467853,1
67,941,32,0.192736509388914,1
67,942,32,0.188325199649052,1
67,943,32,0.183996163971829,1
67,944,32,0.156623455957855,1
67,945,32,0.0772435804294536,1
67,969,32,0.0585480557421871,1
68,940,32,0.123295219150458,1
68,941,32,0.156652079689223,1
68,942,32,0.150620114800623,1
68,943,32,0.118723182500382,1
68,944,32,0.0806328330780982,1
69,940,32,0.0721400646568459,1
69,941,32,0.0942269354053314,1
69,942,32,0.0928672197112803,1
69,943,32,0.0710356863274944,1
55,948,33,0.0697908665506212,1
55,949,33,0.0809063035235471,1
55,950,33,0.0637649931977654,1
56,948,33,0.0938658895510336,1
56,949,33,0.11289154834974,1
56,950,33,0.087662494811875,1
56,961,33,0.0583464335750637,1
56,962,33,0.0850910470534988,1
56,963,33,0.110466751513366,1
56,964,33,0.105292625819167,1
57,948,33,0.0751219510124003,1
57,949,33,0.0923473398634911,1
57,950,33,0.0748552443534943,1
57,961,33,0.0668454055738602,1
57,962,33,0.0900272726252021,1
57,963,33,0.110271150118745,1
57,964,33,0.105144648086378,1
57,965,33,0.0811351577449472,1
58,961,33,0.0663171225910895,1
58,962,33,0.0785276030423665,1
58,963,33,0.0874023219589756,1
58,964,33,0.0824238625257024,1
59,961,33,0.0580771617486371,1
59,962,33,0.0650632392223101,1
60,962,33,0.0572320599377868,1
60,963,33,0.0668264469219546,1
60,964,33,0.0629980375937743,1
61,942,33,0.0575805630074491,1
61,962,33,0.0650609924893782,1
61,963,33,0.0889646858871583,1
61,964,33,0.0845443243492636,1
61,965,33,0.0657713610875574,1
62,942,33,0.0943873910564509,1
62,943,33,0.0848926740985683,1
62,944,33,0.0626786359073636,1
62,962,33,0.0654308601611722,1
62,963,33,0.0993232156364498,1
62,964,33,0.0978224746981311,1
62,965,33,0.0743960852642342,1
62,968,33,0.0572725718938027,1
62,969,33,0.0577353340114653,1
63,941,33,0.129193182046554,1
63,942,33,0.13530318699715,1
63,943,33,0.124825898837058,1
63,944,33,0.092133322335153,1
63,963,33,0.080783546989576,1
63,964,33,0.0835197905445779,1
63,965,33,0.0672010734217698,1
64,941,33,0.152364676386014,1
64,942,33,0.162401074167143,1
64,943,33,0.169397424104772,1
64,944,33,0.143008395917131,1
64,945,33,0.0734925035308499,1
64,969,33,0.0575300970220658,1
65,941,33,0.170958862213872,1
65,942,33,0.188406034859105,1
65,943,33,0.227299364272469,1
65,944,33,0.214357144723945,1
65,945,33,0.11168836094688,1
65,968,33,0.0577992627036295,1
65,969,33,0.0604262890916198,1
65,970,33,0.0586136709582843,1
66,941,33,0.177996136893096,1
66,942,33,0.186699484928515,1
66,943,33,0.216259826773471,1
66,944,33,0.204915865807607,1
66,945,33,0.107295331711188,1
66,969,33,0.0586000844158301,1
67,941,33,0.161268390541011,1
67,942,33,0.156556112939266,1
67,943,33,0.148162342293501,1
67,944,33,0.125209765836884,1
67,945,33,0.0665329917575919,1
68,941,33,0.121469893118256,1
68,942,33,0.116663571167961,1
68,943,33,0.0945742060151964,1
68,944,33,0.0669843786841113,1
69,941,33,0.0729463941080449,1
69,942,33,0.0717239178248172,1
69,943,33,0.0592526571361474,1
55,948,34,0.06941783222375,1
55,949,34,0.0778903918424889,1
55,950,34,0.0595418370213091,1
55,962,34,0.10374618951736,1
55,963,34,0.141689640346295,1
55,964,34,0.12925281187177,1
56,948,34,0.0929515518048731,1
56,949,34,0.111892583663145,1
56,950,34,0.0877135622848149,1
56,961,34,0.0793977078653721,1
56,962,34,0.14205580474176,1
56,963,34,0.19316718627329,1
56,964,34,0.17706709808342,1
56,965,34,0.114015280425765,1
57,948,34,0.0770494709598505,1
57,949,34,0.100690113799559,1
57,950,34,0.0863453903833509,1
57,961,34,0.0857405356758545,1
57,962,34,0.142726486955079,1
57,963,34,0.188305492086169,1
57,964,34,0.17358507482458,1
57,965,34,0.116454984718442,1
57,966,34,0.0645374683346286,1
58,949,34,0.0625926349806481,1
58,950,34,0.0588915405186078,1
58,961,34,0.0756674117721541,1
58,962,34,0.108252027154592,1
58,963,34,0.134740135674836,1
58,964,34,0.123508145745483,1
58,965,34,0.0870644687572267,1
59,961,34,0.0580643182202233,1
59,962,34,0.0702584405687364,1
59,963,34,0.0817322402897028,1
59,964,34,0.077743546321571,1
59,965,34,0.0655926956955097,1
60,963,34,0.0614005633037112,1
60,964,34,0.0652884255490025,1
60,965,34,0.0647805223799131,1
60,966,34,0.0606287368298992,1
61,962,34,0.0581372574318623,1
61,963,34,0.0818548199155691,1
61,964,34,0.0853023460939587,1
61,965,34,0.0736469089247827,1
62,942,34,0.0686962240639745,1
62,943,34,0.0630785602661755,1
62,962,34,0.0638324305673429,1
62,963,34,0.100903099363952,1
62,964,34,0.104720681916114,1
62,965,34,0.0798000676590944,1
63,942,34,0.100726179465205,1
63,943,34,0.0940088136089603,1
63,944,34,0.0707821239407804,1
63,963,34,0.0879557907589433,1
63,964,34,0.094233710985748,1
63,965,34,0.0720634752413097,1
63,969,34,0.0574578477520358,1
64,942,34,0.12640991042034,1
64,943,34,0.128078849687835,1
64,944,34,0.103892185879374,1
64,945,34,0.0568508052809758,1
64,964,34,0.060233824867392,1
64,968,34,0.0579594588895285,1
64,969,34,0.060219577868013,1
65,941,34,0.132386373339505,1
65,942,34,0.145088905993675,1
65,943,34,0.161658213447035,1
65,944,34,0.144539193542467,1
65,945,34,0.0796477910593569,1
65,968,34,0.0600290773237493,1
65,969,34,0.0640953690836151,1
65,970,34,0.0591738209876794,1
66,942,34,0.140182796078358,1
66,943,34,0.149821657760091,1
66,944,34,0.135782702312345,1
66,945,34,0.0767526368506847,1
66,968,34,0.0589964234370499,1
66,969,34,0.064307010146411,1
66,970,34,0.0607743557879567,1
67,942,34,0.114939979089934,1
67,943,34,0.106314329094175,1
67,944,34,0.0892069497429077,1
67,969,34,0.058934558672776,1
68,942,34,0.083851392993288,1
68,943,34,0.0727070079574681,1
54,963,35,0.08047654066438,1
54,964,35,0.0735093510793706,1
55,948,35,0.057696980334329,1
55,949,35,0.0631388977238107,1
55,962,35,0.130654030207224,1
55,963,35,0.179955417742307,1
55,964,35,0.161272777862012,1
55,965,35,0.100722440807256,1
56,948,35,0.0746081509064818,1
56,949,35,0.0920974217837375,1
56,950,35,0.075518360796862,1
56,961,35,0.0924288709120901,1
56,962,35,0.183229267337207,1
56,963,35,0.251608684366975,1
56,964,35,0.227280211021649,1
56,965,35,0.142105633857966,1
56,966,35,0.068355976705873,1
57,948,35,0.06757455591584,1
57,949,35,0.0946672183998016,1
57,950,35,0.0859950533663348,1
57,961,35,0.0973178797106029,1
57,962,35,0.183168528887867,1
57,963,35,0.247906186433969,1
57,964,35,0.224010902068108,1
57,965,35,0.142863307683388,1
57,966,35,0.0693345026094181,1
58,949,35,0.0624852104824326,1
58,950,35,0.0611582876540881,1
58,961,35,0.0804392012603782,1
58,962,35,0.133335343795663,1
58,963,35,0.173413639077085,1
58,964,35,0.154034287904307,1
58,965,35,0.102290412722363,1
58,966,35,0.059124322099936,1
59,962,35,0.0740784054833776,1
59,963,35,0.0915421956965948,1
59,964,35,0.0856846209208411,1
59,965,35,0.0738090510998353,1
59,966,35,0.0600537088288844,1
60,963,35,0.0570048155801411,1
60,964,35,0.0664211622475651,1
60,965,35,0.0755456046450124,1
60,966,35,0.0709960353242556,1
61,963,35,0.0697058386184826,1
61,964,35,0.0785826627415397,1
61,965,35,0.0764650727262143,1
61,966,35,0.065329397466091,1
62,962,35,0.0574730972306758,1
62,963,35,0.0864434269581345,1
62,964,35,0.093912215886763,1
62,965,35,0.0759390600641228,1
63,943,35,0.0723788729076135,1
63,963,35,0.0797040891152642,1
63,964,35,0.0873497212824602,1
63,965,35,0.0685594328203502,1
64,942,35,0.0964839525950438,1
64,943,35,0.0945854514737294,1
64,944,35,0.0730753483226234,1
64,964,35,0.0600600775206598,1
64,968,35,0.0582243964673857,1
64,969,35,0.0605622665579617,1
65,942,35,0.106742600028324,1
65,943,35,0.107251741554148,1
65,944,35,0.0877686042931776,1
65,968,35,0.0617953809152291,1
65,969,35,0.0668119817359129,1
65,970,35,0.0598793246129746,1
66,942,35,0.100611271754154,1
66,943,35,0.0970659743631379,1
66,944,35,0.0809611745207418,1
66,968,35,0.0633018713669562,1
66,969,35,0.0716832702392543,1
66,970,35,0.0664698768427102,1
67,942,35,0.0814878299489476,1
67,943,35,0.0730944131193918,1
67,944,35,0.0593635254454711,1
67,968,35,0.059586624256526,1
67,969,35,0.062591603016703,1
67,970,35,0.0585128038538228,1
68,966,35,0.0580390144642897,1
68,967,35,0.0621406170818881,1
68,968,35,0.0583927776016035,1
69,967,35,0.0573140391535848,1
54,963,36,0.0812218250255243,1
54,964,36,0.0740161515212729,1
55,962,36,0.135769080388269,1
55,963,36,0.18526460687764,1
55,964,36,0.165668071521446,1
55,965,36,0.104583707867448,1
56,949,36,0.0667885414120173,1
56,950,36,0.0580736058957291,1
56,961,36,0.0938446487845753,1
56,962,36,0.195345042983008,1
56,963,36,0.270585711127652,1
56,964,36,0.244378426533083,1
56,965,36,0.150394002654848,1
56,966,36,0.0691411715354765,1
57,949,36,0.0776556229934493,1
57,950,36,0.0736281448717926,1
57,961,36,0.099117400747241,1
57,962,36,0.200020346790835,1
57,963,36,0.275711446558232,1
57,964,36,0.247033486958759,1
57,965,36,0.150824915416697,1
57,966,36,0.0676203456303179,1
58,961,36,0.0805430816995595,1
58,962,36,0.148518139874021,1
58,963,36,0.197696316810997,1
58,964,36,0.172333508951975,1
58,965,36,0.108832214975332,1
58,966,36,0.0597542505828296,1
59,962,36,0.0771695502845013,1
59,963,36,0.0982908212149709,1
59,964,36,0.0919163622353372,1
59,965,36,0.0799082410682872,1
59,966,36,0.064282343259655,1
60,964,36,0.0689479112247768,1
60,965,36,0.0844680002958847,1
60,966,36,0.0778840172537767,1
61,963,36,0.0594299721296613,1
61,965,36,0.0770804475690137,1
61,966,36,0.0663351023514814,1
62,963,36,0.0687025632710658,1
62,964,36,0.0751537944712773,1
63,963,36,0.0646081195347779,1
63,964,36,0.0703326122401727,1
63,965,36,0.0588304659438689,1
64,943,36,0.0665844779130467,1
64,968,36,0.0609753528797762,1
64,969,36,0.0618682316728157,1
65,943,36,0.0657403726845206,1
65,968,36,0.0652070714085084,1
65,969,36,0.0702306777901451,1
65,970,36,0.0615730663967725,1
66,943,36,0.0570207314126428,1
66,968,36,0.0670806048992883,1
66,969,36,0.0775235964747829,1
66,970,36,0.0712163507811271,1
67,968,36,0.0617616091580089,1
67,969,36,0.0661354261735117,1
67,970,36,0.0604128558695231,1
68,966,36,0.0656841984642867,1
68,967,36,0.0668673185911171,1
68,968,36,0.0594358218909957,1
69,966,36,0.0625504541915097,1
69,967,36,0.0649775862148676,1
54,963,37,0.0748913689885093,1
54,964,37,0.0683601812218321,1
55,962,37,0.121638297840221,1
55,963,37,0.162078676836823,1
55,964,37,0.145465531555075,1
55,965,37,0.094909895041129,1
56,961,37,0.0859177563183791,1
56,962,37,0.176734628784996,1
56,963,37,0.245451621860483,1
56,964,37,0.222021558634941,1
56,965,37,0.135724015997022,1
56,966,37,0.0646028830548737,1
57,961,37,0.0915406742868929,1
57,962,37,0.18468806336386,1
57,963,37,0.25575470271277,1
57,964,37,0.228435326595478,1
57,965,37,0.13673472738178,1
57,966,37,0.062825050951893,1
58,961,37,0.0757784039171512,1
58,962,37,0.14105859734234,1
58,963,37,0.187311881818215,1
58,964,37,0.164121847509365,1
58,965,37,0.104389203303077,1
58,966,37,0.0597688101198607,1
59,962,37,0.0761107316890912,1
59,963,37,0.0952346747339279,1
59,964,37,0.0911095197506341,1
59,965,37,0.0800713208562956,1
59,966,37,0.0647209338332552,1
60,964,37,0.0686867064079324,1
60,965,37,0.0812857832023726,1
60,966,37,0.073641654754068,1
61,965,37,0.0704199753592956,1
61,966,37,0.0619882579250349,1
62,964,37,0.0584414980936854,1
64,968,37,0.0628828055511971,1
64,969,37,0.0621662156846631,1
65,968,37,0.0664463657555726,1
65,969,37,0.0709042023270162,1
65,970,37,0.0610246335808569,1
66,968,37,0.066052538829442,1
66,969,37,0.0757071571263821,1
66,970,37,0.0684006047237955,1
67,968,37,0.0592473557899381,1
67,969,37,0.0641430163331941,1
67,970,37,0.0584509803681066,1
68,966,37,0.0605063400090747,1
68,967,37,0.0624900105890115,1
69,966,37,0.0579099246201641,1
69,967,37,0.0622103188752079,1
54,963,38,0.0631880251045338,1
55,962,38,0.0976187886031176,1
55,963,38,0.128410434445735,1
55,964,38,0.118014748097483,1
56,961,38,0.0705082348128166,1
56,962,38,0.14196311668868,1
56,963,38,0.200759799081455,1
56,964,38,0.184802263442492,1
56,965,38,0.112496795604527,1
57,961,38,0.0762581904914394,1
57,962,38,0.152809317216801,1
57,963,38,0.215158774316491,1
57,964,38,0.19501665436487,1
57,965,38,0.115437963611277,1
57,966,38,0.0574646940956944,1
58,961,38,0.066637703664866,1
58,962,38,0.12030350260121,1
58,963,38,0.158986629804364,1
58,964,38,0.142521804277742,1
58,965,38,0.0931642838009824,1
58,966,38,0.0576520043971335,1
59,962,38,0.0733962006554941,1
59,963,38,0.0881496997326942,1
59,964,38,0.0853115571092857,1
59,965,38,0.0745186295084795,1
59,966,38,0.0605906662057306,1
60,964,38,0.0636192563009714,1
60,965,38,0.0703215790713655,1
60,966,38,0.0635272404986903,1
61,965,38,0.0613072206906436,1
64,968,38,0.0622147592686402,1
64,969,38,0.0604558209512599,1
65,968,38,0.0653860434412712,1
65,969,38,0.0684226651644731,1
66,968,38,0.059787120108715,1
66,969,38,0.0669944565491522,1
66,970,38,0.0584122669778236,1
55,963,39,0.0935319696061497,1
55,964,39,0.0892765335974909,1
56,962,39,0.104425151029987,1
56,963,39,0.148630688810341,1
56,964,39,0.140168336789253,1
56,965,39,0.0893079111983585,1
57,962,39,0.115308667374362,1
57,963,39,0.163808024325195,1
57,964,39,0.151903901536062,1
57,965,39,0.0935185245901794,1
58,962,39,0.0943340532628318,1
58,963,39,0.123410669379698,1
58,964,39,0.114807757972352,1
58,965,39,0.0799737265517742,1
59,963,39,0.0769184174357609,1
59,964,39,0.0749912513045204,1
59,965,39,0.0646816838217208,1
60,965,39,0.0579308351581601,1
65,968,39,0.0587701638678546,1
65,969,39,0.0597886356214801,1
56,963,40,0.110726936160139,1
56,964,40,0.103906149825786,1
57,962,40,0.0912482392926016,1
57,963,40,0.125782995272166,1
57,964,40,0.117959741470741,1
58,963,40,0.0998663235184088,1
58,964,40,0.0954427068713844,1
57,963,41,0.0922275317979345,1
65,944,41,0.0570854974698367,1
63,963,42,0.0578406886848538,1
63,963,43,0.0638468426809532,1
63,964,43,0.0592068910094169,1
63,963,44,0.0608415160015032,1
