x,y,z,signal,cytoplasm.p
294,175,46,0.0833038742025808,1
295,174,46,0.0851406579830419,1
295,175,46,0.088160160898629,1
293,175,47,0.0784118461724115,1
294,174,47,0.0899575413471981,1
294,175,47,0.0994032724508415,1
294,176,47,0.090687865179607,1
295,173,47,0.0846218749655029,1
295,174,47,0.0975509030663411,1
295,175,47,0.103212729024053,1
295,176,47,0.0906732938487023,1
296,174,47,0.0886232414508804,1
296,175,47,0.0882463564242598,1
289,174,48,0.065609938338798,1
290,173,48,0.0662276129869608,1
290,174,48,0.0639297182311492,1
291,171,48,0.0691516562891586,1
291,172,48,0.069093300202298,1
291,173,48,0.0655179932997589,1
292,172,48,0.0718066990240239,1
292,173,48,0.0629574666683901,1
292,175,48,0.0650065814532562,1
292,176,48,0.0680531277211415,1
293,173,48,0.0658261731153838,1
293,174,48,0.0787894860069463,1
293,175,48,0.0930310248225187,1
293,176,48,0.0876930940170811,1
293,177,48,0.0750862922353948,1
294,168,48,0.0652573368980395,1
294,173,48,0.0823294584640055,1
294,174,48,0.114631132920447,1
294,175,48,0.133953413538593,1
294,176,48,0.111841610541194,1
294,177,48,0.0833812538076521,1
295,174,48,0.124871953913693,1
295,175,48,0.137528903246174,1
295,176,48,0.110600423277408,1
296,169,48,0.0641765109343833,1
296,174,48,0.101569689103112,1
296,175,48,0.102733095770122,1
297,174,48,0.0822267868968743,1
297,175,48,0.0797290685396722,1
298,170,48,0.0673189237042991,1
298,173,48,0.080712783747627,1
298,174,48,0.0755139439911771,1
299,172,48,0.0664485712099467,1
299,173,48,0.0671675493358964,1
306,158,48,0.0910133878864463,1
306,159,48,0.103752947406966,1
307,158,48,0.0749458979633679,1
307,159,48,0.0845747820279858,1
307,160,48,0.0707441771522852,1
274,187,49,0.0908633403288302,1
275,187,49,0.0900721247267242,1
276,186,49,0.0849633135048439,1
276,187,49,0.0901071525314889,1
277,185,49,0.0798155942937654,1
277,186,49,0.0858071474742759,1
277,187,49,0.0901029892940876,1
278,184,49,0.0758780798403732,1
278,185,49,0.0786909069139744,1
278,186,49,0.0826202423159847,1
278,187,49,0.0848883634377462,1
279,183,49,0.0705729831792,1
279,184,49,0.0741013976400742,1
279,185,49,0.0752414819219259,1
279,186,49,0.077406212050263,1
279,187,49,0.0775923311704627,1
280,182,49,0.0696740187473529,1
280,183,49,0.0705370826277845,1
280,184,49,0.071923246083514,1
280,185,49,0.0724357606572037,1
280,186,49,0.0728658360540227,1
280,187,49,0.0725587648625216,1
281,181,49,0.0681307196159386,1
281,182,49,0.0698803584639395,1
281,183,49,0.0700175506992682,1
281,184,49,0.0707488475262539,1
281,185,49,0.0711397141900963,1
281,186,49,0.0703221097956801,1
281,187,49,0.0709867122671288,1
282,180,49,0.0640626410842136,1
282,181,49,0.0666516263327195,1
282,182,49,0.0684417594459257,1
282,183,49,0.0688681374633529,1
282,184,49,0.0692797908295179,1
282,185,49,0.0695861720794099,1
282,186,49,0.0684934402002958,1
282,187,49,0.0706201704677063,1
283,179,49,0.0576160035977919,1
283,180,49,0.0604990219104698,1
283,181,49,0.0631624029140114,1
283,182,49,0.0663074339238793,1
283,183,49,0.0677767147042148,1
283,184,49,0.0679596258907795,1
283,185,49,0.0676767616249618,1
283,186,49,0.0675987156660288,1
283,187,49,0.0705999203866353,1
284,179,49,0.0572627770817296,1
284,180,49,0.0594940010697515,1
284,181,49,0.0616535418936791,1
284,182,49,0.0651047536575869,1
284,183,49,0.0671094763020035,1
284,184,49,0.0666428045152232,1
284,185,49,0.0656906025376831,1
284,186,49,0.0674328171422161,1
285,179,49,0.0579406299702332,1
285,180,49,0.0593989424480666,1
285,181,49,0.0602269490390493,1
285,182,49,0.0640650883129977,1
285,183,49,0.0668655495100683,1
285,184,49,0.0661839107881204,1
285,185,49,0.0647659156673875,1
285,186,49,0.0674060509459489,1
286,176,49,0.0590363574932565,1
286,177,49,0.0576352806842862,1
286,178,49,0.0576157795141924,1
286,179,49,0.0581816495723117,1
286,180,49,0.0583227278890108,1
286,181,49,0.0584740668757925,1
286,182,49,0.0629664830848018,1
286,183,49,0.0662843533131303,1
286,184,49,0.0658306724781844,1
286,185,49,0.0659897187614017,1
286,186,49,0.0688479994240816,1
287,176,49,0.061126308565664,1
287,177,49,0.0583650384107595,1
287,181,49,0.0579437789344999,1
287,182,49,0.0626425171692854,1
287,183,49,0.0651611165797993,1
287,184,49,0.0644057956321719,1
287,185,49,0.0669466795669629,1
288,175,49,0.0635036114728161,1
288,176,49,0.0615655419053786,1
288,177,49,0.0577920153682665,1
288,181,49,0.0590107294057973,1
288,182,49,0.0626316314238989,1
288,183,49,0.0636720456794653,1
288,184,49,0.0634637127982305,1
288,185,49,0.0672078607960601,1
289,174,49,0.0658982159926248,1
289,175,49,0.0637914586502544,1
289,176,49,0.0599214995051762,1
289,177,49,0.0568848306064797,1
289,178,49,0.0569495553851157,1
289,179,49,0.0583209529110252,1
289,180,49,0.059247703709211,1
289,181,49,0.0612260434582544,1
289,182,49,0.0624161455582904,1
289,183,49,0.0625715357406737,1
289,184,49,0.0634395412541681,1
290,173,49,0.0685516724514831,1
290,174,49,0.066335874850206,1
290,175,49,0.0627676619626723,1
290,176,49,0.0595926863075863,1
290,177,49,0.0581486267260688,1
290,178,49,0.0588532988832711,1
290,179,49,0.0604587045533693,1
290,180,49,0.0619116862003092,1
290,181,49,0.0636833088288089,1
290,182,49,0.062485611474137,1
290,183,49,0.0622164693803206,1
291,171,49,0.0710534479012236,1
291,172,49,0.0713112265977703,1
291,173,49,0.0690581308710493,1
291,174,49,0.0653793504179702,1
291,175,49,0.0638035237830067,1
291,176,49,0.0642482353770355,1
291,177,49,0.0640999863851523,1
291,178,49,0.06335997978247,1
291,179,49,0.064156166502323,1
291,180,49,0.0661083356457188,1
291,181,49,0.067390070247142,1
291,182,49,0.0640894839406597,1
291,183,49,0.0623846264309389,1
292,171,49,0.0839824524143144,1
292,172,49,0.0751465353420407,1
292,173,49,0.0692638691000793,1
292,174,49,0.0679086586657657,1
292,175,49,0.0719060447187836,1
292,176,49,0.07335369553483,1
292,177,49,0.0703247280356322,1
292,178,49,0.0669240294326024,1
292,179,49,0.0672383656502769,1
292,180,49,0.067899848642143,1
292,181,49,0.0671000529969507,1
293,172,49,0.0828716228360719,1
293,173,49,0.073928959413318,1
293,174,49,0.089117575768326,1
293,175,49,0.10717230981506,1
293,176,49,0.0965972386484674,1
293,177,49,0.0781211979499794,1
293,178,49,0.0703739910459024,1
293,179,49,0.071098288208872,1
293,180,49,0.0682512117261674,1
294,168,49,0.0674964804722229,1
294,173,49,0.0959702704278619,1
294,174,49,0.138312134395814,1
294,175,49,0.166894327741182,1
294,176,49,0.132641463032858,1
294,177,49,0.089231610732727,1
294,178,49,0.0738490146407261,1
295,168,49,0.0591614492142119,1
295,173,49,0.114901236214967,1
295,174,49,0.153278064725345,1
295,175,49,0.172979494793854,1
295,176,49,0.131692115172743,1
295,177,49,0.0892335390310701,1
296,169,49,0.0683616613529762,1
296,174,49,0.115726559699692,1
296,175,49,0.117890381699758,1
296,176,49,0.0968523165479464,1
297,169,49,0.0583109281184158,1
297,174,49,0.0859048184389761,1
297,175,49,0.0813528962404244,1
297,176,49,0.075000615640205,1
298,170,49,0.0663498328996805,1
298,173,49,0.0857995817043242,1
298,174,49,0.0758323962707583,1
298,175,49,0.0729787093218683,1
299,171,49,0.0610328126322388,1
299,172,49,0.0682914111445313,1
299,173,49,0.068426085387834,1
299,174,49,0.0665701070779942,1
300,152,49,0.080563420234683,1
300,153,49,0.0571677538416656,1
300,172,49,0.0589546672273631,1
300,173,49,0.0601914082007804,1
301,151,49,0.0775668623002979,1
301,152,49,0.0605701625563759,1
302,150,49,0.0603484377316022,1
305,158,49,0.0666143871766438,1
305,159,49,0.0698280290465182,1
305,160,49,0.0570238803769096,1
306,157,49,0.0618037368747159,1
306,158,49,0.0756897139872417,1
306,159,49,0.081033830679413,1
306,160,49,0.0667888362588587,1
307,157,49,0.0614414172820631,1
307,158,49,0.0702025199167862,1
307,159,49,0.0741632506104745,1
307,160,49,0.0652841797544855,1
307,161,49,0.0574485364887827,1
308,157,49,0.0588817516034715,1
308,158,49,0.0627380062673588,1
308,159,49,0.0637109182870427,1
308,160,49,0.0583530381443123,1
271,187,50,0.0789479484934176,1
272,187,50,0.0851627597022773,1
272,188,50,0.0911708243059093,1
273,187,50,0.0880962557942122,1
273,188,50,0.0936798647818232,1
274,186,50,0.0815884788667465,1
274,187,50,0.0880792136467761,1
274,188,50,0.0922823143410768,1
275,186,50,0.0810477946258243,1
275,187,50,0.0870641562195748,1
275,188,50,0.0892732843852981,1
276,185,50,0.0744292378430873,1
276,186,50,0.0795588298703532,1
276,187,50,0.085752630293291,1
276,188,50,0.0869691388764477,1
277,184,50,0.0712263578829261,1
277,185,50,0.0744478426787831,1
277,186,50,0.0793655046933484,1
277,187,50,0.0859080558572953,1
277,188,50,0.0865993006893378,1
278,183,50,0.0673947818996685,1
278,184,50,0.0711073930793361,1
278,185,50,0.0736052529630221,1
278,186,50,0.078574094492327,1
278,187,50,0.0841238550625391,1
278,188,50,0.0830980475194983,1
279,182,50,0.0654112882278365,1
279,183,50,0.0676640832107793,1
279,184,50,0.0703515060257731,1
279,185,50,0.0724116009070149,1
279,186,50,0.0765291370479255,1
279,187,50,0.0796482864020505,1
279,188,50,0.0772581045848637,1
280,182,50,0.0658687666901003,1
280,183,50,0.0670725732713271,1
280,184,50,0.0692716235720096,1
280,185,50,0.0708690683773885,1
280,186,50,0.0728962170725662,1
280,187,50,0.074175274464669,1
280,188,50,0.0724702636345907,1
281,181,50,0.0656542597160054,1
281,182,50,0.0667687336012084,1
281,183,50,0.0670502828501132,1
281,184,50,0.0687713746269244,1
281,185,50,0.0695484021990196,1
281,186,50,0.0704413163736801,1
281,187,50,0.0720375346161986,1
281,188,50,0.0714537201793084,1
282,180,50,0.064160441781524,1
282,181,50,0.0655633702286587,1
282,182,50,0.0664118097057542,1
282,183,50,0.0662745820888045,1
282,184,50,0.0676842684255452,1
282,185,50,0.0679007272857306,1
282,186,50,0.06878598133945,1
282,187,50,0.0719360247456227,1
282,188,50,0.0711220351734827,1
283,179,50,0.0589301359701541,1
283,180,50,0.0619570454383986,1
283,181,50,0.0634864808713276,1
283,182,50,0.0651693487036127,1
283,183,50,0.0654775580039218,1
283,184,50,0.0664595513063225,1
283,185,50,0.0662856919177905,1
283,186,50,0.0675994940616903,1
283,187,50,0.0724146732111029,1
283,188,50,0.0692930766281938,1
284,179,50,0.0587890222718341,1
284,180,50,0.0606529496525195,1
284,181,50,0.0619193699089975,1
284,182,50,0.0640252721955277,1
284,183,50,0.0654102739547019,1
284,184,50,0.0656599620539191,1
284,185,50,0.0652696968776333,1
284,186,50,0.0669304099182515,1
284,187,50,0.0714779506927391,1
285,178,50,0.0585134112383162,1
285,179,50,0.0597631254727574,1
285,180,50,0.0602085977716372,1
285,181,50,0.0606712301566896,1
285,182,50,0.0637282198996992,1
285,183,50,0.0663703129612879,1
285,184,50,0.0658619026556312,1
285,185,50,0.0647112274752345,1
285,186,50,0.0664761216988122,1
285,187,50,0.0683506340811058,1
286,176,50,0.0590692093283313,1
286,177,50,0.0594751249749616,1
286,178,50,0.0603655742300275,1
286,179,50,0.0601041099479626,1
286,180,50,0.0592079524580461,1
286,181,50,0.0591765217847471,1
286,182,50,0.063110285786316,1
286,183,50,0.0665164449528495,1
286,184,50,0.0661996438155804,1
286,185,50,0.0660165026484794,1
286,186,50,0.0690314413349608,1
286,187,50,0.0649089576640507,1
287,175,50,0.0597325085767408,1
287,176,50,0.0619864298746179,1
287,177,50,0.0603711350414574,1
287,178,50,0.0593437648101568,1
287,179,50,0.0584888563933598,1
287,180,50,0.0579446457842138,1
287,181,50,0.0584886146189499,1
287,182,50,0.0631457322735956,1
287,183,50,0.0661525508780633,1
287,184,50,0.065624568639071,1
287,185,50,0.067419089073278,1
287,186,50,0.0710730080406857,1
288,174,50,0.0625223493905822,1
288,175,50,0.0637672399306973,1
288,176,50,0.0631591183201976,1
288,177,50,0.0593591852999649,1
288,178,50,0.0574421913847546,1
288,179,50,0.0573222182049668,1
288,180,50,0.0574529827791518,1
288,181,50,0.0585666782686933,1
288,182,50,0.0626834478078161,1
288,183,50,0.0645594639090011,1
288,184,50,0.0644068158022433,1
288,185,50,0.0689678841498169,1
288,186,50,0.0715490146784665,1
289,173,50,0.0648024295002332,1
289,174,50,0.0649274504579467,1
289,175,50,0.0642416308077869,1
289,176,50,0.0618306681852144,1
289,177,50,0.0580129735912525,1
289,178,50,0.0573262281220105,1
289,179,50,0.0586363977528236,1
289,180,50,0.0591100692036201,1
289,181,50,0.0597546456775972,1
289,182,50,0.0622810880140938,1
289,183,50,0.0632960333994954,1
289,184,50,0.0638711793392468,1
289,185,50,0.0671256103211679,1
290,172,50,0.0681207066172028,1
290,173,50,0.0682270755637259,1
290,174,50,0.0664108308142405,1
290,175,50,0.0639711501093103,1
290,176,50,0.0617647935038967,1
290,177,50,0.0595346545522513,1
290,178,50,0.059444266304535,1
290,179,50,0.0607318270795453,1
290,180,50,0.0614697992390215,1
290,181,50,0.0622174423748974,1
290,182,50,0.0627239774546424,1
290,183,50,0.0627398932871441,1
290,184,50,0.0642305622573587,1
291,171,50,0.0710693224551675,1
291,172,50,0.0712188215976585,1
291,173,50,0.0699683466583663,1
291,174,50,0.0682099213744901,1
291,175,50,0.0670230390019628,1
291,176,50,0.0669308875701346,1
291,177,50,0.0661646808771208,1
291,178,50,0.064427048192504,1
291,179,50,0.0641211504914318,1
291,180,50,0.0653327292353994,1
291,181,50,0.0667983185332799,1
291,182,50,0.064988855261148,1
291,183,50,0.0634101745087592,1
291,184,50,0.06305718387017,1
292,169,50,0.0677664009617008,1
292,170,50,0.0769247153642944,1
292,171,50,0.0781831511683058,1
292,172,50,0.0749962695977619,1
292,173,50,0.0731392239423561,1
292,174,50,0.0748190489552373,1
292,175,50,0.0786462376174941,1
292,176,50,0.0782306509944641,1
292,177,50,0.0743767610022453,1
292,178,50,0.0695672782938095,1
292,179,50,0.0676205343322965,1
292,180,50,0.0681292630725419,1
292,181,50,0.0688663094129359,1
292,182,50,0.066130378395586,1
292,183,50,0.0628523006969802,1
293,168,50,0.0631824524992303,1
293,169,50,0.0769550433104064,1
293,171,50,0.0921686096051383,1
293,172,50,0.0806116276932608,1
293,173,50,0.0786894621644513,1
293,174,50,0.0962279370826089,1
293,175,50,0.114335908675036,1
293,176,50,0.101265418956604,1
293,177,50,0.08074217997772,1
293,178,50,0.072106870799435,1
293,179,50,0.0713376566686383,1
293,180,50,0.0691492739266797,1
293,181,50,0.0666730145225986,1
294,167,50,0.0572601588417774,1
294,168,50,0.0691015559138587,1
294,169,50,0.0914081701163433,1
294,172,50,0.0964283975531769,1
294,173,50,0.100684004573004,1
294,174,50,0.150336118322934,1
294,175,50,0.185853840599476,1
294,176,50,0.14742408118412,1
294,177,50,0.0940463711996247,1
294,178,50,0.0748467881460814,1
294,179,50,0.0730949792253274,1
294,180,50,0.0679916934332561,1
295,168,50,0.0624849863988331,1
295,169,50,0.0815946647534802,1
295,173,50,0.119521179579842,1
295,174,50,0.172342059510377,1
295,175,50,0.203288665058989,1
295,176,50,0.155873731203278,1
295,177,50,0.0963761624867449,1
295,178,50,0.0734940839099201,1
296,169,50,0.0682031575879471,1
296,174,50,0.127555944711453,1
296,175,50,0.136722367402186,1
296,176,50,0.112065422881606,1
296,177,50,0.0823592085103083,1
297,174,50,0.0900936898247081,1
297,175,50,0.0852522811002797,1
297,176,50,0.0796055748885974,1
298,154,50,0.0578709340738502,1
298,170,50,0.0625755220699701,1
298,174,50,0.0759230734683792,1
298,175,50,0.0725410386704134,1
298,176,50,0.0690614685372945,1
299,152,50,0.0785630849112671,1
299,153,50,0.062663162345124,1
299,171,50,0.0624770432249244,1
299,173,50,0.0709478514534251,1
299,174,50,0.066545339943312,1
299,175,50,0.0641495973146954,1
300,151,50,0.0893352140158772,1
300,152,50,0.0670355581988509,1
300,172,50,0.0580766192304488,1
300,173,50,0.060339197231591,1
300,174,50,0.0589181592914543,1
301,150,50,0.0836232817859284,1
301,151,50,0.0688388532750596,1
302,149,50,0.0620242469305029,1
302,150,50,0.0611955386040375,1
306,158,50,0.0596438953070101,1
306,159,50,0.059482737920408,1
307,157,50,0.0574944264511866,1
307,158,50,0.0620855632796517,1
307,159,50,0.06157467036359,1
307,160,50,0.0575294188743304,1
308,158,50,0.0597607843888363,1
308,159,50,0.0591524504886108,1
309,149,50,0.0577667234062066,1
309,150,50,0.0572991670789019,1
310,149,50,0.059629477296463,1
310,150,50,0.0595961242217577,1
310,151,50,0.0585600854933184,1
271,187,51,0.0779424441038793,1
272,187,51,0.0834308234586374,1
272,188,51,0.0883158695156011,1
273,186,51,0.0801817468953571,1
273,187,51,0.0853174599430516,1
273,188,51,0.090899506242403,1
274,185,51,0.0741802750671001,1
274,186,51,0.0801971320035442,1
274,187,51,0.0851771659189508,1
274,188,51,0.0907025485523114,1
275,185,51,0.073598801714131,1
275,186,51,0.078851739969051,1
275,187,51,0.0844051507431603,1
275,188,51,0.0890915761738466,1
276,184,51,0.0685631950660471,1
276,185,51,0.0725098556684612,1
276,186,51,0.0763850394995699,1
276,187,51,0.0831805810473582,1
276,188,51,0.0874669582835593,1
277,183,51,0.065301068581564,1
277,184,51,0.0692418027624649,1
277,185,51,0.071629354545826,1
277,186,51,0.0755012537831209,1
277,187,51,0.0836057266049882,1
277,188,51,0.0869724942335034,1
278,183,51,0.0660093319732953,1
278,184,51,0.0678670203948155,1
278,185,51,0.0703347351374312,1
278,186,51,0.0757269059678227,1
278,187,51,0.084076661877096,1
278,188,51,0.0843834559125661,1
279,182,51,0.0638502746981877,1
279,183,51,0.0654213248143196,1
279,184,51,0.0665646701022378,1
279,185,51,0.0697998711731593,1
279,186,51,0.0757860994197131,1
279,187,51,0.082710524418838,1
279,188,51,0.080685144804709,1
280,181,51,0.0624753743918017,1
280,182,51,0.063425913433156,1
280,183,51,0.0643150299804986,1
280,184,51,0.0657156409314594,1
280,185,51,0.0688477871343557,1
280,186,51,0.0733945613070556,1
280,187,51,0.0780968318070017,1
280,188,51,0.0763272495186448,1
281,180,51,0.0639131242509121,1
281,181,51,0.0644173477314201,1
281,182,51,0.0638357328519672,1
281,183,51,0.0640635492124853,1
281,184,51,0.0655593190330571,1
281,185,51,0.0678930848556,1
281,186,51,0.0715080191736306,1
281,187,51,0.075600994572648,1
281,188,51,0.0753040248339352,1
282,179,51,0.0622113213544688,1
282,180,51,0.0663486358215042,1
282,181,51,0.0657149745775977,1
282,182,51,0.0640037247883542,1
282,183,51,0.0633003912358121,1
282,184,51,0.064513338069124,1
282,185,51,0.0660757904513591,1
282,186,51,0.0697476714883482,1
282,187,51,0.0746537047434866,1
282,188,51,0.0754963829133,1
283,179,51,0.0617633133727525,1
283,180,51,0.0651558624090846,1
283,181,51,0.064570302478893,1
283,182,51,0.0634832139683243,1
283,183,51,0.0625032904907506,1
283,184,51,0.063414219807424,1
283,185,51,0.064460755083419,1
283,186,51,0.0682995194326713,1
283,187,51,0.0745130156246182,1
283,188,51,0.0755688208853085,1
284,178,51,0.0585035102813801,1
284,179,51,0.0627556852839724,1
284,180,51,0.064537662933544,1
284,181,51,0.0636445364691577,1
284,182,51,0.0630895521564249,1
284,183,51,0.0627783707999539,1
284,184,51,0.0632598380012385,1
284,185,51,0.0639599400323982,1
284,186,51,0.0670343965022956,1
284,187,51,0.0733745471034577,1
284,188,51,0.0727261788990995,1
285,177,51,0.0578441089082147,1
285,178,51,0.0619230849791998,1
285,179,51,0.0641891893485659,1
285,180,51,0.063582695292631,1
285,181,51,0.0619937184885387,1
285,182,51,0.0628798688766562,1
285,183,51,0.0642042501252273,1
285,184,51,0.0645149833144993,1
285,185,51,0.0646643940029379,1
285,186,51,0.066679624988784,1
285,187,51,0.0716672246741423,1
286,176,51,0.0589945541080751,1
286,177,51,0.0612533580696467,1
286,178,51,0.0635637779192833,1
286,179,51,0.063587389254347,1
286,180,51,0.0615262093367286,1
286,181,51,0.0603089282548473,1
286,182,51,0.0624459368831509,1
286,183,51,0.0648820971167942,1
286,184,51,0.0653729463445738,1
286,185,51,0.0662265338475211,1
286,186,51,0.0685782558427086,1
286,187,51,0.0698476068767907,1
287,175,51,0.0598179021189628,1
287,176,51,0.0628704750562874,1
287,177,51,0.062093453381129,1
287,178,51,0.0617485710306798,1
287,179,51,0.0606368451180392,1
287,180,51,0.0593561778621821,1
287,181,51,0.0589795523007819,1
287,182,51,0.0621543215630789,1
287,183,51,0.0648766896257219,1
287,184,51,0.0657670504267354,1
287,185,51,0.0682586005880142,1
287,186,51,0.0715403815629487,1
287,187,51,0.0669141933419715,1
288,173,51,0.059990582120129,1
288,174,51,0.0625361128411413,1
288,175,51,0.0645695240832315,1
288,176,51,0.0649464032129154,1
288,177,51,0.0614203357328991,1
288,178,51,0.0595236744558755,1
288,179,51,0.0589182595393804,1
288,180,51,0.0586224043217282,1
288,181,51,0.0587745099102977,1
288,182,51,0.0619524340337982,1
288,183,51,0.0643727786828659,1
288,184,51,0.0656448364109525,1
288,185,51,0.0706260379198513,1
288,186,51,0.0745287958275728,1
289,173,51,0.0643859406458684,1
289,174,51,0.0654528970141025,1
289,175,51,0.065577711579027,1
289,176,51,0.0647516863588189,1
289,177,51,0.0606851174429221,1
289,178,51,0.0590135068630438,1
289,179,51,0.0595210031434919,1
289,180,51,0.0598274079811313,1
289,181,51,0.0595097046125274,1
289,182,51,0.0621359054293616,1
289,183,51,0.064221097673748,1
289,184,51,0.0657625805486189,1
289,185,51,0.0706024029970403,1
289,186,51,0.0713063911095705,1
290,172,51,0.0677885616503045,1
290,173,51,0.067640666474631,1
290,174,51,0.0664151591658731,1
290,175,51,0.0654826293695948,1
290,176,51,0.0648457837798006,1
290,177,51,0.0622788235903514,1
290,178,51,0.0609072609502107,1
290,179,51,0.0615084654538099,1
290,180,51,0.0617418603165683,1
290,181,51,0.0617610843306312,1
290,182,51,0.0635564480268047,1
290,183,51,0.0647580491536575,1
290,184,51,0.066519741340537,1
290,185,51,0.0689939368167278,1
291,169,51,0.0571103825432554,1
291,170,51,0.0671557436683646,1
291,171,51,0.0709625820016242,1
291,172,51,0.0704362685957544,1
291,173,51,0.0684702770324312,1
291,174,51,0.0677399944785801,1
291,175,51,0.0678634881296549,1
291,176,51,0.0684093380872394,1
291,177,51,0.0677386381831094,1
291,178,51,0.0655999430308727,1
291,179,51,0.0642191870662154,1
291,180,51,0.0642051287688149,1
291,181,51,0.0649428178753233,1
291,182,51,0.0652919460202894,1
291,183,51,0.0651262185076447,1
291,184,51,0.0662305850431227,1
292,169,51,0.0644708093607126,1
292,170,51,0.0726203878523856,1
292,171,51,0.0754533411713845,1
292,172,51,0.0739337477260232,1
292,173,51,0.0737710512389087,1
292,174,51,0.0775657300884267,1
292,175,51,0.0806968443273779,1
292,176,51,0.0784472513811334,1
292,177,51,0.0757415657527798,1
292,178,51,0.071526535555274,1
292,179,51,0.0673927769411466,1
292,180,51,0.0664553114087423,1
292,181,51,0.0675719553666984,1
292,182,51,0.0665376149560659,1
292,183,51,0.0646139692961124,1
293,168,51,0.0641886763150617,1
293,169,51,0.072062673257901,1
293,170,51,0.0780194227172462,1
293,171,51,0.0809752681997633,1
293,172,51,0.0789361723105699,1
293,173,51,0.081907196508485,1
293,174,51,0.0996263653649595,1
293,175,51,0.113450318495917,1
293,176,51,0.099052050893301,1
293,177,51,0.0811991041279218,1
293,178,51,0.0737917907657366,1
293,179,51,0.0699371518625404,1
293,180,51,0.0677101854629091,1
293,181,51,0.0668665578862661,1
293,182,51,0.0652594656922348,1
294,167,51,0.0600994749556149,1
294,168,51,0.0717705802859458,1
294,169,51,0.0823638493995928,1
294,170,51,0.0902738884203314,1
294,171,51,0.0940599695359526,1
294,172,51,0.0901518454157166,1
294,173,51,0.0981960515431906,1
294,174,51,0.144486982063783,1
294,175,51,0.179464603896149,1
294,176,51,0.145135951755697,1
294,177,51,0.0935046549947574,1
294,178,51,0.074272780315138,1
294,179,51,0.0709857156848047,1
294,180,51,0.0670161101011886,1
294,181,51,0.0641223947451028,1
295,168,51,0.0661123691505099,1
295,169,51,0.0778844418332284,1
295,170,51,0.0903070115145004,1
295,171,51,0.102886498684794,1
295,172,51,0.104569779302657,1
295,173,51,0.114753282069925,1
295,174,51,0.169469484672823,1
295,175,51,0.209678798096714,1
295,176,51,0.168462747823488,1
295,177,51,0.101300210883896,1
295,178,51,0.072433679038503,1
295,179,51,0.06763034683518,1
296,168,51,0.0570323778628803,1
296,169,51,0.0681719274105003,1
296,170,51,0.0866477794070097,1
296,173,51,0.11215525681726,1
296,174,51,0.129031794679416,1
296,175,51,0.147598583338766,1
296,176,51,0.12597448060488,1
296,177,51,0.0875437422980108,1
296,178,51,0.0674425706757314,1
297,169,51,0.0576605667494093,1
297,170,51,0.0788050008477436,1
297,174,51,0.0949596769818402,1
297,175,51,0.0920639861519166,1
297,176,51,0.0866928614890681,1
297,177,51,0.0733007882175994,1
298,153,51,0.062433960204451,1
298,154,51,0.0584153156941643,1
298,170,51,0.0624515389731386,1
298,174,51,0.0784691172228956,1
298,175,51,0.0727044192022001,1
298,176,51,0.0699767379994741,1
299,152,51,0.0654991997620845,1
299,153,51,0.057328834568089,1
299,171,51,0.0684935640359692,1
299,173,51,0.0785739411719695,1
299,174,51,0.068934690292406,1
299,175,51,0.0650072301163074,1
299,176,51,0.0606125438413666,1
300,150,51,0.10517460452547,1
300,151,51,0.0760709509532422,1
300,152,51,0.0577392200928357,1
300,172,51,0.0612410216778002,1
300,173,51,0.063021613547217,1
300,174,51,0.0603942038583327,1
301,149,51,0.0813675914070025,1
301,150,51,0.0749496071366333,1
301,151,51,0.0618184910106623,1
302,148,51,0.0602375753192153,1
302,149,51,0.0607391687658975,1
302,150,51,0.0581332239270712,1
309,148,51,0.0590688967906794,1
309,149,51,0.0616741104093389,1
309,150,51,0.058332174781811,1
310,148,51,0.0658150750802715,1
310,149,51,0.0682767277718268,1
310,150,51,0.0644860293546685,1
310,151,51,0.0612412811430207,1
310,152,51,0.0581119006034972,1
311,149,51,0.0640185143059216,1
311,150,51,0.061067757879888,1
311,151,51,0.0617890181203905,1
311,152,51,0.0607890509545348,1
311,153,51,0.0587423716045792,1
272,186,52,0.0738969095616519,1
272,187,52,0.0779893306486074,1
273,186,52,0.0763007781692191,1
273,187,52,0.0795915342820074,1
274,185,52,0.0702165664203131,1
274,186,52,0.0757295360016485,1
274,187,52,0.0795971127842477,1
275,185,52,0.0687059245250583,1
275,186,52,0.073914122720256,1
275,187,52,0.0792620665244294,1
275,188,52,0.0871415476185197,1
276,184,52,0.0637412167484706,1
276,185,52,0.0675473651401211,1
276,186,52,0.0714814416793419,1
276,187,52,0.0789744434305907,1
276,188,52,0.0874227371542779,1
277,183,52,0.0607987101370609,1
277,184,52,0.0646748374780622,1
277,185,52,0.0667451930293867,1
277,186,52,0.0704712079464668,1
277,187,52,0.0792540584842155,1
277,188,52,0.086401281550617,1
278,182,52,0.0591742219793837,1
278,183,52,0.0616135960435988,1
278,184,52,0.0632598380012385,1
278,185,52,0.0655162831880784,1
278,186,52,0.0711485536984031,1
278,187,52,0.0804595397955018,1
278,188,52,0.0838276696164245,1
279,181,52,0.057882845886245,1
279,182,52,0.0596493381797033,1
279,183,52,0.0605191422589306,1
279,184,52,0.0615395717955833,1
279,185,52,0.0653106864855323,1
279,186,52,0.0725062290523113,1
279,187,52,0.0810374690894365,1
279,188,52,0.0810208869030731,1
280,180,52,0.058470564095316,1
280,181,52,0.0593849372230975,1
280,182,52,0.0589249171810604,1
280,183,52,0.0590333323646632,1
280,184,52,0.0605024480307675,1
280,185,52,0.0650460496514533,1
280,186,52,0.0718067167148344,1
280,187,52,0.0785672127670475,1
280,188,52,0.0774048144762345,1
281,179,52,0.0582514575104944,1
281,180,52,0.0626062156261655,1
281,181,52,0.0609930024117056,1
281,182,52,0.0585457382460132,1
281,183,52,0.0583900414229148,1
281,184,52,0.0601851692416152,1
281,185,52,0.0643175243847773,1
281,186,52,0.0699859372209275,1
281,187,52,0.0760884294740036,1
281,188,52,0.0761258986106156,1
282,179,52,0.0627318085867514,1
282,180,52,0.0663731140062817,1
282,181,52,0.06293701019453,1
282,182,52,0.0586682117270165,1
282,183,52,0.0576507601434626,1
282,184,52,0.0590688673059953,1
282,185,52,0.0622922273277639,1
282,186,52,0.0675191600912676,1
282,187,52,0.0742525833064983,1
282,188,52,0.0760602716006447,1
283,178,52,0.0571370897701544,1
283,179,52,0.063164348903165,1
283,180,52,0.0666726607063889,1
283,181,52,0.0630974776395232,1
283,182,52,0.0590432863940307,1
283,183,52,0.057270696667891,1
283,184,52,0.0582799750969999,1
283,185,52,0.0607497419736321,1
283,186,52,0.0656675101330604,1
283,187,52,0.0729957455723675,1
283,188,52,0.0760001818143563,1
284,178,52,0.0606653980861657,1
284,179,52,0.0654959092713339,1
284,180,52,0.0670936607174279,1
284,181,52,0.0631449067024395,1
284,182,52,0.0598111206416094,1
284,183,52,0.0579823036228044,1
284,184,52,0.0587034282337599,1
284,185,52,0.0605915448493182,1
284,186,52,0.0646483248500786,1
284,187,52,0.0715434361762261,1
285,177,52,0.059559575007291,1
285,178,52,0.0650199792937319,1
285,179,52,0.0667205497303779,1
285,180,52,0.065229025704323,1
285,181,52,0.0614904444148602,1
285,182,52,0.0607581745932977,1
285,183,52,0.0602799801919533,1
285,184,52,0.0609562703921972,1
285,185,52,0.062183092717868,1
285,186,52,0.064847151869145,1
285,187,52,0.0702300880964622,1
286,176,52,0.0593179775054032,1
286,177,52,0.062849717838649,1
286,178,52,0.065731285504867,1
286,179,52,0.0646794370887889,1
286,180,52,0.0619339766215232,1
286,181,52,0.0600675489396223,1
286,182,52,0.0616087841431463,1
286,183,52,0.0624450346518161,1
286,184,52,0.0630207879760609,1
286,185,52,0.0643927044324113,1
286,186,52,0.0665420553494982,1
286,187,52,0.0696364198781306,1
287,175,52,0.0596383698772012,1
287,176,52,0.063354460249598,1
287,177,52,0.0630079444476471,1
287,178,52,0.0627674850545674,1
287,179,52,0.0609379014339746,1
287,180,52,0.0594468727506134,1
287,181,52,0.0593640856544699,1
287,182,52,0.0618434586411967,1
287,183,52,0.0634395943265995,1
287,184,52,0.0644484894548145,1
287,185,52,0.0669641580877243,1
287,186,52,0.0692186749762212,1
287,187,52,0.0683665145319865,1
288,173,52,0.0569221700104815,1
288,174,52,0.0614892650274943,1
288,175,52,0.0642195231916147,1
288,176,52,0.0655659000145584,1
288,177,52,0.0626956190854313,1
288,178,52,0.0608084164950815,1
288,179,52,0.0597106781165995,1
288,180,52,0.0593443662977134,1
288,181,52,0.0595867009167048,1
288,182,52,0.0614310504671176,1
288,183,52,0.0637617498825094,1
288,184,52,0.0655087940783055,1
288,185,52,0.0701734539151556,1
288,186,52,0.0728319286672555,1
289,172,52,0.0593300308442819,1
289,173,52,0.0625041219588435,1
289,174,52,0.0643329802562063,1
289,175,52,0.0649277217170408,1
289,176,52,0.0656677695982809,1
289,177,52,0.0623912427940611,1
289,178,52,0.0599616104694877,1
289,179,52,0.0600936723697751,1
289,180,52,0.0606122902730829,1
289,181,52,0.0603997941544467,1
289,182,52,0.0617177831234952,1
289,183,52,0.0646847502288719,1
289,184,52,0.0667505002725328,1
289,185,52,0.0719824395354044,1
289,186,52,0.0727042599849057,1
290,171,52,0.062797205616186,1
290,172,52,0.0666746361802266,1
290,173,52,0.0660529693058305,1
290,174,52,0.0647103665224575,1
290,175,52,0.0647225495939464,1
290,176,52,0.0656309373308464,1
290,177,52,0.0634272107592584,1
290,178,52,0.0611357200768432,1
290,179,52,0.0620839711067079,1
290,180,52,0.0625235877473164,1
290,181,52,0.0622566570048109,1
290,182,52,0.063521797625997,1
290,183,52,0.0666828800979137,1
290,184,52,0.0689048635859245,1
290,185,52,0.0727635713755327,1
291,170,52,0.0657027443306142,1
291,171,52,0.070691670826759,1
291,172,52,0.069800708538189,1
291,173,52,0.0659346059897971,1
291,174,52,0.0648970930271505,1
291,175,52,0.0657224283057497,1
291,176,52,0.0665888357493634,1
291,177,52,0.0660183660805174,1
291,178,52,0.064144124957318,1
291,179,52,0.0638996261625103,1
291,180,52,0.0635642791589138,1
291,181,52,0.0638330556426468,1
291,182,52,0.0649486735335946,1
291,183,52,0.0673965332899067,1
291,184,52,0.0695049358776524,1
292,169,52,0.062234673224312,1
292,170,52,0.0702455439678912,1
292,171,52,0.0731019081261016,1
292,172,52,0.0717401461949708,1
292,173,52,0.0715696008849368,1
292,174,52,0.0767170665277317,1
292,175,52,0.0784379637056276,1
292,176,52,0.0732475388780328,1
292,177,52,0.0713338649382572,1
292,178,52,0.0690672416384502,1
292,179,52,0.0661842469135197,1
292,180,52,0.0645270720349989,1
292,181,52,0.0656863331554188,1
292,182,52,0.0658875248461536,1
292,183,52,0.0665486422279363,1
293,168,52,0.0640495675752635,1
293,169,52,0.0681204353581087,1
293,170,52,0.0709089670519741,1
293,171,52,0.0738491030947785,1
293,172,52,0.0753529517188061,1
293,173,52,0.0813784535646417,1
293,174,52,0.0991049582105316,1
293,175,52,0.107307066615478,1
293,176,52,0.0895588435512467,1
293,177,52,0.0758797958489905,1
293,178,52,0.0714984248574097,1
293,179,52,0.067864413948737,1
293,180,52,0.0655376124085892,1
293,181,52,0.0660265038533416,1
293,182,52,0.0649077605858744,1
294,167,52,0.062374996733097,1
294,168,52,0.0709312220915671,1
294,169,52,0.0729428618428843,1
294,170,52,0.0743939210884179,1
294,171,52,0.0787418328604304,1
294,172,52,0.0812896928714903,1
294,173,52,0.0891728123756041,1
294,174,52,0.12537456163351,1
294,175,52,0.153755987867595,1
294,176,52,0.124960738194592,1
294,177,52,0.0851489136946026,1
294,178,52,0.0712846078249238,1
294,179,52,0.0681666437551014,1
294,180,52,0.0649020995265184,1
294,181,52,0.063899225170806,1
295,167,52,0.0579827046145087,1
295,168,52,0.0646006009403208,1
295,169,52,0.0695579906183037,1
295,170,52,0.075608171144769,1
295,171,52,0.0856387604431213,1
295,172,52,0.0920347786238021,1
295,173,52,0.0994735639378442,1
295,174,52,0.141910610363154,1
295,175,52,0.184023160148633,1
295,176,52,0.155633348470377,1
295,177,52,0.0972333294303474,1
295,178,52,0.0700059160429044,1
295,179,52,0.0656397414575322,1
295,180,52,0.0614628467505,1
296,169,52,0.0635721397757069,1
296,170,52,0.0746747744987769,1
296,171,52,0.0919759448850583,1
296,172,52,0.104507342535511,1
296,173,52,0.100192376949563,1
296,174,52,0.113307624418527,1
296,175,52,0.138077176844795,1
296,176,52,0.125930336135778,1
296,177,52,0.0879718599118026,1
296,178,52,0.0662511299710352,1
297,170,52,0.0710113496692007,1
297,171,52,0.0973937732875932,1
297,173,52,0.106717738542653,1
297,174,52,0.0920343127657926,1
297,175,52,0.0924648481236843,1
297,176,52,0.0898755798222107,1
297,177,52,0.0749118667409272,1
298,154,52,0.0573724483128769,1
298,170,52,0.0617747357393905,1
298,171,52,0.0882289014912457,1
298,173,52,0.0989100526544566,1
298,174,52,0.0787518340652926,1
298,175,52,0.071714883717595,1
298,176,52,0.0700799520847936,1
298,177,52,0.063388479678165,1
299,151,52,0.079396675901427,1
299,152,52,0.0592892653199824,1
299,171,52,0.071096460158455,1
299,172,52,0.088100436722424,1
299,173,52,0.0821301950716138,1
299,174,52,0.0696815550326204,1
299,175,52,0.0641405278258522,1
299,176,52,0.0601870798491479,1
300,150,52,0.0950611514707951,1
300,151,52,0.069559777390163,1
300,172,52,0.0634477851718551,1
300,173,52,0.0643477343921527,1
300,174,52,0.060596657493549,1
301,149,52,0.0770083044438467,1
301,150,52,0.0692066157404057,1
301,151,52,0.059099549068317,1
302,148,52,0.060426766743503,1
302,149,52,0.0595257030021447,1
309,148,52,0.0663564905413605,1
309,149,52,0.0663079587512571,1
309,150,52,0.0576422154819972,1
310,147,52,0.0674223854609654,1
310,148,52,0.084978250445832,1
310,149,52,0.0845430918894663,1
310,150,52,0.0711816473078879,1
310,151,52,0.0616823366362155,1
310,152,52,0.058272863391184,1
311,148,52,0.0787447282564135,1
311,149,52,0.0769437860579996,1
311,150,52,0.0681363393967368,1
311,151,52,0.0660349246791335,1
311,152,52,0.0658101275502719,1
311,153,52,0.0635494424658518,1
311,154,52,0.0600247666629272,1
312,152,52,0.0626056495202299,1
312,153,52,0.0604864791258343,1
273,185,53,0.067327657067743,1
273,186,53,0.071855036215212,1
274,185,53,0.0659783553641321,1
274,186,53,0.0707189205718463,1
275,185,53,0.0636568020977622,1
275,186,53,0.0685449204588138,1
275,187,53,0.0742612459067003,1
276,184,53,0.060319289172856,1
276,185,53,0.0625429061123684,1
276,186,53,0.0669552242284283,1
276,187,53,0.0749224871241564,1
277,183,53,0.0577899927189342,1
277,184,53,0.0608033687171558,1
277,185,53,0.0618478518591343,1
277,186,53,0.0660881917095107,1
277,187,53,0.0746424946665745,1
278,183,53,0.0578660985856504,1
278,184,53,0.0592084360068661,1
278,185,53,0.0604550484525353,1
278,186,53,0.066193275123805,1
278,187,53,0.0748150272443199,1
279,185,53,0.0594392833929144,1
279,186,53,0.0669137156900883,1
279,187,53,0.0751998849295335,1
280,185,53,0.0595537724214511,1
280,186,53,0.0676939276080713,1
280,187,53,0.0752187020549551,1
281,180,53,0.0603169539858717,1
281,181,53,0.0579438084191841,1
281,185,53,0.0591567788402433,1
281,186,53,0.0665919021565145,1
281,187,53,0.073964671262755,1
282,179,53,0.0617829914509512,1
282,180,53,0.0648601428209795,1
282,181,53,0.0599435481519802,1
282,185,53,0.0575994273083654,1
282,186,53,0.0643911889196463,1
282,187,53,0.072172114508512,1
283,178,53,0.0576783578078227,1
283,179,53,0.0642496093633167,1
283,180,53,0.067075993494688,1
283,181,53,0.0614065310037822,1
283,186,53,0.0620930523894246,1
283,187,53,0.0702015528191462,1
284,178,53,0.0627230221508761,1
284,179,53,0.0681318990033044,1
284,180,53,0.0689260100013936,1
284,181,53,0.0626239889937684,1
284,182,53,0.0573926217337692,1
284,186,53,0.0613419300608196,1
284,187,53,0.0686735326510562,1
285,177,53,0.0613238795371858,1
285,178,53,0.0677626799945616,1
285,179,53,0.0697047830667902,1
285,180,53,0.0672378054412782,1
285,181,53,0.0613708663298399,1
285,182,53,0.0589806845126531,1
285,183,53,0.0568720460474342,1
285,185,53,0.0577362303458634,1
285,186,53,0.0615635723284777,1
285,187,53,0.0670607027374902,1
286,176,53,0.059932237827142,1
286,177,53,0.0635693682153973,1
286,178,53,0.0669338478324228,1
286,179,53,0.0662915534729986,1
286,180,53,0.0632230175276776,1
286,181,53,0.059888659463975,1
286,182,53,0.0603580556355704,1
286,183,53,0.0593589730102391,1
286,184,53,0.0589302480119539,1
286,185,53,0.060302624429377,1
286,186,53,0.0634747518639746,1
286,187,53,0.0669575240337916,1
287,175,53,0.0600221838045961,1
287,176,53,0.0630640950801337,1
287,177,53,0.0629503726533848,1
287,178,53,0.0636708073227312,1
287,179,53,0.0625278689234543,1
287,180,53,0.060740637103168,1
287,181,53,0.05942460002021,1
287,182,53,0.0608130455904924,1
287,183,53,0.0606693785185253,1
287,184,53,0.0614247466416473,1
287,185,53,0.0638130827176066,1
287,186,53,0.0662931397490056,1
288,174,53,0.0613604936179576,1
288,175,53,0.0636445305722208,1
288,176,53,0.0644683680288654,1
288,177,53,0.0626711585914643,1
288,178,53,0.0619739047807929,1
288,179,53,0.0610632290324032,1
288,180,53,0.0603980014856507,1
288,181,53,0.0596641689758285,1
288,182,53,0.060553356286413,1
288,183,53,0.0618588909248784,1
288,184,53,0.0645265648984316,1
288,185,53,0.0686842945607693,1
288,186,53,0.07018027077413,1
289,172,53,0.0583877475144883,1
289,173,53,0.062283116560363,1
289,174,53,0.0636649870460809,1
289,175,53,0.0641726602346339,1
289,176,53,0.0651812369282601,1
289,177,53,0.0632633938541464,1
289,178,53,0.0612313919799583,1
289,179,53,0.0607370576625127,1
289,180,53,0.0611996133873864,1
289,181,53,0.0603799509620168,1
289,182,53,0.0608012988923288,1
289,183,53,0.0635190496534347,1
289,184,53,0.0672088337906369,1
289,185,53,0.0718216831405066,1
289,186,53,0.0711402390174741,1
290,171,53,0.0611652696272938,1
290,172,53,0.0657769572806082,1
290,173,53,0.0653888503832018,1
290,174,53,0.0639120686992197,1
290,175,53,0.0646806282700284,1
290,176,53,0.0661005281013571,1
290,177,53,0.0644829806383278,1
290,178,53,0.0618584014791216,1
290,179,53,0.0619540674852999,1
290,180,53,0.0624168296029625,1
290,181,53,0.0615806970330294,1
290,182,53,0.0623092222997053,1
290,183,53,0.0661907512348422,1
290,184,53,0.0697291374158943,1
290,185,53,0.0730662965245907,1
291,170,53,0.0632773165219999,1
291,171,53,0.0684216921698963,1
291,172,53,0.0681005096085632,1
291,173,53,0.0651122486642966,1
291,174,53,0.0647677142331203,1
291,175,53,0.066089111631656,1
291,176,53,0.066414988154705,1
291,177,53,0.0653502844163396,1
291,178,53,0.0637375252660155,1
291,179,53,0.0631459209755741,1
291,180,53,0.0623342371057343,1
291,181,53,0.0616588432398884,1
291,182,53,0.0629660172267923,1
291,183,53,0.0666574112277488,1
291,184,53,0.0694296143035345,1
292,169,53,0.0612386864908159,1
292,170,53,0.0676507266488614,1
292,171,53,0.0694152906439766,1
292,172,53,0.0684029634985271,1
292,173,53,0.0696748207307616,1
292,174,53,0.0762313417380566,1
292,175,53,0.0774358264670187,1
292,176,53,0.0708623989418348,1
292,177,53,0.0683935519873479,1
292,178,53,0.0671121417174503,1
292,179,53,0.0647962672012468,1
292,180,53,0.0623700492030974,1
292,181,53,0.0624691236387629,1
292,182,53,0.0634315273170173,1
292,183,53,0.0655872056473219,1
292,184,53,0.0665866597796735,1
293,168,53,0.062447865181494,1
293,169,53,0.0650768965280062,1
293,170,53,0.0666129719118048,1
293,171,53,0.0682226705519146,1
293,172,53,0.0708291107334346,1
293,173,53,0.079230234859426,1
293,174,53,0.0964288221326286,1
293,175,53,0.101100186786653,1
293,176,53,0.0839217552435326,1
293,177,53,0.0727655055708126,1
293,178,53,0.0692791362695298,1
293,179,53,0.0655697860959287,1
293,180,53,0.0630905192540649,1
293,181,53,0.0632433206811802,1
293,182,53,0.0626366143355195,1
293,183,53,0.0626001005026738,1
294,167,53,0.061108953880576,1
294,168,53,0.0669640106643036,1
294,169,53,0.0659404203695105,1
294,170,53,0.0663315052200157,1
294,171,53,0.0695524239099371,1
294,172,53,0.0737921858605041,1
294,173,53,0.081430299433243,1
294,174,53,0.106332810094197,1
294,175,53,0.124759133718279,1
294,176,53,0.104494723090697,1
294,177,53,0.0783179197625978,1
294,178,53,0.0683409100322746,1
294,179,53,0.0643188276078165,1
294,180,53,0.0617106419329951,1
294,181,53,0.0614612722683667,1
295,168,53,0.0605515518237433,1
295,169,53,0.0624252622226281,1
295,170,53,0.067041248742891,1
295,171,53,0.0741488856723588,1
295,172,53,0.0812066109285053,1
295,173,53,0.0855274262757881,1
295,174,53,0.110316639089445,1
295,175,53,0.141623641829303,1
295,176,53,0.127820622824089,1
295,177,53,0.088526443232831,1
295,178,53,0.0670447928019253,1
295,179,53,0.0612868939493937,1
295,180,53,0.0582968580271416,1
296,169,53,0.0589764976875044,1
296,170,53,0.067322031390008,1
296,171,53,0.0784610738010608,1
296,172,53,0.090344563208228,1
296,173,53,0.0890935693384948,1
296,174,53,0.0949496050137361,1
296,175,53,0.115617973504921,1
296,176,53,0.112843429345215,1
296,177,53,0.0840159234277564,1
296,178,53,0.0639060833083382,1
296,179,53,0.056931121560588,1
297,154,53,0.0569663439642681,1
297,170,53,0.0659498731592476,1
297,171,53,0.0827238691868822,1
297,172,53,0.100131496973739,1
297,173,53,0.0959872653998034,1
297,174,53,0.0856916382756677,1
297,175,53,0.0870475150638431,1
297,176,53,0.0869866940573879,1
297,177,53,0.073332130436846,1
297,178,53,0.0592949440701488,1
298,170,53,0.06137534800183,1
298,171,53,0.0804312816742168,1
298,172,53,0.0970075828946563,1
298,173,53,0.0904269434157304,1
298,174,53,0.0760024816197197,1
298,175,53,0.0699467697665087,1
298,176,53,0.0685171517832856,1
298,177,53,0.062046908858737,1
299,151,53,0.0691823203606699,1
299,171,53,0.070603517518101,1
299,172,53,0.0835824337045133,1
299,173,53,0.0787849453655879,1
299,174,53,0.0685652118184427,1
299,175,53,0.0627389438803146,1
299,176,53,0.0588532281200292,1
300,150,53,0.0830249549875018,1
300,151,53,0.0642177364197555,1
300,172,53,0.0644698245722621,1
300,173,53,0.0643021569674007,1
300,174,53,0.0600931062638395,1
301,149,53,0.0714074881945683,1
301,150,53,0.0646196480462788,1
301,151,53,0.0572178778047129,1
302,148,53,0.060037987595298,1
302,149,53,0.0573142573402475,1
309,147,53,0.0598370730605942,1
309,148,53,0.076046631985759,1
309,149,53,0.0740600424220918,1
309,150,53,0.0588434568957034,1
310,147,53,0.0770088233742876,1
310,148,53,0.107463948722879,1
310,149,53,0.105190573430403,1
310,150,53,0.0792594777691614,1
310,151,53,0.060883684996768,1
310,152,53,0.0579692949801594,1
311,147,53,0.0705566545611202,1
311,148,53,0.0944973571344397,1
311,149,53,0.0921663392844591,1
311,150,53,0.0755275836060627,1
311,151,53,0.0677552970296516,1
311,152,53,0.068558507001268,1
311,153,53,0.0655539940991004,1
311,154,53,0.0605656160180807,1
312,148,53,0.064807542144464,1
312,149,53,0.0645734101646019,1
312,152,53,0.0664394722364194,1
312,153,53,0.0634909094708863,1
281,180,54,0.0572232617080378,1
282,179,54,0.0604974179436523,1
282,180,54,0.061624251808449,1
282,186,54,0.05880400049138,1
283,178,54,0.060064971978228,1
283,179,54,0.0662732965565757,1
283,180,54,0.0658561767299702,1
283,181,54,0.0569741927871877,1
283,186,54,0.0573675656491825,1
284,177,54,0.0578821736354465,1
284,178,54,0.0674296740748862,1
284,179,54,0.0724408084351294,1
284,180,54,0.0685472497488613,1
284,181,54,0.0585293093800074,1
285,177,54,0.0639495083511476,1
285,178,54,0.0715701198153778,1
285,179,54,0.0724843750044227,1
285,180,54,0.0660720517934095,1
285,181,54,0.0578494397391082,1
286,176,54,0.0599521694736243,1
286,177,54,0.0645949988503332,1
286,178,54,0.0681311324015167,1
286,179,54,0.0667612739761196,1
286,180,54,0.0616399081757302,1
286,181,54,0.0570686911998738,1
286,186,54,0.0581730164567939,1
287,175,54,0.0593052814004102,1
287,176,54,0.0618621401370712,1
287,177,54,0.062672615134861,1
287,178,54,0.0641361699895355,1
287,179,54,0.0630644253085961,1
287,180,54,0.0602694246750292,1
287,181,54,0.0575024050067164,1
287,182,54,0.0569296119447598,1
287,185,54,0.058232528343273,1
287,186,54,0.060985401260133,1
288,174,54,0.0599268952023749,1
288,175,54,0.0617671876602493,1
288,176,54,0.0625997643772745,1
288,177,54,0.0623413841931712,1
288,178,54,0.0629671966141581,1
288,179,54,0.0621365540924128,1
288,180,54,0.0604479308497826,1
288,181,54,0.0579447165474558,1
288,182,54,0.0570704661778594,1
288,183,54,0.0569795707935758,1
288,184,54,0.0594158312751451,1
288,185,54,0.0631066532732292,1
288,186,54,0.0643729555909707,1
289,172,54,0.057714747804995,1
289,173,54,0.0610466822276608,1
289,174,54,0.0614656006199992,1
289,175,54,0.0617079706206116,1
289,176,54,0.063200438156559,1
289,177,54,0.0629777403372085,1
289,178,54,0.0619973392077517,1
289,179,54,0.0611877664412967,1
289,180,54,0.060936474375262,1
289,181,54,0.0587726818598807,1
289,182,54,0.0575054950016148,1
289,183,54,0.0591043137932749,1
289,184,54,0.0633667671567603,1
289,185,54,0.0669771549364957,1
290,171,54,0.0598735279240716,1
290,172,54,0.0641156073708125,1
290,173,54,0.0633758543364139,1
290,174,54,0.0618155720269319,1
290,175,54,0.0627099427449892,1
290,176,54,0.0644811938664686,1
290,177,54,0.0637910517616132,1
290,178,54,0.0615590847595507,1
290,179,54,0.061167333555184,1
290,180,54,0.0612041009563133,1
290,181,54,0.0595145577915377,1
290,182,54,0.0587197686457133,1
290,183,54,0.0620383995788927,1
290,184,54,0.0664192044645378,1
290,185,54,0.0687051048508391,1
291,170,54,0.0620116923519937,1
291,171,54,0.0654346224068692,1
291,172,54,0.0649487030182787,1
291,173,54,0.0631812849057382,1
291,174,54,0.0635137070286675,1
291,175,54,0.064629920510235,1
291,176,54,0.06455543040421,1
291,177,54,0.0632858906681494,1
291,178,54,0.0621165339918781,1
291,179,54,0.0616899731694092,1
291,180,54,0.060431183549188,1
291,181,54,0.0586926840148573,1
291,182,54,0.0588734074378583,1
291,183,54,0.062537469136612,1
291,184,54,0.0654583811653536,1
292,169,54,0.0598516561853725,1
292,170,54,0.0643719531117098,1
292,171,54,0.0645693530720635,1
292,172,54,0.0639419897566905,1
292,173,54,0.0660327251216963,1
292,174,54,0.0720500538130867,1
292,175,54,0.0729832027877321,1
292,176,54,0.0673551426903033,1
292,177,54,0.0642949214259114,1
292,178,54,0.0636743513817655,1
292,179,54,0.0627602731008255,1
292,180,54,0.0598978586854284,1
292,181,54,0.0583890802222117,1
292,182,54,0.0586631344644067,1
292,183,54,0.0615121333485176,1
293,168,54,0.0589054513925876,1
293,169,54,0.059795953720085,1
293,170,54,0.0606909082348883,1
293,171,54,0.0617111608634361,1
293,172,54,0.0646768129519,1
293,173,54,0.0720685701947301,1
293,174,54,0.0855659981395872,1
293,175,54,0.088601587898844,1
293,176,54,0.0766126907458568,1
293,177,54,0.0680465349457666,1
293,178,54,0.0653152743023853,1
293,179,54,0.062732929004749,1
293,180,54,0.0600299323795895,1
293,181,54,0.0588209482878268,1
293,182,54,0.0579566342567873,1
293,183,54,0.0588007394853135,1
294,167,54,0.0571918015500547,1
294,168,54,0.0595387470264106,1
294,169,54,0.0573504114599466,1
294,170,54,0.0586658588492217,1
294,171,54,0.061534235067753,1
294,172,54,0.0657407795731618,1
294,173,54,0.0720694252505703,1
294,174,54,0.0876988848090473,1
294,175,54,0.0977219967915003,1
294,176,54,0.086840155177185,1
294,177,54,0.0725341687390075,1
294,178,54,0.06521898911784,1
294,179,54,0.0606335015548571,1
294,180,54,0.0579124426121902,1
294,181,54,0.0573832632950215,1
295,170,54,0.0591940474810031,1
295,171,54,0.0639496439806947,1
295,172,54,0.0696036093216136,1
295,173,54,0.0725053622025974,1
295,174,54,0.0841583993184839,1
295,175,54,0.101258330838536,1
295,176,54,0.0983078338777228,1
295,177,54,0.0791458968688964,1
295,178,54,0.0647935723011159,1
295,179,54,0.0576963316712778,1
296,170,54,0.0605257822098002,1
296,171,54,0.0674606094054916,1
296,172,54,0.0756826317661099,1
296,173,54,0.0769311607162485,1
296,174,54,0.0786757164047027,1
296,175,54,0.091388096943377,1
296,176,54,0.0939262446994794,1
296,177,54,0.0778735560878419,1
296,178,54,0.0620366776733386,1
297,170,54,0.0609337087118892,1
297,171,54,0.0711643987676629,1
297,172,54,0.0817227874999658,1
297,173,54,0.0822257726237397,1
297,174,54,0.0769645845541958,1
297,175,54,0.078451957136723,1
297,176,54,0.079605557197787,1
297,177,54,0.0696780876337649,1
297,178,54,0.0573029411184725,1
298,170,54,0.0590429266808841,1
298,171,54,0.0714898035357656,1
298,172,54,0.0798029512612038,1
298,173,54,0.078013944462932,1
298,174,54,0.0711470087009539,1
298,175,54,0.068210269293763,1
298,176,54,0.066538646920011,1
298,177,54,0.0602451941615985,1
299,151,54,0.0582056088266483,1
299,171,54,0.0656452845781515,1
299,172,54,0.0728472017336428,1
299,173,54,0.0707252361911902,1
299,174,54,0.0655698568591707,1
299,175,54,0.0621128248186126,1
299,176,54,0.0584977253863508,1
300,150,54,0.071368857361401,1
300,151,54,0.0592569206214749,1
300,172,54,0.0624223727235819,1
300,173,54,0.0624121120534993,1
300,174,54,0.0593416124282142,1
301,149,54,0.0659143971872838,1
301,150,54,0.0619813467150712,1
301,151,54,0.0571696172737036,1
301,173,54,0.0570170222393773,1
302,148,54,0.0589553807567195,1
302,150,54,0.0570859161523516,1
302,151,54,0.0591518254133069,1
302,152,54,0.0572326968069644,1
303,150,54,0.0579653558263576,1
303,151,54,0.0628384134107477,1
303,152,54,0.0576547523696959,1
305,168,54,0.0583028080364021,1
305,169,54,0.0569415001694072,1
309,147,54,0.0639159783683374,1
309,148,54,0.0866969775509748,1
309,149,54,0.0830612683244953,1
309,150,54,0.0588041479148007,1
310,147,54,0.0871754373144765,1
310,148,54,0.130430901911485,1
310,149,54,0.126607351659252,1
310,150,54,0.0847860574806984,1
310,151,54,0.0604277810166376,1
310,152,54,0.0593541080373551,1
310,153,54,0.0577780160402343,1
311,147,54,0.0760701371759598,1
311,148,54,0.10929671668936,1
311,149,54,0.107593657745372,1
311,150,54,0.0817721094796043,1
311,151,54,0.0703000139733815,1
311,152,54,0.072127710574189,1
311,153,54,0.0689773074548698,1
311,154,54,0.0617147108194072,1
312,148,54,0.0682508991885154,1
312,149,54,0.0700483445033897,1
312,150,54,0.0666971624789137,1
312,152,54,0.0695496228649433,1
312,153,54,0.0668418025454576,1
312,154,54,0.0629367330384991,1
282,179,55,0.0590302305758911,1
282,180,55,0.0579003185100696,1
283,178,55,0.0640696702329139,1
283,179,55,0.0700768502960215,1
283,180,55,0.06379916594669,1
284,177,55,0.0619681552673846,1
284,178,55,0.0752822651370358,1
284,179,55,0.0796641963376154,1
284,180,55,0.0674515281227748,1
285,176,55,0.057332838588196,1
285,177,55,0.067714431257426,1
285,178,55,0.0770516056509827,1
285,179,55,0.0764615876365483,1
285,180,55,0.0637126932650283,1
286,176,55,0.060904489389901,1
286,177,55,0.0655193731829769,1
286,178,55,0.0687711623371985,1
286,179,55,0.0663196641708629,1
286,180,55,0.0589904970155367,1
287,175,55,0.0598274905382469,1
287,176,55,0.0614303664224454,1
287,177,55,0.0620534603555542,1
287,178,55,0.0636082467199114,1
287,179,55,0.0623108026787755,1
287,180,55,0.058842884892831,1
288,174,55,0.0599504947435649,1
288,175,55,0.0613579874198052,1
288,176,55,0.0615971435898457,1
288,177,55,0.0612229947419137,1
288,178,55,0.0626211879487746,1
288,179,55,0.0621266413416031,1
288,180,55,0.0598704379291732,1
288,185,55,0.0575733746414544,1
288,186,55,0.0587443411814801,1
289,172,55,0.0582537042434263,1
289,173,55,0.060047923933855,1
289,174,55,0.0599844198211426,1
289,175,55,0.0606946350989643,1
289,176,55,0.0621457356230557,1
289,177,55,0.0618880394836246,1
289,178,55,0.0621584730066065,1
289,179,55,0.0616149169574485,1
289,180,55,0.060682911988548,1
289,181,55,0.057004231783395,1
289,184,55,0.0588235724247157,1
289,185,55,0.0613424254035132,1
290,171,55,0.06094451190016,1
290,172,55,0.0629042527104445,1
290,173,55,0.0609104629869089,1
290,174,55,0.0600360592969549,1
290,175,55,0.0612713260361649,1
290,176,55,0.0625791899646778,1
290,177,55,0.0619078531913703,1
290,178,55,0.0610267859627995,1
290,179,55,0.0607288255386993,1
290,180,55,0.0602814898077816,1
290,181,55,0.0574629957778876,1
290,183,55,0.0578448342314447,1
290,184,55,0.0618153302525219,1
290,185,55,0.0632147618161169,1
291,170,55,0.0623740591201412,1
291,171,55,0.0635679529505583,1
291,172,55,0.0617230962635782,1
291,173,55,0.0608905077526793,1
291,174,55,0.0623946394296747,1
291,175,55,0.0631733712165135,1
291,176,55,0.0623219125077615,1
291,177,55,0.0611023375174538,1
291,178,55,0.0608936685108197,1
291,179,55,0.0606900177974271,1
291,180,55,0.0593582476870091,1
291,183,55,0.0583840619289701,1
291,184,55,0.0614023087970126,1
292,169,55,0.0587900365449687,1
292,170,55,0.0618184202474204,1
292,171,55,0.0601322206458269,1
292,172,55,0.0598884766589333,1
292,173,55,0.0627495996451648,1
292,174,55,0.0675309067894311,1
292,175,55,0.0681556341740415,1
292,176,55,0.06429438480466,1
292,177,55,0.0616566967548826,1
292,178,55,0.0613897483215667,1
292,179,55,0.0615146454436067,1
292,180,55,0.0590517779830646,1
292,183,55,0.0579176142257893,1
292,184,55,0.0591664969921376,1
293,172,55,0.0599330928829822,1
293,173,55,0.064969153595202,1
293,174,55,0.072910817888155,1
293,175,55,0.075063547750045,1
293,176,55,0.0696673139301782,1
293,177,55,0.0644994154012705,1
293,178,55,0.0623771550119764,1
293,179,55,0.061379387403558,1
293,180,55,0.0592824366671343,1
294,172,55,0.0599085026564049,1
294,173,55,0.0647706685984717,1
294,174,55,0.0733207493487659,1
294,175,55,0.0777440357673278,1
294,176,55,0.0745240723811727,1
294,177,55,0.0682527213419956,1
294,178,55,0.0628565877700549,1
294,179,55,0.0590801658369598,1
295,172,55,0.0606522420201,1
295,173,55,0.0640448500258003,1
295,174,55,0.0692353397197002,1
295,175,55,0.075132553704819,1
295,176,55,0.0770308425364074,1
295,177,55,0.0710354504500212,1
295,178,55,0.0628119184735746,1
296,171,55,0.0572639800568427,1
296,172,55,0.0622508956975288,1
296,173,55,0.0662397429860182,1
296,174,55,0.0683490478050988,1
296,175,55,0.0734897968368453,1
296,176,55,0.0771450720997237,1
296,177,55,0.0710715986727835,1
296,178,55,0.0609251758442975,1
297,155,55,0.0572748245236714,1
297,171,55,0.0601025000842083,1
297,172,55,0.0653632989559214,1
297,173,55,0.069147398700768,1
297,174,55,0.0695932837852258,1
297,175,55,0.0705278775093943,1
297,176,55,0.0717472696946604,1
297,177,55,0.06619030896458,1
297,178,55,0.057056850150721,1
298,171,55,0.0616118623441711,1
298,172,55,0.064216822394547,1
298,173,55,0.0658555870362873,1
298,174,55,0.0659717213101993,1
298,175,55,0.0657321641484545,1
298,176,55,0.0645880876403695,1
298,177,55,0.059532006827615,1
299,171,55,0.0591576751746413,1
299,172,55,0.0615819648744476,1
299,173,55,0.0615780905869509,1
299,174,55,0.0614899608660402,1
299,175,55,0.0607401653482217,1
299,176,55,0.0584055149851543,1
300,150,55,0.0654665012473672,1
300,151,55,0.0569811806573301,1
300,172,55,0.0580269021560428,1
300,173,55,0.0579112160493297,1
300,174,55,0.0568685786485787,1
301,148,55,0.0661821888825663,1
301,149,55,0.0642370960633654,1
301,150,55,0.0620045924400515,1
301,151,55,0.0583212949333613,1
302,147,55,0.0642453753626734,1
302,148,55,0.06032270349928,1
302,149,55,0.0575577890374152,1
302,150,55,0.0618664390040196,1
302,151,55,0.0670576540211495,1
302,152,55,0.0624657211062125,1
303,146,55,0.0625260585638477,1
303,147,55,0.0597455467040699,1
303,150,55,0.0639270174340814,1
303,151,55,0.0723740492132873,1
303,152,55,0.0637967010270954,1
304,150,55,0.0588910746605983,1
304,151,55,0.0613515538617247,1
305,168,55,0.0573684560866436,1
305,169,55,0.0571238924255309,1
306,168,55,0.0573126120948722,1
308,148,55,0.059035166312017,1
309,147,55,0.0705027093830077,1
309,148,55,0.0966431345078082,1
309,149,55,0.0910837973121856,1
309,150,55,0.0606259947542737,1
310,147,55,0.0946988672597633,1
310,148,55,0.144162709507551,1
310,149,55,0.138319871176933,1
310,150,55,0.0876878457433032,1
310,151,55,0.0634286967873394,1
310,152,55,0.0636540364343893,1
310,153,55,0.0594928275793225,1
311,147,55,0.0802074280552478,1
311,148,55,0.118945225759745,1
311,149,55,0.118275758315412,1
311,150,55,0.0868847831951076,1
311,151,55,0.0739597237327553,1
311,152,55,0.0754664087833978,1
311,153,55,0.0707059826924432,1
311,154,55,0.0613958752389321,1
312,148,55,0.0724495594893838,1
312,149,55,0.0768652978288045,1
312,150,55,0.0717373923254717,1
312,152,55,0.0714912482852887,1
312,153,55,0.0689887239245709,1
312,154,55,0.0636805431654361,1
282,178,56,0.058481709305923,1
282,179,56,0.0599364010645433,1
283,177,56,0.0623421743827063,1
283,178,56,0.0834202207662187,1
283,179,56,0.0847264453462931,1
283,180,56,0.0638113136365579,1
284,177,56,0.0753577341345745,1
284,178,56,0.104939304952115,1
284,179,56,0.102751671121134,1
284,180,56,0.069755992066214,1
285,177,56,0.0749704881899451,1
285,178,56,0.0946832993465345,1
285,179,56,0.0889301770128345,1
285,180,56,0.062564795541878,1
286,176,56,0.0594510595757621,1
286,177,56,0.0645752323180821,1
286,178,56,0.0696516752537075,1
286,179,56,0.0653098609143762,1
287,175,56,0.0590187492398848,1
287,176,56,0.059403760245456,1
287,177,56,0.0594640505275966,1
287,178,56,0.0609394110498029,1
287,179,56,0.0597002523322857,1
288,174,56,0.0594365943897203,1
288,175,56,0.0593883574464584,1
288,176,56,0.0594004874455158,1
288,177,56,0.0588701818134128,1
288,178,56,0.060453367825539,1
288,179,56,0.0603633274970956,1
288,180,56,0.057355300020578,1
289,172,56,0.0593612079492973,1
289,173,56,0.0585643312878353,1
289,174,56,0.0576503237701372,1
289,175,56,0.0577933421790531,1
289,176,56,0.0594169693839531,1
289,177,56,0.0593521620482015,1
289,178,56,0.0606852707632797,1
289,179,56,0.0607335607789731,1
289,180,56,0.0582238067737028,1
290,171,56,0.062625899601301,1
290,172,56,0.0620130604413381,1
290,173,56,0.0577210988059599,1
290,174,56,0.0570860222972145,1
290,175,56,0.0577911956940473,1
290,176,56,0.0588087770102115,1
290,177,56,0.0584243498013865,1
290,178,56,0.0590655237428132,1
290,179,56,0.059304219951781,1
290,180,56,0.0574691403860635,1
291,170,56,0.0631093717611075,1
291,171,56,0.0619363412931916,1
291,172,56,0.0584065469490994,1
291,173,56,0.0573416191271345,1
291,174,56,0.0595543149396394,1
291,175,56,0.0595434527820002,1
291,176,56,0.0583358839550765,1
291,177,56,0.0573240816370048,1
291,178,56,0.0579088631715349,1
291,179,56,0.0584019827199937,1
292,169,56,0.0592996262379911,1
292,170,56,0.0597508008747846,1
292,173,56,0.0582245379938696,1
292,174,56,0.0619637384616996,1
292,175,56,0.0620167106452353,1
292,176,56,0.0597345194321995,1
292,177,56,0.0579513152197675,1
292,178,56,0.0575680732952451,1
292,179,56,0.0586845875205909,1
293,173,56,0.0579820087759629,1
293,174,56,0.0615501450033179,1
293,175,56,0.0627531319103254,1
293,176,56,0.061710164281112,1
293,177,56,0.0598818485019375,1
293,178,56,0.058416707371256,1
293,179,56,0.0588731302818273,1
293,180,56,0.0572224243430081,1
294,173,56,0.0583770917496381,1
294,174,56,0.0615900200901561,1
294,175,56,0.0629384667379268,1
294,176,56,0.0635710960178882,1
294,177,56,0.0627585570922082,1
294,178,56,0.0594499745393855,1
294,179,56,0.0570315169101032,1
295,173,56,0.0576213992949905,1
295,174,56,0.0595144870282958,1
295,175,56,0.0599361180115755,1
295,176,56,0.0628976127595749,1
295,177,56,0.0638487709792963,1
295,178,56,0.0600559201801953,1
296,155,56,0.0595712804268967,1
296,173,56,0.0578901109124184,1
296,174,56,0.0603020937050624,1
296,175,56,0.0610050498536475,1
296,176,56,0.0637685549476102,1
296,177,56,0.0639229839292904,1
296,178,56,0.0587113065413635,1
297,173,56,0.0592538129357659,1
297,174,56,0.0633463991369526,1
297,175,56,0.0635747992942169,1
297,176,56,0.064002592576483,1
297,177,56,0.0619793476534862,1
298,173,56,0.0583063049199418,1
298,174,56,0.0628682342202924,1
298,175,56,0.063502856664902,1
298,176,56,0.0618063020422366,1
298,177,56,0.0580104732900369,1
299,174,56,0.058781780833408,1
299,175,56,0.0597369784548573,1
299,176,56,0.0579526420305541,1
300,149,56,0.0622330928452418,1
300,150,56,0.0577272905896305,1
301,148,56,0.0644295249059722,1
301,149,56,0.0606523481649629,1
301,150,56,0.0592038069114553,1
301,151,56,0.0587697215975925,1
302,147,56,0.0644801147270289,1
302,148,56,0.0604644127882199,1
302,149,56,0.0578007369378368,1
302,150,56,0.0655466406188746,1
302,151,56,0.0756206372692257,1
302,152,56,0.068261920563449,1
303,146,56,0.0619074404057923,1
303,147,56,0.0597882464236493,1
303,150,56,0.0712181080683022,1
303,151,56,0.0852814768345205,1
303,152,56,0.072206546722657,1
304,150,56,0.0631412093230477,1
304,151,56,0.0683686433261818,1
307,145,56,0.0577306164620021,1
307,146,56,0.0620173828960338,1
307,147,56,0.0591159661404492,1
308,142,56,0.0594298011184932,1
308,144,56,0.0572649471544827,1
308,145,56,0.059731364570996,1
308,146,56,0.0615282025013768,1
308,147,56,0.0617269115817066,1
308,148,56,0.0627106975529033,1
309,146,56,0.0577672718213317,1
309,147,56,0.0737420972790779,1
309,148,56,0.0986787394103988,1
309,149,56,0.0892726887946784,1
309,150,56,0.059062115313326,1
310,147,56,0.0953213714991891,1
310,148,56,0.143663769682442,1
310,149,56,0.133559333044179,1
310,150,56,0.0845650874638388,1
310,151,56,0.06551391851641,1
310,152,56,0.0701159528841352,1
310,153,56,0.0630168429253222,1
311,147,56,0.0810920806214107,1
311,148,56,0.121420913160953,1
311,149,56,0.120182261580004,1
311,150,56,0.089067481289963,1
311,151,56,0.0774361684893548,1
311,152,56,0.0808876809970409,1
311,153,56,0.0735033126160576,1
311,154,56,0.0628859722062743,1
312,148,56,0.0777417418589013,1
312,149,56,0.0854184331923761,1
312,150,56,0.0798676229674084,1
312,152,56,0.0788807411043764,1
312,153,56,0.0744705576794487,1
282,178,57,0.0624920568260912,1
282,179,57,0.0614172575318744,1
283,177,57,0.0708338813553293,1
283,178,57,0.107134156633776,1
283,179,57,0.101393323516427,1
283,180,57,0.0660352608045328,1
284,177,57,0.0921394374586448,1
284,178,57,0.145585711127652,1
284,179,57,0.133700411360878,1
284,180,57,0.077418218213647,1
285,177,57,0.0824607891441261,1
285,178,57,0.118045895717814,1
285,179,57,0.105821934868946,1
285,180,57,0.0658215617107835,1
286,176,57,0.057913621999556,1
286,177,57,0.0628854002034019,1
286,178,57,0.0710205960661487,1
286,179,57,0.0653250985991426,1
287,175,57,0.0575123590360839,1
287,178,57,0.0575440314837929,1
288,174,57,0.0574035133760926,1
288,178,57,0.057546926879776,1
288,179,57,0.0577347207300351,1
289,177,57,0.0568466066619535,1
289,178,57,0.0592205247273657,1
289,179,57,0.0597664808298132,1
290,171,57,0.0585149503388286,1
290,178,57,0.0573877213792643,1
290,179,57,0.058079821267147,1
291,170,57,0.0574090505997751,1
295,178,57,0.0571907165136781,1
296,177,57,0.0571328793572584,1
297,175,57,0.0571869306802338,1
297,176,57,0.0578522230932915,1
297,177,57,0.0582346748282788,1
298,174,57,0.0585845165026013,1
298,175,57,0.060453851374359,1
298,176,57,0.0594776724516718,1
298,177,57,0.0576477409118061,1
299,175,57,0.058855716627371,1
299,176,57,0.0581827640933724,1
300,148,57,0.0616651765500429,1
301,147,57,0.0666531654332319,1
301,148,57,0.0626946225031072,1
301,149,57,0.0579876167628874,1
301,150,57,0.0576138571127861,1
301,151,57,0.0601456656617972,1
302,146,57,0.0625798622154763,1
302,147,57,0.0613355790598547,1
302,148,57,0.058325375613647,1
302,149,57,0.0574522338681745,1
302,150,57,0.0658901607769162,1
302,151,57,0.077723431870047,1
302,152,57,0.067322237782797,1
303,145,57,0.0570594565967994,1
303,146,57,0.0569598750245666,1
303,149,57,0.0582131745966,1
303,150,57,0.074028912492571,1
303,151,57,0.0911117369988819,1
303,152,57,0.0744548246519887,1
304,144,57,0.0575602480600729,1
304,149,57,0.0570969552180956,1
304,150,57,0.065591581174449,1
304,151,57,0.0747227696676288,1
304,152,57,0.0597797961131733,1
305,143,57,0.0587368166900862,1
306,146,57,0.0581027013820439,1
306,147,57,0.0585671087450818,1
307,145,57,0.05940124225343,1
307,146,57,0.0643472213586486,1
307,147,57,0.061770372006137,1
308,141,57,0.0605524422612045,1
308,142,57,0.0625263121321314,1
308,143,57,0.0597697772175006,1
308,144,57,0.0588678230386812,1
308,145,57,0.0634460278846801,1
308,146,57,0.0668997576406139,1
308,147,57,0.0657644498775938,1
308,148,57,0.0660983344408567,1
308,149,57,0.0589825420477542,1
309,141,57,0.0609416459888611,1
309,142,57,0.0612258252715917,1
309,143,57,0.0585567242393258,1
309,144,57,0.057127235988713,1
309,145,57,0.0591138196554434,1
309,146,57,0.0631272335827628,1
309,147,57,0.0754723116171637,1
309,148,57,0.0946271840956689,1
309,149,57,0.0840939340050683,1
309,150,57,0.0605066466497898,1
309,152,57,0.05691328332668,1
310,146,57,0.0641019146834954,1
310,147,57,0.0923358703213585,1
310,148,57,0.130695013918186,1
310,149,57,0.119704137941901,1
310,150,57,0.0819727232705299,1
310,151,57,0.0694574124637468,1
310,152,57,0.0746745681059879,1
310,153,57,0.0671748025681962,1
311,147,57,0.0831661866245584,1
311,148,57,0.118893356303396,1
311,149,57,0.117388528787855,1
311,150,57,0.0910888863686691,1
311,151,57,0.0813873048668222,1
311,152,57,0.0837899115299079,1
311,153,57,0.0760162627610892,1
311,154,57,0.0661211909680062,1
311,155,57,0.0594558773731515,1
311,156,57,0.0583642836028454,1
311,157,57,0.0592493135729653,1
311,158,57,0.0600167173441555,1
311,159,57,0.057355435650125,1
312,148,57,0.0852263404751686,1
312,149,57,0.094666546149003,1
312,150,57,0.0891425080172394,1
312,151,57,0.086310333093902,1
312,152,57,0.0840435623706743,1
312,153,57,0.0774827837749887,1
313,149,57,0.074940372533559,1
282,178,58,0.0636604817863435,1
282,179,58,0.0615733376558667,1
283,177,58,0.0727535406859864,1
283,178,58,0.121366779280862,1
283,179,58,0.112184222570964,1
283,180,58,0.066425030638125,1
284,177,58,0.101468120263168,1
284,178,58,0.178244303582611,1
284,179,58,0.162093678644116,1
284,180,58,0.0849390947852869,1
285,177,58,0.0829074172426244,1
285,178,58,0.13491395378481,1
285,179,58,0.121403458227939,1
285,180,58,0.0695534204922612,1
286,177,58,0.0591442360556078,1
286,178,58,0.0715507012023996,1
286,179,58,0.0666599763952695,1
289,179,58,0.0571448914175793,1
294,164,58,0.0582322629811157,1
295,163,58,0.0664722533082523,1
295,164,58,0.0723378891966513,1
296,163,58,0.0631716728987068,1
296,164,58,0.0619672471391129,1
300,147,58,0.0613928147287178,1
301,146,58,0.0636394415157373,1
301,147,58,0.0627919337546608,1
301,148,58,0.057658337707288,1
301,151,58,0.0615630828827209,1
301,152,58,0.0598179551913943,1
301,153,58,0.0570277841490904,1
302,145,58,0.0605348693894538,1
302,146,58,0.0575516208414919,1
302,150,58,0.0622526470877671,1
302,151,58,0.075712440781781,1
302,152,58,0.0668434654816434,1
303,144,58,0.0595840178104475,1
303,149,58,0.056870949217184,1
303,150,58,0.0715215880252744,1
303,151,58,0.0871183136874131,1
303,152,58,0.0703008041629166,1
304,143,58,0.0625776449672286,1
304,149,58,0.0584916043659222,1
304,150,58,0.0667847791663203,1
304,151,58,0.0754720698427537,1
304,152,58,0.0593361518647105,1
305,142,58,0.0659072088212891,1
305,143,58,0.0572533007042452,1
306,146,58,0.0598806042482665,1
306,147,58,0.060975323395092,1
307,145,58,0.0596691931660069,1
307,146,58,0.0646411128963367,1
307,147,58,0.0632855722335606,1
307,148,58,0.0576007482222151,1
308,141,58,0.0658531692921874,1
308,142,58,0.064795671610627,1
308,143,58,0.0597625947484428,1
308,144,58,0.0595192163716327,1
308,145,58,0.0649730042949514,1
308,146,58,0.0686027812029808,1
308,147,58,0.0668638806769457,1
308,148,58,0.0654047249371457,1
308,149,58,0.0589336918230621,1
309,140,58,0.0593176236891935,1
309,141,58,0.0690163392797415,1
309,142,58,0.0662363286595942,1
309,143,58,0.0593256435232811,1
309,144,58,0.0576510019178726,1
309,145,58,0.0613404027541809,1
309,146,58,0.0662713859490431,1
309,147,58,0.0737843960069529,1
309,148,58,0.0852431821267524,1
309,149,58,0.078629785163741,1
309,150,58,0.0647894857238933,1
309,151,58,0.0601283640491406,1
309,152,58,0.0610628457315094,1
310,140,58,0.0580386901327641,1
310,141,58,0.0573595811967159,1
310,145,58,0.0578141701599334,1
310,146,58,0.0670747315502066,1
310,147,58,0.0878716945428237,1
310,148,58,0.113907449038908,1
310,149,58,0.10753984229987,1
310,150,58,0.0840241968301276,1
310,151,58,0.0752499263354651,1
310,152,58,0.0768879007876704,1
310,153,58,0.0710283918166368,1
310,154,58,0.0602288419557715,1
311,139,58,0.0764014683655757,1
311,146,58,0.0649385308022485,1
311,147,58,0.0862219615985813,1
311,148,58,0.11530437440435,1
311,149,58,0.116043119062551,1
311,150,58,0.0973172074598044,1
311,151,58,0.0879753037229108,1
311,152,58,0.0867243393378617,1
311,153,58,0.080865803361405,1
311,154,58,0.0697585690276083,1
311,155,58,0.0643216463436208,1
311,156,58,0.0723988694204009,1
311,157,58,0.0776161312075049,1
311,158,58,0.0662973737496489,1
312,148,58,0.0936615665868426,1
312,149,58,0.107016784003129,1
312,150,58,0.10379171386968,1
312,151,58,0.096549155025563,1
312,152,58,0.0871285448728116,1
312,154,58,0.0692936604249399,1
312,155,58,0.0686450563431085,1
312,156,58,0.0873575877961902,1
312,157,58,0.097102163864458,1
313,149,58,0.0923343430147198,1
313,150,58,0.0987511832793441,1
282,178,59,0.0664108308142405,1
282,179,59,0.0654217493937713,1
283,177,59,0.0759355749744568,1
283,178,59,0.126747014711112,1
283,179,59,0.121151340590749,1
283,180,59,0.0718183808558824,1
284,177,59,0.10870918128533,1
284,178,59,0.194121841376551,1
284,179,59,0.184232324497961,1
284,180,59,0.0971434895977563,1
285,177,59,0.0868314689892358,1
285,178,59,0.146151734506129,1
285,179,59,0.138648035711472,1
285,180,59,0.0792495355336676,1
286,177,59,0.0609036579218081,1
286,178,59,0.0762698723232978,1
286,179,59,0.0740013855914529,1
286,180,59,0.0571430161916676,1
294,163,59,0.0672060445395167,1
294,164,59,0.0789161816947193,1
294,165,59,0.0600603900583117,1
295,162,59,0.0605696318320613,1
295,163,59,0.104245589303542,1
295,164,59,0.112281238975677,1
295,165,59,0.0704209188691883,1
296,162,59,0.0614464060906205,1
296,163,59,0.0904385073088522,1
296,164,59,0.0904597421783738,1
301,145,59,0.0635632884735265,1
301,146,59,0.0595795833139521,1
301,151,59,0.0606524778975731,1
301,152,59,0.0610834614226638,1
301,153,59,0.0593539488200607,1
301,154,59,0.0569053342558344,1
302,144,59,0.0643559842067766,1
302,145,59,0.0604140234630153,1
302,150,59,0.059983682704039,1
302,151,59,0.0727970895644692,1
302,152,59,0.0680800295469558,1
302,153,59,0.0572399618331378,1
303,143,59,0.0583751221727372,1
303,144,59,0.0573951927982267,1
303,150,59,0.0675594066851261,1
303,151,59,0.0773457212722703,1
303,152,59,0.0651287895721022,1
304,142,59,0.0666389184338528,1
304,143,59,0.0582176503716533,1
304,149,59,0.0600895916894894,1
304,150,59,0.0668357228035868,1
304,151,59,0.0698327583898551,1
305,142,59,0.0623505598268773,1
306,146,59,0.0588699282451292,1
306,147,59,0.0599787351740394,1
307,145,59,0.0586913748948812,1
307,146,59,0.0613005748428372,1
307,147,59,0.061101122748467,1
308,140,59,0.0590238618841157,1
308,141,59,0.0673567820387418,1
308,142,59,0.0638836513606403,1
308,143,59,0.0602802868326684,1
308,144,59,0.0602546174666514,1
308,145,59,0.0637595857066932,1
308,146,59,0.0652168426328342,1
308,147,59,0.0645610973605028,1
308,148,59,0.0620344073526594,1
308,149,59,0.056912870541102,1
309,140,59,0.064624607370152,1
309,141,59,0.0739577128772966,1
309,142,59,0.0683271465817156,1
309,143,59,0.0614147631275957,1
309,144,59,0.0597677663620419,1
309,145,59,0.0636512825648901,1
309,146,59,0.0667859762444966,1
309,147,59,0.0703238847736657,1
309,148,59,0.0744365323539449,1
309,149,59,0.0718896040589041,1
309,150,59,0.0672838251362924,1
309,151,59,0.0642410882895987,1
309,152,59,0.0637092553508569,1
309,153,59,0.0574545100857905,1
310,139,59,0.0663131952311613,1
310,140,59,0.0639914591597497,1
310,141,59,0.0655398768323316,1
310,142,59,0.0619893370644747,1
310,144,59,0.0568729246910217,1
310,145,59,0.0606708409588589,1
310,146,59,0.0682134831243349,1
310,147,59,0.0808130375706583,1
310,148,59,0.0931577735827231,1
310,149,59,0.0915938941417754,1
310,150,59,0.0834521762668956,1
310,151,59,0.0775499145038511,1
310,152,59,0.0767664828583594,1
310,153,59,0.0718534322483945,1
310,154,59,0.062647152161633,1
311,138,59,0.0770653455137944,1
311,139,59,0.0872885582536689,1
311,140,59,0.0702001080696231,1
311,145,59,0.0591010645810821,1
311,146,59,0.0682608885995039,1
311,147,59,0.0849094567807839,1
311,148,59,0.103463006816953,1
311,149,59,0.108891797625054,1
311,150,59,0.102312030892778,1
311,151,59,0.0915816992764128,1
311,152,59,0.0872651415175206,1
311,153,59,0.0832751089447285,1
311,154,59,0.0720369213347684,1
311,155,59,0.0688465192929375,1
311,156,59,0.083918912919981,1
311,157,59,0.0936956862633357,1
311,158,59,0.0680834202856325,1
312,139,59,0.0871026101446372,1
312,147,59,0.0752946192196928,1
312,148,59,0.0961522616922812,1
312,149,59,0.118941015346849,1
312,150,59,0.122949941705241,1
312,151,59,0.104275569330381,1
312,152,59,0.0863073728316138,1
312,153,59,0.0796859855191989,1
312,154,59,0.0706338336703393,1
312,155,59,0.0767412262779205,1
312,156,59,0.108066957689148,1
312,157,59,0.12442635777914,1
312,158,59,0.0877846852399105,1
313,149,59,0.113469330220254,1
313,150,59,0.125972569997348,1
313,151,59,0.104514749088168,1
313,156,59,0.0867752593873809,1
313,157,59,0.100331768742329,1
314,150,59,0.0919896729539964,1
282,178,60,0.0660427970898003,1
282,179,60,0.0663957287590212,1
283,177,60,0.0724027849864554,1
283,178,60,0.116145796526619,1
283,179,60,0.118099793720432,1
283,180,60,0.0748560640277135,1
284,177,60,0.100444801227469,1
284,178,60,0.179137571573481,1
284,179,60,0.18292261482822,1
284,180,60,0.103463926739099,1
285,177,60,0.0824285034149869,1
285,178,60,0.140079269455386,1
285,179,60,0.144357662239121,1
285,180,60,0.0864733421186684,1
286,177,60,0.0585466345804112,1
286,178,60,0.0758913420513018,1
286,179,60,0.0785266713263475,1
286,180,60,0.0598047991253286,1
288,172,60,0.0569025509016511,1
289,171,60,0.0578856233434915,1
294,163,60,0.0839816268431584,1
294,164,60,0.0938113310914909,1
294,165,60,0.0622745660019608,1
295,162,60,0.0753362869753271,1
295,163,60,0.141698308843433,1
295,164,60,0.148391980807499,1
295,165,60,0.0815090648184692,1
296,162,60,0.0705728003741583,1
296,163,60,0.11682415655169,1
296,164,60,0.117123827087471,1
296,165,60,0.0635342578535169,1
297,163,60,0.0610877661865491,1
297,164,60,0.0583497122719407,1
301,145,60,0.0608197209229829,1
301,152,60,0.0586111352754478,1
301,153,60,0.0574339710548148,1
301,154,60,0.0573826971890859,1
302,144,60,0.0626047531858319,1
302,145,60,0.0590565191202752,1
302,150,60,0.0591646099723523,1
302,151,60,0.069548077867494,1
302,152,60,0.0662612844962549,1
303,149,60,0.0568772825273384,1
303,150,60,0.0650588872829302,1
303,151,60,0.0676260951437263,1
303,152,60,0.0573491436185284,1
304,149,60,0.0597970269625879,1
304,150,60,0.0631383611025592,1
304,151,60,0.0593721644579257,1
305,142,60,0.0570686322305055,1
306,146,60,0.0580883718255492,1
306,147,60,0.0576921212583818,1
307,144,60,0.0570910582812665,1
307,145,60,0.0580852582429034,1
307,146,60,0.0581115231995402,1
307,147,60,0.0573991732305864,1
308,140,60,0.0614327546818612,1
308,141,60,0.064816304992592,1
308,142,60,0.0607234416353744,1
308,143,60,0.059732467298183,1
308,144,60,0.0606928188424209,1
308,145,60,0.0614347478465094,1
308,146,60,0.0605678686479494,1
308,147,60,0.0598670825721174,1
309,139,60,0.0606827645651273,1
309,140,60,0.0711103533416243,1
309,141,60,0.0772565772782249,1
309,142,60,0.068309844969059,1
309,143,60,0.0609273046384928,1
309,144,60,0.0600039976514152,1
309,145,60,0.0629961328831785,1
309,146,60,0.0641791999375774,1
309,147,60,0.0648018398065503,1
309,148,60,0.0641926980259792,1
309,149,60,0.0637408275506398,1
309,150,60,0.0652415802828322,1
309,151,60,0.06421499434413,1
309,152,60,0.0618398850974783,1
310,137,60,0.0608517648777122,1
310,139,60,0.071605719623015,1
310,140,60,0.0753415588368523,1
310,141,60,0.0777632538844538,1
310,142,60,0.0681182475945451,1
310,143,60,0.0590646922747203,1
310,145,60,0.0613224583754099,1
310,146,60,0.0665154778552095,1
310,147,60,0.0726449250065314,1
310,148,60,0.0754093205379554,1
310,149,60,0.0777585953043588,1
310,150,60,0.0810293372135492,1
310,151,60,0.0791094655931663,1
310,152,60,0.0764028246610464,1
310,153,60,0.070576155731214,1
310,154,60,0.0625762414962633,1
311,138,60,0.0794304299678367,1
311,139,60,0.0908719793412848,1
311,140,60,0.0774266862149336,1
311,141,60,0.0668948985646667,1
311,145,60,0.05972594528605,1
311,146,60,0.0674763306390779,1
311,147,60,0.0782332338527953,1
311,148,60,0.0890282253814917,1
311,149,60,0.102186709191287,1
311,150,60,0.105538339382962,1
311,151,60,0.0922027174877577,1
311,152,60,0.0857408835951275,1
311,153,60,0.082179458081884,1
311,154,60,0.0724917107938381,1
311,155,60,0.0720442630211206,1
311,156,60,0.091782602017243,1
311,157,60,0.10107415770749,1
311,158,60,0.0655229585205689,1
312,139,60,0.0929830060659195,1
312,146,60,0.0646516271347029,1
312,147,60,0.074254045746832,1
312,148,60,0.0959760081473966,1
312,149,60,0.132486007984169,1
312,150,60,0.141227013858179,1
312,151,60,0.107234687612838,1
312,152,60,0.0827493911294785,1
312,153,60,0.0774765801974445,1
312,154,60,0.071449214919571,1
312,155,60,0.0824466895681678,1
312,156,60,0.120475929034092,1
312,157,60,0.136892611968442,1
312,158,60,0.0883742668810195,1
313,148,60,0.0888806427434701,1
313,149,60,0.130438379227384,1
313,150,60,0.145439018927091,1
313,151,60,0.108023910050296,1
313,156,60,0.0870052340267785,1
313,157,60,0.100223489188273,1
313,158,60,0.0721375112831989,1
314,149,60,0.0912750231796793,1
314,150,60,0.103274281250675,1
282,178,61,0.0643224778117137,1
282,179,61,0.0648573712606698,1
282,180,61,0.0573118278022739,1
283,177,61,0.0650168480202756,1
283,178,61,0.0944474985335498,1
283,179,61,0.100607698210435,1
283,180,61,0.0726824236278276,1
284,177,61,0.082343068594207,1
284,178,61,0.137802273443697,1
284,179,61,0.150870687440364,1
284,180,61,0.0978809900022861,1
285,177,61,0.0722521477351564,1
285,178,61,0.115482603423073,1
285,179,61,0.127691609640143,1
285,180,61,0.0858864082021957,1
286,178,61,0.0702841630071849,1
286,179,61,0.0759883643529508,1
286,180,61,0.0606084395733335,1
294,163,61,0.089651749790989,1
294,164,61,0.0956310963122633,1
294,165,61,0.0625065043213225,1
295,162,61,0.0834248026861349,1
295,163,61,0.152687026540839,1
295,164,61,0.156369628208983,1
295,165,61,0.0844926141102093,1
296,162,61,0.075245515426717,1
296,163,61,0.124808479285665,1
296,164,61,0.125453203183063,1
296,165,61,0.0684288215665227,1
297,163,61,0.0648334827695752,1
297,164,61,0.0644925100882437,1
302,144,61,0.0578725321437309,1
302,151,61,0.0618458174159283,1
302,152,61,0.0595180959536352,1
303,150,61,0.0600592519495037,1
303,151,61,0.0579382063291965,1
306,146,61,0.0572791469783671,1
307,144,61,0.0585910385147343,1
307,145,61,0.0576871088620771,1
308,140,61,0.0616959054878592,1
308,141,61,0.0622146531237773,1
308,142,61,0.0590858209993789,1
308,143,61,0.0587700164444339,1
308,144,61,0.0604333536219411,1
308,145,61,0.0588849300524224,1
308,146,61,0.0571703543908073,1
309,137,61,0.0578730097956141,1
309,139,61,0.0629201862337567,1
309,140,61,0.0734604359883733,1
309,141,61,0.0766419218617186,1
309,142,61,0.066904410323772,1
309,143,61,0.0594996031597392,1
309,144,61,0.0590089839124959,1
309,145,61,0.0604979663587774,1
309,146,61,0.0616703658544525,1
309,147,61,0.0607717198571941,1
309,148,61,0.0579717186211962,1
309,150,61,0.0587259663263206,1
309,151,61,0.0587228350528644,1
310,136,61,0.0589239913619782,1
310,137,61,0.0640707139907327,1
310,138,61,0.0663259208208385,1
310,139,61,0.0738379814719188,1
310,140,61,0.083804606696486,1
310,141,61,0.085675032501557,1
310,142,61,0.0720637170157197,1
310,143,61,0.0595322191173408,1
310,144,61,0.0571532002015715,1
310,145,61,0.0611404965956748,1
310,146,61,0.0655047016041461,1
310,147,61,0.0672161695800522,1
310,148,61,0.065101162423058,1
310,149,61,0.0679449248272646,1
310,150,61,0.0751294283282996,1
310,151,61,0.075773680470751,1
310,152,61,0.0721146370652389,1
310,153,61,0.0657629402617655,1
310,154,61,0.0602265775320291,1
311,137,61,0.0658334499354309,1
311,138,61,0.0749223927731671,1
311,139,61,0.0828768652129129,1
311,140,61,0.0783108906138975,1
311,141,61,0.0722632811518897,1
311,145,61,0.0603710642782154,1
311,146,61,0.0670550947505657,1
311,147,61,0.0719821977609944,1
311,148,61,0.0774044724538985,1
311,149,61,0.0943801673088352,1
311,150,61,0.1022426239463,1
311,151,61,0.0881177147473332,1
311,152,61,0.0800961469603461,1
311,153,61,0.0762196893908823,1
311,154,61,0.0713205378610235,1
311,155,61,0.0724360849887293,1
311,156,61,0.0906261950142484,1
311,157,61,0.095815593774835,1
311,158,61,0.0647968568949297,1
312,139,61,0.084758052927697,1
312,140,61,0.068948801662238,1
312,145,61,0.0608573079983315,1
312,146,61,0.0668195416089278,1
312,147,61,0.0740791013219234,1
312,148,61,0.094562005252897,1
312,149,61,0.135392419445248,1
312,150,61,0.144158310392677,1
312,151,61,0.104037521784464,1
312,152,61,0.0779760153652473,1
312,153,61,0.0730487295497769,1
312,154,61,0.0714330396218488,1
312,155,61,0.0815309719387892,1
312,156,61,0.112866804802805,1
312,157,61,0.122998791929933,1
312,158,61,0.0834218542177204,1
313,148,61,0.0912725169815269,1
313,149,61,0.130332977378501,1
313,150,61,0.141889098337602,1
313,151,61,0.100983486406806,1
313,152,61,0.0707519552119628,1
313,153,61,0.064380745444522,1
313,154,61,0.0646908712493005,1
313,155,61,0.0684075749031275,1
313,156,61,0.0812949883207628,1
313,157,61,0.0883613997648585,1
313,158,61,0.0676604506976925,1
314,149,61,0.0928093884517975,1
314,150,61,0.103572123736039,1
278,182,62,0.0594475862799698,1
279,182,62,0.0581380476213974,1
282,178,62,0.0597175775326896,1
282,179,62,0.0596450275188813,1
283,178,62,0.073007079484953,1
283,179,62,0.0795727820228909,1
283,180,62,0.0649494460323192,1
284,177,62,0.0640853030124478,1
284,178,62,0.0963361989458541,1
284,179,62,0.112098705193069,1
284,180,62,0.0841540002036094,1
285,177,62,0.0594790287471425,1
285,178,62,0.0876276557090887,1
285,179,62,0.102775188105209,1
285,180,62,0.0782771837229825,1
286,178,62,0.060860604386019,1
286,179,62,0.0679691435468216,1
286,180,62,0.0575494566656757,1
294,163,62,0.0844531459120122,1
294,164,62,0.0869429328891792,1
294,165,62,0.0581658103999888,1
295,162,62,0.0772243033429593,1
295,163,62,0.131921010672701,1
295,164,62,0.132884405036343,1
295,165,62,0.0746188125682688,1
296,162,62,0.0678911978358148,1
296,163,62,0.106794540247915,1
296,164,62,0.10812983082962,1
296,165,62,0.0629812372207482,1
297,163,62,0.0588380317138206,1
297,164,62,0.0604183341238374,1
307,144,62,0.0591435225262515,1
307,145,62,0.0578460607943051,1
308,140,62,0.0595662857214025,1
308,141,62,0.0583756646909255,1
308,144,62,0.057861316169882,1
309,137,62,0.0575166048306008,1
309,139,62,0.0623352572758058,1
309,140,62,0.0702711248798558,1
309,141,62,0.0697439741089563,1
309,142,62,0.060882134102382,1
309,146,62,0.0581525776737443,1
309,147,62,0.0569111545324847,1
310,136,62,0.0614394418082254,1
310,137,62,0.0645679024256035,1
310,138,62,0.065772858909512,1
310,139,62,0.0736283217798974,1
310,140,62,0.0836113935612809,1
310,141,62,0.0816142661715001,1
310,142,62,0.067950497432568,1
310,143,62,0.0572316294613983,1
310,145,62,0.0588498845568471,1
310,146,62,0.0630131101643094,1
310,147,62,0.0618277374076103,1
310,148,62,0.0574399033732649,1
310,149,62,0.0599021693462505,1
310,150,62,0.0673729337487167,1
310,151,62,0.0673638347751894,1
310,152,62,0.063715187669307,1
310,153,62,0.0580643536018443,1
311,137,62,0.0674728986218434,1
311,138,62,0.069641685842719,1
311,139,62,0.0726912336514503,1
311,140,62,0.0729016481513858,1
311,141,62,0.0682030691338947,1
311,142,62,0.0594521151274545,1
311,145,62,0.0588081991104023,1
311,146,62,0.0642571987210157,1
311,147,62,0.0648110390280037,1
311,148,62,0.0681319402818623,1
311,149,62,0.0863003672706608,1
311,150,62,0.0962142856738496,1
311,151,62,0.0812025243512827,1
311,152,62,0.0707560005106276,1
311,153,62,0.0666330686725184,1
311,154,62,0.0653964928133323,1
311,155,62,0.0678752407247552,1
311,156,62,0.080320761284166,1
311,157,62,0.0818260015852853,1
311,158,62,0.0606612348487643,1
312,139,62,0.0692152252681762,1
312,145,62,0.0588804306896218,1
312,146,62,0.0655109287694376,1
312,147,62,0.0720509324566743,1
312,148,62,0.0901300444402595,1
312,149,62,0.125353615713893,1
312,150,62,0.132410951772209,1
312,151,62,0.0955377949777535,1
312,152,62,0.0703925781907877,1
312,153,62,0.0653298161486058,1
312,154,62,0.0670695127611128,1
312,155,62,0.0753229127225988,1
312,156,62,0.0931877064340676,1
312,157,62,0.096360907111168,1
312,158,62,0.0719420808997461,1
313,146,62,0.0672623013168662,1
313,147,62,0.0772315152967013,1
313,148,62,0.0922384706157525,1
313,149,62,0.118376289294474,1
313,150,62,0.122313284817426,1
313,151,62,0.0879488264765482,1
313,152,62,0.064567471949215,1
313,153,62,0.0595168693907747,1
313,154,62,0.0611429968968903,1
313,155,62,0.0650554847503798,1
313,156,62,0.072346180289833,1
313,157,62,0.0732825018164924,1
313,158,62,0.0609425777048801,1
279,182,63,0.0574110260736128,1
283,178,63,0.060516541709789,1
283,179,63,0.0656830013861104,1
283,180,63,0.0594876677595971,1
284,178,63,0.0701819337103158,1
284,179,63,0.083670769818213,1
284,180,63,0.0736057836873367,1
285,178,63,0.0698655630494353,1
285,179,63,0.0840684002685984,1
285,180,63,0.0739442678613263,1
286,179,63,0.0636423015300994,1
286,180,63,0.0583746740055382,1
293,164,63,0.0582155923406999,1
294,163,63,0.0814612701454694,1
294,164,63,0.0824836279804652,1
294,165,63,0.0590147334259042,1
295,162,63,0.069365420249213,1
295,163,63,0.103828392816757,1
295,164,63,0.10321213933037,1
295,165,63,0.0656314149827295,1
296,162,63,0.0618811341705977,1
296,163,63,0.0850724127331189,1
296,164,63,0.0861739959144135,1
296,165,63,0.057887227310309,1
306,145,63,0.0574691344891267,1
307,144,63,0.059345657726879,1
307,145,63,0.0589988647688972,1
308,140,63,0.0581111222078358,1
309,134,63,0.0625206628666491,1
309,135,63,0.0664239809833694,1
309,136,63,0.0621437129737233,1
309,137,63,0.0588614307591584,1
309,138,63,0.058342523905946,1
309,139,63,0.0643737634713163,1
309,140,63,0.0668155081041367,1
309,141,63,0.0639394010014225,1
310,135,63,0.0638479277173297,1
310,136,63,0.0652500011086241,1
310,137,63,0.0674926179785999,1
310,138,63,0.0673184460524159,1
310,139,63,0.0748787318528845,1
310,140,63,0.0775723051729911,1
310,141,63,0.0725697803405184,1
310,142,63,0.0619668756320927,1
310,145,63,0.0578423928995974,1
310,146,63,0.0602697490065548,1
310,147,63,0.0581187528440926,1
310,150,63,0.0615184725556088,1
310,151,63,0.0580354821991291,1
311,136,63,0.0649754986992301,1
311,137,63,0.0735630014106416,1
311,138,63,0.0696350164071653,1
311,139,63,0.069675392733634,1
311,140,63,0.0680463639345985,1
311,141,63,0.0632139421418977,1
311,145,63,0.0579686993895397,1
311,146,63,0.0623999348789472,1
311,147,63,0.0621511490110648,1
311,148,63,0.0640547450857995,1
311,149,63,0.0775365874266173,1
311,150,63,0.0875593102112396,1
311,151,63,0.0730300775385865,1
311,152,63,0.0601559322288166,1
311,155,63,0.0598358936732284,1
311,156,63,0.0652850053256416,1
311,157,63,0.0650536802877101,1
312,137,63,0.0701673741732848,1
312,146,63,0.0646512143491249,1
312,147,63,0.0718005485189112,1
312,148,63,0.0832968686416279,1
312,149,63,0.102782146490667,1
312,150,63,0.109710658067014,1
312,151,63,0.0836283531516014,1
312,152,63,0.0619320129415591,1
312,154,63,0.060060655420469,1
312,155,63,0.0676226513326181,1
312,156,63,0.0733642392578804,1
312,157,63,0.0718141999276705,1
312,158,63,0.0601314363532286,1
313,146,63,0.0672543994215152,1
313,147,63,0.0796810674738834,1
313,148,63,0.0903526302178102,1
313,149,63,0.0992803331118287,1
313,150,63,0.098938157455384,1
313,151,63,0.0768552789331318,1
313,152,63,0.0598445562734303,1
313,154,63,0.0568721521922971,1
313,155,63,0.0618067679002461,1
313,156,63,0.0641196408756036,1
313,157,63,0.0617043734891458,1
314,147,63,0.074209571049267,1
314,148,63,0.08095675181812,1
314,149,63,0.0830303153030794,1
314,150,63,0.0807606963593633,1
314,151,63,0.0673559446737121,1
283,179,64,0.0573169935189362,1
284,178,64,0.057382142877024,1
284,179,64,0.0678478789378683,1
284,180,64,0.066337083722256,1
285,178,64,0.0589970721001011,1
285,179,64,0.0721213772640345,1
285,180,64,0.0706451557890512,1
285,181,64,0.0568859156428562,1
286,179,64,0.060047923933855,1
286,180,64,0.0586046014694412,1
293,164,64,0.0610683416766341,1
294,163,64,0.0775597918730398,1
294,164,64,0.0784860532254688,1
294,165,64,0.0574693467788525,1
295,162,64,0.0627305997147015,1
295,163,64,0.0803350377682292,1
295,164,64,0.0799914586408193,1
295,165,64,0.0573719234854991,1
296,162,64,0.0574440784045399,1
296,163,64,0.0690894553994854,1
296,164,64,0.0712253377128546,1
307,144,64,0.0577036261821353,1
307,145,64,0.0571229607095119,1
308,134,64,0.0714670059779843,1
308,135,64,0.0722670787792076,1
308,136,64,0.0573421085728913,1
308,139,64,0.0587881436282465,1
308,140,64,0.0580810832116284,1
309,133,64,0.0691878752751629,1
309,134,64,0.10229646297955,1
309,135,64,0.101952518242056,1
309,136,64,0.0741660339646578,1
309,137,64,0.059074705273456,1
309,138,64,0.0613145093045643,1
309,139,64,0.0669016564542728,1
309,140,64,0.0642484122851404,1
309,141,64,0.0588514236573595,1
310,134,64,0.085805661446195,1
310,135,64,0.085428304664628,1
310,136,64,0.0712099467077307,1
310,137,64,0.0681426019436493,1
310,138,64,0.0685260797456448,1
310,139,64,0.0746254348283279,1
310,140,64,0.0709155834150963,1
310,141,64,0.0639570387394783,1
311,136,64,0.0664276488780771,1
311,137,64,0.0769516820564138,1
311,138,64,0.0704565068829518,1
311,139,64,0.0690707149342425,1
311,140,64,0.0657959336233242,1
311,141,64,0.0601826276618419,1
311,146,64,0.0599364718277853,1
311,147,64,0.0603035443515223,1
311,148,64,0.059892940640113,1
311,149,64,0.0667922800699669,1
311,150,64,0.0743763128350463,1
311,151,64,0.0623057018284184,1
312,137,64,0.0702177222199316,1
312,146,64,0.065490625615935,1
312,147,64,0.0742745317053762,1
312,148,64,0.0775181830867738,1
312,149,64,0.0807542451104723,1
312,150,64,0.0855005480377211,1
312,151,64,0.0702312497930175,1
312,155,64,0.0610550204963372,1
312,156,64,0.0633726287119684,1
312,157,64,0.0595516908027505,1
313,145,64,0.05717650489592,1
313,146,64,0.0689673888071233,1
313,147,64,0.0834330230160747,1
313,148,64,0.0886161769205592,1
313,149,64,0.0832598004967202,1
313,150,64,0.0795418820739064,1
313,151,64,0.067667957498276,1
313,155,64,0.0585064233681737,1
313,156,64,0.0602634687688319,1
314,146,64,0.063508099041743,1
314,147,64,0.0740604964862276,1
314,148,64,0.0803508061773102,1
314,149,64,0.0756732851212358,1
314,150,64,0.069426353297468,1
314,151,64,0.0607567652253955,1
284,180,65,0.0585472065832837,1
285,179,65,0.0606748862575237,1
285,180,65,0.065219401903418,1
285,181,65,0.0579336244092803,1
286,180,65,0.058572415988228,1
293,164,65,0.0573135379139544,1
294,163,65,0.0664430339862642,1
294,164,65,0.0677950777655006,1
295,163,65,0.0611977499553484,1
295,164,65,0.0619674122533441,1
296,164,65,0.0587555512583922,1
308,134,65,0.091281727996854,1
308,135,65,0.0902920745735123,1
308,136,65,0.0636851486730996,1
308,138,65,0.0571517908336693,1
308,139,65,0.0588359972706146,1
309,133,65,0.087859299181609,1
309,134,65,0.144514449995532,1
309,135,65,0.140085720704277,1
309,136,65,0.0886050317099522,1
309,137,65,0.0653359607567817,1
309,138,65,0.0709231550819849,1
309,139,65,0.071184300929461,1
309,140,65,0.0620074701452241,1
310,133,65,0.076551580789497,1
310,134,65,0.114100939330144,1
310,135,65,0.111183182162606,1
310,136,65,0.0800197580406621,1
310,137,65,0.0736252494758095,1
310,138,65,0.0779035066299968,1
310,139,65,0.0773428553609713,1
310,140,65,0.0661975739907534,1
311,134,65,0.0590793225749932,1
311,135,65,0.0626777159852182,1
311,137,65,0.076492375543733,1
311,138,65,0.0734065320888186,1
311,139,65,0.0700106159015572,1
311,140,65,0.0642070511702212,1
311,141,65,0.0568857092500672,1
312,146,65,0.0612064007616767,1
312,147,65,0.0689241878479134,1
312,148,65,0.0649992338699672,1
312,149,65,0.0593916007617144,1
312,150,65,0.0607553145789356,1
313,146,65,0.0647591047053499,1
313,147,65,0.0758648235263814,1
313,148,65,0.075013518137987,1
313,149,65,0.0653035158103481,1
313,150,65,0.0614158068854144,1
314,146,65,0.0598066566604298,1
314,147,65,0.0668669529810337,1
314,148,65,0.0700754822066772,1
314,149,65,0.0639139144404472,1
314,150,65,0.0582277931029993,1
315,148,65,0.057100634906677,1
294,163,66,0.0575865837799516,1
308,134,66,0.105315281850464,1
308,135,66,0.103049725896224,1
308,136,66,0.0707987886842594,1
308,137,66,0.0605008676516973,1
308,138,66,0.0641119807546626,1
308,139,66,0.0605211884960103,1
309,133,66,0.104964001323556,1
309,134,66,0.17291958191567,1
309,135,66,0.165786328692617,1
309,136,66,0.100143644663607,1
309,137,66,0.0752468009589457,1
309,138,66,0.083410308015409,1
309,139,66,0.076258998371785,1
309,140,66,0.0618454577027817,1
310,133,66,0.0907445760210924,1
310,134,66,0.139438508299538,1
310,135,66,0.135753335566936,1
310,136,66,0.0907548779697328,1
310,137,66,0.0807212517489135,1
310,138,66,0.0900481595754507,1
310,139,66,0.0818487637614456,1
310,140,66,0.0659072913784047,1
311,134,66,0.072639281637986,1
311,135,66,0.0750051562815634,1
311,137,66,0.0703138481871825,1
311,138,66,0.074262047890109,1
311,139,66,0.0696407364358895,1
311,140,66,0.063312261769649,1
312,147,66,0.0594567678106127,1
313,146,66,0.0571339231150772,1
313,147,66,0.0634147918102964,1
313,148,66,0.0600417380471213,1
314,147,66,0.0578677733157098,1
314,148,66,0.0581927240196767,1
301,177,67,0.0572917664231814,1
302,177,67,0.0612203234295301,1
308,134,67,0.110498854437464,1
308,135,67,0.105718420039848,1
308,136,67,0.0745096602675624,1
308,137,67,0.06632549034445,1
308,138,67,0.0720503604538018,1
308,139,67,0.0654511161391802,1
309,133,67,0.107308069094739,1
309,134,67,0.167242471097697,1
309,135,67,0.158696276428774,1
309,136,67,0.0999877886232143,1
309,137,67,0.0832384594823358,1
309,138,67,0.0964021090087929,1
309,139,67,0.0853972337044755,1
309,140,67,0.0638216037913247,1
310,133,67,0.0942347842282509,1
310,134,67,0.139924121047413,1
310,135,67,0.1372236777959,1
310,136,67,0.0939866824050407,1
310,137,67,0.08553657242481,1
310,138,67,0.10009171623789,1
310,139,67,0.089280844258313,1
310,140,67,0.0669935484208805,1
311,134,67,0.0787053956877635,1
311,135,67,0.0813142182317625,1
311,136,67,0.0680212724683908,1
311,137,67,0.0657304835214582,1
311,138,67,0.0737102538202008,1
311,139,67,0.0696151496269881,1
311,140,67,0.0606058920966233,1
301,177,68,0.0606517171927222,1
302,177,68,0.064366940715405,1
307,134,68,0.0703392521910423,1
307,135,68,0.0701515173101514,1
307,136,68,0.0578582202780467,1
307,138,68,0.0597999459463183,1
308,133,68,0.0746381309333209,1
308,134,68,0.108967018951245,1
308,135,68,0.10383794585442,1
308,136,68,0.0733423262406235,1
308,137,68,0.0651518348012303,1
308,138,68,0.0744724741839182,1
308,139,68,0.0681717622962691,1
309,133,68,0.0943034717484361,1
309,134,68,0.135843252059706,1
309,135,68,0.128501777997217,1
309,136,68,0.0874648766648586,1
309,137,68,0.0813846512452491,1
309,138,68,0.0989570040654898,1
309,139,68,0.0897453518692771,1
309,140,68,0.0634604753799113,1
310,133,68,0.0847372013590694,1
310,134,68,0.114160911177696,1
310,135,68,0.112353570802822,1
310,136,68,0.083141118746098,1
310,137,68,0.0810218598976499,1
310,138,68,0.0971037029649704,1
310,139,68,0.0894283030606612,1
310,140,68,0.0646061086793192,1
311,134,68,0.0722053614383544,1
311,135,68,0.0740785470098615,1
311,137,68,0.0604130917469963,1
311,138,68,0.0674387140790452,1
311,139,68,0.0662936468855729,1
301,177,69,0.065943474982788,1
301,178,69,0.0604677032789705,1
302,177,69,0.0676974068008004,1
307,134,69,0.0765984732311619,1
307,135,69,0.0755843946954742,1
307,136,69,0.0608984804112722,1
307,137,69,0.0570893245818388,1
307,138,69,0.0605550722950303,1
307,139,69,0.0577086680631242,1
308,133,69,0.0740163932956829,1
308,134,69,0.100583945348888,1
308,135,69,0.0981632527805472,1
308,136,69,0.0735860230520224,1
308,137,69,0.0656399950258158,1
308,138,69,0.0715504948096106,1
308,139,69,0.0663062191548925,1
309,133,69,0.0817660651193545,1
309,134,69,0.102762922476604,1
309,135,69,0.0991166341454532,1
309,136,69,0.0764934959617305,1
309,137,69,0.0748101563744991,1
309,138,69,0.0880701028793752,1
309,139,69,0.0813141356746468,1
309,140,69,0.0583270090651487,1
310,134,69,0.0886224099827875,1
310,135,69,0.0878918443759687,1
310,137,69,0.0716459190413788,1
310,138,69,0.0819949311346282,1
310,139,69,0.076268244768733,1
310,140,69,0.0571346838199281,1
311,138,69,0.0590375958499906,1
311,139,69,0.0574938367575037,1
300,177,70,0.0594457464356791,1
301,177,70,0.0659398070880803,1
307,137,70,0.0572965665297602,1
307,138,70,0.0592500742778163,1
308,134,70,0.0913898542305521,1
308,135,70,0.0913751000946057,1
308,137,70,0.064365218809851,1
308,138,70,0.0662757791669808,1
308,139,70,0.0610686424204123,1
309,134,70,0.0855427936931647,1
309,135,70,0.0852427339595534,1
309,138,70,0.0745592653001687,1
309,139,70,0.0685645159798968,1
310,138,70,0.0684497851769501,1
310,139,70,0.0632818571633583,1
