x,y,z,signal,cytoplasm.p
865,160,22,0.0609809903513848,1
866,161,22,0.0574941139135347,1
857,143,23,0.179489901755145,1
858,145,23,0.171033234381161,1
864,160,23,0.0749960160294783,1
865,159,23,0.0598020629466399,1
865,160,23,0.066057816587904,1
865,161,23,0.0651100667976699,1
866,159,23,0.0598300026333361,1
866,160,23,0.0643669112307209,1
866,161,23,0.0639063781551796,1
866,162,23,0.0628940097311723,1
867,160,23,0.0608166250311476,1
867,161,23,0.0610041889008704,1
869,155,23,0.0618698651243173,1
870,154,23,0.0657014175198276,1
870,155,23,0.0693965914572916,1
870,156,23,0.0650098542531964,1
871,155,23,0.0697299511931768,1
871,156,23,0.063267338904885,1
854,142,24,0.0604446108743478,1
854,143,24,0.0608131399414816,1
855,140,24,0.0681186132046285,1
855,141,24,0.0685929569062235,1
855,142,24,0.0693940085989605,1
855,143,24,0.0766446875250915,1
855,144,24,0.0729504158189623,1
855,145,24,0.0717142881269753,1
855,146,24,0.0680711369662175,1
855,147,24,0.0620359169684876,1
856,139,24,0.0773781249401461,1
856,140,24,0.0776345768259063,1
856,141,24,0.0792884965952974,1
856,142,24,0.0962564900507354,1
856,143,24,0.125828236571519,1
856,144,24,0.105503700776027,1
856,145,24,0.0974319795413089,1
856,146,24,0.0935738968270045,1
856,147,24,0.0759030179862234,1
856,148,24,0.0640189919578047,1
857,136,24,0.104295324068758,1
857,137,24,0.0814773569891392,1
857,138,24,0.0804074167708695,1
857,139,24,0.0857997586124291,1
857,140,24,0.0849210855402108,1
857,141,24,0.0913570967464665,1
857,142,24,0.127772444850196,1
857,143,24,0.169137156900883,1
857,144,24,0.146978025088494,1
857,145,24,0.15743378942916,1
857,146,24,0.165720200443016,1
857,147,24,0.111748545084158,1
857,148,24,0.0708500920346725,1
857,149,24,0.0658233072040849,1
857,150,24,0.0671055076635176,1
857,151,24,0.0648842377048631,1
858,136,24,0.0963231726123987,1
858,137,24,0.081402283086368,1
858,138,24,0.081520386937181,1
858,139,24,0.084402538400145,1
858,140,24,0.0833031547762877,1
858,141,24,0.0878234988781196,1
858,142,24,0.108976524813414,1
858,143,24,0.133988405961737,1
858,144,24,0.13229953504776,1
858,145,24,0.189363319996192,1
858,146,24,0.212873499005493,1
858,147,24,0.138272105988618,1
858,150,24,0.068020470484982,1
858,151,24,0.0638147928292871,1
859,138,24,0.076966442089297,1
859,139,24,0.0773704412314578,1
859,140,24,0.0793025018202665,1
859,143,24,0.0968187983590099,1
859,144,24,0.0996165528620759,1
859,145,24,0.140165742137048,1
859,146,24,0.154879660974251,1
859,158,24,0.0786112039157925,1
859,159,24,0.0783054772258884,1
860,155,24,0.0581147842056067,1
860,156,24,0.0627757407661281,1
860,157,24,0.0649306760823922,1
860,158,24,0.0638069558002412,1
860,159,24,0.0576401692449175,1
862,161,24,0.0581523300023975,1
863,160,24,0.0783097642989632,1
863,161,24,0.0677662240535959,1
864,160,24,0.0703740264275234,1
864,161,24,0.0654824229768058,1
865,139,24,0.0656814563886612,1
865,159,24,0.0616531350050379,1
865,160,24,0.070640851025166,1
865,161,24,0.0687421022325048,1
865,162,24,0.0675074192900409,1
866,140,24,0.0573872673151284,1
866,159,24,0.0651223972925795,1
866,160,24,0.072738821931661,1
866,161,24,0.0698506084176367,1
866,162,24,0.0655842925605283,1
867,160,24,0.063996902032443,1
867,161,24,0.0638281611850786,1
869,155,24,0.0650179035719681,1
869,156,24,0.0611578689715733,1
870,154,24,0.0673862903106346,1
870,155,24,0.0778348721822431,1
870,156,24,0.0723495474407624,1
870,157,24,0.057320484505539,1
871,154,24,0.0691205027718905,1
871,155,24,0.0781857399235738,1
871,156,24,0.0702280713440666,1
872,155,24,0.0671442918170425,1
872,156,24,0.0595700420701626,1
854,140,25,0.0605596954935043,1
854,141,25,0.0631283834854444,1
854,142,25,0.0627922875708706,1
854,143,25,0.0617478575013235,1
854,144,25,0.0616077521792012,1
854,145,25,0.0617203541879526,1
854,146,25,0.0588417408870861,1
855,137,25,0.0642139682771217,1
855,138,25,0.0649267605163377,1
855,139,25,0.0682797175187992,1
855,140,25,0.0719572832028915,1
855,141,25,0.0752607059359887,1
855,142,25,0.0747191548453526,1
855,143,25,0.0757959532011545,1
855,144,25,0.0719114757976032,1
855,145,25,0.0703482509166434,1
855,146,25,0.0660241509755468,1
855,147,25,0.0591256783954067,1
856,136,25,0.0906346335308508,1
856,137,25,0.0746768207358566,1
856,138,25,0.0744528314873405,1
856,139,25,0.0810205566746107,1
856,140,25,0.081640631376063,1
856,141,25,0.082510234959438,1
856,142,25,0.0901931180765834,1
856,143,25,0.105556608093258,1
856,144,25,0.0916838283253558,1
856,145,25,0.0859708287498409,1
856,146,25,0.083598143144226,1
856,147,25,0.0671791250228919,1
856,148,25,0.0614264744441382,1
856,149,25,0.0605543587656739,1
856,150,25,0.0665144223035171,1
856,151,25,0.0694039862160753,1
856,152,25,0.0634974963493243,1
857,135,25,0.147572495290235,1
857,136,25,0.117823604787105,1
857,137,25,0.0856621830762064,1
857,138,25,0.08540380878904,1
857,139,25,0.093498976244591,1
857,140,25,0.0903933898451729,1
857,141,25,0.0897858225467351,1
857,142,25,0.108968328071221,1
857,143,25,0.132136708828035,1
857,144,25,0.117653407396344,1
857,145,25,0.130651577081503,1
857,146,25,0.146983120041914,1
857,147,25,0.0938113134006804,1
857,148,25,0.0658898895178221,1
857,149,25,0.0666383051524226,1
857,150,25,0.0816285780371843,1
857,151,25,0.08561620465975,1
857,152,25,0.0739684865808834,1
858,135,25,0.128270783187748,1
858,136,25,0.105719575839467,1
858,137,25,0.0855111979056345,1
858,138,25,0.0918828499433375,1
858,139,25,0.0996018930771188,1
858,140,25,0.0937755956543067,1
858,141,25,0.0869147337372625,1
858,142,25,0.093855493251404,1
858,143,25,0.106392038927709,1
858,144,25,0.109400007434858,1
858,145,25,0.166383464309804,1
858,146,25,0.20168071191218,1
858,147,25,0.124367258678239,1
858,148,25,0.0688902922550198,1
858,149,25,0.067551888090669,1
858,150,25,0.0822262266878755,1
858,151,25,0.0838729816790193,1
858,152,25,0.071648466518089,1
858,157,25,0.061185136407471,1
858,158,25,0.076212141311741,1
858,159,25,0.0821850601718716,1
859,135,25,0.0804612381133086,1
859,136,25,0.0766985855277093,1
859,137,25,0.0798994723232223,1
859,138,25,0.092251184411556,1
859,139,25,0.0953950065493739,1
859,140,25,0.0895875675305412,1
859,141,25,0.0841892461950369,1
859,142,25,0.0843051210037285,1
859,143,25,0.0823133657233989,1
859,144,25,0.0817860321474578,1
859,145,25,0.114266714018283,1
859,146,25,0.137875135995157,1
859,147,25,0.0864514762769062,1
859,148,25,0.0590498437877846,1
859,149,25,0.0603523238129726,1
859,150,25,0.0666024753642491,1
859,151,25,0.0649904474340918,1
859,152,25,0.0584709473962099,1
859,157,25,0.0600030659353962,1
859,158,25,0.0656945534853586,1
859,159,25,0.0656752115325592,1
859,160,25,0.0572176419272397,1
860,136,25,0.0607463807196395,1
860,137,25,0.0711315646233985,1
860,138,25,0.0823571917579127,1
860,139,25,0.0820014000743297,1
860,140,25,0.0759657378063376,1
860,141,25,0.0692026588957934,1
860,142,25,0.0655884852826138,1
860,143,25,0.0619956467868818,1
860,144,25,0.0593036479489086,1
860,145,25,0.0615016662856459,1
860,146,25,0.064186388303572,1
860,155,25,0.0589499378840262,1
860,156,25,0.061252898108574,1
860,157,25,0.0621889542730761,1
860,158,25,0.0611163899179175,1
861,137,25,0.0593913412964939,1
861,138,25,0.0649942981338412,1
861,139,25,0.064254775079979,1
861,140,25,0.0619655547182429,1
861,155,25,0.0570530761111504,1
861,156,25,0.0593983114758259,1
861,157,25,0.0588052093634299,1
862,160,25,0.0579538273148567,1
863,154,25,0.0571038251495015,1
863,155,25,0.0612530101503738,1
863,159,25,0.060610356077803,1
863,160,25,0.0662955280084214,1
863,161,25,0.0620073463095507,1
863,162,25,0.0638737209190201,1
864,155,25,0.058517315010497,1
864,160,25,0.0612187371535231,1
864,161,25,0.0604676030310444,1
865,138,25,0.0606846162032917,1
865,139,25,0.0603200616715806,1
865,140,25,0.0585824171930901,1
865,141,25,0.0589701584804132,1
865,159,25,0.0577245721017523,1
865,160,25,0.0678070072687059,1
865,161,25,0.0672509791981543,1
865,162,25,0.0650755284386619,1
866,138,25,0.0572067384910427,1
866,139,25,0.058542052660495,1
866,159,25,0.0609571313449743,1
866,160,25,0.0704184657434674,1
866,161,25,0.0686943665288733,1
866,162,25,0.0638841349094603,1
867,160,25,0.0601432597115709,1
867,161,25,0.0612122800076953,1
869,152,25,0.0591830437968801,1
869,155,25,0.059307598896584,1
869,156,25,0.0577629847482569,1
870,154,25,0.058615440039333,1
870,155,25,0.0743656098947015,1
870,156,25,0.0710175650406186,1
871,154,25,0.0620906641300089,1
871,155,25,0.0762701023038341,1
871,156,25,0.0708659606916796,1
871,157,25,0.0569688737501678,1
872,155,25,0.0651797862818002,1
872,156,25,0.0598048227130759,1
854,137,26,0.0576001526315953,1
854,138,26,0.0572471737868798,1
854,140,26,0.0600754803196574,1
854,141,26,0.0639779728652216,1
854,142,26,0.0643990141548185,1
854,143,26,0.0633237372087185,1
854,144,26,0.0625369678969816,1
854,145,26,0.0621971922938263,1
854,146,26,0.0584433497318498,1
855,136,26,0.0672438969770226,1
855,137,26,0.0699528848900004,1
855,138,26,0.069032850702863,1
855,139,26,0.0683675111143107,1
855,140,26,0.0735998926474444,1
855,141,26,0.0797668973894308,1
855,142,26,0.0801055112960307,1
855,143,26,0.0773574502796233,1
855,144,26,0.0736858699864125,1
855,145,26,0.0722453485669925,1
855,146,26,0.0672414379543649,1
855,147,26,0.0600613217743307,1
856,135,26,0.100440755928804,1
856,136,26,0.0874755442235824,1
856,137,26,0.0792389564289962,1
856,138,26,0.0791495116911726,1
856,139,26,0.0825153476036689,1
856,140,26,0.0842149391488012,1
856,141,26,0.0864269332258235,1
856,142,26,0.0884072543456415,1
856,143,26,0.0909562583624461,1
856,144,26,0.0836039103484448,1
856,145,26,0.0801964951343667,1
856,146,26,0.0772924955204509,1
856,147,26,0.0651694902300966,1
856,148,26,0.0609200042306984,1
856,149,26,0.0637809326180145,1
856,150,26,0.0766779816304285,1
856,151,26,0.0878444860762943,1
856,152,26,0.0709401559508631,1
857,134,26,0.110272895612047,1
857,135,26,0.14877167277605,1
857,136,26,0.115545476563544,1
857,137,26,0.0859283354230505,1
857,138,26,0.0886710066391961,1
857,139,26,0.0981352541244827,1
857,140,26,0.0926653439758733,1
857,141,26,0.0862283067026094,1
857,142,26,0.0906702746170458,1
857,143,26,0.0970040447325588,1
857,144,26,0.0909187479472763,1
857,145,26,0.100178165331805,1
857,146,26,0.114031037040972,1
857,147,26,0.078175278757639,1
857,148,26,0.0629854771183283,1
857,149,26,0.0724216315965612,1
857,150,26,0.105173991244039,1
857,151,26,0.126858065825477,1
857,152,26,0.0960758845664709,1
857,153,26,0.060498290690303,1
858,134,26,0.0944580953290316,1
858,135,26,0.126250374691366,1
858,136,26,0.0995042162154818,1
858,137,26,0.0846711733573941,1
858,138,26,0.108368255779493,1
858,139,26,0.127029419015857,1
858,140,26,0.109471065523648,1
858,141,26,0.0850611495837753,1
858,142,26,0.081135476179536,1
858,143,26,0.083066835032862,1
858,144,26,0.0868889346386352,1
858,145,26,0.124603218708518,1
858,146,26,0.153671555526076,1
858,147,26,0.0998648374903278,1
858,148,26,0.0632202754520521,1
858,149,26,0.0698891979722463,1
858,150,26,0.0996041575008612,1
858,151,26,0.117844503531227,1
858,152,26,0.0893286625190601,1
858,153,26,0.0573701190228295,1
858,158,26,0.0575886359139681,1
858,159,26,0.0610147149331103,1
858,160,26,0.0613184779430503,1
859,134,26,0.06340100477199,1
859,135,26,0.0744184759333742,1
859,136,26,0.0687232438285254,1
859,137,26,0.0785682506279294,1
859,138,26,0.116970471348294,1
859,139,26,0.135671745548968,1
859,140,26,0.111774880804036,1
859,141,26,0.0791969525479626,1
859,142,26,0.0712876211596435,1
859,143,26,0.0672873456075793,1
859,144,26,0.0646421212725344,1
859,145,26,0.081761388848449,1
859,146,26,0.101746349536638,1
859,147,26,0.0667294069294952,1
859,150,26,0.065460439196307,1
859,151,26,0.070975838315616,1
859,152,26,0.0594264752461216,1
859,158,26,0.0582327819115567,1
859,159,26,0.0584987632472327,1
860,136,26,0.0568523207937409,1
860,137,26,0.0707861515486347,1
860,138,26,0.0997061391263834,1
860,139,26,0.110284901775431,1
860,140,26,0.0910361205779225,1
860,141,26,0.0656666668710938,1
860,142,26,0.0571059244590127,1
860,157,26,0.056936434700671,1
860,158,26,0.0604623429633929,1
860,159,26,0.0578027065147377,1
861,137,26,0.0573735569370008,1
861,138,26,0.0662872369152397,1
861,139,26,0.0682384330640588,1
861,140,26,0.0621011960591856,1
863,161,26,0.0570173642617134,1
863,162,26,0.0596014196710302,1
863,163,26,0.063461383508183,1
864,162,26,0.0591809503843057,1
865,138,26,0.0599858291890448,1
865,139,26,0.061517328549864,1
865,140,26,0.057008200421881,1
865,160,26,0.0627684403583337,1
865,161,26,0.0645798024441246,1
865,162,26,0.0626877348808908,1
866,137,26,0.0569661139837318,1
866,138,26,0.0660425906970113,1
866,139,26,0.0684778251115724,1
866,140,26,0.0618954814179029,1
866,160,26,0.06658157072319,1
866,161,26,0.0677044064648166,1
866,162,26,0.0630956318982957,1
867,138,26,0.0620496804190467,1
867,139,26,0.063747237520973,1
867,140,26,0.0575250669349506,1
867,160,26,0.0578527007451747,1
867,161,26,0.0602581143501911,1
870,155,26,0.0641160673318852,1
870,156,26,0.064612359432358,1
871,155,26,0.0679855783097643,1
871,156,26,0.0666656374546254,1
872,155,26,0.0585528440548923,1
872,156,26,0.0576472809507334,1
854,136,27,0.062545612806373,1
854,137,27,0.0737399213093879,1
854,138,27,0.0667259572214502,1
854,139,27,0.0595016847784398,1
854,140,27,0.0615732315110037,1
854,141,27,0.0666207499714824,1
854,142,27,0.0674226626169964,1
854,143,27,0.0659777479796387,1
854,144,27,0.0638323892887851,1
854,145,27,0.0619984065533178,1
854,146,27,0.0583897701638207,1
855,135,27,0.0589435102228825,1
855,136,27,0.0794363092138553,1
855,137,27,0.0956579627564566,1
855,138,27,0.0860243552454385,1
855,139,27,0.072490678829893,1
855,140,27,0.0748321165672506,1
855,141,27,0.0831191821410938,1
855,142,27,0.0846853672843417,1
855,143,27,0.0808611506782468,1
855,144,27,0.0763514446504546,1
855,145,27,0.073561332577519,1
855,146,27,0.0687490842057104,1
855,147,27,0.0625333589716422,1
855,148,27,0.0572252843573702,1
856,134,27,0.0668259751670083,1
856,135,27,0.0834071944327633,1
856,136,27,0.0874735982344288,1
856,137,27,0.0939810449334321,1
856,138,27,0.0880458251904498,1
856,139,27,0.0807437485629165,1
856,140,27,0.0812718782253296,1
856,141,27,0.0865085232437908,1
856,142,27,0.0873454047247013,1
856,143,27,0.0854627604665203,1
856,144,27,0.0815459737460824,1
856,145,27,0.078865090634032,1
856,146,27,0.0757077409231282,1
856,147,27,0.0676037103715231,1
856,148,27,0.0620860645192822,1
856,149,27,0.0641828560384114,1
856,150,27,0.0744651796730606,1
856,151,27,0.0884207760217905,1
856,152,27,0.0679832961952114,1
857,134,27,0.0933120256562984,1
857,135,27,0.123070522269522,1
857,136,27,0.103021786209527,1
857,137,27,0.0850660086597225,1
857,138,27,0.0871414296797831,1
857,139,27,0.0943850794572139,1
857,140,27,0.086821491372121,1
857,141,27,0.0817499075124428,1
857,142,27,0.0801480694891262,1
857,143,27,0.081121606584114,1
857,144,27,0.0797115723281003,1
857,145,27,0.0829023399800146,1
857,146,27,0.0882378707321627,1
857,147,27,0.0708891592411652,1
857,148,27,0.0628772329458936,1
857,149,27,0.0747205995948757,1
857,150,27,0.108541696485511,1
857,151,27,0.13980285643846,1
857,152,27,0.100980408205781,1
857,153,27,0.0615672815017432,1
858,133,27,0.0591698582461302,1
858,134,27,0.0805181907292039,1
858,135,27,0.105483828098913,1
858,136,27,0.0861100613253125,1
858,137,27,0.0798335327755995,1
858,138,27,0.114006234524669,1
858,139,27,0.144978786595329,1
858,140,27,0.114234964910395,1
858,141,27,0.0814502546674727,1
858,142,27,0.0716007190205839,1
858,143,27,0.0728176639770659,1
858,144,27,0.0759042386521471,1
858,145,27,0.0919809690752367,1
858,146,27,0.105488003130188,1
858,147,27,0.0797947368282009,1
858,148,27,0.0605371986795013,1
858,149,27,0.0678607047754715,1
858,150,27,0.0953966282070019,1
858,151,27,0.122864247419241,1
858,152,27,0.0893138376198718,1
859,134,27,0.0573364180288512,1
859,135,27,0.065896759449228,1
859,136,27,0.0599462430521111,1
859,137,27,0.0753176703457577,1
859,138,27,0.133593959857239,1
859,139,27,0.17535052336022,1
859,140,27,0.129692900267325,1
859,141,27,0.0763275620562968,1
859,142,27,0.0598355693417028,1
859,143,27,0.0586631757429645,1
859,144,27,0.0573805860857011,1
859,145,27,0.0638707370689846,1
859,146,27,0.073784254480469,1
859,147,27,0.057160323701261,1
859,151,27,0.0654538582148057,1
860,137,27,0.0656277293972113,1
860,138,27,0.104344103530208,1
860,139,27,0.131644656625142,1
860,140,27,0.0975871869186505,1
860,141,27,0.0611295106023622,1
861,138,27,0.0609540944225073,1
861,139,27,0.0668817366016642,1
861,140,27,0.0568944662012584,1
863,163,27,0.0573853685014695,1
864,163,27,0.0570433697531297,1
865,135,27,0.0583047363347452,1
865,138,27,0.0574919143560974,1
865,139,27,0.0592286271185689,1
865,163,27,0.0587180467401592,1
866,135,27,0.0570388703903291,1
866,136,27,0.0580797269161577,1
866,137,27,0.0640848194636278,1
866,138,27,0.0745962390940871,1
866,139,27,0.0762224078787605,1
866,140,27,0.0641587434637173,1
866,160,27,0.0585723039464283,1
866,161,27,0.061730314114257,1
866,162,27,0.0596022688299336,1
867,136,27,0.0615582650853315,1
867,137,27,0.0692822380583019,1
867,138,27,0.0767876292738286,1
867,139,27,0.0747979909938207,1
867,140,27,0.0616041314599882,1
867,161,27,0.0575914192681515,1
867,163,27,0.0583023598692031,1
867,164,27,0.0592277307841709,1
868,137,27,0.0622778505957746,1
868,138,27,0.061373348940245,1
871,155,27,0.0577852103031658,1
871,156,27,0.0611703115082827,1
854,136,28,0.0585023721725721,1
854,137,28,0.0739744719717649,1
854,138,28,0.0649183219997353,1
854,139,28,0.0594318886341307,1
854,140,28,0.0611819579585201,1
854,141,28,0.06704835455177,1
854,142,28,0.0708688973662204,1
854,143,28,0.0705379140958774,1
854,144,28,0.0655220798769814,1
854,145,28,0.0601732279445363,1
855,136,28,0.0774687726530828,1
855,137,28,0.102812940294788,1
855,138,28,0.089217015814075,1
855,139,28,0.0736832576433972,1
855,140,28,0.0738846557269211,1
855,141,28,0.0821986820959468,1
855,142,28,0.0854673129017524,1
855,143,28,0.082812340930129,1
855,144,28,0.0769426597430653,1
855,145,28,0.071345257820211,1
855,146,28,0.0665233679566869,1
855,147,28,0.0614632477422044,1
856,135,28,0.067071163903425,1
856,136,28,0.0774739678544293,1
856,137,28,0.093884854099876,1
856,138,28,0.0847008290527076,1
856,139,28,0.0758288993872186,1
856,140,28,0.0766842382804042,1
856,141,28,0.0815534923405395,1
856,142,28,0.0802679365240511,1
856,143,28,0.076962750606842,1
856,144,28,0.0749521074378489,1
856,145,28,0.072551092947707,1
856,146,28,0.0690907409317141,1
856,147,28,0.0629778346881978,1
856,148,28,0.057617554492178,1
856,149,28,0.0575688281031592,1
856,150,28,0.0647899162002819,1
856,151,28,0.0735751373066359,1
856,152,28,0.0592483169906412,1
857,133,28,0.0568936111454182,1
857,134,28,0.0722933319419707,1
857,135,28,0.0898266411434661,1
857,136,28,0.0841395173267572,1
857,137,28,0.0795284606456834,1
857,138,28,0.0793882963541929,1
857,139,28,0.08434160535189,1
857,140,28,0.0786120353838854,1
857,141,28,0.0752876195556767,1
857,142,28,0.0703811676180234,1
857,143,28,0.0680892641500302,1
857,144,28,0.0685900968918614,1
857,145,28,0.0684054461089322,1
857,146,28,0.0677226515873658,1
857,147,28,0.0605153564254864,1
857,148,28,0.0572826379649699,1
857,149,28,0.0666339885946637,1
857,150,28,0.0957916345204984,1
857,151,28,0.120863888508078,1
857,152,28,0.0906442632286927,1
858,134,28,0.0654304768602783,1
858,135,28,0.0806903989754237,1
858,136,28,0.0726170914646981,1
858,137,28,0.0723668549503558,1
858,138,28,0.100003887260758,1
858,139,28,0.132118841109443,1
858,140,28,0.100212509091897,1
858,141,28,0.0724650743301811,1
858,142,28,0.0616533885733215,1
858,143,28,0.0617758797451353,1
858,144,28,0.0633353482773349,1
858,145,28,0.0666208797040927,1
858,146,28,0.0696172135548783,1
858,147,28,0.0612431268842482,1
858,149,28,0.0584233709098728,1
858,150,28,0.0797075565141197,1
858,151,28,0.101648354240412,1
858,152,28,0.0772591129610614,1
859,130,28,0.0698912147246418,1
859,131,28,0.0673246260422128,1
859,135,28,0.0581194074040807,1
859,137,28,0.0699277639391085,1
859,138,28,0.125201168102988,1
859,139,28,0.174929953825569,1
859,140,28,0.12377163267688,1
859,141,28,0.0693860772189253,1
860,137,28,0.0571529643240983,1
860,138,28,0.0883847280469543,1
860,139,28,0.121316042036385,1
860,140,28,0.0849778671449381,1
861,139,28,0.0582546949288136,1
863,164,28,0.0621335761393141,1
864,164,28,0.0604091172115735,1
865,134,28,0.057125060019023,1
865,164,28,0.0599265295922915,1
866,134,28,0.0597773311935787,1
866,135,28,0.0618480818396707,1
866,136,28,0.0608658998352915,1
866,137,28,0.065494146087222,1
866,138,28,0.0756533593716903,1
866,139,28,0.0747412388737775,1
866,140,28,0.0608792563972094,1
866,163,28,0.0614093851212075,1
866,164,28,0.0648256988129608,1
867,135,28,0.0700744502427321,1
867,136,28,0.0732142506696326,1
867,137,28,0.0765188527900956,1
867,138,28,0.0829577829800817,1
867,139,28,0.0763103488976927,1
867,140,28,0.059431051269101,1
867,162,28,0.0588907326382622,1
867,163,28,0.0665950452238444,1
867,164,28,0.0703344343936529,1
867,165,28,0.0618529762972388,1
868,136,28,0.0698780468647025,1
868,137,28,0.0686787455432131,1
868,138,28,0.0666765998601907,1
868,139,28,0.0573241465033099,1
868,163,28,0.0659324654017281,1
868,164,28,0.0694362247697199,1
868,165,28,0.0599997400630246,1
869,163,28,0.0591301423765863,1
869,164,28,0.0606459028130087,1
871,156,28,0.0571379743106787,1
872,157,28,0.0580303164824668,1
854,137,29,0.0660521142499903,1
854,138,29,0.0599165873567976,1
854,140,29,0.0607903659714477,1
854,141,29,0.0643548284071581,1
854,142,29,0.0684542550550665,1
854,143,29,0.0700794036696685,1
854,144,29,0.0644879517560748,1
854,145,29,0.058565274797728,1
855,136,29,0.0709672759633401,1
855,137,29,0.0946807164882033,1
855,138,29,0.0840391455649893,1
855,139,29,0.070606589822189,1
855,140,29,0.0734960004143895,1
855,141,29,0.0783110321403814,1
855,142,29,0.0803100465499476,1
855,143,29,0.0808489086373896,1
855,144,29,0.0758058128795328,1
855,145,29,0.0693565807409062,1
855,146,29,0.0646188991353015,1
855,147,29,0.0607810782959419,1
856,136,29,0.06670622607082,1
856,137,29,0.0834036739614763,1
856,138,29,0.0752322532157884,1
856,139,29,0.0684465890371887,1
856,140,29,0.0730039364176231,1
856,141,29,0.075776682011597,1
856,142,29,0.0729108414759023,1
856,143,29,0.0727754949818011,1
856,144,29,0.0735019386297764,1
856,145,29,0.0711238750177734,1
856,146,29,0.0654725750923012,1
856,147,29,0.0597415367870261,1
856,151,29,0.059696100888758,1
857,135,29,0.0652951244692403,1
857,136,29,0.0677657876802705,1
857,137,29,0.0706518488123522,1
857,138,29,0.0688751607151163,1
857,139,29,0.0713594576440954,1
857,140,29,0.071144726586401,1
857,141,29,0.069093954762286,1
857,142,29,0.0635499496024191,1
857,143,29,0.0618450626080142,1
857,144,29,0.06448439000623,1
857,145,29,0.0639549512238408,1
857,146,29,0.0591347242965025,1
857,150,29,0.0739795964098694,1
857,151,29,0.087166308856265,1
857,152,29,0.0725416932304014,1
858,130,29,0.0712227666483972,1
858,131,29,0.0717962732397101,1
858,132,29,0.0577611449039663,1
858,135,29,0.0606321157747023,1
858,136,29,0.0599734456217037,1
858,137,29,0.0624054131332614,1
858,138,29,0.0781674535224668,1
858,139,29,0.100163823981436,1
858,140,29,0.0806369019645102,1
858,141,29,0.0623795432713922,1
858,150,29,0.0607239428750048,1
858,151,29,0.0722820864834377,1
858,152,29,0.0614475147147444,1
859,129,29,0.0606112701030115,1
859,130,29,0.0805665868897602,1
859,131,29,0.0814914978436553,1
859,132,29,0.0630334074208751,1
859,137,29,0.0606508798276924,1
859,138,29,0.100761785169779,1
859,139,29,0.138505058581114,1
859,140,29,0.102804236416029,1
859,141,29,0.0600967859524209,1
860,130,29,0.0698699975459308,1
860,131,29,0.0709584600427806,1
860,132,29,0.0577825212999717,1
860,138,29,0.0691177783870755,1
860,139,29,0.0936260906148788,1
860,140,29,0.0688505999732232,1
865,134,29,0.0586873295962164,1
866,134,29,0.0666416782002889,1
866,135,29,0.0659054102555563,1
866,136,29,0.0614631003187837,1
866,137,29,0.0635090602424462,1
866,138,29,0.0694674726379772,1
866,139,29,0.0651347454782996,1
866,163,29,0.0585688660322569,1
866,164,29,0.0616085600595468,1
867,134,29,0.0768678924810093,1
867,135,29,0.0809476528445927,1
867,136,29,0.0773426784528665,1
867,137,29,0.0778669043430987,1
867,138,29,0.0804091032948026,1
867,139,29,0.0701184001129193,1
867,162,29,0.0611687665108334,1
867,163,29,0.0723244500776178,1
867,164,29,0.0754213797737709,1
867,165,29,0.0618556770943065,1
868,134,29,0.0708334980544354,1
868,135,29,0.0751842344591891,1
868,136,29,0.072958364889808,1
868,137,29,0.0709785921851151,1
868,138,29,0.0673942157937329,1
868,162,29,0.0613123569226217,1
868,163,29,0.0783374975928704,1
868,164,29,0.0824957520825858,1
868,165,29,0.0643393430510449,1
869,163,29,0.0678153101557612,1
869,164,29,0.0710868481514235,1
869,165,29,0.0570632247394332,1
872,156,29,0.0604005548592977,1
872,157,29,0.0611692205749693,1
873,156,29,0.0618022036711404,1
873,157,29,0.0596366479716472,1
854,140,30,0.057883294053444,1
854,141,30,0.0590312802306467,1
854,142,30,0.0627235410813171,1
854,143,30,0.0650159811705618,1
854,144,30,0.0603224676218069,1
855,136,30,0.0611421654287974,1
855,137,30,0.0765040750664019,1
855,138,30,0.0742780816613473,1
855,139,30,0.0667878396765346,1
855,140,30,0.0732345597200719,1
855,141,30,0.0745686591205375,1
855,142,30,0.0751333969667855,1
855,143,30,0.0763703207452445,1
855,144,30,0.0734990845123512,1
855,145,30,0.0665299253504408,1
855,146,30,0.0615032466647161,1
855,147,30,0.057850860900884,1
856,136,30,0.0574583430947294,1
856,137,30,0.0691401336745946,1
856,138,30,0.0675334719569518,1
856,139,30,0.0644199777652459,1
856,140,30,0.072625447424185,1
856,141,30,0.0726460867030868,1
856,142,30,0.0689325438074002,1
856,143,30,0.0695723496594826,1
856,144,30,0.0727440348238179,1
856,145,30,0.0693449755692266,1
856,146,30,0.0615918481405732,1
857,137,30,0.0597939782462472,1
857,138,30,0.0605002602672039,1
857,139,30,0.0631048193258754,1
857,140,30,0.0679729706588237,1
857,141,30,0.065378147442857,1
857,142,30,0.0587060346798383,1
857,144,30,0.0592772119811038,1
857,145,30,0.0579848805841987,1
857,151,30,0.0597283807209604,1
858,130,30,0.0722530676573017,1
858,131,30,0.0731909046967262,1
858,138,30,0.0613008873804891,1
858,139,30,0.0741477003880562,1
858,140,30,0.0682169859048114,1
859,129,30,0.0618020503507828,1
859,130,30,0.0893525097315969,1
859,131,30,0.0915857445750776,1
859,132,30,0.0645466970407661,1
859,138,30,0.0732849195605923,1
859,139,30,0.0955775403319815,1
859,140,30,0.0795826063196481,1
860,129,30,0.0577468271413452,1
860,130,30,0.0760047578373357,1
860,131,30,0.0776293167582547,1
860,132,30,0.0570527930581826,1
860,139,30,0.0688125706276124,1
860,140,30,0.0573536665690763,1
866,133,30,0.0605215835907779,1
866,134,30,0.0667946152569512,1
866,135,30,0.0628855948023172,1
867,133,30,0.0724971359757209,1
867,134,30,0.0834874694338176,1
867,135,30,0.0782182025608179,1
867,136,30,0.0704312031270182,1
867,137,30,0.0696380592265691,1
867,138,30,0.0679023784280427,1
867,139,30,0.0578428528606701,1
867,163,30,0.0683287918270909,1
867,164,30,0.0698715366464432,1
868,133,30,0.0733800253577719,1
868,134,30,0.0817927310676956,1
868,135,30,0.0744780408922849,1
868,136,30,0.0685318233621164,1
868,137,30,0.0682292161517949,1
868,138,30,0.0629534154727886,1
868,162,30,0.0609383672919841,1
868,163,30,0.0816311373077681,1
868,164,30,0.0840787552896703,1
868,165,30,0.0618954991087134,1
869,134,30,0.0650963741103527,1
869,163,30,0.0721900294025988,1
869,164,30,0.07463519425878,1
872,155,30,0.0583673441130597,1
872,156,30,0.0615979573671281,1
872,157,30,0.0633739968013128,1
873,153,30,0.0570810511794676,1
873,154,30,0.0683632948044779,1
873,155,30,0.0713036785186291,1
873,156,30,0.0673114817700208,1
873,157,30,0.0636498142276197,1
874,153,30,0.0650632922947415,1
874,154,30,0.0712686860954853,1
874,155,30,0.0685115673841084,1
874,156,30,0.0607073312039573,1
875,154,30,0.0631823522513042,1
854,143,31,0.0572204193844862,1
855,137,31,0.0608869165181503,1
855,138,31,0.0620986839640964,1
855,139,31,0.0607432376523096,1
855,140,31,0.0671691474057771,1
855,141,31,0.0674994348375743,1
855,142,31,0.0669202200114108,1
855,143,31,0.0685317290111271,1
855,144,31,0.0688945439464736,1
855,145,31,0.0641793237732508,1
855,146,31,0.0595683791339768,1
855,147,31,0.0572164743337476,1
856,137,31,0.0573946679708489,1
856,138,31,0.058170563331073,1
856,139,31,0.0586924953128787,1
856,140,31,0.0669355402532928,1
856,141,31,0.0674055320155079,1
856,142,31,0.0646327274521657,1
856,143,31,0.065491350939165,1
856,144,31,0.0698714953678854,1
856,145,31,0.0675521770405737,1
856,146,31,0.0599504947435649,1
857,140,31,0.060792288372854,1
857,141,31,0.0596073107109224,1
858,130,31,0.0671889964951438,1
858,131,31,0.0689794775276229,1
859,129,31,0.06072994005976,1
859,130,31,0.087685439793077,1
859,131,31,0.0901329752178635,1
859,132,31,0.062851339496277,1
859,139,31,0.0619822902249639,1
859,140,31,0.057827225978073,1
860,129,31,0.0575154903095401,1
860,130,31,0.0759042327552102,1
860,131,31,0.0768219258584265,1
866,132,31,0.059500505391074,1
866,133,31,0.0673240422454667,1
866,134,31,0.0665739813654909,1
866,135,31,0.0586171737387608,1
867,132,31,0.0679768449463204,1
867,133,31,0.0840564825592668,1
867,134,31,0.0822403852332022,1
867,135,31,0.0682429678084803,1
867,136,31,0.0598942792447732,1
867,137,31,0.0577782872993284,1
867,163,31,0.0604691893070514,1
867,164,31,0.0611065420334129,1
868,132,31,0.0703826772338517,1
868,133,31,0.0868292930195458,1
868,134,31,0.0835063514255444,1
868,135,31,0.067504311604332,1
868,136,31,0.0610900188164178,1
868,137,31,0.0609874239094653,1
868,162,31,0.0610565536999127,1
868,163,31,0.0775195688669286,1
868,164,31,0.0781149530938774,1
868,165,31,0.0594838229567845,1
869,133,31,0.0671875812303048,1
869,134,31,0.0648085800053459,1
869,163,31,0.0719215713534546,1
869,164,31,0.0732180129153295,1
869,165,31,0.0574725783002348,1
872,154,31,0.0614775419170781,1
872,155,31,0.0614240920816593,1
872,156,31,0.0627579791923989,1
872,157,31,0.0632844754033104,1
872,160,31,0.0677272570950293,1
873,153,31,0.07283487713567,1
873,154,31,0.0937226706462656,1
873,155,31,0.0852019035689488,1
873,156,31,0.0703203230238209,1
873,157,31,0.0639571036057835,1
874,153,31,0.0786542515546448,1
874,154,31,0.095631933677293,1
874,155,31,0.083192009310933,1
874,156,31,0.0634918234960948,1
875,153,31,0.070014277899328,1
875,154,31,0.073798778635879,1
875,155,31,0.0619945735443789,1
854,147,32,0.0570404507693993,1
854,148,32,0.0593754018762449,1
855,141,32,0.0571637026460641,1
855,143,32,0.0595724539173257,1
855,144,32,0.0612053687977316,1
855,145,32,0.0590415232099188,1
855,148,32,0.0585919879215638,1
855,149,32,0.0572179957434495,1
856,140,32,0.0570795946360708,1
856,141,32,0.0591559414752136,1
856,143,32,0.0570524628297201,1
856,144,32,0.0593045501802434,1
856,145,32,0.0587511108649599,1
858,130,32,0.0600608559163212,1
858,131,32,0.061189034282715,1
859,129,32,0.0597628011412318,1
859,130,32,0.0777659251968374,1
859,131,32,0.0785164578317595,1
860,129,32,0.0579623248008274,1
860,130,32,0.0712788701053891,1
860,131,32,0.0696721317275676,1
862,166,32,0.0599908356884127,1
865,130,32,0.0618528583585022,1
865,131,32,0.0611839393292947,1
866,131,32,0.0849474212600895,1
866,132,32,0.0771422533639194,1
866,133,32,0.0791100906684701,1
866,134,32,0.0737200722200212,1
866,135,32,0.0583615828057776,1
867,131,32,0.0944946327496246,1
867,132,32,0.0923189107310381,1
867,133,32,0.0999468167061258,1
867,134,32,0.0882285830566569,1
867,135,32,0.0656582047667441,1
868,131,32,0.0771153397442314,1
868,132,32,0.0852614331462385,1
868,133,32,0.096443989054153,1
868,134,32,0.0841160062396196,1
868,135,32,0.0636305784196832,1
868,163,32,0.0629334661354958,1
868,164,32,0.063765181899744,1
869,132,32,0.0587517772188215,1
869,133,32,0.0669221365158803,1
869,134,32,0.0613117318473178,1
869,163,32,0.0623181266743173,1
869,164,32,0.0646464201394828,1
872,154,32,0.0620511605501908,1
872,155,32,0.0574981945938204,1
872,156,32,0.0581022296270975,1
872,157,32,0.0585042650892942,1
872,160,32,0.0659975204088266,1
872,161,32,0.068607846671717,1
873,153,32,0.0782630959408978,1
873,154,32,0.108051212867814,1
873,155,32,0.0888941821104297,1
873,156,32,0.0683851488523665,1
873,157,32,0.0621356695518885,1
873,160,32,0.0594807034772019,1
874,153,32,0.086465109994855,1
874,154,32,0.116459607916916,1
874,155,32,0.0943287106380646,1
874,156,32,0.0669033665659533,1
874,157,32,0.0588620794222096,1
875,153,32,0.0701490582874937,1
875,154,32,0.0834571945601371,1
875,155,32,0.0699671436832532,1
853,135,33,0.0820253062562348,1
853,136,33,0.0711650887092719,1
853,148,33,0.0625014329556495,1
853,149,33,0.0692414961217498,1
853,150,33,0.0627352818825438,1
854,148,33,0.0711142335260578,1
854,149,33,0.082593181272876,1
854,150,33,0.0754733789627298,1
855,148,33,0.0643867072476562,1
855,149,33,0.0740503714456921,1
855,150,33,0.0707677059302333,1
857,127,33,0.058394416950042,1
857,128,33,0.0604696374742504,1
858,128,33,0.0585323345086007,1
859,129,33,0.0572601883264616,1
859,130,33,0.064887003368236,1
859,131,33,0.0631342509375894,1
860,129,33,0.057711504489739,1
860,130,33,0.0636502034254504,1
860,131,33,0.0591421780246545,1
861,166,33,0.0580290073624907,1
861,167,33,0.0619369427807482,1
862,166,33,0.0636442003437584,1
863,166,33,0.0626980014479103,1
864,126,33,0.0581325280885254,1
864,127,33,0.0611925016815705,1
865,126,33,0.0660773177579978,1
865,127,33,0.0648942860852199,1
865,128,33,0.0569424141946157,1
865,129,33,0.0576295134800674,1
865,130,33,0.0672481545654132,1
865,131,33,0.063715394062096,1
865,132,33,0.058313440213505,1
865,133,33,0.06048220974357,1
865,134,33,0.0577720247524159,1
866,126,33,0.0601079429569015,1
866,127,33,0.057154456249116,1
866,130,33,0.102058262113275,1
866,131,33,0.0957350416177496,1
866,132,33,0.085859553551876,1
866,133,33,0.0914557466026803,1
866,134,33,0.0864168789485299,1
866,135,33,0.0606476483063101,1
867,130,33,0.107850823160488,1
867,131,33,0.10475077988169,1
867,132,33,0.0999880127068138,1
867,133,33,0.107030240812973,1
867,134,33,0.0956248927347191,1
867,135,33,0.0664010006205465,1
868,131,33,0.0745186236115426,1
868,132,33,0.0830153842590282,1
868,133,33,0.0913595557691243,1
868,134,33,0.0800370006839503,1
868,135,33,0.0601223727613223,1
869,133,33,0.0598672948618433,1
872,161,33,0.0569880682795465,1
873,153,33,0.0700075494944061,1
873,154,33,0.0987890769954078,1
873,155,33,0.0794235482425572,1
873,156,33,0.0610291447375311,1
874,153,33,0.0847815640148346,1
874,154,33,0.122281948495116,1
874,155,33,0.0987958171942035,1
874,156,33,0.068282831101445,1
875,153,33,0.0692841486658346,1
875,154,33,0.0944344898909048,1
875,155,33,0.0815120958439993,1
875,156,33,0.063876486582393,1
876,154,33,0.0646697779062629,1
876,155,33,0.0618235859640827,1
852,135,34,0.0957247868446038,1
853,134,34,0.0587393936514805,1
853,135,34,0.0731746173572043,1
853,136,34,0.0686767287908175,1
853,148,34,0.0668966440579681,1
853,149,34,0.0930583866094057,1
853,150,34,0.0896712922396406,1
853,151,34,0.0584937449539912,1
854,148,34,0.079857079244358,1
854,149,34,0.123959980839201,1
854,150,34,0.121714627790537,1
854,151,34,0.0748918053618346,1
855,148,34,0.0659683954378277,1
855,149,34,0.0968412303067077,1
855,150,34,0.0974712118620328,1
855,151,34,0.0664607247967515,1
856,128,34,0.0635791099550389,1
857,127,34,0.0700226810343095,1
857,128,34,0.0779334630690886,1
857,129,34,0.061809633811545,1
858,127,34,0.0613093671756494,1
858,128,34,0.0664701893803621,1
859,128,34,0.0576472573629861,1
861,167,34,0.0583485092968275,1
862,166,34,0.0616620570704603,1
862,167,34,0.0687266463610758,1
863,166,34,0.0606944699847331,1
864,126,34,0.071178262466148,1
864,127,34,0.0737140219628346,1
864,128,34,0.0587141783495993,1
865,125,34,0.0587526263777249,1
865,126,34,0.079963418706197,1
865,127,34,0.079896653587418,1
865,128,34,0.0637327605410576,1
865,129,34,0.0572312225727571,1
865,130,34,0.0623274674222545,1
865,131,34,0.0594772006967254,1
865,133,34,0.056895893259971,1
866,126,34,0.0647375160196186,1
866,127,34,0.0640047921339203,1
866,128,34,0.059422288420973,1
866,130,34,0.0938239977117998,1
866,131,34,0.0896457997817284,1
866,132,34,0.0823909045457646,1
866,133,34,0.0921781390550541,1
866,134,34,0.0866520605831476,1
867,131,34,0.0958394763689928,1
867,132,34,0.0959254772957082,1
867,133,34,0.107637849389969,1
867,134,34,0.0969979590937512,1
867,135,34,0.0643151715069825,1
868,132,34,0.0755302961970041,1
868,133,34,0.0869078284242356,1
868,134,34,0.078322224526483,1
868,135,34,0.0586493061475425,1
873,153,34,0.0576755095873343,1
873,154,34,0.0785886186477371,1
873,155,34,0.0665144517882013,1
874,153,34,0.0784968269290555,1
874,154,34,0.120276577187648,1
874,155,34,0.103467818717406,1
874,156,34,0.0697148196532733,1
875,153,34,0.0751369233350093,1
875,154,34,0.119687473198422,1
875,155,34,0.110572731262059,1
875,156,34,0.0759637682294367,1
876,154,34,0.0873882931462592,1
876,155,34,0.0866247459717553,1
852,134,35,0.0571670344153725,1
852,135,35,0.0705507576242912,1
853,135,35,0.0602550656338504,1
853,136,35,0.0590754129058755,1
853,148,35,0.0629852589316656,1
853,149,35,0.0947085913085944,1
853,150,35,0.0993172715241261,1
853,151,35,0.0628683403651553,1
854,148,35,0.07658956885655,1
854,149,35,0.132800986967958,1
854,150,35,0.139557850507085,1
854,151,35,0.0823171633507169,1
855,148,35,0.0581552312953174,1
855,149,35,0.0937057700253134,1
855,150,35,0.0995755691511138,1
855,151,35,0.0647249614411095,1
856,127,35,0.0629791084265529,1
856,128,35,0.0768386141896528,1
856,129,35,0.0651006906681116,1
857,127,35,0.0743277102817009,1
857,128,35,0.0878528243449706,1
857,129,35,0.0721624612229228,1
858,127,35,0.0627195665458943,1
858,128,35,0.070455775662785,1
858,129,35,0.0619572400373139,1
859,128,35,0.0609119843966108,1
859,129,35,0.0573372730846914,1
862,167,35,0.064014185954289,1
862,168,35,0.0650182573881778,1
863,167,35,0.0649421986969562,1
864,126,35,0.0727472250666425,1
864,127,35,0.0777767106942978,1
864,128,35,0.0621839949492028,1
865,126,35,0.0796696804888664,1
865,127,35,0.0848765754610249,1
865,128,35,0.0700405074743438,1
865,129,35,0.0584027729095288,1
866,126,35,0.0626335420314315,1
866,127,35,0.0669938727524061,1
866,128,35,0.0640106831738125,1
866,130,35,0.0765717777981366,1
866,131,35,0.0765912848651673,1
866,132,35,0.0756858632874923,1
866,133,35,0.0831289297776723,1
866,134,35,0.075277394267215,1
867,131,35,0.0808508251418591,1
867,132,35,0.0877999347185505,1
867,133,35,0.097908941482856,1
867,134,35,0.0863761193211673,1
867,135,35,0.0585651273743073,1
868,132,35,0.070434004172012,1
868,133,35,0.0790982555162542,1
868,134,35,0.0711700008576505,1
873,154,35,0.0586354365521205,1
874,153,35,0.0659705537167072,1
874,154,35,0.101836277823281,1
874,155,35,0.0952845156440073,1
874,156,35,0.0647628079816785,1
875,153,35,0.0751120205707801,1
875,154,35,0.128711319750502,1
875,155,35,0.1272747080002,1
875,156,35,0.0814326876926588,1
876,154,35,0.101136806764362,1
876,155,35,0.103858361049723,1
876,156,35,0.0717436843570683,1
877,155,35,0.0633784136069978,1
853,148,36,0.0573124292898305,1
853,149,36,0.0848617387679629,1
853,150,36,0.0958305425096967,1
853,151,36,0.0645062086724976,1
854,148,36,0.0676832482554738,1
854,149,36,0.118091785680218,1
854,150,36,0.132176666471989,1
854,151,36,0.0822691445941176,1
855,149,36,0.0779721705624347,1
855,150,36,0.088461989713289,1
855,151,36,0.0598725962080526,1
856,127,36,0.064161721416816,1
856,128,36,0.0817947832017121,1
856,129,36,0.0725670854403875,1
857,127,36,0.0704887041580387,1
857,128,36,0.0852201958669927,1
857,129,36,0.0744194312371406,1
858,127,36,0.0625725382199346,1
858,128,36,0.0704210073232407,1
858,129,36,0.0641685323788536,1
859,127,36,0.0573030295725249,1
859,128,36,0.0615944309989043,1
862,168,36,0.0600636510643782,1
863,168,36,0.0696582444413351,1
864,126,36,0.0643654841720083,1
864,127,36,0.0704772051312219,1
864,128,36,0.0592021380783326,1
864,168,36,0.066097945243026,1
865,126,36,0.0678571135409426,1
865,127,36,0.0770653101321735,1
865,128,36,0.0691900040693582,1
865,168,36,0.0638226829307644,1
866,127,36,0.0617725538727637,1
866,128,36,0.0632338443036958,1
866,129,36,0.0606221794361453,1
866,130,36,0.0618006232920702,1
866,131,36,0.0637073093617033,1
866,132,36,0.0673471877225209,1
866,133,36,0.0686428390948608,1
866,134,36,0.0589188079545055,1
866,168,36,0.0743443927159904,1
867,131,36,0.0680166787546009,1
867,132,36,0.0794194616653346,1
867,133,36,0.0847193985067824,1
867,134,36,0.0727537706665227,1
868,132,36,0.0672590580016102,1
868,133,36,0.0712873145189284,1
868,134,36,0.0636308909573351,1
874,154,36,0.081814007215775,1
874,155,36,0.0837970527204079,1
874,156,36,0.058213693527041,1
875,153,36,0.0698334955069587,1
875,154,36,0.122911930050441,1
875,155,36,0.130537447766113,1
875,156,36,0.0823127878235897,1
876,154,36,0.103347591969334,1
876,155,36,0.112029321834338,1
876,156,36,0.074683672976452,1
877,155,36,0.0671146243278554,1
851,136,37,0.0593339523072732,1
853,149,37,0.0723186887703358,1
853,150,37,0.0823656243775783,1
853,151,37,0.0648961848988789,1
854,148,37,0.0593172580791101,1
854,149,37,0.0915515128567847,1
854,150,37,0.104804595327192,1
854,151,37,0.0772927785734187,1
855,128,37,0.0580805406934401,1
855,129,37,0.0585884792441504,1
855,149,37,0.0610648506900312,1
855,150,37,0.0711482411607512,1
856,127,37,0.0588828071551639,1
856,128,37,0.0746187830835847,1
856,129,37,0.0707522323679938,1
857,127,37,0.0617997387515458,1
857,128,37,0.0728738381972998,1
857,129,37,0.0681119319752012,1
858,127,37,0.0606901829116583,1
858,128,37,0.0665491670553141,1
858,129,37,0.0617313991506335,1
859,128,37,0.0585929491222669,1
863,168,37,0.0610152987298564,1
863,169,37,0.0755810806169762,1
864,127,37,0.059538080672549,1
864,168,37,0.0583189479525033,1
864,169,37,0.0733023155242382,1
865,127,37,0.0660319526229717,1
865,128,37,0.0653749689939062,1
865,168,37,0.0589311443463519,1
866,132,37,0.0616915771362267,1
866,133,37,0.0586867752841545,1
866,168,37,0.0686326786727043,1
867,131,37,0.0599435068734224,1
867,132,37,0.0719579436598164,1
867,133,37,0.0728925078993007,1
867,134,37,0.0613557112021892,1
867,168,37,0.0816925244201589,1
868,132,37,0.063782088417633,1
868,133,37,0.0640564728882904,1
868,134,37,0.0571334041846362,1
868,167,37,0.068592320037046,1
869,166,37,0.0627268138812572,1
874,154,37,0.0638912819968972,1
874,155,37,0.0699334603800854,1
875,153,37,0.060946275084272,1
875,154,37,0.0975427417057697,1
875,155,37,0.109724374342079,1
875,156,37,0.075848276721639,1
876,154,37,0.0886789675039153,1
876,155,37,0.100450462286825,1
876,156,37,0.0724716435178087,1
851,136,38,0.0574690637258847,1
853,149,38,0.0571844362759551,1
853,150,38,0.0633226167907209,1
853,151,38,0.0582077847963382,1
854,149,38,0.0629647199006899,1
854,150,38,0.0724886149020028,1
854,151,38,0.0646908417646164,1
856,128,38,0.0601557199390908,1
856,129,38,0.0599547051564608,1
857,128,38,0.0602696959341234,1
858,127,38,0.0593697703015731,1
858,128,38,0.0606504552482408,1
863,169,38,0.0645193706355001,1
864,169,38,0.064465584674682,1
865,169,38,0.0721511096195268,1
866,168,38,0.0594734620387758,1
867,132,38,0.0614780431567086,1
867,133,38,0.0604875641622109,1
867,168,38,0.0740286825120347,1
868,167,38,0.0655013108654694,1
869,166,38,0.0569530581655922,1
872,144,38,0.064186630077982,1
872,145,38,0.0589279776912747,1
873,144,38,0.0719894156116732,1
873,145,38,0.0642085607860494,1
875,154,38,0.0689807099874202,1
875,155,38,0.0787949996428815,1
875,156,38,0.062746934229718,1
876,154,38,0.0667016087692829,1
876,155,38,0.0759840360013183,1
858,127,39,0.0588303126235113,1
858,128,39,0.0576739351052009,1
864,169,39,0.0581414796386319,1
865,169,39,0.062832192142393,1
867,168,39,0.0652554498782542,1
868,167,39,0.0580572065144074,1
870,166,39,0.0574142693888688,1
872,143,39,0.0603319145146071,1
872,144,39,0.076488890454067,1
872,145,39,0.0705457452279864,1
873,143,39,0.0688618690195036,1
873,144,39,0.0815404542132104,1
873,145,39,0.0728523084809368,1
866,169,40,0.0611774880804037,1
867,168,40,0.0572848139346599,1
867,169,40,0.0708181778125535,1
868,168,40,0.0755970849035304,1
869,167,40,0.0659813333172308,1
872,143,40,0.0618053467384703,1
872,144,40,0.0808955298199604,1
872,145,40,0.0764075186227624,1
873,143,40,0.0667266471630592,1
873,144,40,0.0804379098312127,1
873,145,40,0.0741520464304992,1
859,167,41,0.0660328430604328,1
860,167,41,0.061798146578602,1
860,168,41,0.0624053364730827,1
868,168,41,0.0672712115884149,1
872,143,41,0.0624075419274567,1
872,144,41,0.0749151808194251,1
872,145,41,0.0711874734814751,1
873,143,41,0.0653362732944337,1
873,144,41,0.0725630165539754,1
873,145,41,0.0681555339261154,1
874,145,41,0.0581071004969184,1
858,167,42,0.0824601286872013,1
858,168,42,0.100670040626592,1
859,166,42,0.0573376622825221,1
859,167,42,0.0932355070040042,1
859,168,42,0.110577295491164,1
860,167,42,0.0766941392373402,1
860,168,42,0.0882674792519816,1
860,169,42,0.075363825670319,1
861,168,42,0.0586363269895817,1
861,169,42,0.059662323234601,1
867,169,42,0.0612218094576111,1
868,168,42,0.0590659896008227,1
870,167,42,0.0569469489390373,1
871,167,42,0.0593839937132049,1
872,142,42,0.0590314335510042,1
872,143,42,0.0629007263422207,1
872,144,42,0.0634448072187564,1
872,145,42,0.0578000175115436,1
873,142,42,0.0655836203097298,1
873,143,42,0.0671022053788933,1
873,144,42,0.0646837005741163,1
873,145,42,0.0593007053774308,1
874,144,42,0.0590162017631747,1
857,168,43,0.0952374403973007,1
858,166,43,0.059351177259751,1
858,167,43,0.1066676617551,1
858,168,43,0.148007842548579,1
858,169,43,0.10925474229301,1
859,166,43,0.0630851707323609,1
859,167,43,0.125944642104525,1
859,168,43,0.173440116323448,1
859,169,43,0.125007465522026,1
860,167,43,0.0899128956384651,1
860,168,43,0.120787983137214,1
860,169,43,0.0920535662645396,1
861,168,43,0.0649470164943456,1
861,169,43,0.0614009937800997,1
861,170,43,0.0584700746495592,1
867,169,43,0.0571405748598204,1
867,170,43,0.0620035486822328,1
868,169,43,0.0700743794794901,1
869,168,43,0.0620572402920616,1
872,138,43,0.0591648576436992,1
872,139,43,0.05690541681295,1
872,142,43,0.0597202665358836,1
872,143,43,0.0591165794218794,1
873,142,43,0.0657194916312088,1
873,143,43,0.064161273249617,1
874,143,43,0.0580888081988745,1
857,168,44,0.100610481564619,1
858,166,44,0.0645669235340899,1
858,167,44,0.120504552765461,1
858,168,44,0.180182815420311,1
858,169,44,0.124950843134593,1
859,166,44,0.0672228861911006,1
859,167,44,0.142540426804248,1
859,168,44,0.214975969274789,1
859,169,44,0.149036244743824,1
859,170,44,0.0740118172727035,1
860,167,44,0.0905539516411553,1
860,168,44,0.135295874795482,1
860,169,44,0.0985373721437951,1
861,168,44,0.0668414900078057,1
861,169,44,0.0603028838945975,1
868,169,44,0.0630586463105036,1
868,170,44,0.067583837694409,1
869,169,44,0.0707529753820342,1
872,142,44,0.0577569050063861,1
873,142,44,0.0628002838172108,1
873,143,44,0.0583680104669213,1
857,166,45,0.0596376858325291,1
857,168,45,0.0982297230524847,1
858,166,45,0.0699448768497865,1
858,167,45,0.123533986122668,1
858,168,45,0.18043247993178,1
858,169,45,0.130646210868989,1
859,166,45,0.0711079061128402,1
859,167,45,0.1407790117734,1
859,168,45,0.21246833226984,1
859,169,45,0.156002532097499,1
859,170,45,0.0797295697793027,1
860,167,45,0.0880344146176855,1
860,168,45,0.131117977609189,1
860,169,45,0.101508195845858,1
860,170,45,0.0657977380859939,1
861,168,45,0.0700080153524156,1
861,169,45,0.0642801554960914,1
868,169,45,0.0581229927416727,1
868,170,45,0.0636514122975004,1
869,169,45,0.0634433211906755,1
873,142,45,0.058301776072457,1
857,166,46,0.0575244831382045,1
858,166,46,0.0674618654530362,1
858,167,46,0.106832139117137,1
858,168,46,0.144231974927546,1
859,166,46,0.0663558477752461,1
859,167,46,0.114859580253206,1
859,168,46,0.164430894174704,1
859,169,46,0.135106913351731,1
860,167,46,0.0764118587682686,1
860,168,46,0.106520568562835,1
860,169,46,0.0930406781081079,1
860,170,46,0.0634108408626209,1
861,168,46,0.0652193901095443,1
861,169,46,0.0633629754263792,1
864,171,46,0.0584243615952601,1
877,148,46,0.0642635615158543,1
857,167,47,0.0635987585485534,1
858,166,47,0.0598540444447883,1
858,167,47,0.0816997245800272,1
858,168,47,0.100670913373243,1
859,166,47,0.0568431805416558,1
859,167,47,0.0829023104953304,1
859,168,47,0.110290256194072,1
859,169,47,0.103747758102556,1
860,167,47,0.0613837157551905,1
860,168,47,0.079762922854008,1
860,169,47,0.07913780037463,1
860,170,47,0.0598226019776156,1
861,169,47,0.0593141032179065,1
863,171,47,0.0613183953859347,1
857,167,48,0.0572139268570374,1
858,167,48,0.0640660966891955,1
858,168,48,0.0729626460659459,1
859,167,48,0.0635384034001077,1
859,168,48,0.0783665046251327,1
859,169,48,0.0798849894463701,1
860,168,48,0.0644799614066714,1
860,169,48,0.0674339611479609,1
862,126,48,0.0572990373462916,1
850,142,49,0.0569175703997548,1
850,143,49,0.057112192902862,1
858,168,49,0.0595930519176697,1
859,168,49,0.0638725297377807,1
859,169,49,0.0646527121710795,1
860,168,49,0.0573394077758236,1
860,169,49,0.0593150467277992,1
861,126,49,0.0607070776356737,1
862,125,49,0.0622010606843862,1
862,126,49,0.0744189476883206,1
862,127,49,0.0571664683094369,1
863,126,49,0.0638351962307157,1
849,143,50,0.0582003428620599,1
850,140,50,0.0583338789965546,1
850,141,50,0.0635515889508576,1
850,142,50,0.0670492567831049,1
850,143,50,0.065768719259858,1
851,140,50,0.058223971887934,1
851,141,50,0.0625487617706397,1
851,142,50,0.0621372912095165,1
851,143,50,0.0574591273873277,1
854,130,50,0.0612069137951808,1
861,125,50,0.058856683725011,1
861,126,50,0.0720555792428956,1
861,127,50,0.0592690801052164,1
862,125,50,0.0675136641461429,1
862,126,50,0.0880101015471392,1
862,127,50,0.0707827372222106,1
863,125,50,0.058242847982724,1
863,126,50,0.0708681484552431,1
863,127,50,0.0570663560128895,1
870,129,50,0.0608409852771886,1
870,130,50,0.0637687495465256,1
871,130,50,0.0628594182997329,1
849,143,51,0.0578007487317104,1
850,140,51,0.0641951806363842,1
850,141,51,0.0676790791211356,1
850,142,51,0.0704928791893137,1
850,143,51,0.0683943598676935,1
851,140,51,0.0639383926252248,1
851,141,51,0.066017381292067,1
851,142,51,0.0631678104050837,1
851,143,51,0.0573963250100979,1
853,130,51,0.0727610180018857,1
853,131,51,0.0571374671741114,1
854,129,51,0.0838711536286022,1
854,130,51,0.0924681563052454,1
854,131,51,0.0638453094773776,1
855,129,51,0.0684025094343913,1
855,130,51,0.0735414009310367,1
860,126,51,0.0595728549090301,1
861,126,51,0.0809894562297741,1
861,127,51,0.0760559727336963,1
862,125,51,0.0679291446243099,1
862,126,51,0.0924553776431368,1
862,127,51,0.0846576280934977,1
863,125,51,0.0584402538400145,1
863,126,51,0.0719291784019641,1
863,127,51,0.0647391258833729,1
870,128,51,0.0593221171550573,1
870,129,51,0.0648939617536943,1
870,130,51,0.0670250557543583,1
870,131,51,0.0599031069592063,1
871,129,51,0.0664008237124416,1
871,130,51,0.0689417135441694,1
871,131,51,0.0614031107804214,1
872,131,51,0.0571764046479939,1
850,139,52,0.0583628919257537,1
850,140,52,0.0643672355622465,1
850,141,52,0.0646735401519598,1
850,142,52,0.066264970081773,1
850,143,52,0.0639826019606324,1
851,139,52,0.0602087923705526,1
851,140,52,0.0664138618397707,1
851,141,52,0.0654336140306714,1
851,142,52,0.0613786797711385,1
853,129,52,0.074745637988652,1
853,130,52,0.084404678988214,1
853,131,52,0.0602576897707394,1
854,128,52,0.0616498032357294,1
854,129,52,0.111042080258159,1
854,130,52,0.124046913481936,1
854,131,52,0.0773716854851287,1
855,129,52,0.0851405990136736,1
855,130,52,0.0947472575233828,1
855,131,52,0.0607111819037067,1
860,126,52,0.0631261721341335,1
860,127,52,0.0640066732567688,1
861,126,52,0.0853541094054444,1
861,127,52,0.0888952494559958,1
861,128,52,0.0571460531141346,1
862,126,52,0.090055430498561,1
862,127,52,0.0926627906022263,1
862,128,52,0.0582854415574405,1
863,126,52,0.0680117017399172,1
863,127,52,0.0677929371774317,1
869,128,52,0.0569395954588114,1
869,129,52,0.0572252371818756,1
870,128,52,0.0646590985536654,1
870,129,52,0.066451148171341,1
870,130,52,0.0672920336723584,1
870,131,52,0.0620629957024068,1
871,131,52,0.0640793706939978,1
850,140,53,0.0598335525893072,1
850,141,53,0.0579602136974426,1
850,142,53,0.0587370820522435,1
851,139,53,0.0601639756506515,1
851,140,53,0.0637495255324627,1
851,141,53,0.0601126958879857,1
853,129,53,0.0812970404547793,1
853,130,53,0.0906257114654284,1
853,131,53,0.0628165770536696,1
854,128,53,0.0689416073993065,1
854,129,53,0.122812094909925,1
854,130,53,0.138142845133324,1
854,131,53,0.0854940849949565,1
855,129,53,0.0920781034186854,1
855,130,53,0.104770581795562,1
855,131,53,0.0671636278729051,1
860,126,53,0.0631634761565143,1
860,127,53,0.0676682051696228,1
861,126,53,0.0794472126500523,1
861,127,53,0.088472857767865,1
861,128,53,0.0608412860209669,1
862,126,53,0.0778835513957672,1
862,127,53,0.0864166430710568,1
862,128,53,0.0589709486699483,1
863,126,53,0.0598476049897709,1
863,127,53,0.0632742029393541,1
869,128,53,0.0597467142975621,1
870,131,53,0.0577959368312579,1
851,139,54,0.061643057139997,1
851,140,54,0.0618288047531764,1
853,129,54,0.0811685167165894,1
853,130,54,0.0888675633375832,1
853,131,54,0.0627879297345539,1
854,128,54,0.06962260335514,1
854,129,54,0.114124786542681,1
854,130,54,0.128874263908963,1
854,131,54,0.0838678690347884,1
855,129,54,0.0866070256765839,1
855,130,54,0.09997807047132,1
855,131,54,0.068736677050622,1
856,130,54,0.0589565129685906,1
860,126,54,0.0580970344257511,1
860,127,54,0.0633142490373605,1
861,126,54,0.0669703911499527,1
861,127,54,0.076174536545582,1
861,128,54,0.058443550227702,1
862,126,54,0.0634470126731305,1
862,127,54,0.0715459364774417,1
868,128,54,0.0575904462735747,1
869,129,54,0.0569983112588186,1
848,149,55,0.0655651511035811,1
848,150,55,0.0643738696161792,1
849,149,55,0.0589522612771369,1
849,150,55,0.0603285473636777,1
851,139,55,0.060641786751102,1
851,140,55,0.0582308477162768,1
853,131,55,0.0590912107996407,1
854,129,55,0.0905096538516952,1
854,130,55,0.10011131765591,1
854,131,55,0.0735667931410227,1
855,129,55,0.0721285361453451,1
855,130,55,0.0825239925130603,1
855,131,55,0.0650801221524518,1
861,127,55,0.0615727538591206,1
862,127,55,0.0573190338590791,1
847,149,56,0.0776686847085257,1
848,148,56,0.0684594207717288,1
848,149,56,0.0888690847472851,1
848,150,56,0.0819068957647067,1
848,151,56,0.0626614404395699,1
848,152,56,0.0611727587370667,1
848,153,56,0.0696535268918718,1
848,154,56,0.070703370349428,1
848,155,56,0.0642309927337473,1
849,148,56,0.0590193330366309,1
849,149,56,0.0734238337014752,1
849,150,56,0.0720700739136215,1
849,151,56,0.061672659762879,1
849,152,56,0.0577637395561711,1
849,153,56,0.060795425543247,1
849,154,56,0.0612316396513052,1
849,155,56,0.0568443304443375,1
850,150,56,0.0575053888567519,1
850,151,56,0.0573662506322696,1
851,139,56,0.0590893119859817,1
854,131,56,0.0634250996558736,1
855,130,56,0.0672199318257492,1
855,131,56,0.0607314437786514,1
882,147,56,0.0645149656236888,1
882,148,56,0.0744482200827402,1
882,149,56,0.0698980669652372,1
847,149,57,0.0876897563508359,1
847,150,57,0.0781243351203725,1
847,153,57,0.0803561488020774,1
847,154,57,0.0844625692170651,1
848,148,57,0.0803319123917098,1
848,149,57,0.112683079838958,1
848,150,57,0.0995050181988906,1
848,151,57,0.0714409768988207,1
848,152,57,0.0686894484835579,1
848,153,57,0.0855438079662993,1
848,154,57,0.0911496660965665,1
848,155,57,0.0778782087710001,1
849,148,57,0.0669059081457266,1
849,149,57,0.0902904470189475,1
849,150,57,0.0835988212919613,1
849,151,57,0.0671343318907382,1
849,152,57,0.0619727961566691,1
849,153,57,0.0706199110024859,1
849,154,57,0.0739185513198147,1
849,155,57,0.0649148781886271,1
850,149,57,0.0584572075333981,1
850,150,57,0.061070930431902,1
850,151,57,0.0592485823527985,1
851,138,57,0.0610409209203788,1
851,139,57,0.0576012848434665,1
852,137,57,0.0601236877782352,1
852,138,57,0.07297889212691,1
852,139,57,0.0618212036016037,1
853,137,57,0.0569669336579511,1
853,138,57,0.0680658002383872,1
882,147,57,0.0662761978494956,1
882,148,57,0.07092273639947,1
882,149,57,0.0652765668090392,1
882,150,57,0.0578360360016957,1
883,147,57,0.0744958260537614,1
883,148,57,0.0860078025437593,1
883,149,57,0.0784612153275446,1
847,149,58,0.0896543267523833,1
847,150,58,0.0805931525901753,1
847,153,58,0.0834429652515685,1
847,154,58,0.0905769084162309,1
848,148,58,0.0868757078093276,1
848,149,58,0.124644579823437,1
848,150,58,0.107726822372846,1
848,151,58,0.0744892804538811,1
848,152,58,0.0716902699032704,1
848,153,58,0.0917879328481365,1
848,154,58,0.101297356766471,1
848,155,58,0.0834148899353252,1
849,148,58,0.0738015384023151,1
849,149,58,0.103234701010678,1
849,150,58,0.0917987065517233,1
849,151,58,0.0689235391848622,1
849,152,58,0.0640131893719649,1
849,153,58,0.0758148882653127,1
849,154,58,0.0824886580675804,1
849,155,58,0.0695125311322883,1
850,149,58,0.0635737673302718,1
850,150,58,0.0642626828722668,1
850,151,58,0.059970261275816,1
851,137,58,0.0595596752552171,1
851,138,58,0.0715488259764879,1
851,139,58,0.0613855791872285,1
852,137,58,0.0765603554314987,1
852,138,58,0.0955105570265399,1
852,139,58,0.0730084829559184,1
853,137,58,0.0669107731186106,1
853,138,58,0.0835165236415746,1
853,139,58,0.0645327389912917,1
879,137,58,0.0596632077751254,1
882,144,58,0.0570788398281567,1
882,147,58,0.0650460024759587,1
882,148,58,0.0664831154658915,1
882,149,58,0.0603747380698599,1
883,146,58,0.0587984573707606,1
883,147,58,0.0734597460467643,1
883,148,58,0.0781775490783182,1
847,149,59,0.0831839599921613,1
847,150,59,0.0759432527862083,1
847,154,59,0.0835271145401196,1
848,148,59,0.0831570286816629,1
848,149,59,0.114887236886934,1
848,150,59,0.0989488073232973,1
848,151,59,0.0711727960057075,1
848,152,59,0.0666142987225914,1
848,153,59,0.0828575114662398,1
848,154,59,0.092936373089475,1
848,155,59,0.078304698830227,1
849,148,59,0.074437393306722,1
849,149,59,0.101273922339512,1
849,150,59,0.0885129274536187,1
849,151,59,0.0672812422779612,1
849,152,59,0.0621714757523147,1
849,153,59,0.0720765664410703,1
849,154,59,0.0791706581066417,1
849,155,59,0.0668631848383999,1
850,149,59,0.0643597346585999,1
850,150,59,0.0628386198035367,1
850,151,59,0.0595074519826587,1
851,137,59,0.0681856790671857,1
851,138,59,0.0833967981331336,1
851,139,59,0.0709076343442507,1
852,137,59,0.0884922409992223,1
852,138,59,0.111906370701451,1
852,139,59,0.0879409422720077,1
852,140,59,0.0572030352147141,1
853,137,59,0.0704287912798551,1
853,138,59,0.0888288145656793,1
853,139,59,0.0730078460867408,1
879,137,59,0.0621246658677654,1
879,138,59,0.0586193143268297,1
882,147,59,0.0605401294571054,1
882,148,59,0.0612304956455603,1
883,146,59,0.0597544333878713,1
883,147,59,0.0689508125176967,1
883,148,59,0.0694661222394434,1
848,148,60,0.0711439422938027,1
848,149,60,0.0908336020764011,1
848,150,60,0.0804012662657567,1
848,151,60,0.0643861175539732,1
848,152,60,0.0591678473906715,1
848,153,60,0.0678695383868415,1
848,154,60,0.0749906616108375,1
849,148,60,0.0683904914771336,1
849,149,60,0.086541846833812,1
849,150,60,0.0764057318509032,1
849,151,60,0.0627312955532473,1
849,152,60,0.0577215233854116,1
849,153,60,0.0619732384269312,1
849,154,60,0.065636055872014,1
849,155,60,0.0576268539615574,1
850,139,60,0.0578699728731471,1
850,149,60,0.0616506995701275,1
850,150,60,0.0581044881539031,1
851,137,60,0.0693570465989157,1
851,138,60,0.0870282792559066,1
851,139,60,0.0774072793958291,1
851,140,60,0.0592573334070529,1
852,137,60,0.0858008436488056,1
852,138,60,0.119334105155876,1
852,139,60,0.110224210501586,1
852,140,60,0.0755348014567415,1
853,133,60,0.0802391771631356,1
853,134,60,0.0699741315533956,1
853,137,60,0.0675179217345335,1
853,138,60,0.100581067643715,1
853,139,60,0.105344695771368,1
853,140,60,0.0795723928250602,1
854,138,60,0.0627411021591941,1
854,139,60,0.0722046302181876,1
854,140,60,0.0605986211735131,1
875,133,60,0.0597542446858928,1
879,137,60,0.0579747732344736,1
883,146,60,0.0600518866754042,1
883,147,60,0.0634597500566814,1
883,148,60,0.0617749421321795,1
848,148,61,0.059421527716122,1
848,149,61,0.067361711877931,1
848,150,61,0.0628629741526408,1
849,148,61,0.0596931052448488,1
849,149,61,0.0673091347891628,1
849,150,61,0.0615150818169321,1
851,137,61,0.065657343813967,1
851,138,61,0.0811115758945677,1
851,139,61,0.0783811172345951,1
851,140,61,0.061725484522994,1
852,134,61,0.0831458480894349,1
852,137,61,0.0723690073322984,1
852,138,61,0.105031096670797,1
852,139,61,0.117102892961728,1
852,140,61,0.08370575634442,1
853,133,61,0.0961715505726492,1
853,134,61,0.0753168683623489,1
853,137,61,0.0609159707259073,1
853,138,61,0.100055756717106,1
853,139,61,0.128180218031927,1
853,140,61,0.0966633845888792,1
854,138,61,0.0625673784002092,1
854,139,61,0.0827132016281584,1
854,140,61,0.0658056576721554,1
875,133,61,0.0604805527043211,1
876,133,61,0.058797272086458,1
851,137,62,0.0575663395958173,1
851,138,62,0.0674699324626184,1
851,139,62,0.0716547054772542,1
851,140,62,0.0593346540427559,1
852,137,62,0.0574316594555778,1
852,138,62,0.0819616724109122,1
852,139,62,0.107618247971949,1
852,140,62,0.0798228003505705,1
853,134,62,0.0673381536152988,1
853,138,62,0.0876161743730825,1
853,139,62,0.126691607092666,1
853,140,62,0.0950522706839305,1
854,139,62,0.0763758874536112,1
854,140,62,0.0575905052429429,1
851,139,63,0.0644380577735639,1
851,140,63,0.0596795894656366,1
852,138,63,0.0656977378312463,1
852,139,63,0.0886039761582598,1
852,140,63,0.0741063156853896,1
853,138,63,0.0714498812734327,1
853,139,63,0.100580477950032,1
853,140,63,0.0809987321114062,1
854,139,63,0.0621838298349716,1
851,139,64,0.0636712731807407,1
851,140,64,0.0644810110614269,1
852,138,64,0.0586800586731062,1
852,139,64,0.0755818884973218,1
852,140,64,0.0713345312921189,1
853,138,64,0.0607435501899616,1
853,139,64,0.0762055721241134,1
853,140,64,0.0668397386175674,1
877,134,64,0.059092578888985,1
878,156,64,0.0590056816278716,1
878,157,64,0.060906836370759,1
879,156,64,0.0584155397777638,1
879,157,64,0.0616650291266221,1
851,139,65,0.059472418280957,1
851,140,65,0.0635095555851398,1
852,139,65,0.0611673394521208,1
852,140,65,0.0629135934583817,1
858,163,65,0.0611851482013446,1
858,164,65,0.0610295811108565,1
877,134,65,0.057618863612154,1
878,156,65,0.0703749168649846,1
878,157,65,0.0698705636518664,1
879,156,65,0.069357760128272,1
879,157,65,0.0694331701564424,1
856,163,66,0.0616057059421215,1
857,163,66,0.07751223897445,1
858,163,66,0.0883097190104883,1
858,164,66,0.0967356515497197,1
877,156,66,0.0579189174488285,1
877,157,66,0.060848114673815,1
877,158,66,0.0581551723259491,1
878,156,66,0.0705685604765782,1
878,157,66,0.0718177262958943,1
879,155,66,0.0578294550201944,1
879,156,66,0.070264355196376,1
874,156,67,0.0631378598629288,1
874,157,67,0.0809336476196236,1
874,158,67,0.0685687617744138,1
875,156,67,0.0686988658916739,1
875,157,67,0.0829326384414424,1
875,158,67,0.0710342120932871,1
876,156,67,0.0619021449565198,1
876,157,67,0.0681063180913399,1
876,158,67,0.0655631756297433,1
877,156,67,0.0609699630795144,1
877,157,67,0.0683533584659208,1
877,158,67,0.0753046263214917,1
878,156,67,0.0649875933166666,1
878,157,67,0.0747333251845529,1
879,155,67,0.0569345417839489,1
856,156,68,0.0584076496762865,1
856,157,68,0.0707205776110952,1
857,156,68,0.0740924637807781,1
857,157,68,0.0886597493867893,1
857,158,68,0.0585396761949529,1
858,157,68,0.0587801296910958,1
873,157,68,0.077337554014762,1
873,158,68,0.0755368300030107,1
874,156,68,0.0754302959422564,1
874,157,68,0.122671252470699,1
874,158,68,0.112815607597255,1
874,159,68,0.067459040820295,1
875,156,68,0.080790481787287,1
875,157,68,0.111494847067897,1
875,158,68,0.0979846286670573,1
875,159,68,0.0636077336864073,1
876,156,68,0.0691603896526025,1
876,157,68,0.0774150928371276,1
876,158,68,0.0800476151702427,1
876,159,68,0.0749496661060016,1
877,156,68,0.0600407237739867,1
877,157,68,0.0759418729029903,1
877,158,68,0.107357119815283,1
878,156,68,0.0588662249688005,1
878,157,68,0.0855857823626488,1
879,156,68,0.0629545181999756,1
856,156,69,0.0705769813023701,1
856,157,69,0.0884433966714669,1
856,158,69,0.059132430388076,1
857,156,69,0.0899280566630527,1
857,157,69,0.111871401866055,1
857,158,69,0.0729594735139318,1
858,156,69,0.0584589412328259,1
858,157,69,0.0723501666191295,1
873,157,69,0.0913956804041393,1
873,158,69,0.0959039121977242,1
873,159,69,0.0639811159325515,1
874,156,69,0.0849825611066541,1
874,157,69,0.144270670627018,1
874,158,69,0.142800186871569,1
874,159,69,0.0848973562664106,1
875,156,69,0.0846463413564068,1
875,157,69,0.120910887094606,1
875,158,69,0.11371621137754,1
875,159,69,0.0734697059730686,1
876,155,69,0.0577414019594625,1
876,156,69,0.0763598654762465,1
876,157,69,0.0874578770008425,1
876,158,69,0.0941542379681024,1
876,159,69,0.0891586656241511,1
877,156,69,0.0639942896894277,1
877,157,69,0.0858897871469987,1
877,158,69,0.12789954742661,1
878,156,69,0.0608838088324414,1
878,157,69,0.094412228954375,1
856,156,70,0.0629512159153513,1
856,157,70,0.0781133255393126,1
857,156,70,0.0773719390534124,1
857,157,70,0.0961214619912229,1
857,158,70,0.0670123773401758,1
858,157,70,0.0652108336542053,1
873,157,70,0.0829326915138739,1
873,158,70,0.0895621694236183,1
873,159,70,0.0623846146370652,1
874,156,70,0.0781707793948384,1
874,157,70,0.123685973772501,1
874,158,70,0.127013721370018,1
874,159,70,0.0804013075443145,1
875,156,70,0.0791794445425171,1
875,157,70,0.10561051788975,1
875,158,70,0.103039748279109,1
876,155,70,0.0580868681066578,1
876,156,70,0.075102019365918,1
876,157,70,0.085689008241842,1
876,158,70,0.0902894563335602,1
877,156,70,0.0657693266443514,1
877,157,70,0.0857179268200518,1
