x,y,z,signal,cytoplasm.p
190,381,1,0.0582521415551666,1
190,382,1,0.0580284766381761,1
191,381,1,0.0645802270235763,1
191,382,1,0.0630959975083791,1
191,383,1,0.0597893668416469,1
192,381,1,0.0706415763483959,1
192,382,1,0.0669535259106215,1
192,383,1,0.0632321636766995,1
192,384,1,0.0610578805106993,1
192,385,1,0.0580202327204891,1
193,381,1,0.0738597352718813,1
193,382,1,0.0704541127265992,1
193,383,1,0.0669202200114108,1
193,384,1,0.0641621872748255,1
193,385,1,0.0595330918639915,1
194,382,1,0.0733177831895409,1
194,383,1,0.0700629158342944,1
194,384,1,0.0654842333364123,1
194,385,1,0.0596185325817082,1
195,382,1,0.0719727390743206,1
195,383,1,0.0701005147035166,1
195,384,1,0.0646631438523301,1
195,385,1,0.0593232611608021,1
196,382,1,0.0685527574878596,1
196,383,1,0.0677233710136589,1
196,384,1,0.0635592608656722,1
196,385,1,0.0607287606723942,1
197,382,1,0.0634161422088303,1
197,383,1,0.0625596003405316,1
197,384,1,0.0609311022658107,1
197,385,1,0.0601641702495669,1
198,383,1,0.0595059541607041,1
198,384,1,0.0593306559195858,1
198,385,1,0.0586422711019054,1
199,383,1,0.0578960491278053,1
199,384,1,0.0607486274525714,1
199,385,1,0.0638174759355443,1
199,386,1,0.0626778575117021,1
200,384,1,0.0680352776933598,1
200,385,1,0.0810358533287454,1
200,386,1,0.0835154621929453,1
200,387,1,0.0718892207580102,1
201,385,1,0.1022663532201,1
201,386,1,0.105113594817036,1
201,387,1,0.0880340431106653,1
201,388,1,0.0633081810893633,1
202,385,1,0.105283013812136,1
202,386,1,0.105331179992156,1
202,387,1,0.0876894850917417,1
202,388,1,0.0650194898479751,1
203,387,1,0.0706185782947625,1
203,388,1,0.057311031715802,1
191,381,2,0.0622406409243831,1
191,382,2,0.0591983109663306,1
192,381,2,0.0686084894378313,1
192,382,2,0.0632851004786143,1
192,383,2,0.0579838309294431,1
192,384,2,0.0584576085251025,1
192,385,2,0.0590186902705166,1
193,381,2,0.0690806335819891,1
193,382,2,0.0657114187246898,1
193,383,2,0.0620763109857669,1
193,384,2,0.0605112403635797,1
193,385,2,0.0579874811333403,1
194,381,2,0.0696900643124648,1
194,382,2,0.0684233315183348,1
194,383,2,0.0662494257562916,1
194,384,2,0.061692738832782,1
195,381,2,0.067174324916313,1
195,382,2,0.0673552311443558,1
195,383,2,0.066443039883201,1
195,384,2,0.0610025849340529,1
196,381,2,0.0645659918180709,1
196,382,2,0.0648095824846069,1
196,383,2,0.0648493396327086,1
196,384,2,0.06028361270504,1
196,385,2,0.0587702051464125,1
197,381,2,0.0597585317589676,1
197,382,2,0.0594239926357166,1
197,383,2,0.0599330810891086,1
197,384,2,0.0580522236027869,1
197,385,2,0.0591033761803191,1
198,383,2,0.0570052932320243,1
199,384,2,0.0571990724731649,1
199,385,2,0.0621427045975256,1
199,386,2,0.062654399496996,1
200,384,2,0.0657195093220193,1
200,385,2,0.0865733777550371,1
200,386,2,0.0928324277839887,1
200,387,2,0.0781837821405466,1
201,384,2,0.0822256959635609,1
201,385,2,0.122082502297682,1
201,386,2,0.133364168022884,1
201,387,2,0.108561887597213,1
201,388,2,0.0700953548837912,1
202,384,2,0.0874203606887358,1
202,385,2,0.132490713739759,1
202,386,2,0.145766287127232,1
202,387,2,0.118744234564862,1
202,388,2,0.0772376186263194,1
203,385,2,0.0997750625240418,1
203,386,2,0.11171956753658,1
203,387,2,0.0952627677409816,1
203,388,2,0.0671811181875401,1
167,395,3,0.0620945796960634,1
191,381,3,0.0619080772749698,1
191,382,3,0.0571917013021286,1
192,381,3,0.0670743482493127,1
192,382,3,0.0610134235039448,1
192,384,3,0.0579474055506498,1
192,385,3,0.0618756971948413,1
193,382,3,0.0626353759787854,1
193,383,3,0.060418658455363,1
193,384,3,0.058591634105354,1
193,385,3,0.0574546398184008,1
194,382,3,0.0652786661185503,1
194,383,3,0.0653571307599982,1
194,384,3,0.0612757369449131,1
195,381,3,0.0646143761847536,1
195,382,3,0.0650329171731349,1
195,383,3,0.0651040460251674,1
195,384,3,0.0613465886409146,1
195,385,3,0.0569225061358807,1
196,381,3,0.0631386913310217,1
196,382,3,0.0626399107232069,1
196,383,3,0.0633310553073233,1
196,384,3,0.0605082859982283,1
196,385,3,0.0583892276456324,1
197,382,3,0.0578605259803469,1
197,383,3,0.0601471693806886,1
197,384,3,0.0589480567611777,1
197,385,3,0.0594679837844616,1
198,383,3,0.0570123695562192,1
198,385,3,0.0570315758794715,1
199,385,3,0.0601975351181458,1
199,386,3,0.0609583402170243,1
200,384,3,0.0618939423173905,1
200,385,3,0.0840873825082512,1
200,386,3,0.0928945638073568,1
200,387,3,0.0793174623490019,1
201,384,3,0.0794925483003943,1
201,385,3,0.126858054031604,1
201,386,3,0.144953123126248,1
201,387,3,0.119139577003758,1
201,388,3,0.0739407355961657,1
202,384,3,0.0853692586361583,1
202,385,3,0.143443908289706,1
202,386,3,0.167732164525858,1
202,387,3,0.137365676034745,1
202,388,3,0.0841096257539705,1
203,385,3,0.105185525652477,1
203,386,3,0.128952233207718,1
203,387,3,0.111254086931039,1
203,388,3,0.0729355260534689,1
166,396,4,0.060696610572802,1
167,395,4,0.0657983749551715,1
192,381,4,0.0624404999073945,1
192,384,4,0.0573140922260163,1
192,385,4,0.0636779367193576,1
193,382,4,0.0585848880096215,1
193,383,4,0.0588756659646639,1
194,382,4,0.0614376137578084,1
194,383,4,0.0635555457954699,1
194,384,4,0.0600226968381002,1
195,382,4,0.0623350213983326,1
195,383,4,0.0628683285712816,1
195,384,4,0.060400336672635,1
196,382,4,0.0595369130790568,1
196,383,4,0.0604681042706749,1
196,384,4,0.0594732969245446,1
196,385,4,0.0572384286295623,1
197,383,4,0.0583562637687578,1
197,384,4,0.0586308900138253,1
197,385,4,0.0589221810023717,1
199,385,4,0.057314239649437,1
199,386,4,0.058462420425555,1
200,385,4,0.0754246761614583,1
200,386,4,0.0854494687709076,1
200,387,4,0.0752805137467976,1
201,384,4,0.0701040646594877,1
201,385,4,0.116112313719304,1
201,386,4,0.138517442148455,1
201,387,4,0.116510050314552,1
201,388,4,0.072280971962377,1
202,384,4,0.0763941207822867,1
202,385,4,0.136217047091428,1
202,386,4,0.167167603587715,1
202,387,4,0.137831463281001,1
202,388,4,0.082691789850532,1
203,385,4,0.0999050781872495,1
203,386,4,0.131234017532112,1
203,387,4,0.114420388192049,1
203,388,4,0.0732854090063492,1
192,384,5,0.0591420600859179,1
192,385,5,0.063911437726979,1
193,383,5,0.0582840498803488,1
193,384,5,0.0577096646454483,1
193,385,5,0.0584064761858575,1
194,382,5,0.0575508011672727,1
194,383,5,0.0607745444899353,1
194,384,5,0.0591015186452179,1
195,382,5,0.0590580582207875,1
195,383,5,0.0609735543140433,1
195,384,5,0.0601691413673138,1
195,385,5,0.0572516613558067,1
196,382,5,0.0584938510988541,1
196,383,5,0.0598413837214163,1
196,384,5,0.059923958527834,1
196,385,5,0.0574613564294491,1
197,383,5,0.0588554630590874,1
197,384,5,0.0600445980614834,1
197,385,5,0.0586760664468729,1
198,385,5,0.0577707215293767,1
199,385,5,0.0587137006977161,1
199,386,5,0.06069774868161,1
200,385,5,0.0674169072066512,1
200,386,5,0.076825599650071,1
200,387,5,0.0701941049879311,1
201,384,5,0.0612568431593127,1
201,385,5,0.0937469070566331,1
201,386,5,0.114201906682531,1
201,387,5,0.0998245024424169,1
201,388,5,0.0680357435513693,1
202,385,5,0.110419269378018,1
202,386,5,0.138794574591675,1
202,387,5,0.116629180232373,1
202,388,5,0.0750271223712517,1
203,386,5,0.113528724167996,1
203,387,5,0.100656112061802,1
203,388,5,0.068104832063259,1
155,455,6,0.0673143181966356,1
156,455,6,0.0609222332728198,1
192,384,6,0.0619304207686152,1
192,385,6,0.0644420617936708,1
193,383,6,0.0569773830300122,1
193,384,6,0.0601906946714241,1
193,385,6,0.0615255134981828,1
194,383,6,0.0585586466407321,1
194,384,6,0.05968830513827,1
194,385,6,0.0574738402447163,1
195,383,6,0.0615531524411007,1
195,384,6,0.0633751290131839,1
195,385,6,0.0593884812821318,1
196,382,6,0.0570970672598954,1
196,383,6,0.0611467414517768,1
196,384,6,0.0628740132183849,1
196,385,6,0.0583220261535281,1
197,383,6,0.0595974156509232,1
197,384,6,0.0613309204797597,1
197,385,6,0.0573033774917978,1
198,384,6,0.0577813124279217,1
199,385,6,0.0578653555716099,1
199,386,6,0.0605855653553735,1
200,385,6,0.0591254366209967,1
200,386,6,0.0663434052385368,1
200,387,6,0.0619105598853749,1
201,385,6,0.0708872958091272,1
201,386,6,0.0846317287469443,1
201,387,6,0.0771548197363022,1
201,388,6,0.0602499883712406,1
202,385,6,0.0812311657734616,1
202,386,6,0.102071164611057,1
202,387,6,0.0899910064637032,1
202,388,6,0.0651074662485282,1
203,386,6,0.0881477891251616,1
203,387,6,0.0818568779465224,1
203,388,6,0.0606151974629396,1
206,410,6,0.0569901616921208,1
155,455,7,0.0701387091633586,1
155,456,7,0.0601491153698422,1
156,455,7,0.0641629774643606,1
156,456,7,0.0588093784977681,1
191,384,7,0.0588180352010332,1
191,385,7,0.0572449624355689,1
192,383,7,0.05778282204375,1
192,384,7,0.0650089520218615,1
192,385,7,0.0677859493072892,1
193,384,7,0.0624880940845421,1
193,385,7,0.0655716318371562,1
194,383,7,0.0572471148175115,1
194,384,7,0.0603221727749654,1
194,385,7,0.0588578041430085,1
195,383,7,0.0618223770920327,1
195,384,7,0.0657557636896445,1
195,385,7,0.0601426464301407,1
196,383,7,0.0624186517564427,1
196,384,7,0.0654737014072356,1
196,385,7,0.0592145629242315,1
197,382,7,0.057892505068771,1
197,383,7,0.0598976463957026,1
197,384,7,0.0617477277687133,1
197,385,7,0.0576399746460022,1
198,384,7,0.0570811691182041,1
199,385,7,0.057421162908022,1
199,386,7,0.0600442501422105,1
200,386,7,0.0588997608485475,1
201,386,7,0.0629602736103208,1
201,387,7,0.0600070227800085,1
202,385,7,0.0598025936709545,1
202,386,7,0.0716397213607715,1
202,387,7,0.0687370721453896,1
203,386,7,0.0669700727153639,1
203,387,7,0.06791268627362,1
207,410,7,0.0573496507550957,1
207,411,7,0.0606417100909232,1
155,455,8,0.0663794237286888,1
155,456,8,0.0621292241999343,1
156,455,8,0.0631062581784617,1
156,456,8,0.061007550154863,1
161,448,8,0.0590593968254477,1
191,384,8,0.062724991727777,1
191,385,8,0.0651002071192916,1
192,383,8,0.057282808976138,1
192,384,8,0.0700901066100133,1
192,385,8,0.0764206569980176,1
192,386,8,0.0626395804947445,1
193,384,8,0.0642074757496729,1
193,385,8,0.0696279400829704,1
193,386,8,0.0591555640712565,1
194,384,8,0.059353040691789,1
194,385,8,0.0584502963234344,1
195,383,8,0.0595319124766257,1
195,384,8,0.0634279714641094,1
196,383,8,0.0612121325842745,1
196,384,8,0.0646956005926374,1
197,383,8,0.057519394081721,1
197,384,8,0.0596148528931268,1
199,386,8,0.0572893074005236,1
202,387,8,0.0587145380627459,1
203,387,8,0.0609039881502706,1
206,411,8,0.0628582978817354,1
206,412,8,0.0615077224397694,1
207,410,8,0.058124189819849,1
207,411,8,0.079045265641908,1
207,412,8,0.0806380990426866,1
207,413,8,0.0611820876911303,1
208,411,8,0.0690592866706678,1
208,412,8,0.0753195278808589,1
208,413,8,0.0609762610080479,1
155,455,9,0.0573509009057035,1
156,455,9,0.0596827266360296,1
161,448,9,0.0665983298176582,1
161,449,9,0.0626909133298417,1
190,384,9,0.0577826569295188,1
190,385,9,0.062477332174829,1
191,384,9,0.0698316674565417,1
191,385,9,0.079854077703512,1
191,386,9,0.0648004776141428,1
192,384,9,0.0745908787785095,1
192,385,9,0.0863645436341718,1
192,386,9,0.0710640152120213,1
193,384,9,0.0659304486493326,1
193,385,9,0.0733378445686334,1
193,386,9,0.063259955939975,1
194,384,9,0.0573321722343343,1
194,385,9,0.0574111617031599,1
195,384,9,0.0573812996150574,1
196,384,9,0.0591640438664167,1
206,411,9,0.059792952179239,1
206,412,9,0.0663422140572973,1
207,411,9,0.0782359582376103,1
207,412,9,0.0941504993101527,1
207,413,9,0.0753504514175906,1
208,411,9,0.0738112329664621,1
208,412,9,0.0947699489363011,1
208,413,9,0.079037776532135,1
209,412,9,0.0666889657367213,1
209,413,9,0.0617229488401574,1
154,449,10,0.0958932741236845,1
155,450,10,0.0655121848169822,1
156,454,10,0.0670359414997448,1
156,455,10,0.0650721730816061,1
157,454,10,0.0576178493390194,1
161,448,10,0.0682747758857364,1
161,449,10,0.0688552408625077,1
166,396,10,0.0594348665872294,1
190,385,10,0.0657947660298321,1
191,384,10,0.0725994242419582,1
191,385,10,0.0907275338736563,1
191,386,10,0.0739974228499037,1
192,384,10,0.0761007127934186,1
192,385,10,0.0948439790812535,1
192,386,10,0.0797796347729816,1
193,384,10,0.0683721520035951,1
193,385,10,0.0797101275785772,1
193,386,10,0.0706014064147162,1
194,385,10,0.0593176708646881,1
206,412,10,0.0621287229603038,1
206,413,10,0.057400600289299,1
207,411,10,0.0650670427465648,1
207,412,10,0.0854024524935693,1
207,413,10,0.0755221938058009,1
208,411,10,0.0641131955236494,1
208,412,10,0.0882534681300757,1
208,413,10,0.0789658221089465,1
209,412,10,0.0606023657283995,1
153,449,11,0.163075766297506,1
154,448,11,0.127318003310399,1
154,449,11,0.165965206374391,1
154,450,11,0.128784665850782,1
155,449,11,0.109138596225224,1
155,450,11,0.0884429838858889,1
155,451,11,0.0591980220164259,1
156,450,11,0.056936747238323,1
156,454,11,0.0736328860090032,1
156,455,11,0.0723907965138819,1
157,454,11,0.0645945388892605,1
157,455,11,0.0611218504814212,1
161,448,11,0.061075105463177,1
161,449,11,0.0643997335811116,1
165,396,11,0.0703370408397314,1
166,395,11,0.0689831218345833,1
166,396,11,0.0587319163355812,1
167,394,11,0.0617033945976322,1
190,385,11,0.0641054292578455,1
191,384,11,0.0688359283943924,1
191,385,11,0.0893575280248385,1
191,386,11,0.0777082885362699,1
192,384,11,0.0702569191590345,1
192,385,11,0.091847710096773,1
192,386,11,0.0828739226414352,1
192,387,11,0.0603271792743333,1
193,384,11,0.0640445080034642,1
193,385,11,0.0786154732980568,1
193,386,11,0.0739199960693378,1
193,387,11,0.0575622235339106,1
194,385,11,0.0611398184479394,1
194,386,11,0.0582140827248717,1
207,412,11,0.0660354023310167,1
207,413,11,0.0645377749753437,1
208,412,11,0.0662559359745509,1
152,449,12,0.144117916375397,1
153,448,12,0.157465338041196,1
153,449,12,0.240479065260975,1
153,450,12,0.196328121321786,1
154,448,12,0.158175588700639,1
154,449,12,0.230352208468888,1
154,450,12,0.181305993184273,1
154,451,12,0.0887278943887863,1
155,449,12,0.127768104704689,1
155,450,12,0.101569582958249,1
155,451,12,0.0636802954940892,1
156,450,12,0.0570484352218659,1
156,454,12,0.0674415269179127,1
156,455,12,0.0713135971663756,1
157,454,12,0.0604972351386106,1
157,455,12,0.0606716075606467,1
164,398,12,0.0706941416432904,1
165,396,12,0.0703355371208399,1
165,397,12,0.0704117727201664,1
166,395,12,0.0698850052501608,1
166,396,12,0.0587569783171048,1
182,386,12,0.0575896914656605,1
183,386,12,0.0571559658649443,1
191,384,12,0.0594726836431144,1
191,385,12,0.076027001083055,1
191,386,12,0.0730036887462763,1
192,384,12,0.0613108532037303,1
192,385,12,0.0806838238908593,1
192,386,12,0.08095723536694,1
192,387,12,0.0641561252237652,1
193,384,12,0.0573046276424056,1
193,385,12,0.0736547164691444,1
193,386,12,0.0776473495910781,1
193,387,12,0.0641726189560761,1
194,385,12,0.0624813361949359,1
194,386,12,0.0656796283382441,1
206,411,12,0.0575844962643141,1
152,449,13,0.173371865176588,1
152,450,13,0.150051567533183,1
153,448,13,0.18793795960136,1
153,449,13,0.298200146376125,1
153,450,13,0.247646343809533,1
153,451,13,0.115547670224045,1
154,448,13,0.178113202883027,1
154,449,13,0.270895583364147,1
154,450,13,0.215919526342938,1
154,451,13,0.103935150961111,1
155,449,13,0.138247197327452,1
155,450,13,0.109926592099822,1
155,451,13,0.0692721130177664,1
156,455,13,0.0606206580264434,1
164,398,13,0.0672701501397857,1
165,397,13,0.065995090870853,1
166,396,13,0.058406493876668,1
181,386,13,0.0585021421920358,1
182,386,13,0.0590773824827765,1
183,386,13,0.0584076909548443,1
183,387,13,0.0575253676787288,1
191,385,13,0.0629901828739179,1
191,386,13,0.0655507979593391,1
192,385,13,0.0690630901949225,1
192,386,13,0.0771442524255045,1
192,387,13,0.065716342666942,1
193,385,13,0.0678535576880347,1
193,386,13,0.0810222667862911,1
193,387,13,0.0706508640239017,1
194,385,13,0.0619838470162868,1
194,386,13,0.0718511442369048,1
194,387,13,0.0626176851682981,1
204,417,13,0.0574871909096973,1
204,422,13,0.0593202950015771,1
205,411,13,0.0598827743210196,1
206,411,13,0.0720087752552831,1
206,412,13,0.061629323174122,1
208,416,13,0.067260891948964,1
208,417,13,0.0699400472585235,1
152,449,14,0.167790756490192,1
152,450,14,0.142816839821175,1
153,448,14,0.187109734823714,1
153,449,14,0.291218196758232,1
153,450,14,0.241962687391679,1
153,451,14,0.117604403851294,1
154,448,14,0.170584253404868,1
154,449,14,0.257019359785136,1
154,450,14,0.20844216326816,1
154,451,14,0.106001661709623,1
155,449,14,0.130412562437947,1
155,450,14,0.106268380162403,1
155,451,14,0.0705502976632185,1
165,397,14,0.0615196460460378,1
191,386,14,0.0596794774238368,1
192,385,14,0.061903860965137,1
192,386,14,0.0741351635003575,1
192,387,14,0.0677602445596512,1
193,385,14,0.06537631939244,1
193,386,14,0.0827951454623354,1
193,387,14,0.077211719279766,1
194,385,14,0.0616474090793768,1
194,386,14,0.0740779926977995,1
194,387,14,0.0685448732833191,1
204,417,14,0.0619087672165788,1
204,422,14,0.0593675766410727,1
205,411,14,0.0600173424194594,1
206,411,14,0.0787278807078928,1
206,412,14,0.0660318051995509,1
207,411,14,0.0576259753179699,1
207,416,14,0.0638260618755675,1
207,417,14,0.0618491727729841,1
208,398,14,0.0580218013056856,1
208,415,14,0.0695974647134377,1
208,416,14,0.0841573437667915,1
208,417,14,0.0830776736027538,1
208,418,14,0.0663045680125804,1
209,416,14,0.08352385943099,1
209,417,14,0.082191706019678,1
153,449,15,0.223279563962564,1
153,450,15,0.187860214386205,1
154,449,15,0.198537196415078,1
154,450,15,0.166678157830901,1
155,451,15,0.0661671870752731,1
192,386,15,0.0652461268211274,1
192,387,15,0.062108944634179,1
193,385,15,0.0599529419723489,1
193,386,15,0.0730364285395514,1
193,387,15,0.0712391660297189,1
194,385,15,0.0570756495853321,1
194,386,15,0.0664617272760124,1
194,387,15,0.0646335353325113,1
204,417,15,0.0604162525051367,1
206,411,15,0.0781097107170364,1
206,412,15,0.0746920820083703,1
207,398,15,0.0575872678246238,1
207,416,15,0.06897005422257,1
207,417,15,0.0635487820089269,1
208,398,15,0.0579258463496027,1
208,415,15,0.0773224165779217,1
208,416,15,0.097775865309434,1
208,417,15,0.0925566280484923,1
208,418,15,0.0737150362359692,1
209,412,15,0.0583227455798213,1
209,416,15,0.0965010006394166,1
209,417,15,0.0938614314667909,1
209,418,15,0.0767773980884301,1
210,417,15,0.0624743542217303,1
159,427,16,0.0670217357789235,1
159,428,16,0.0603916799693699,1
160,426,16,0.0627873695255551,1
160,427,16,0.0827237512481457,1
160,428,16,0.0745886733241354,1
161,427,16,0.0631557157876473,1
193,386,16,0.0610547964127377,1
193,387,16,0.0623067455862371,1
194,386,16,0.0582865678723748,1
194,387,16,0.0585971772259734,1
206,411,16,0.0684338044781433,1
206,412,16,0.0746632636780865,1
207,416,16,0.0677312964967572,1
207,417,16,0.0644480707722996,1
208,416,16,0.0917851730817005,1
208,417,16,0.0878192648774763,1
208,418,16,0.0716020104497495,1
209,417,16,0.0881821210913805,1
159,427,17,0.0658842933247713,1
159,428,17,0.0669113392245462,1
160,426,17,0.06637244765242,1
160,427,17,0.0886412624898301,1
160,428,17,0.0875119283238179,1
160,429,17,0.0569864584157922,1
161,426,17,0.0628369332796036,1
161,427,17,0.0720297447626474,1
161,428,17,0.0656596259285199,1
163,423,17,0.059570649454656,1
206,411,17,0.0574879987900429,1
206,412,17,0.0660350426178701,1
207,416,17,0.058007743008285,1
207,417,17,0.060502949270398,1
208,417,17,0.0700265199401852,1
208,418,17,0.0595267526569003,1
160,427,18,0.0696707105657917,1
160,428,18,0.075110505058015,1
161,426,18,0.0636391112872749,1
161,427,18,0.0652453720132133,1
161,428,18,0.0636266097811972,1
163,423,18,0.0593907339120005,1
160,428,19,0.057890022458366,1
161,428,19,0.0581332769995027,1
162,429,20,0.0586469591666845,1
162,429,21,0.0577208688254236,1
171,439,21,0.0584974305395093,1
172,439,21,0.057647192496681,1
171,439,22,0.0575614746229333,1
210,420,22,0.0585535870689327,1
210,420,23,0.0600623360474653,1
167,426,24,0.058223765495145,1
167,427,24,0.0627149964198517,1
167,428,24,0.057748283684742,1
168,426,24,0.0619713926857037,1
168,427,24,0.0656388274323237,1
168,428,24,0.0569316110063448,1
209,420,24,0.058084615476789,1
210,420,24,0.0591719103801467,1
167,426,25,0.0668683092765043,1
167,427,25,0.073041134295141,1
167,428,25,0.0623922570671957,1
168,426,25,0.0756623286126074,1
168,427,25,0.0864841629977498,1
168,428,25,0.0722591002236779,1
169,427,25,0.0790775395771736,1
169,428,25,0.0695006547015145,1
167,426,26,0.0676523306156789,1
167,427,26,0.0762202437029442,1
167,428,26,0.0638995553992684,1
168,426,26,0.0795886683707084,1
168,427,26,0.0983687197504831,1
168,428,26,0.0825161849686986,1
169,426,26,0.0736800320189517,1
169,427,26,0.090751835150329,1
169,428,26,0.0788085920822725,1
170,427,26,0.0590833796675316,1
167,427,27,0.0687145340528288,1
167,428,27,0.0607784600559898,1
168,426,27,0.0710068856880211,1
168,427,27,0.0890919535778037,1
168,428,27,0.0776859863211823,1
169,426,27,0.0672776805281165,1
169,427,27,0.0828505589777184,1
169,428,27,0.0719547180353709,1
167,427,28,0.0591246641222721,1
168,426,28,0.0610243210432049,1
168,427,28,0.074017354496386,1
168,428,28,0.0688656902345688,1
169,426,28,0.0602195012078342,1
169,427,28,0.0700308659826283,1
169,428,28,0.0626731635499862,1
