x,y,z,signal,cytoplasm.p
435,598,32,0.0973914322036721,1
440,591,32,0.133965962220166,1
440,592,32,0.175013690328542,1
440,593,32,0.120948898749406,1
441,591,32,0.187293601314045,1
441,592,32,0.247935175775421,1
441,593,32,0.163817353279258,1
442,590,32,0.090571695524074,1
442,591,32,0.161436995758829,1
442,592,32,0.200472193678427,1
442,593,32,0.130218529628522,1
443,592,32,0.108236966377931,1
452,613,32,0.111064924991435,1
452,614,32,0.104988166970681,1
452,615,32,0.0929520471475667,1
453,611,32,0.120469760838169,1
454,611,32,0.129437551108751,1
434,598,33,0.109390654893047,1
434,599,33,0.103057002716271,1
434,600,33,0.12018176623731,1
434,601,33,0.147988229336685,1
434,602,33,0.099277148765941,1
435,596,33,0.106213750939618,1
435,597,33,0.130455256260589,1
435,598,33,0.141735577484193,1
435,599,33,0.122672408270317,1
435,600,33,0.108493306221891,1
435,601,33,0.114886529254515,1
435,602,33,0.0782133434848708,1
436,594,33,0.0754315578867379,1
436,595,33,0.0961267692343691,1
436,596,33,0.110522996496842,1
436,597,33,0.122360082908101,1
436,598,33,0.125557755873042,1
436,599,33,0.106810249687627,1
436,600,33,0.0875249192756524,1
436,601,33,0.0849688625224001,1
436,602,33,0.0714119462788111,1
437,593,33,0.0628692013179324,1
437,594,33,0.0732173229737205,1
437,595,33,0.0868820352225452,1
437,596,33,0.0873718937649375,1
437,597,33,0.08171156562918,1
437,598,33,0.0772201577963685,1
437,599,33,0.067959849974379,1
437,600,33,0.0622787233424253,1
437,601,33,0.0690958064004503,1
437,602,33,0.0717707984726084,1
438,593,33,0.0605376704344476,1
438,594,33,0.0693059201566075,1
438,595,33,0.0728648158839513,1
438,596,33,0.0634650808875749,1
439,591,33,0.0829835879756457,1
439,592,33,0.0996290897497746,1
439,593,33,0.0765855530425694,1
439,594,33,0.0608966759486025,1
439,595,33,0.0580180685446728,1
440,590,33,0.0791740547422553,1
440,591,33,0.176855327288014,1
440,592,33,0.253131273456246,1
440,593,33,0.159809063790043,1
440,594,33,0.0632939812654789,1
440,622,33,0.0729667208492948,1
441,590,33,0.0993098060021004,1
441,591,33,0.253615317618924,1
441,592,33,0.365650418451355,2
441,593,33,0.228499084276474,1
441,594,33,0.0722419460344421,1
441,620,33,0.0574471212239437,1
441,621,33,0.0667562969614358,1
441,622,33,0.0845399311313259,1
442,590,33,0.101266610137844,1
442,591,33,0.187451981243401,1
442,592,33,0.258229057406255,1
442,593,33,0.158559951043159,1
442,594,33,0.0581818323773534,1
442,620,33,0.0605165947822205,1
442,621,33,0.0720668954646706,1
443,591,33,0.112197148656494,1
443,592,33,0.110894468135454,1
443,593,33,0.0720919161676364,1
443,620,33,0.0624183804973486,1
443,621,33,0.0773609884417208,1
444,592,33,0.0777290280630978,1
444,620,33,0.0622033840774969,1
444,621,33,0.0808465734504053,1
445,592,33,0.075846000504023,1
445,620,33,0.0577117993365805,1
445,621,33,0.0783486310096037,1
446,590,33,0.0840567597152978,1
446,591,33,0.0818057750919615,1
446,592,33,0.0687935353155281,1
446,621,33,0.0674702862788281,1
447,589,33,0.0824678772621947,1
447,590,33,0.0730222405095406,1
447,591,33,0.0717032077826734,1
447,592,33,0.0658649159903509,1
447,593,33,0.0571597340075781,1
447,614,33,0.0589452910978049,1
447,621,33,0.0617933346781494,1
448,589,33,0.0805695766367326,1
448,590,33,0.07185448190315,1
448,591,33,0.0706770523203597,1
448,592,33,0.0667863654423273,1
448,593,33,0.0610050439567106,1
448,613,33,0.0607995298112801,1
448,614,33,0.0672652203005966,1
448,615,33,0.0581213003208028,1
449,590,33,0.075908726221074,1
449,591,33,0.0773958688230648,1
449,592,33,0.0747259893951375,1
449,593,33,0.0704689258319139,1
449,594,33,0.068032718422776,1
449,595,33,0.0638842528481969,1
449,596,33,0.05934472601086,1
449,597,33,0.057169292942178,1
449,613,33,0.0712410176678832,1
449,614,33,0.076056155538738,1
449,615,33,0.0616557709358005,1
450,591,33,0.112279493482375,1
450,592,33,0.107412385907246,1
450,593,33,0.0870659311975603,1
450,594,33,0.0811284824124567,1
450,595,33,0.0772021013757978,1
450,596,33,0.0706199640749173,1
450,597,33,0.0687741461872341,1
450,598,33,0.0696256520714807,1
450,599,33,0.0641011068031498,1
450,612,33,0.0647704209271249,1
450,613,33,0.0827551524367605,1
450,614,33,0.08368167325441,1
450,615,33,0.0660727653227658,1
451,592,33,0.167184598559657,1
451,593,33,0.114816910018311,1
451,594,33,0.0948269605215647,1
451,595,33,0.0935646091514987,1
451,596,33,0.087136328829426,1
451,597,33,0.0866283195154737,1
451,598,33,0.0916211261960521,1
451,599,33,0.0861941398506216,1
451,600,33,0.0702068246806714,1
451,601,33,0.0595205372854824,1
451,611,33,0.0609820989755087,1
451,612,33,0.073598111772522,1
451,613,33,0.0865739556548463,1
451,614,33,0.0863850472835265,1
451,615,33,0.0761790300114457,1
451,616,33,0.0668859293237497,1
451,617,33,0.0585815326525658,1
452,593,33,0.117749279795311,1
452,594,33,0.10192664248325,1
452,595,33,0.107301995249805,1
452,596,33,0.104206917191816,1
452,597,33,0.106073262316602,1
452,598,33,0.115314587898938,1
452,599,33,0.111541067258763,1
452,600,33,0.0924150190074785,1
452,601,33,0.0749501909333794,1
452,602,33,0.0656260310794046,1
452,603,33,0.0577435425475314,1
452,610,33,0.0675551196120514,1
452,611,33,0.0792341032499859,1
452,612,33,0.0894399789955828,1
452,613,33,0.0971883888747729,1
452,614,33,0.100023901464356,1
452,617,33,0.0774707835085415,1
453,594,33,0.103163607540267,1
453,595,33,0.112173643466293,1
453,596,33,0.112349902908115,1
453,597,33,0.116191898778749,1
453,598,33,0.1347393454853,1
453,600,33,0.139985130755847,1
453,601,33,0.100641428689098,1
453,602,33,0.0786956067726272,1
453,603,33,0.0696354350896801,1
453,604,33,0.0646020574837176,1
453,605,33,0.0632890691171002,1
453,606,33,0.0627427297137589,1
453,607,33,0.0659297646046604,1
453,608,33,0.065674804643918,1
453,609,33,0.0698882662562273,1
453,610,33,0.0853840776384098,1
453,611,33,0.0995815604389321,1
453,612,33,0.107447331154895,1
454,596,33,0.105933257242406,1
454,597,33,0.115922385177912,1
454,601,33,0.150005606807537,1
454,602,33,0.100789076193424,1
454,603,33,0.0866042659101479,1
454,604,33,0.0793408201157819,1
454,605,33,0.0758419846900424,1
454,606,33,0.080098116537247,1
454,607,33,0.0934523137834624,1
454,608,33,0.0905911023431785,1
454,609,33,0.0861270857819381,1
454,610,33,0.0974067760333014,1
455,602,33,0.121471803725788,1
455,603,33,0.101803832876848,1
455,604,33,0.0920580951120243,1
455,605,33,0.0894427269681451,1
455,606,33,0.0984547914404405,1
455,607,33,0.11744706178282,1
455,608,33,0.11328329365717,1
455,609,33,0.10193099442263,1
456,603,33,0.116769763206379,1
456,604,33,0.107722281731488,1
456,605,33,0.105450604756818,1
456,606,33,0.103385863089355,1
433,599,34,0.057026728597398,1
433,600,34,0.0622158325111431,1
433,601,34,0.0742010440786121,1
434,596,34,0.0899462487131704,1
434,597,34,0.0957385620890366,1
434,598,34,0.102842837764512,1
434,599,34,0.0816353300298536,1
434,600,34,0.0823446784579614,1
434,601,34,0.0945465906600257,1
434,602,34,0.0663208140735445,1
435,594,34,0.0761783813483945,1
435,595,34,0.112971062645943,1
435,596,34,0.142711591292649,1
435,597,34,0.145225384699647,1
435,598,34,0.14142432536448,1
435,599,34,0.104664012353186,1
435,600,34,0.0826361463546127,1
435,601,34,0.0790896106068627,1
436,593,34,0.0602493927806208,1
436,594,34,0.0856108030656146,1
436,595,34,0.137343975307214,1
436,596,34,0.164659789674662,1
436,597,34,0.140523768759689,1
436,598,34,0.116421065537801,1
436,599,34,0.0845907922114768,1
436,600,34,0.068745062494793,1
436,601,34,0.0640895959824594,1
437,593,34,0.0608321339750081,1
437,594,34,0.0906840675522891,1
437,595,34,0.126747710549658,1
437,596,34,0.126745151279074,1
437,597,34,0.0895108071038369,1
437,598,34,0.0666897382354459,1
437,602,34,0.056914869602687,1
438,591,34,0.0577297024367936,1
438,593,34,0.063633792250255,1
438,594,34,0.0910932559988595,1
438,595,34,0.106371376061059,1
438,596,34,0.0855110799668979,1
439,590,34,0.0642264226077047,1
439,591,34,0.0852162744040013,1
439,592,34,0.106800390009249,1
439,593,34,0.0805269122987741,1
439,594,34,0.0729698226380669,1
439,595,34,0.0734468494459191,1
439,596,34,0.0579892384205154,1
440,590,34,0.0825388881754906,1
440,591,34,0.180431760505487,1
440,592,34,0.270177926152047,2
440,593,34,0.166569689574867,1
440,594,34,0.0688262986965505,1
440,622,34,0.0572784747275686,1
440,623,34,0.0734749601437834,1
441,589,34,0.0652276635119155,1
441,590,34,0.104595324833001,1
441,591,34,0.253921486579091,2
441,592,34,0.383664451840094,2
441,593,34,0.240065689989256,2
441,594,34,0.0803990902960668,1
441,622,34,0.0662419661312028,1
441,623,34,0.0859297742756368,1
442,591,34,0.172773455821046,1
442,592,34,0.244358494886601,2
442,593,34,0.149757617026127,1
442,594,34,0.0579207219114982,1
442,621,34,0.058847301698516,1
442,622,34,0.0801106947035034,1
443,592,34,0.0971188757834316,1
443,593,34,0.0645841838681886,1
443,621,34,0.0657926018540158,1
444,592,34,0.0673589108329371,1
444,621,34,0.0683420776257668,1
445,591,34,0.084708613009322,1
445,592,34,0.0652221085974225,1
445,621,34,0.0678863859353622,1
445,622,34,0.0938871126266815,1
446,590,34,0.0757731851280574,1
446,591,34,0.0691189047020099,1
446,592,34,0.0600806991087511,1
446,621,34,0.0637338219896869,1
446,622,34,0.0833638165654485,1
447,588,34,0.102056056658901,1
447,589,34,0.0842645146967234,1
447,590,34,0.0692339362487349,1
447,591,34,0.0643730971174546,1
447,592,34,0.0584781357622046,1
447,621,34,0.063393828199869,1
447,622,34,0.0791673381312069,1
448,588,34,0.097142740686779,1
448,589,34,0.0818194382945946,1
448,590,34,0.0701644257048703,1
448,591,34,0.0680687840884227,1
448,592,34,0.0633826888861988,1
448,621,34,0.0640058889641705,1
449,589,34,0.0813791140215666,1
449,590,34,0.0748520246259856,1
449,591,34,0.0759313055921926,1
449,592,34,0.0739039622980995,1
449,593,34,0.0682193328856693,1
449,594,34,0.0628010563159354,1
450,590,34,0.0820306665718125,1
450,591,34,0.0879892322877011,1
450,592,34,0.0894943605470206,1
450,593,34,0.0832134800579277,1
450,594,34,0.0782209092548225,1
450,595,34,0.0684164497930553,1
450,596,34,0.0583379301921562,1
450,614,34,0.0631193022027276,1
451,591,34,0.105604597365173,1
451,592,34,0.110778793822614,1
451,593,34,0.0997490334448782,1
451,594,34,0.0920527465903204,1
451,595,34,0.0817582339872454,1
451,596,34,0.0711139681639005,1
451,597,34,0.0691074469537509,1
451,598,34,0.0731026039646474,1
451,599,34,0.0707658778798163,1
451,600,34,0.0589463348556236,1
451,613,34,0.0642891306339452,1
451,614,34,0.0696751332684136,1
451,615,34,0.068441747652052,1
451,616,34,0.0650309711839813,1
451,617,34,0.0581148018964171,1
452,592,34,0.110452362987503,1
452,593,34,0.102010190284245,1
452,594,34,0.0973470046816017,1
452,595,34,0.0916941007893121,1
452,596,34,0.0844015182300736,1
452,597,34,0.0855992509663664,1
452,598,34,0.0921866719226458,1
452,599,34,0.0908134168616351,1
452,600,34,0.0764527127466205,1
452,601,34,0.0615053695619746,1
452,611,34,0.0618674178955333,1
452,612,34,0.0715913723757098,1
452,613,34,0.0788348452450356,1
452,614,34,0.0855551418788848,1
452,615,34,0.0940588550148919,1
453,593,34,0.0980142548776867,1
453,594,34,0.0972228446766653,1
453,595,34,0.0954467993455438,1
453,596,34,0.0914769814722019,1
453,597,34,0.0951865911110235,1
453,598,34,0.108554893830134,1
453,599,34,0.123001646047359,1
453,600,34,0.110914104935095,1
453,601,34,0.0807316421516064,1
453,602,34,0.0613997200417447,1
453,610,34,0.0649032258414528,1
453,611,34,0.0791451361640454,1
453,612,34,0.0901681976215437,1
453,613,34,0.0952656572400279,1
453,614,34,0.0994642585715279,1
454,594,34,0.0953508090078399,1
454,595,34,0.0935730122864802,1
454,596,34,0.0933739140083197,1
454,597,34,0.101853850695032,1
454,598,34,0.132933491138508,1
454,600,34,0.17499169475417,1
454,601,34,0.119735556821326,1
454,602,34,0.0805031830249739,1
454,603,34,0.0673490216698748,1
454,604,34,0.0627161993949649,1
454,605,34,0.0617525455661026,1
454,606,34,0.0615594739573815,1
454,607,34,0.0651306412102666,1
454,608,34,0.0681977500968749,1
454,609,34,0.0712262989135578,1
454,610,34,0.0800493075911126,1
454,611,34,0.095189333186649,1
455,596,34,0.0966739754874243,1
455,597,34,0.107357650539598,1
455,601,34,0.147946997954376,1
455,602,34,0.102765611479798,1
455,603,34,0.083870162943215,1
455,604,34,0.0760409473386558,1
455,605,34,0.0753201116776049,1
455,606,34,0.0764758051512432,1
455,607,34,0.0811559385503329,1
455,608,34,0.0847648992713556,1
455,609,34,0.0879533022516014,1
455,610,34,0.0984067726838413,1
456,598,34,0.117737320807422,1
456,602,34,0.12078832515955,1
456,603,34,0.104279213637341,1
456,604,34,0.0927544938668555,1
456,605,34,0.0899602067626449,1
456,606,34,0.0899607610747068,1
456,607,34,0.09343625052754,1
456,608,34,0.0983128226862802,1
456,609,34,0.102105036616204,1
457,599,34,0.114220647147774,1
457,600,34,0.127077585195877,1
457,602,34,0.130627670899598,1
457,603,34,0.123030187221612,1
457,604,34,0.112401218052401,1
457,605,34,0.108085981207359,1
457,606,34,0.10570723944762,1
433,598,35,0.0575958478677101,1
434,595,35,0.0735179252255201,1
434,596,35,0.0852345549081715,1
434,597,35,0.0822574627622592,1
434,598,35,0.0842667319449711,1
434,599,35,0.0648011498649413,1
434,600,35,0.0587924189074476,1
434,601,35,0.0603002656546454,1
435,594,35,0.0734667457107804,1
435,595,35,0.115316545681966,1
435,596,35,0.146335966606543,1
435,597,35,0.127922934678074,1
435,598,35,0.113160094852937,1
435,599,35,0.0825555529189696,1
435,600,35,0.0646583673334986,1
435,601,35,0.0583762543846084,1
436,593,35,0.0596033420724365,1
436,594,35,0.0917442896186644,1
436,595,35,0.15488674909232,1
436,596,35,0.182885228248724,1
436,597,35,0.131204804107061,1
436,598,35,0.0900060613434279,1
436,599,35,0.0627282645277172,1
437,593,35,0.0637132770617743,1
437,594,35,0.10161185220144,1
437,595,35,0.147463720393485,1
437,596,35,0.143623470016152,1
437,597,35,0.0875930524837756,1
438,591,35,0.0579246669622369,1
438,592,35,0.0582088049664096,1
438,593,35,0.0720440625252684,1
438,594,35,0.109518217430534,1
438,595,35,0.132805787074537,1
438,596,35,0.102878419881339,1
438,597,35,0.0590975087281741,1
439,590,35,0.0644395261108343,1
439,591,35,0.0819454853193163,1
439,592,35,0.101006602399176,1
439,593,35,0.0830335586183354,1
439,594,35,0.0846460818911863,1
439,595,35,0.0873685973772501,1
439,596,35,0.06478028650244,1
440,590,35,0.0804125706936581,1
440,591,35,0.15152536536713,1
440,592,35,0.221964664988414,1
440,593,35,0.147174086444188,1
440,594,35,0.0749461161500305,1
441,589,35,0.0724241613824609,1
441,590,35,0.0991475694760586,1
441,591,35,0.204485625296557,1
441,592,35,0.306664986904554,2
441,593,35,0.207361537800356,1
441,594,35,0.0864113417248474,1
441,623,35,0.0705550329034922,1
442,591,35,0.146457101482886,1
442,592,35,0.191604002670888,1
442,593,35,0.13109296280316,1
442,594,35,0.0621903577440414,1
442,622,35,0.0667930997441862,1
442,623,35,0.0924489617758668,1
442,624,35,0.102191709793718,1
443,592,35,0.0869267340037097,1
443,593,35,0.0667603835386584,1
443,622,35,0.0800382567314949,1
444,592,35,0.061698158117728,1
444,621,35,0.056873296198042,1
444,622,35,0.0784793012327995,1
445,591,35,0.0725568778427363,1
445,592,35,0.0568543434430733,1
445,621,35,0.0583042174043043,1
445,622,35,0.0775708545265312,1
445,623,35,0.0988579709083821,1
446,589,35,0.0827225600669062,1
446,590,35,0.0688218583031182,1
446,591,35,0.0602109447524952,1
446,621,35,0.0595078234896789,1
446,622,35,0.0778346245108963,1
447,588,35,0.0958231182662289,1
447,589,35,0.0800477154181688,1
447,590,35,0.0654202515718167,1
447,591,35,0.0583050311815867,1
447,621,35,0.0633997133428244,1
448,588,35,0.091946006136777,1
448,589,35,0.0779987775414076,1
448,590,35,0.065972941976123,1
448,591,35,0.0624544697507426,1
448,592,35,0.0585049314431559,1
449,589,35,0.0793570720736828,1
449,590,35,0.0695021289357218,1
449,591,35,0.0694864666715037,1
449,592,35,0.0677244619469723,1
449,593,35,0.063180842635476,1
449,594,35,0.0580748383555264,1
450,590,35,0.0720547241870554,1
450,591,35,0.0730101635829147,1
450,592,35,0.0748039410030812,1
450,593,35,0.0754948497097245,1
450,594,35,0.0725937101101708,1
450,595,35,0.061831440683939,1
451,590,35,0.070751188610175,1
451,591,35,0.0731586661430816,1
451,592,35,0.0800722348815041,1
451,593,35,0.0862715430434402,1
451,594,35,0.0850319656434082,1
451,595,35,0.0717600778414532,1
451,596,35,0.0585938572505386,1
451,615,35,0.0568760618614148,1
451,616,35,0.0576638808279073,1
452,591,35,0.0725797402668227,1
452,592,35,0.0816493529456332,1
452,593,35,0.0902720249882934,1
452,594,35,0.0897813998441133,1
452,595,35,0.0792530147263968,1
452,596,35,0.0693156383085019,1
452,597,35,0.0681427670578805,1
452,598,35,0.0707814752777292,1
452,599,35,0.0692047110298099,1
452,600,35,0.0593419957291081,1
452,613,35,0.0618343596676694,1
452,614,35,0.0677987633510188,1
452,615,35,0.076210177631777,1
452,616,35,0.0815373170428173,1
453,592,35,0.0823645157534545,1
453,593,35,0.0901974287374054,1
453,594,35,0.0901217769348251,1
453,595,35,0.0844613839327625,1
453,596,35,0.0783363299993782,1
453,597,35,0.0793060222915534,1
453,598,35,0.0859706813264202,1
453,599,35,0.0930578205034701,1
453,600,35,0.0820542897007498,1
453,601,35,0.0625083382686763,1
453,611,35,0.0629842741432152,1
453,612,35,0.0746927365683583,1
453,613,35,0.0786995636172396,1
453,614,35,0.082018400943208,1
453,615,35,0.0926396274343617,1
454,593,35,0.0882906424198462,1
454,594,35,0.0890943300433458,1
454,595,35,0.0893360926594647,1
454,596,35,0.089023041974019,1
454,597,35,0.0941022151913962,1
454,598,35,0.111117903071908,1
454,599,35,0.134660821874484,1
454,600,35,0.124481954099565,1
454,601,35,0.0907794505054996,1
454,602,35,0.0645080485167883,1
454,609,35,0.0601385185743603,1
454,610,35,0.0683431213835855,1
454,611,35,0.0826877799334882,1
455,595,35,0.0940961531403359,1
455,596,35,0.0994184629601132,1
455,597,35,0.109815187169247,1
455,598,35,0.129191011973801,1
455,600,35,0.150675546006816,1
455,601,35,0.11791963050643,1
455,602,35,0.0858388612005428,1
455,603,35,0.069159959176214,1
455,604,35,0.061922595533443,1
455,605,35,0.0626230277930653,1
455,606,35,0.0633421179608147,1
455,607,35,0.0649360422949067,1
455,608,35,0.0705053453137704,1
455,609,35,0.0789065225121932,1
455,610,35,0.0874423857477925,1
456,597,35,0.122530327474357,1
456,598,35,0.126913438062302,1
456,599,35,0.136635104530989,1
456,600,35,0.134595802249007,1
456,601,35,0.122987800039684,1
456,602,35,0.104040835862962,1
456,603,35,0.0902122005641623,1
456,604,35,0.0782714165187636,1
456,605,35,0.0761196242698295,1
456,606,35,0.078949210437899,1
456,607,35,0.0839535279391678,1
456,608,35,0.091206718960388,1
456,609,35,0.0987015900406115,1
457,599,35,0.120742305464536,1
457,600,35,0.115355819281247,1
457,601,35,0.115241406912889,1
457,602,35,0.110854038736553,1
457,603,35,0.107931705546036,1
457,604,35,0.0966408700840658,1
457,605,35,0.0919621283620678,1
457,606,35,0.0940507349328782,1
457,607,35,0.0989692579002206,1
457,608,35,0.105337713798162,1
457,609,35,0.111232268264771,1
458,602,35,0.105074167897397,1
458,603,35,0.11008108005087,1
434,595,36,0.0647269133271999,1
434,596,36,0.0736317125185742,1
434,597,36,0.0681787265786642,1
434,598,36,0.0668373503581516,1
435,594,36,0.068366048673977,1
435,595,36,0.101265654834078,1
435,596,36,0.124004974467207,1
435,597,36,0.0995219659953374,1
435,598,36,0.0820796111474939,1
435,599,36,0.0654209709981099,1
436,593,36,0.0598184387402143,1
436,594,36,0.0895431635962182,1
436,595,36,0.142820720005608,1
436,596,36,0.16239564898526,1
436,597,36,0.108614252396256,1
436,598,36,0.0680448543187703,1
437,593,36,0.0645476582414693,1
437,594,36,0.09856756446036,1
437,595,36,0.13829616549088,1
437,596,36,0.132727912126772,1
437,597,36,0.0787251386322673,1
438,591,36,0.0581684168460672,1
438,592,36,0.0607582158718555,1
438,593,36,0.074669113439421,1
438,594,36,0.108078197250744,1
438,595,36,0.129592357494389,1
438,596,36,0.101668439207252,1
438,597,36,0.0580116703682132,1
439,590,36,0.0636790158587973,1
439,591,36,0.0745893927504285,1
439,592,36,0.0862103682207753,1
439,593,36,0.0796414872338866,1
439,594,36,0.0846536594550117,1
439,595,36,0.0866276649554857,1
439,596,36,0.0643565444157754,1
440,590,36,0.0745242315984671,1
440,591,36,0.111074654937203,1
440,592,36,0.147071904322813,1
440,593,36,0.112792916184337,1
440,594,36,0.0740485257044646,1
440,595,36,0.0582649850835803,1
441,589,36,0.0761958775599664,1
441,590,36,0.088685636939469,1
441,591,36,0.139258415848777,1
441,592,36,0.192312625775766,1
441,593,36,0.147705424040236,1
441,594,36,0.0802630184787356,1
442,591,36,0.117536577283886,1
442,592,36,0.128654319959112,1
442,593,36,0.102633944674278,1
442,594,36,0.0605285655639835,1
442,623,36,0.0731804199430441,1
442,625,36,0.0967925569901204,1
443,592,36,0.0758116036714989,1
443,593,36,0.0653217609328973,1
443,622,36,0.0630612291688348,1
443,623,36,0.0878729211056841,1
443,624,36,0.0984358799640296,1
444,592,36,0.056925637409337,1
444,622,36,0.0645067393968122,1
444,623,36,0.0844403849407141,1
445,591,36,0.0688374910826521,1
445,622,36,0.067546197546629,1
445,623,36,0.084278054063683,1
446,589,36,0.076154315949195,1
446,590,36,0.0637890939785859,1
446,622,36,0.0740394326278741,1
447,589,36,0.0738881290227134,1
447,590,36,0.0619683852479209,1
447,621,36,0.0607503906366833,1
448,588,36,0.0846708195411843,1
448,589,36,0.0734788049465959,1
448,590,36,0.062640217363922,1
448,591,36,0.0573995447376066,1
449,589,36,0.0771465994063624,1
449,590,36,0.0661769288149148,1
449,591,36,0.0642076172761568,1
449,592,36,0.0619166160394983,1
449,593,36,0.057188027510484,1
450,590,36,0.0675076374767036,1
450,591,36,0.0666445500085246,1
450,592,36,0.0663080472053095,1
450,593,36,0.0671691238180298,1
450,594,36,0.0651300927951415,1
451,590,36,0.0645517330248182,1
451,591,36,0.062797759928248,1
451,592,36,0.0669057725161795,1
451,593,36,0.0755037540843364,1
451,594,36,0.0764060679763024,1
451,595,36,0.063075676664066,1
452,591,36,0.0611212254061173,1
452,592,36,0.0687860108241342,1
452,593,36,0.0803304853329972,1
452,594,36,0.0815263133586942,1
452,595,36,0.0696410017980468,1
452,596,36,0.0581546062200135,1
452,615,36,0.0589364928680559,1
452,616,36,0.0634763145522343,1
452,617,36,0.0609647973628521,1
453,591,36,0.0642043857547744,1
453,592,36,0.0723008151548069,1
453,593,36,0.0809135626527837,1
453,594,36,0.0820632766324773,1
453,595,36,0.0763218243367621,1
453,596,36,0.0695884365031523,1
453,597,36,0.0669984133937645,1
453,598,36,0.0674051958901087,1
453,599,36,0.067007193932703,1
453,600,36,0.0581001951838915,1
453,612,36,0.0603089754303419,1
453,613,36,0.0649966745993833,1
453,614,36,0.0678690784257688,1
453,615,36,0.0748124679737361,1
454,592,36,0.0746316030242511,1
454,593,36,0.0792380954762192,1
454,594,36,0.0826339703849228,1
454,595,36,0.0860291435581438,1
454,596,36,0.0865623209984826,1
454,597,36,0.0866224579602656,1
454,598,36,0.0910572493025811,1
454,599,36,0.0942900974957077,1
454,600,36,0.0833068462587427,1
454,601,36,0.0653819509671118,1
454,611,36,0.0685880565517185,1
454,612,36,0.0845421542765105,1
455,594,36,0.0853723250433095,1
455,595,36,0.0919638561645587,1
455,596,36,0.100223052814948,1
455,597,36,0.111270669117402,1
455,598,36,0.121821279790028,1
455,599,36,0.122670863272868,1
455,600,36,0.108214062675286,1
455,601,36,0.0889398361953605,1
455,602,36,0.0697259117914488,1
455,603,36,0.0571826436071591,1
455,608,36,0.0588948545971057,1
455,609,36,0.0680414871678409,1
455,610,36,0.0752096207722383,1
455,611,36,0.0878964793683163,1
456,596,36,0.112520418733464,1
456,597,36,0.147464298293294,1
456,598,36,0.164992164622096,1
456,599,36,0.143642281244637,1
456,600,36,0.11343324096686,1
456,601,36,0.0991357873962741,1
456,602,36,0.0868267986152671,1
456,603,36,0.076291844309923,1
456,604,36,0.0663133957270135,1
456,605,36,0.0637826545235685,1
456,606,36,0.066598441859458,1
456,607,36,0.071383865065631,1
456,608,36,0.0804153481509046,1
456,609,36,0.0901354696221422,1
456,610,36,0.0943607781805412,1
457,597,36,0.175362199295141,1
457,598,36,0.19517398463947,1
457,599,36,0.155675476187084,1
457,600,36,0.108439349249905,1
457,601,36,0.0968943145320432,1
457,602,36,0.0945587560407041,1
457,603,36,0.0926380942307861,1
457,604,36,0.0832770195522612,1
457,605,36,0.0786204267249932,1
457,606,36,0.081400490417572,1
457,607,36,0.0864744389489187,1
457,608,36,0.0937762973897893,1
457,609,36,0.102053450212823,1
434,595,37,0.058696693931901,1
434,596,37,0.0650875051173618,1
434,597,37,0.0613894298869779,1
434,598,37,0.0574666636725953,1
435,594,37,0.0644236869385114,1
435,595,37,0.0823849073610094,1
435,596,37,0.0949767898925182,1
435,597,37,0.07740997429596,1
435,598,37,0.0630112349383978,1
436,593,37,0.0596001990051066,1
436,594,37,0.0812122542970507,1
436,595,37,0.110228279387998,1
436,596,37,0.119242254467826,1
436,597,37,0.0832893205624866,1
437,593,37,0.0628636994758708,1
437,594,37,0.0853348323189501,1
437,595,37,0.106411345498887,1
437,596,37,0.102443579759562,1
437,597,37,0.0669894441528475,1
438,592,37,0.0582116826715822,1
438,593,37,0.0696690712173533,1
438,594,37,0.0897767353670815,1
438,595,37,0.09984143844499,1
438,596,37,0.0830472218209684,1
439,590,37,0.0577225199677357,1
439,591,37,0.0627814666917892,1
439,592,37,0.0691461544470971,1
439,593,37,0.0710124464994509,1
439,594,37,0.075685975329292,1
439,595,37,0.074092398914473,1
439,596,37,0.057956681432282,1
440,590,37,0.0645912660893204,1
440,591,37,0.0766339668939362,1
440,592,37,0.0881076073976082,1
440,593,37,0.0801759620003278,1
440,594,37,0.0674602261045977,1
440,595,37,0.0572075463713883,1
441,589,37,0.0759596934460878,1
441,590,37,0.07744954863902,1
441,591,37,0.0902545582614056,1
441,592,37,0.106357270588164,1
441,593,37,0.093354790242183,1
441,594,37,0.0671806346387201,1
442,591,37,0.093850315740868,1
442,592,37,0.0856494633834661,1
442,593,37,0.0759932057380875,1
443,592,37,0.0685645572584546,1
443,593,37,0.0600009253473272,1
443,623,37,0.0677057509664136,1
443,625,37,0.096038374151301,1
444,591,37,0.102759018704423,1
444,623,37,0.0707914587917809,1
444,624,37,0.084038432035633,1
445,590,37,0.109943811155363,1
445,591,37,0.0686166154167818,1
445,622,37,0.0591110068165759,1
445,623,37,0.0763037266376336,1
446,588,37,0.083146744423833,1
446,589,37,0.0714622058714054,1
446,590,37,0.0621530006492292,1
446,622,37,0.0678600384216098,1
446,623,37,0.0843618849176453,1
447,588,37,0.0783487961238349,1
447,589,37,0.0684008818798265,1
447,590,37,0.0594618804548435,1
448,589,37,0.0697798923511823,1
448,590,37,0.0603545646489676,1
449,589,37,0.0739795315435643,1
449,590,37,0.0631170908514167,1
449,591,37,0.0589956214536412,1
450,590,37,0.0650961500267532,1
450,591,37,0.0628354649423331,1
450,592,37,0.0600139811654668,1
450,593,37,0.0579155561948359,1
451,590,37,0.063713082462859,1
451,591,37,0.0607308835696527,1
451,592,37,0.0619314940111181,1
451,593,37,0.0660903853700111,1
451,594,37,0.0645652429070936,1
452,590,37,0.0652010270482585,1
452,591,37,0.0592854264141067,1
452,592,37,0.0642024574564313,1
452,593,37,0.0724216964628663,1
452,594,37,0.0713999047338061,1
452,595,37,0.0605568767577,1
453,591,37,0.0627326813334022,1
453,592,37,0.0677305829674009,1
453,593,37,0.0738534078586637,1
453,594,37,0.0737018153035984,1
453,595,37,0.0692558315751813,1
453,596,37,0.0631798342592782,1
453,597,37,0.0576517980043445,1
453,614,37,0.0577629021911413,1
453,615,37,0.0611067425292651,1
453,616,37,0.0638883512192931,1
454,592,37,0.0706078399727967,1
454,593,37,0.0734850674935084,1
454,594,37,0.0776151405221176,1
454,595,37,0.0843666319517927,1
454,596,37,0.0849818534742346,1
454,597,37,0.0782703373793239,1
454,598,37,0.0731912054405045,1
454,599,37,0.0673428004015201,1
454,600,37,0.0584631280579745,1
454,611,37,0.0573231440240489,1
454,612,37,0.0709392124409705,1
455,593,37,0.0748122320962629,1
455,594,37,0.0803445731150819,1
455,595,37,0.091307639137281,1
455,596,37,0.0994270135185154,1
455,597,37,0.108780192198626,1
455,598,37,0.116971874819259,1
455,599,37,0.10041666104492,1
455,600,37,0.0793438393474384,1
455,601,37,0.065553628489017,1
455,609,37,0.0577345497188671,1
455,610,37,0.0642271479309347,1
455,611,37,0.073480249696119,1
456,595,37,0.0880960081228654,1
456,596,37,0.108214098056907,1
456,597,37,0.174426249275502,1
456,598,37,0.227476791307783,1
456,599,37,0.172934430402606,1
456,600,37,0.101945854703439,1
456,601,37,0.078329159324194,1
456,602,37,0.0719428062229761,1
456,603,37,0.0639088312809005,1
456,607,37,0.0597324555043093,1
456,608,37,0.0680400777999387,1
456,609,37,0.0782350678001491,1
456,610,37,0.0822022084641706,1
457,596,37,0.112847262354153,1
457,597,37,0.222053449269313,1
457,598,37,0.303430894457757,3
457,599,37,0.223220500243284,1
457,600,37,0.112430962201767,1
457,601,37,0.0827293946166911,1
457,602,37,0.0832219126775933,1
457,603,37,0.0793524842568298,1
457,604,37,0.0712754439850914,1
457,605,37,0.0680697865676837,1
457,606,37,0.0705451260496194,1
457,607,37,0.0744527489302249,1
457,608,37,0.0802237684672012,1
457,609,37,0.0891332675172282,1
458,598,37,0.238235068507782,1
458,599,37,0.174656536452552,1
458,602,37,0.0874967024329252,1
458,603,37,0.0890961639906996,1
458,604,37,0.0850601471045144,1
458,605,37,0.0841112120299776,1
458,606,37,0.0868697283153829,1
458,607,37,0.0888785198462117,1
435,595,38,0.0638022500446516,1
435,596,38,0.068687891692235,1
435,597,38,0.0603810242045197,1
436,594,38,0.0662133482967712,1
436,595,38,0.076445276709279,1
436,596,38,0.0777730251087796,1
436,597,38,0.0607953547800051,1
437,594,38,0.0657429968214095,1
437,595,38,0.0719175732302844,1
437,596,38,0.06974471122606,1
438,593,38,0.0592396190088183,1
438,594,38,0.0657510166554971,1
438,595,38,0.0658937814961293,1
438,596,38,0.0586708240700318,1
439,592,38,0.0571819300778028,1
439,593,38,0.0600756690216359,1
439,594,38,0.0614671633082589,1
440,589,38,0.0588580223296712,1
440,590,38,0.059637827359013,1
440,591,38,0.0606624732054984,1
440,592,38,0.0600920448152103,1
440,593,38,0.0590796999789503,1
441,589,38,0.0729498379191531,1
441,590,38,0.0702744920307852,1
441,591,38,0.0664191042166118,1
441,592,38,0.064357523307289,1
441,593,38,0.0598239582730863,1
442,588,38,0.1051514885331,1
442,589,38,0.140442697672163,1
442,590,38,0.116768100270193,1
442,591,38,0.0754539426589411,1
442,592,38,0.0621165752704359,1
443,591,38,0.102811525029949,1
443,592,38,0.0601184807830151,1
443,624,38,0.0760000992572407,1
444,591,38,0.0919478047025099,1
444,623,38,0.0610187602317751,1
444,624,38,0.0791145546496498,1
445,588,38,0.10163135926847,1
445,590,38,0.099909512683745,1
445,591,38,0.0629971884348709,1
445,623,38,0.0686736152081718,1
446,588,38,0.0781461419927665,1
446,589,38,0.0685600402048435,1
446,590,38,0.0609724633807299,1
446,622,38,0.0612527329943428,1
446,623,38,0.0808972104469567,1
447,588,38,0.072772116036998,1
447,589,38,0.0649520583753345,1
447,590,38,0.0581592294184875,1
448,588,38,0.0754424790137453,1
448,589,38,0.0674380713129308,1
448,590,38,0.0597579479622215,1
449,589,38,0.0721618302506821,1
449,590,38,0.0630492701809454,1
450,589,38,0.0759756092785895,1
450,590,38,0.0655549199181826,1
450,591,38,0.0611473665270807,1
451,590,38,0.064623917428543,1
451,591,38,0.0609018829438226,1
451,592,38,0.0598339771687589,1
451,593,38,0.0594402740783017,1
452,590,38,0.0700713661447705,1
452,591,38,0.0612530809136157,1
452,592,38,0.0629934026014266,1
452,593,38,0.0671981131594816,1
452,594,38,0.0630012101457883,1
453,591,38,0.0676087109739541,1
453,592,38,0.066491689612041,1
453,593,38,0.0699781060888184,1
453,594,38,0.0680338683254577,1
453,595,38,0.0631957029162853,1
453,596,38,0.0572428159505631,1
453,617,38,0.0569713091850782,1
453,618,38,0.0617322718972842,1
454,592,38,0.0701118663069126,1
454,593,38,0.0710701834079445,1
454,594,38,0.0754646279084754,1
454,595,38,0.0817491114259708,1
454,596,38,0.0810032019895227,1
454,597,38,0.069361245217938,1
454,598,38,0.0585477314106615,1
454,612,38,0.0585602447106128,1
454,613,38,0.0665637737678398,1
454,615,38,0.0681091191363337,1
454,616,38,0.0683312803344327,1
455,593,38,0.0702491234085465,1
455,594,38,0.0787380293361757,1
455,595,38,0.0908446588329556,1
455,596,38,0.0961028689494008,1
455,597,38,0.101700400604865,1
455,598,38,0.111643143235275,1
455,599,38,0.0855479653067638,1
455,600,38,0.0603109980796743,1
455,611,38,0.0625401758306166,1
455,612,38,0.0756021503722665,1
455,616,38,0.0754717278204176,1
456,595,38,0.0844862395214971,1
456,596,38,0.101748071442192,1
456,597,38,0.179802262498982,1
456,598,38,0.265085520208425,3
456,599,38,0.189220036225119,1
456,600,38,0.0924391256852359,1
456,601,38,0.0630699625322787,1
456,602,38,0.0604959731941291,1
456,609,38,0.0644765293894368,1
456,610,38,0.0707522441618674,1
457,596,38,0.104648880813283,1
457,597,38,0.239866467875422,3
457,598,38,0.374037089185178,3
457,599,38,0.268992736200389,3
457,600,38,0.117021326531508,1
457,601,38,0.0738187456639823,1
457,602,38,0.0763536618987023,1
457,603,38,0.0701337321486749,1
457,604,38,0.0620402689078675,1
457,605,38,0.0601420036640263,1
457,606,38,0.062136271039445,1
457,607,38,0.0649265482266118,1
457,608,38,0.0684570207184394,1
457,609,38,0.0761275556498646,1
458,597,38,0.170409432815633,1
458,598,38,0.261322755581026,3
458,599,38,0.188338420581423,1
458,601,38,0.0759896086066218,1
458,602,38,0.0832165641558893,1
458,603,38,0.0816785781645581,1
458,604,38,0.0772308548397765,1
458,605,38,0.0754730546312042,1
458,606,38,0.0786867436765731,1
458,607,38,0.0824482050809329,1
458,608,38,0.0824527987947227,1
440,589,39,0.0590004805295883,1
440,590,39,0.0572033005768714,1
441,589,39,0.0694382061404945,1
441,590,39,0.0651575430360809,1
441,591,39,0.0584141952761668,1
442,589,39,0.104206905397943,1
442,590,39,0.0907670551442848,1
442,591,39,0.0653802762370523,1
443,588,39,0.128983522354533,1
443,589,39,0.162910923325386,1
443,590,39,0.138459982395992,1
443,591,39,0.0817878484040011,1
444,587,39,0.10573734920707,1
444,588,39,0.12453671305496,1
444,590,39,0.133926606063768,1
444,591,39,0.0786328397770184,1
444,624,39,0.0768130332776883,1
445,587,39,0.101857200155151,1
445,588,39,0.0935046019223259,1
445,589,39,0.100028831303545,1
445,590,39,0.0861300873227841,1
445,591,39,0.0582945877064624,1
445,623,39,0.06363820905594,1
445,624,39,0.0841557869754686,1
446,588,39,0.076247334230737,1
446,589,39,0.0684139494918397,1
446,590,39,0.0596331805727916,1
446,622,39,0.0591845946912661,1
447,588,39,0.070566048381489,1
447,589,39,0.0622210041247422,1
448,588,39,0.0730269403681934,1
448,589,39,0.0644114566915278,1
449,588,39,0.0821627520598472,1
449,589,39,0.0701281300586873,1
449,590,39,0.0614586894100355,1
450,589,39,0.077014089338876,1
450,590,39,0.065441392090349,1
450,591,39,0.0588990296283807,1
451,590,39,0.0669775795159473,1
451,591,39,0.0621917435241963,1
451,592,39,0.0578824095129196,1
452,590,39,0.0752210785204972,1
452,591,39,0.0655929787484775,1
452,592,39,0.0633794986433743,1
452,593,39,0.0621165870643095,1
453,591,39,0.0742190120451303,1
453,592,39,0.0677454255573997,1
453,593,39,0.0676857131750684,1
453,594,39,0.0637230836677211,1
453,595,39,0.0582031262162432,1
453,618,39,0.0580272146936947,1
454,592,39,0.0720480016790702,1
454,593,39,0.0707443717512006,1
454,594,39,0.0740759523576567,1
454,595,39,0.0780048160047206,1
454,596,39,0.0762308463953629,1
454,597,39,0.0656807959317363,1
454,613,39,0.0601553838136915,1
454,614,39,0.0638205954151269,1
454,615,39,0.0634611240429625,1
454,616,39,0.0633778357071885,1
454,617,39,0.0653596369581505,1
455,593,39,0.0708888231157659,1
455,594,39,0.0797368878779076,1
455,595,39,0.0910302649196512,1
455,596,39,0.0940723707941042,1
455,597,39,0.0972046939051054,1
455,598,39,0.109651712286471,1
455,599,39,0.0821667501830173,1
455,612,39,0.0666327797226137,1
455,616,39,0.0707364639589128,1
456,595,39,0.0893565845149458,1
456,596,39,0.102212773652071,1
456,597,39,0.165189535097766,1
456,598,39,0.252815928862373,1
456,599,39,0.180330203459417,1
456,600,39,0.0866471307439585,1
456,601,39,0.0580553548762431,1
456,610,39,0.0628911202321261,1
457,596,39,0.106293288823569,1
457,597,39,0.219501231421936,1
457,598,39,0.354743986610462,3
457,599,39,0.258780444587522,1
457,600,39,0.115142361961908,1
457,601,39,0.0722102264112384,1
457,602,39,0.073164863823689,1
457,603,39,0.0640401737548948,1
457,607,39,0.0582184346642515,1
457,608,39,0.0610281186705229,1
457,609,39,0.0674899879447741,1
458,597,39,0.14483010123012,1
458,598,39,0.229966360098287,1
458,599,39,0.16816028213965,1
458,600,39,0.0920593452626321,1
458,601,39,0.077469698472165,1
458,602,39,0.0837048128345273,1
458,603,39,0.0779928393260207,1
458,604,39,0.0736345548421258,1
458,605,39,0.0691765354656405,1
458,606,39,0.0720801694694729,1
458,607,39,0.0770280120067295,1
440,589,40,0.0577850923644292,1
441,589,40,0.0650079318517901,1
441,590,40,0.0602645714960189,1
442,589,40,0.0786271374391047,1
442,590,40,0.0702734895515243,1
443,588,40,0.0941061661390717,1
443,589,40,0.101137986151728,1
443,590,40,0.0874261043052073,1
443,591,40,0.0621508128856656,1
444,587,40,0.0919608369329022,1
444,588,40,0.0964390061425325,1
444,589,40,0.105381929030507,1
444,590,40,0.0905148372591679,1
444,591,40,0.0618754849051155,1
444,624,40,0.0729551156776151,1
445,587,40,0.0886333782852897,1
445,588,40,0.0828826442110054,1
445,589,40,0.0839028909426164,1
445,590,40,0.0704660186420572,1
445,623,40,0.0586253940687005,1
445,624,40,0.0804913478727579,1
446,588,40,0.0724688955452464,1
446,589,40,0.0667117102220711,1
446,622,40,0.0598850682294461,1
447,588,40,0.0684301424803724,1
447,589,40,0.0605050131982881,1
448,588,40,0.0708017902251054,1
448,589,40,0.0622208684951951,1
449,588,40,0.0791645960555814,1
449,589,40,0.0687357630254135,1
449,590,40,0.0593574044250425,1
450,589,40,0.0778695343769245,1
450,590,40,0.0645533664763198,1
451,590,40,0.0688496033908991,1
451,591,40,0.0616221996744325,1
452,590,40,0.0784276971386081,1
452,591,40,0.0678079212939144,1
452,592,40,0.0623991859679699,1
453,591,40,0.0784157204599082,1
453,592,40,0.0675309952434836,1
453,593,40,0.0634455974082915,1
453,594,40,0.0585431200060611,1
454,591,40,0.0880890025619124,1
454,592,40,0.0721835781537078,1
454,593,40,0.0688500987335927,1
454,594,40,0.0709368772539862,1
454,595,40,0.0723292560811336,1
454,596,40,0.0692012790125754,1
454,597,40,0.0616842649345586,1
454,614,40,0.0621570164632098,1
454,615,40,0.0602164053159989,1
454,616,40,0.0579772558448787,1
454,617,40,0.0582095715681974,1
455,592,40,0.073055245664973,1
455,593,40,0.0714694473098316,1
455,594,40,0.0802437472891781,1
455,595,40,0.0908896229762774,1
455,596,40,0.0931087641407366,1
455,597,40,0.0951041932127106,1
455,598,40,0.106031158187642,1
455,599,40,0.0833857590673895,1
455,612,40,0.0597383819258226,1
455,613,40,0.071127094745282,1
455,615,40,0.0722224094827273,1
456,594,40,0.0860738364423714,1
456,595,40,0.0991959597396781,1
456,596,40,0.111432905643444,1
456,597,40,0.151826179908655,1
456,598,40,0.216027581813394,1
456,599,40,0.164120644534252,1
456,600,40,0.0875202312108732,1
456,601,40,0.0582727218647001,1
456,611,40,0.0680055512348044,1
457,595,40,0.101787061988506,1
457,596,40,0.120124436217458,1
457,597,40,0.192258657009906,1
457,598,40,0.286787592241065,1
457,599,40,0.22085231400047,1
457,600,40,0.112602739971598,1
457,601,40,0.0744072245779043,1
457,602,40,0.0688251016183742,1
457,603,40,0.0574887712887675,1
457,609,40,0.0623209572039952,1
458,598,40,0.186188468176779,1
458,599,40,0.144831410350096,1
458,600,40,0.091905948244897,1
458,601,40,0.0813586280630223,1
458,602,40,0.0827324020544739,1
458,605,40,0.0641291762224562,1
458,606,40,0.0648367083940207,1
458,607,40,0.0717728624004986,1
459,601,40,0.0784939610177566,1
442,589,41,0.0652219847617491,1
442,590,41,0.0586309018076989,1
443,589,41,0.0717118703828754,1
443,590,41,0.0618177008211272,1
443,624,41,0.0616394069360998,1
443,625,41,0.0777262682966618,1
444,588,41,0.0781627477668772,1
444,589,41,0.0771440814143364,1
444,590,41,0.0642652421428506,1
444,624,41,0.0699838084267322,1
445,588,41,0.0746334605593523,1
445,589,41,0.0716719068419846,1
445,590,41,0.0576289473741318,1
445,623,41,0.0580123249282013,1
445,624,41,0.079962209834147,1
446,588,41,0.0694475527853686,1
446,589,41,0.0629233293010866,1
446,622,41,0.0614061830845093,1
447,588,41,0.0667197654377796,1
447,589,41,0.0577344907494988,1
448,588,41,0.0697732641941864,1
448,589,41,0.0597212218396499,1
448,621,41,0.0661209138119753,1
449,588,41,0.0787942035564096,1
449,589,41,0.0675060217160124,1
450,589,41,0.0776022616120829,1
450,590,41,0.0630357720925436,1
451,590,41,0.0707559887167539,1
451,591,41,0.0613970015538664,1
451,621,41,0.0693742951391408,1
452,591,41,0.0736286579052967,1
452,592,41,0.0635194211604549,1
453,591,41,0.086876350575442,1
453,592,41,0.0719618356381236,1
453,593,41,0.0598934123950593,1
454,591,41,0.0966864828904388,1
454,592,41,0.077340449410745,1
454,593,41,0.0683772882355733,1
454,594,41,0.0675945819133116,1
454,595,41,0.0660953152092002,1
454,596,41,0.0618758976906935,1
454,597,41,0.0568850428962055,1
454,614,41,0.0599710042898564,1
454,615,41,0.0574431231007736,1
455,591,41,0.0939097804518526,1
455,592,41,0.0772330367064032,1
455,593,41,0.0735993619231298,1
455,594,41,0.0800794350413724,1
455,595,41,0.0878025293707553,1
455,596,41,0.0894980933080334,1
455,597,41,0.0892041428009771,1
455,598,41,0.095780259329355,1
455,599,41,0.0817490288688552,1
455,600,41,0.0609859555721949,1
455,613,41,0.0675486742600972,1
455,615,41,0.0701277054792356,1
456,593,41,0.0818964228048983,1
456,594,41,0.0894792466979277,1
456,595,41,0.103327778261589,1
456,596,41,0.114615352717492,1
456,597,41,0.133771233572195,1
456,598,41,0.167702668047839,1
456,599,41,0.139485978641012,1
456,600,41,0.0911219033179752,1
456,601,41,0.0632994654167299,1
456,611,41,0.0622441437048595,1
456,612,41,0.072967853061166,1
457,594,41,0.0972340016811459,1
457,595,41,0.107384469808297,1
457,596,41,0.125182286111261,1
457,597,41,0.161119304184098,1
457,598,41,0.208661128326497,1
457,599,41,0.172424416130132,1
457,600,41,0.109193024952157,1
457,601,41,0.0786890552758101,1
457,602,41,0.0643578358449409,1
458,597,41,0.120311251176203,1
458,598,41,0.146547831752939,1
458,599,41,0.123073388180821,1
458,600,41,0.0926618294015232,1
458,601,41,0.0848150763068343,1
458,605,41,0.0647719895123214,1
458,606,41,0.0611701404971146,1
458,607,41,0.0681775412943616,1
459,599,41,0.0839997127484132,1
459,600,41,0.0800933812969732,1
442,625,42,0.064567920116414,1
443,624,42,0.057635840893285,1
443,625,42,0.0737020040055769,1
443,626,42,0.0892216567033595,1
444,589,42,0.0596687626896184,1
444,624,42,0.0674653092641444,1
444,625,42,0.0882197789299711,1
445,589,42,0.0613845000477888,1
445,624,42,0.0784566275106916,1
446,588,42,0.0669164223840929,1
446,589,42,0.0584034746450115,1
446,622,42,0.0570252307754434,1
446,623,42,0.0917099694463192,1
447,622,42,0.10741436727802,1
448,588,42,0.0688540850628892,1
448,589,42,0.0580061154537202,1
448,621,42,0.0655212602027622,1
449,588,42,0.0798577927737143,1
449,589,42,0.0672535561595487,1
450,589,42,0.0780393602606654,1
450,590,42,0.0617513425909895,1
451,590,42,0.0711440071601079,1
451,591,42,0.0592843885532248,1
452,591,42,0.0759828860986366,1
452,592,42,0.0606641184508738,1
453,592,42,0.0726162187180475,1
454,592,42,0.0793559162740643,1
454,593,42,0.0665862823757164,1
454,594,42,0.0627253514409236,1
454,595,42,0.059281239588958,1
455,591,42,0.0953505731303667,1
455,592,42,0.0789520763491979,1
455,593,42,0.0744743022343352,1
455,594,42,0.0774517835780782,1
455,595,42,0.0813746559373238,1
455,596,42,0.0813359189592935,1
455,597,42,0.078084984860912,1
455,598,42,0.077324545372117,1
455,599,42,0.0694208219707223,1
455,613,42,0.0635393822916214,1
455,614,42,0.07274834548464,1
455,615,42,0.068100102719922,1
455,616,42,0.0595487541282096,1
456,593,42,0.0837902712430545,1
456,594,42,0.0898258096753732,1
456,595,42,0.101126958879858,1
456,596,42,0.110061384281861,1
456,597,42,0.115083274654881,1
456,598,42,0.120993915965159,1
456,599,42,0.107395390935304,1
456,600,42,0.0849866181991925,1
456,601,42,0.0619421026004737,1
456,612,42,0.0685343590449529,1
457,594,42,0.0965137144352202,1
457,595,42,0.105820248345013,1
457,596,42,0.120808162455043,1
457,597,42,0.13551277592593,1
457,598,42,0.146316683623112,1
457,599,42,0.129054037925135,1
457,600,42,0.101830487031315,1
457,601,42,0.0787395094673198,1
457,602,42,0.058847991640125,1
457,611,42,0.0730780962951857,1
458,596,42,0.105446771747879,1
458,597,42,0.112649420123538,1
458,598,42,0.118970971785941,1
458,599,42,0.108690204942614,1
458,600,42,0.0956050259545419,1
458,601,42,0.0876200840422002,1
458,605,42,0.0665788522353118,1
458,606,42,0.0577993747454292,1
459,599,42,0.087952246699909,1
459,600,42,0.0863134407796109,1
442,625,43,0.0662361340606788,1
443,625,43,0.0745439745429709,1
444,624,43,0.0656818809681129,1
445,624,43,0.0756462830474954,1
446,623,43,0.0778149936081922,1
447,622,43,0.0883698500753345,1
448,588,43,0.0684538363725517,1
448,589,43,0.0571357039899996,1
448,621,43,0.0662409754458155,1
449,588,43,0.0816464693435237,1
449,589,43,0.0676531620837718,1
449,621,43,0.0849612318861433,1
450,589,43,0.0785968212868663,1
450,590,43,0.0602448875208834,1
451,590,43,0.069664318286269,1
454,592,43,0.0787829463040028,1
454,593,43,0.0652768911405648,1
454,594,43,0.0588686545067741,1
455,591,43,0.092501261708604,1
455,592,43,0.0798396478990912,1
455,593,43,0.0765685521736911,1
455,594,43,0.0756725303133217,1
455,595,43,0.0753503806543486,1
455,596,43,0.0740538860200422,1
455,597,43,0.0701514996193409,1
455,598,43,0.0642098758029623,1
455,599,43,0.0586949307477891,1
455,613,43,0.0595512308416778,1
455,614,43,0.0668990441112575,1
455,615,43,0.0648682982846141,1
455,616,43,0.05973647131829,1
456,592,43,0.0832742892705093,1
456,593,43,0.0858440681957628,1
456,594,43,0.0891213439109598,1
456,595,43,0.0953188299194158,1
456,596,43,0.103071556356365,1
456,597,43,0.104315986935407,1
456,598,43,0.0947724669283271,1
456,599,43,0.0850040613383329,1
456,600,43,0.0777835098624617,1
456,601,43,0.0599102481497063,1
456,612,43,0.0663077287707208,1
457,593,43,0.0950377760132046,1
457,594,43,0.0952942278989648,1
457,595,43,0.100629564052198,1
457,596,43,0.113432226693725,1
457,597,43,0.122363868741546,1
457,598,43,0.11537262555121,1
457,599,43,0.105527960774142,1
457,600,43,0.0987698411874714,1
457,601,43,0.0797963466919552,1
457,602,43,0.056973042884506,1
457,611,43,0.0702644613412389,1
458,596,43,0.106791544604006,1
458,597,43,0.109827700469198,1
458,598,43,0.107018376176073,1
458,599,43,0.1055898550231,1
458,600,43,0.105542891818194,1
458,601,43,0.0935010696571653,1
458,602,43,0.0788357769610546,1
458,605,43,0.0676658228071438,1
458,606,43,0.0583106627562585,1
459,599,43,0.094124753283957,1
459,600,43,0.0977525959967064,1
459,601,43,0.095725506270897,1
441,625,44,0.0621964846614068,1
444,624,44,0.0653628507887224,1
445,624,44,0.073053865781755,1
446,623,44,0.0674197377363292,1
447,622,44,0.0723399413306679,1
448,589,44,0.0583869219433322,1
448,621,44,0.0627493106952602,1
448,622,44,0.115449038058642,1
449,589,44,0.0698695139971108,1
449,621,44,0.0825379564594716,1
450,589,44,0.0815783361354005,1
450,590,44,0.0607514756730599,1
450,621,44,0.0907192191927273,1
454,593,44,0.0649635691960248,1
455,592,44,0.0798724997341661,1
455,593,44,0.0790430189089761,1
455,594,44,0.0751915584547308,1
455,595,44,0.0703226110353106,1
455,596,44,0.067722126759988,1
455,597,44,0.063424981717137,1
455,614,44,0.0600127958811642,1
455,615,44,0.0612943594714193,1
455,616,44,0.0606016050235486,1
456,592,44,0.083433182233369,1
456,593,44,0.08767236038719,1
456,594,44,0.0888129635994827,1
456,595,44,0.0893434992121221,1
456,596,44,0.0955781477164749,1
456,597,44,0.0952647491117562,1
456,598,44,0.0788027305270644,1
456,599,44,0.0656645144891512,1
456,600,44,0.0641654777655761,1
456,612,44,0.0628409196089,1
457,593,44,0.0946881702163553,1
457,594,44,0.0961180299739884,1
457,595,44,0.0978515112150775,1
457,596,44,0.10745805178605,1
457,597,44,0.111829297737095,1
457,598,44,0.0961879263662236,1
457,599,44,0.0847698409044184,1
457,600,44,0.0881550482543982,1
457,601,44,0.0734023334697963,1
457,610,44,0.0573903101345322,1
457,611,44,0.0666388535675477,1
458,595,44,0.121326904194024,1
458,596,44,0.107790155474391,1
458,597,44,0.102589835586797,1
458,598,44,0.0938493663340386,1
458,599,44,0.0957373355261761,1
458,600,44,0.106730534895572,1
458,601,44,0.0931505498351075,1
458,602,44,0.0758491140866687,1
458,603,44,0.0713697595927358,1
458,604,44,0.0747331541733848,1
458,605,44,0.0645968033130029,1
459,598,44,0.0839547250173441,1
459,599,44,0.0919485477165504,1
459,600,44,0.102680530475228,1
459,601,44,0.0968635561095426,1
459,602,44,0.0939755136066864,1
460,602,44,0.0970355343752261,1
443,624,45,0.0587049791281459,1
446,623,45,0.0640074988279248,1
447,622,45,0.0652246855588168,1
448,589,45,0.061941400864991,1
448,621,45,0.0583398525935625,1
448,622,45,0.0940395425467766,1
449,589,45,0.0737804863378352,1
449,621,45,0.0729402730876163,1
450,590,45,0.064549633715307,1
451,591,45,0.0610597439427372,1
454,592,45,0.0761134030014748,1
454,593,45,0.0658650693107085,1
455,591,45,0.0847628294465286,1
455,592,45,0.0804377918924761,1
455,593,45,0.0815904425467106,1
455,594,45,0.0762832937515208,1
455,595,45,0.0688185088429993,1
455,596,45,0.0670204325558843,1
455,597,45,0.0633296990118527,1
455,614,45,0.0577407591933481,1
455,615,45,0.0609324998398392,1
456,592,45,0.0848762688203098,1
456,593,45,0.0892189735971022,1
456,594,45,0.0888857494907641,1
456,595,45,0.0868383566114522,1
456,596,45,0.0940748357136987,1
456,597,45,0.0937036648188654,1
456,598,45,0.0724456969957607,1
456,612,45,0.0619813526120081,1
457,593,45,0.0947096527572237,1
457,594,45,0.0974893449427823,1
457,595,45,0.0991056894306984,1
457,596,45,0.107924086703653,1
457,597,45,0.10879725793381,1
457,598,45,0.0868391350071136,1
457,599,45,0.0729952502296739,1
457,600,45,0.0799655003248976,1
457,601,45,0.0702405964378916,1
457,611,45,0.0651350639128884,1
458,595,45,0.130701394403835,1
458,596,45,0.111288407103384,1
458,597,45,0.0989217934556833,1
458,598,45,0.0849913652333399,1
458,599,45,0.0879457069969656,1
458,600,45,0.105449331018463,1
458,601,45,0.0943007414666842,1
458,602,45,0.0743448290893158,1
458,603,45,0.0672385248675713,1
458,604,45,0.069185628542231,1
458,605,45,0.0623167173064151,1
459,599,45,0.0897774724841851,1
459,600,45,0.106059428102801,1
459,601,45,0.0991153014377298,1
459,602,45,0.0885654927485132,1
459,603,45,0.0885406135720313,1
459,604,45,0.0950752156651325,1
459,605,45,0.0880997762654992,1
460,603,45,0.0947566041682569,1
441,624,46,0.0612223165941784,1
441,625,46,0.0834062627167443,1
442,624,46,0.0672917624132643,1
445,623,46,0.0572835107116206,1
447,589,46,0.0660167326290158,1
447,622,46,0.0622245717715238,1
448,589,46,0.0742335244066667,1
449,589,46,0.0812828819094527,1
449,621,46,0.0600093284823087,1
450,590,46,0.0701344220902839,1
451,591,46,0.0686250775211316,1
452,592,46,0.0592925322229857,1
454,592,46,0.0757961301092594,1
454,593,46,0.0684316520962006,1
454,594,46,0.0595838703870268,1
454,616,46,0.0699224507990255,1
455,591,46,0.0818071903568005,1
455,592,46,0.0809015034169683,1
455,593,46,0.0841144671391072,1
455,594,46,0.0776328844050363,1
455,595,46,0.0686229664177467,1
455,596,46,0.0680892405622828,1
455,597,46,0.06544094392315,1
455,614,46,0.05705064067624,1
456,592,46,0.084861355467069,1
456,593,46,0.0898086142075795,1
456,594,46,0.0882785360085361,1
456,595,46,0.0865049732878197,1
456,596,46,0.0966256618839836,1
456,597,46,0.0958682652145924,1
456,598,46,0.0695220605822041,1
456,612,46,0.0634873241332942,1
457,593,46,0.0918895665543858,1
457,594,46,0.0961883509456753,1
457,595,46,0.100751901903654,1
457,596,46,0.112078643813976,1
457,597,46,0.108802553383082,1
457,598,46,0.0809745074949124,1
457,599,46,0.0663680249497982,1
457,600,46,0.0734298721647881,1
457,601,46,0.0669188460251296,1
458,595,46,0.129556728202067,1
458,596,46,0.11189179347361,1
458,597,46,0.0952717192910882,1
458,598,46,0.0790555440028011,1
458,599,46,0.0840166782356705,1
458,600,46,0.102487382206328,1
458,601,46,0.0932372996728002,1
458,602,46,0.0712643341561054,1
458,603,46,0.0619971033302786,1
458,604,46,0.0626075070553311,1
458,605,46,0.0603644066365354,1
458,606,46,0.0572761867160789,1
459,599,46,0.0890140786300387,1
459,600,46,0.106894045159969,1
459,601,46,0.0993790124527266,1
459,603,46,0.0771350001316196,1
459,604,46,0.0798321528923815,1
459,605,46,0.078176245855279,1
460,604,46,0.0811216301718613,1
440,624,47,0.0584792031077706,1
440,625,47,0.0726832786836678,1
441,624,47,0.0794197388213655,1
442,623,47,0.0571841827076715,1
442,624,47,0.0937509641491716,1
443,623,47,0.0619838647070973,1
443,624,47,0.0969219121964033,1
444,623,47,0.0654038109119372,1
446,589,47,0.0642876505028011,1
447,589,47,0.0978355835887021,1
449,590,47,0.0605223148109447,1
450,590,47,0.0817085817791445,1
450,591,47,0.0639807385285944,1
451,591,47,0.0840945649773091,1
452,592,47,0.0681407620993586,1
453,593,47,0.0592191094625268,1
454,592,47,0.0816662594635222,1
454,593,47,0.0740844675344379,1
454,594,47,0.0646386715644894,1
455,592,47,0.0873209324368606,1
455,593,47,0.0894645161497286,1
455,594,47,0.080505972276094,1
455,595,47,0.070459779682892,1
455,596,47,0.0711683556122752,1
455,597,47,0.0691840481631608,1
456,593,47,0.0922885415063683,1
456,594,47,0.0889932919277162,1
456,595,47,0.0890835976183168,1
456,596,47,0.102150690701134,1
456,597,47,0.100387105597533,1
456,598,47,0.0705438935898221,1
456,612,47,0.0656558754766966,1
457,594,47,0.0960441885310145,1
457,595,47,0.104630293668398,1
457,596,47,0.118801611760209,1
457,597,47,0.112179587578617,1
457,598,47,0.080766398697277,1
457,599,47,0.0680170384677475,1
457,600,47,0.072384239120128,1
457,601,47,0.0663540610033869,1
458,596,47,0.113079106322526,1
458,597,47,0.0954186178844376,1
458,598,47,0.0796599505430984,1
458,599,47,0.0869251654185132,1
458,600,47,0.100442831650568,1
458,601,47,0.0902843436893294,1
458,602,47,0.0710623758635828,1
458,603,47,0.061644608034383,1
458,604,47,0.0616155361358156,1
458,605,47,0.0634579279032012,1
458,606,47,0.065808948162906,1
458,607,47,0.0724754411451266,1
459,599,47,0.0897736748568672,1
459,600,47,0.103658242601491,1
459,601,47,0.0953710355011637,1
459,604,47,0.0734075522588901,1
459,606,47,0.0821309557764648,1
439,625,48,0.064094024582018,1
440,624,48,0.0695211465569956,1
440,625,48,0.0953092827786895,1
441,624,48,0.0950880532966094,1
442,623,48,0.073606220060662,1
443,623,48,0.0845922900334314,1
444,623,48,0.0845840343218707,1
444,624,48,0.114065769998895,1
445,622,48,0.0577619704751223,1
445,623,48,0.0774900134195412,1
446,589,48,0.0713098938900469,1
446,622,48,0.0637959757038655,1
446,623,48,0.0837533623154412,1
447,622,48,0.0682944480669983,1
449,590,48,0.062201827286174,1
450,591,48,0.0750432151118583,1
451,592,48,0.0637572505197088,1
452,592,48,0.0732148285694418,1
453,592,48,0.0814709824004269,1
453,593,48,0.061085631495417,1
454,591,48,0.099948467848438,1
454,592,48,0.0841603040290797,1
454,593,48,0.0770748277882156,1
454,594,48,0.0670015977396522,1
455,592,48,0.0921034248654295,1
455,593,48,0.092775764117998,1
455,594,48,0.0812248206694335,1
455,595,48,0.0700894343592148,1
455,596,48,0.0708163025866418,1
455,597,48,0.069630611395354,1
456,593,48,0.0931728461532583,1
456,594,48,0.0885605688062609,1
456,595,48,0.0894510652368215,1
456,596,48,0.103099036081988,1
456,597,48,0.0998026366006546,1
456,598,48,0.0711965252795077,1
456,612,48,0.0678412684716829,1
457,596,48,0.122468669102872,1
457,597,48,0.112947474898627,1
457,598,48,0.082405694063332,1
457,599,48,0.0744581859059813,1
457,600,48,0.0744609515693542,1
457,601,48,0.0655354895113308,1
457,606,48,0.0645358938524953,1
457,607,48,0.0697994053151498,1
457,608,48,0.0637962233752123,1
458,597,48,0.0958098147767424,1
458,599,48,0.0966529882892496,1
458,600,48,0.101903208056291,1
458,601,48,0.0863835022860773,1
458,602,48,0.0700850647290244,1
458,603,48,0.0622723546506499,1
458,604,48,0.0628975007177752,1
458,605,48,0.0706784145127672,1
458,606,48,0.0842138718032352,1
458,608,48,0.0855912311322789,1
459,600,48,0.100481409411304,1
459,601,48,0.0887204406606343,1
459,606,48,0.0968748015680757,1
459,607,48,0.106419848881795,1
440,624,49,0.0795183356051479,1
441,623,49,0.0658270104804135,1
441,624,49,0.113087291270845,1
442,623,49,0.102596027370467,1
443,622,49,0.059204679658106,1
443,623,49,0.122489190443037,1
444,622,49,0.0712407699965364,1
444,623,49,0.114014631762713,1
445,622,49,0.0816276286303548,1
446,589,49,0.0775325244371421,1
446,622,49,0.0851888536477461,1
449,590,49,0.0704490059793052,1
450,591,49,0.0923033487147461,1
451,592,49,0.0685669750025546,1
452,592,49,0.0754729838679622,1
453,592,49,0.0807756863727828,1
453,593,49,0.0626840139137517,1
454,592,49,0.083562189520379,1
454,593,49,0.0771965936367995,1
454,594,49,0.0680322407708929,1
454,615,49,0.0630317326908157,1
455,593,49,0.0899941849126541,1
455,594,49,0.0796907797288409,1
455,595,49,0.0702870878878522,1
455,596,49,0.0689467023527268,1
455,597,49,0.067243330871087,1
455,598,49,0.0587301177698483,1
455,613,49,0.0609413157603987,1
456,595,49,0.087529418638453,1
456,596,49,0.0962684903171826,1
456,597,49,0.091429605481717,1
456,598,49,0.0723176509094539,1
456,599,49,0.0626166767921003,1
456,600,49,0.057278185777664,1
456,607,49,0.0604457253954085,1
456,611,49,0.0597917197194417,1
456,612,49,0.0707057468149701,1
457,597,49,0.104777610944262,1
457,598,49,0.0832792250066352,1
457,599,49,0.0815765847451622,1
457,600,49,0.0766282291744015,1
457,601,49,0.0660824657838496,1
457,602,49,0.0585602624014233,1
457,605,49,0.0666639509306923,1
457,606,49,0.0944796958086366,1
457,608,49,0.0789928477704342,1
457,609,49,0.0580095946464494,1
458,600,49,0.0981220037074278,1
458,601,49,0.0803093153297808,1
458,602,49,0.0689611380540844,1
458,603,49,0.0642087730757753,1
458,604,49,0.0641785689653367,1
458,605,49,0.0836060509365138,1
459,605,49,0.0883580208200554,1
459,606,49,0.112697409395453,1
439,587,50,0.0721770738323853,1
441,623,50,0.0772367517766055,1
442,587,50,0.0814260654325998,1
443,587,50,0.0733612672017186,1
443,622,50,0.0723553854082232,1
444,622,50,0.0929078378121591,1
445,588,50,0.0634685482864304,1
445,621,50,0.0597893904293942,1
446,589,50,0.0808527475432654,1
450,591,50,0.103011938325023,1
451,592,50,0.0658507810327716,1
453,592,50,0.0746718849997306,1
453,593,50,0.0607253581398438,1
454,592,50,0.078312978129535,1
454,593,50,0.0739429646382871,1
454,594,50,0.067468528991653,1
454,595,50,0.057579495661883,1
454,613,50,0.05793349467667,1
454,614,50,0.074344958821926,1
454,615,50,0.0802533357084622,1
455,593,50,0.0829547873361725,1
455,594,50,0.0765405653115003,1
455,595,50,0.0692189698230627,1
455,596,50,0.0653988869696849,1
455,597,50,0.0669895561946472,1
455,598,50,0.0666623292730643,1
455,599,50,0.0578738884392016,1
455,612,50,0.0570034533877336,1
455,613,50,0.0742332767353199,1
455,614,50,0.0944210507718713,1
456,595,50,0.0831019159100582,1
456,596,50,0.086404937651451,1
456,597,50,0.0895818769865011,1
456,598,50,0.0888170501767053,1
456,599,50,0.0805739698546702,1
456,600,50,0.0643226134412608,1
456,606,50,0.0694189467448107,1
456,607,50,0.0727056221773132,1
456,611,50,0.0652454427764552,1
456,612,50,0.072352531290798,1
456,613,50,0.0857164172042236,1
457,597,50,0.0995373452065876,1
457,598,50,0.0961629233540682,1
457,599,50,0.095106870422031,1
457,600,50,0.0797039475887803,1
457,601,50,0.0674799336674805,1
457,602,50,0.0628315316854682,1
457,605,50,0.0917568383002367,1
457,608,50,0.092427561792114,1
457,609,50,0.0599420916085834,1
457,610,50,0.0632251640126834,1
458,598,50,0.0920536665124657,1
458,599,50,0.101478439902618,1
458,600,50,0.0919103591536452,1
458,601,50,0.0766043878588015,1
458,602,50,0.069791874926819,1
458,603,50,0.0633931500521336,1
458,604,50,0.0629365443365205,1
458,609,50,0.0720170545545911,1
459,605,50,0.100515776759144,1
453,615,51,0.0583326288459468,1
454,592,51,0.0729265921941728,1
454,593,51,0.0700168430668487,1
454,613,51,0.0759768830169446,1
454,614,51,0.106470586126272,1
454,615,51,0.0989102708411193,1
455,593,51,0.0751052803719844,1
455,594,51,0.0737487549207579,1
455,612,51,0.061250792902126,1
455,613,51,0.095822770346956,1
456,595,51,0.0784263939155689,1
456,596,51,0.078236901747503,1
456,597,51,0.104894393881225,1
456,610,51,0.0618958765126704,1
456,611,51,0.068589973056188,1
456,612,51,0.0721266609194334,1
457,597,51,0.111779633735121,1
457,598,51,0.142463495366376,1
457,600,51,0.0858460790512215,1
457,601,51,0.0680942411647139,1
457,602,51,0.0670065983420833,1
457,603,51,0.0596935239273637,1
457,609,51,0.0650708285800091,1
458,598,51,0.110097638649486,1
458,599,51,0.106868039668553,1
458,601,51,0.0724152334201016,1
458,602,51,0.0706036118690903,1
458,603,51,0.0638826429844426,1
458,604,51,0.066495552105664,1
