x,y,z,signal,cytoplasm.p
45,917,5,0.0633094194460974,1
45,918,5,0.0681463641893462,1
45,919,5,0.0728986230227925,1
45,920,5,0.066230573249249,1
45,921,5,0.0573965608875711,1
46,916,5,0.106972073428091,1
46,917,5,0.181789400477775,2
46,918,5,0.188881080296183,2
46,919,5,0.161465383612724,1
46,920,5,0.0976602322751524,1
46,921,5,0.0654104921413646,1
47,915,5,0.099166427880038,1
47,916,5,0.253927147638447,2
47,917,5,0.469778198750925,2
47,918,5,0.487518118928101,2
47,919,5,0.369236959018553,2
47,920,5,0.177415913690734,1
47,921,5,0.0803508002803734,1
48,915,5,0.142418466356749,2
48,916,5,0.364087706603899,2
48,917,5,0.641267443257079,2
48,918,5,0.651862540421143,2
48,919,5,0.47395445658878,2
48,920,5,0.213132586822016,2
48,921,5,0.0842200282052847,1
49,915,5,0.132939105022369,1
49,916,5,0.29132316223379,2
49,917,5,0.482223754691957,2
49,918,5,0.49055777757377,2
49,919,5,0.370463569054498,2
49,920,5,0.176750562308308,2
49,921,5,0.0784041565667864,1
50,915,5,0.0988659140822909,1
50,916,5,0.168028332281163,1
50,917,5,0.237187772526936,2
50,918,5,0.24339271816048,2
50,919,5,0.199181212680056,2
50,920,5,0.114461242170401,1
51,916,5,0.0911727467073156,1
51,917,5,0.106860114185454,1
51,918,5,0.110647893618882,1
51,919,5,0.101790387860877,1
45,917,6,0.0576704853971559,1
45,918,6,0.0630721915744,1
45,919,6,0.065869881211161,1
45,920,6,0.0625172485402251,1
45,921,6,0.0569109894182535,1
46,916,6,0.0878470984193096,1
46,917,6,0.147448435533224,2
46,918,6,0.158914604617934,2
46,919,6,0.131241211795044,2
46,920,6,0.0864853129004315,1
46,921,6,0.0637353846779466,1
47,915,6,0.090484574179361,1
47,916,6,0.223775425586649,2
47,917,6,0.397572471702487,2
47,918,6,0.421072000843875,2
47,919,6,0.309650016327439,2
47,920,6,0.152533305191578,2
47,921,6,0.0755713447742714,1
48,915,6,0.16139250926739,2
48,916,6,0.383065393821501,2
48,917,6,0.613926838167202,2
48,918,6,0.625855020458597,2
48,919,6,0.448756939869077,2
48,920,6,0.20804848376545,2
48,921,6,0.0848247885617918,1
49,914,6,0.0631424653705923,1
49,915,6,0.182835387338644,2
49,916,6,0.375841905671089,2
49,917,6,0.531912099221765,2
49,918,6,0.523056551246787,2
49,919,6,0.391429750546363,2
49,920,6,0.192268929473862,2
49,921,6,0.083817992743088,1
50,915,6,0.139543025607896,1
50,916,6,0.244980857599543,2
50,917,6,0.301942059434896,2
50,918,6,0.292448533658253,2
50,919,6,0.238364801118021,2
50,920,6,0.13740060948852,1
50,921,6,0.0707020730233255,1
51,916,6,0.120932528852768,1
51,917,6,0.135108706020527,2
51,918,6,0.133478651154483,2
51,919,6,0.121969281110564,1
51,920,6,0.0873290171372532,1
52,917,6,0.0724693673001927,1
52,918,6,0.0702291740712537,1
42,917,7,0.0593000920960006,1
43,917,7,0.0583997713686828,1
43,918,7,0.0570974800454734,1
45,917,7,0.0577137512226709,1
45,918,7,0.0627887612026468,1
45,919,7,0.0635358618203344,1
45,920,7,0.0606235239377423,1
45,921,7,0.0571086665346382,1
45,931,7,0.0571137379003112,1
45,932,7,0.0593128412734251,1
46,916,7,0.0789763835228074,1
46,917,7,0.121106783336068,2
46,918,7,0.135161507192895,2
46,919,7,0.111508256702246,1
46,920,7,0.0802718167084846,1
46,921,7,0.0635766627262549,1
46,931,7,0.0601849805396367,1
46,932,7,0.0646447041308656,1
46,933,7,0.0598327034304038,1
47,915,7,0.086096138657459,1
47,916,7,0.190960446366982,2
47,917,7,0.306844631188116,2
47,918,7,0.333071776665925,2
47,919,7,0.243686409202316,2
47,920,7,0.128148928885112,1
47,921,7,0.072425918669636,1
47,931,7,0.0621240289985878,1
47,932,7,0.0636897423868894,1
48,914,7,0.0596897380939194,1
48,915,7,0.177668632815482,2
48,916,7,0.383551089126492,2
48,917,7,0.529740233799864,2
48,918,7,0.528425594290935,2
48,919,7,0.377331401150874,2
48,920,7,0.184617028862817,2
48,921,7,0.0842337208926019,1
48,922,7,0.0570333213727729,1
49,914,7,0.0744569475492472,1
49,915,7,0.241417692489935,2
49,916,7,0.461073942587234,2
49,917,7,0.533438745403574,2
49,918,7,0.476162835843526,2
49,919,7,0.349086889996087,2
49,920,7,0.180382580052333,2
49,921,7,0.0864902368426838,1
49,922,7,0.0580318791707265,1
50,914,7,0.0684380620665339,1
50,915,7,0.196821152416192,2
50,916,7,0.342746102525748,2
50,917,7,0.350153952509184,2
50,918,7,0.293266344445458,2
50,919,7,0.232557214675768,2
50,920,7,0.140068018099916,1
50,921,7,0.0766102435170728,1
51,915,7,0.106025874532243,1
51,916,7,0.162371294636156,2
51,917,7,0.15973776982378,2
51,918,7,0.138960997942865,2
51,919,7,0.122249975303629,1
51,920,7,0.0880501476451456,1
52,916,7,0.0750533224615833,1
52,917,7,0.0763054190585036,1
52,918,7,0.0729169978779519,1
39,916,8,0.057194826678648,1
42,916,8,0.0616947968637354,1
42,917,8,0.0613290334599744,1
42,918,8,0.0598684034859671,1
42,919,8,0.0572472445501217,1
43,917,8,0.0579536739944991,1
43,918,8,0.0578187815645338,1
44,931,8,0.0758995977628626,1
44,932,8,0.0753725826215102,1
45,918,8,0.0615265100805069,1
45,919,8,0.0617607246174846,1
45,920,8,0.0597545572235448,1
45,921,8,0.0573327383402699,1
45,930,8,0.0737840657784905,1
45,931,8,0.103458973312162,1
45,932,8,0.107412315144004,1
45,933,8,0.0762603664611293,1
46,916,8,0.0697975477800486,1
46,917,8,0.0976624023479055,1
46,918,8,0.109612143840348,1
46,919,8,0.0940068617228698,1
46,920,8,0.0745993585736697,1
46,921,8,0.0641952985751208,1
46,930,8,0.0762470511777692,1
46,931,8,0.107070516891516,1
46,932,8,0.113879120154381,1
46,933,8,0.0849816058028878,1
47,915,8,0.0765489212709871,1
47,916,8,0.14884388666446,2
47,917,8,0.212289655083919,2
47,918,8,0.232863076995219,2
47,919,8,0.175043788294118,1
47,920,8,0.104808734976846,1
47,921,8,0.0713583902985294,1
47,930,8,0.0679702875525665,1
47,931,8,0.0888108112175401,1
47,932,8,0.0945705086358045,1
47,933,8,0.0770728641082515,1
48,914,8,0.0608490640806444,1
48,915,8,0.165470771809019,2
48,916,8,0.331158527305601,2
48,917,8,0.394721845263811,2
48,918,8,0.381294755981452,2
48,919,8,0.275176429273602,2
48,920,8,0.14882019277228,1
48,921,8,0.0813179863743962,1
48,922,8,0.057937221540746,1
48,931,8,0.0724647735864028,1
48,932,8,0.0771610586954674,1
49,914,8,0.0829066624347103,1
49,915,8,0.255949796970824,2
49,916,8,0.46555967166988,2
49,917,8,0.457205504851858,2
49,918,8,0.370821513120024,2
49,919,8,0.266084390544031,2
49,920,8,0.152787982099353,1
49,921,8,0.08493194769785,1
49,922,8,0.0583030439138753,1
50,914,8,0.0787586096457092,1
50,915,8,0.223003044800775,2
50,916,8,0.381259539474708,2
50,917,8,0.339162887830921,2
50,918,8,0.252770380922305,2
50,919,8,0.193204313387566,1
50,920,8,0.127393354369201,1
50,921,8,0.0772953496378762,1
51,915,8,0.119022416662838,1
51,916,8,0.184811262168093,2
51,917,8,0.163661945406064,2
51,918,8,0.130274892550735,1
51,919,8,0.109048255153003,1
51,920,8,0.0829178253361278,1
52,916,8,0.0779086959344064,1
52,917,8,0.0765288657888313,1
52,918,8,0.0707311331280193,1
39,916,9,0.062270314310507,1
39,917,9,0.0573014079148969,1
40,916,9,0.058725400220385,1
41,915,9,0.0596962188274946,1
41,916,9,0.060485317429279,1
42,915,9,0.062262412415156,1
42,916,9,0.0637049682777821,1
42,917,9,0.0597336348916752,1
42,918,9,0.0587100740815662,1
42,919,9,0.0573464487183975,1
44,930,9,0.0712413478963456,1
44,931,9,0.0980452904562182,1
44,932,9,0.0983590782587676,1
45,918,9,0.0607985037442718,1
45,919,9,0.0626057379742824,1
45,920,9,0.0597412891156793,1
45,929,9,0.0627897165064131,1
45,930,9,0.106392404537792,1
45,931,9,0.158557851733648,1
45,932,9,0.158769693292296,1
45,933,9,0.0943395020324618,1
46,917,9,0.0798870003018288,1
46,918,9,0.0887918643595082,1
46,919,9,0.0823324187262937,1
46,920,9,0.0706864697284758,1
46,921,9,0.0618779262369627,1
46,929,9,0.0664620810922222,1
46,930,9,0.110589254479054,1
46,931,9,0.161992628734613,1
46,932,9,0.163609498049907,1
46,933,9,0.102037375163027,1
47,915,9,0.0721760182806929,1
47,916,9,0.11450186027128,1
47,917,9,0.143472803280169,1
47,918,9,0.151831038984602,1
47,919,9,0.120873087729531,1
47,920,9,0.0859241309070913,1
47,921,9,0.0679961043420042,1
47,929,9,0.0585532509435335,1
47,930,9,0.0825450799591611,1
47,931,9,0.114893192793132,1
47,932,9,0.125392570878586,1
47,933,9,0.0938098391664732,1
48,914,9,0.0640811633627938,1
48,915,9,0.141567892188521,1
48,916,9,0.249979124843625,2
48,917,9,0.265448441288634,2
48,918,9,0.241074703056208,2
48,919,9,0.176455279093529,1
48,920,9,0.110068047820478,1
48,921,9,0.0744126320689766,1
48,931,9,0.0775314452977024,1
48,932,9,0.0939712619152326,1
48,933,9,0.084989395656439,1
49,914,9,0.0874896791811617,1
49,915,9,0.22700543735316,2
49,916,9,0.380127728595228,2
49,917,9,0.338161375667616,2
49,918,9,0.249555771954791,2
49,919,9,0.174711613842536,1
49,920,9,0.115683913052544,1
49,921,9,0.078229725175382,1
49,932,9,0.0768941515407092,1
50,914,9,0.0868402377343006,1
50,915,9,0.210199568381965,1
50,916,9,0.3335409133723,2
50,917,9,0.274601501520513,2
50,918,9,0.186693576197812,1
50,919,9,0.137471773722174,1
50,920,9,0.10310200813815,1
50,921,9,0.073363702636629,1
51,915,9,0.120319436124522,1
51,916,9,0.173547334428874,1
51,917,9,0.144905582021532,1
51,918,9,0.10916517961645,1
51,919,9,0.0881975474781254,1
51,920,9,0.0738733571959565,1
52,916,9,0.0798463468193291,1
52,917,9,0.0758904280260933,1
36,914,10,0.0594853620572969,1
37,914,10,0.0603767076467608,1
39,916,10,0.0629715662443485,1
39,917,10,0.0593662616241598,1
40,915,10,0.0595976928069542,1
40,916,10,0.0628418336341086,1
41,914,10,0.0576612566910183,1
41,915,10,0.0678491585731602,1
41,916,10,0.0661600694725204,1
41,917,10,0.0569430451668564,1
42,915,10,0.0660169449187416,1
42,916,10,0.0651335425031865,1
42,917,10,0.0582554497367277,1
42,918,10,0.0570718873396352,1
44,930,10,0.0780277668828594,1
44,931,10,0.110589714440126,1
44,932,10,0.107748546688125,1
45,918,10,0.0602838485825132,1
45,919,10,0.0628281704314756,1
45,920,10,0.0577463966649567,1
45,929,10,0.0684135661909458,1
45,930,10,0.136154091393841,1
45,931,10,0.203641750048567,1
45,932,10,0.190862427483009,1
45,933,10,0.100978532979869,1
46,917,10,0.0657928967008573,1
46,918,10,0.0724740553649718,1
46,919,10,0.0729569083464112,1
46,920,10,0.0663840941026575,1
46,921,10,0.058410220740744,1
46,929,10,0.0746189717855632,1
46,930,10,0.144533603246353,1
46,931,10,0.210692056958183,1
46,932,10,0.197603428262065,1
46,933,10,0.109107837802724,1
47,916,10,0.0870423670379913,1
47,917,10,0.0955040350144069,1
47,918,10,0.0960897128833351,1
47,919,10,0.0855260699803174,1
47,920,10,0.07398337044944,1
47,921,10,0.0645124535285996,1
47,926,10,0.0571736507784947,1
47,929,10,0.059983370166387,1
47,930,10,0.0930066350917936,1
47,931,10,0.134259853757854,1
47,932,10,0.147810483866783,1
47,933,10,0.106579738426978,1
47,934,10,0.0592042786664016,1
48,915,10,0.118094993613853,1
48,916,10,0.171728506821058,1
48,917,10,0.165276444152753,1
48,918,10,0.13898100035259,1
48,919,10,0.107447118865169,1
48,920,10,0.0836616472569384,1
48,921,10,0.0676931904909676,1
48,931,10,0.080684525626342,1
48,932,10,0.112780072655923,1
48,933,10,0.106277426063498,1
48,934,10,0.0674544058279474,1
49,914,10,0.0902292368146615,1
49,915,10,0.182261922025889,1
49,916,10,0.264752083812361,2
49,917,10,0.224357783480142,2
49,918,10,0.15547709143828,1
49,919,10,0.11109959897999,1
49,920,10,0.0883896342983961,1
49,921,10,0.0698712830781595,1
49,932,10,0.0831188578095682,1
49,933,10,0.0796788325348252,1
50,914,10,0.0943181610180774,1
50,915,10,0.179159142568402,1
50,916,10,0.246606525144586,1
50,917,10,0.198004844545895,1
50,918,10,0.130513164180251,1
50,919,10,0.0968301617562795,1
50,920,10,0.082014396923101,1
50,921,10,0.065641127237687,1
51,915,10,0.118455367217353,1
51,916,10,0.146834021891128,1
51,917,10,0.120865280185169,1
51,918,10,0.0901877046885743,1
51,919,10,0.0728625455632721,1
51,920,10,0.0641364884241243,1
52,916,10,0.084838168711457,1
52,917,10,0.0780687977693162,1
39,916,11,0.058928726602252,1
40,915,11,0.0629066468667971,1
40,916,11,0.0623873685065644,1
41,914,11,0.0603623368117084,1
41,915,11,0.0699162177367972,1
41,916,11,0.0660320174892768,1
42,914,11,0.0578196189295635,1
42,915,11,0.0652561693045473,1
42,916,11,0.0626063866373336,1
44,930,11,0.0801287452271373,1
44,931,11,0.108341424716921,1
44,932,11,0.100692755627258,1
45,918,11,0.0595598108847641,1
45,919,11,0.0613097327857328,1
45,929,11,0.0738820433839058,1
45,930,11,0.14755877901517,1
45,931,11,0.209395037496498,1
45,932,11,0.183319915050143,1
45,933,11,0.0958904907695012,1
46,917,11,0.0622934420967507,1
46,918,11,0.0663015192962397,1
46,919,11,0.0683520906245026,1
46,920,11,0.0629342386342204,1
46,926,11,0.0604087987769847,1
46,927,11,0.0615414352276213,1
46,928,11,0.0586206706223004,1
46,929,11,0.0821732721951503,1
46,930,11,0.161116402891178,1
46,931,11,0.224751179929884,1
46,932,11,0.198256313520034,1
46,933,11,0.108841720837501,1
47,918,11,0.0749886389615051,1
47,919,11,0.0726315625476767,1
47,920,11,0.0689442846086269,1
47,921,11,0.0619412711323808,1
47,926,11,0.0601562565603422,1
47,927,11,0.0603089459456578,1
47,929,11,0.0613614194370397,1
47,930,11,0.097232963820264,1
47,931,11,0.13848250869468,1
47,932,11,0.152777096353966,1
47,933,11,0.112259255195178,1
47,934,11,0.0623021282847,1
48,916,11,0.121343734051734,1
48,917,11,0.113651970147724,1
48,918,11,0.0944721831111163,1
48,919,11,0.0793990346761586,1
48,920,11,0.0724905137156618,1
48,921,11,0.0636910220221814,1
48,931,11,0.0820810676908907,1
48,932,11,0.124780975972294,1
48,933,11,0.119503288273502,1
48,934,11,0.0735907582922962,1
49,915,11,0.138224541296154,1
49,916,11,0.171676979387045,1
49,917,11,0.147804634105448,1
49,918,11,0.107197183094605,1
49,919,11,0.0826063019573207,1
49,920,11,0.0741683219761475,1
49,921,11,0.0637631769412221,1
49,932,11,0.0827649885273915,1
49,933,11,0.0816679813690763,1
50,914,11,0.098278915299513,1
50,915,11,0.144501347001898,1
50,916,11,0.168168691171568,1
50,917,11,0.138219422754987,1
50,918,11,0.0981237256129819,1
50,919,11,0.0769305356409447,1
50,920,11,0.0690209094057841,1
50,921,11,0.0592600459979943,1
51,915,11,0.113107671084526,1
51,916,11,0.118910657916053,1
51,917,11,0.09909183162915,1
36,906,12,0.0587692616365198,1
36,907,12,0.060077703464842,1
39,916,12,0.0569398667179055,1
40,914,12,0.0574294657950774,1
40,915,12,0.066280602861307,1
40,916,12,0.0674735826665156,1
40,917,12,0.060811400345117,1
41,914,12,0.0632701045682579,1
41,915,12,0.0723746035253492,1
41,916,12,0.071702051983055,1
41,917,12,0.0634860150133181,1
41,918,12,0.057925592781319,1
42,914,12,0.0593477098608955,1
42,915,12,0.0650236353945659,1
42,916,12,0.0634310260773869,1
42,917,12,0.0579792902880847,1
43,925,12,0.0578330639455338,1
44,925,12,0.0587406320082146,1
44,930,12,0.0742801396923007,1
44,931,12,0.0909347404399568,1
44,932,12,0.081646840850544,1
45,928,12,0.0571605006093659,1
45,929,12,0.0759796781650016,1
45,930,12,0.132518818540686,1
45,931,12,0.171516853964388,1
45,932,12,0.143452152207393,1
45,933,12,0.0811976770692092,1
46,917,12,0.0576139927423332,1
46,918,12,0.0591825543511232,1
46,919,12,0.0610131876264716,1
46,920,12,0.0575688575878434,1
46,926,12,0.0605935085292823,1
46,927,12,0.0622316480957187,1
46,928,12,0.0606773983526129,1
46,929,12,0.0819475492472065,1
46,930,12,0.146131366486321,1
46,931,12,0.190754124341206,1
46,932,12,0.164392623054683,1
46,933,12,0.0999170135873916,1
47,918,12,0.0600270959529747,1
47,919,12,0.0624733222577852,1
47,920,12,0.0633375065562144,1
47,921,12,0.0595597283276485,1
47,926,12,0.0591807557853904,1
47,927,12,0.0600901813831723,1
47,929,12,0.0593373548398236,1
47,930,12,0.0886534868398768,1
47,931,12,0.1212926194033,1
47,932,12,0.137552172558902,1
47,933,12,0.113286702086657,1
47,934,12,0.070934777944475,1
48,918,12,0.0672422812163314,1
48,919,12,0.0637643209469669,1
48,920,12,0.0644154253300138,1
48,921,12,0.0606356185551788,1
48,931,12,0.0752316045527372,1
48,932,12,0.11840625752744,1
48,933,12,0.122200358477149,1
48,934,12,0.0833448815012903,1
49,916,12,0.115605436617223,1
49,917,12,0.0975172020723629,1
49,918,12,0.0748281243410173,1
49,919,12,0.0658523496179681,1
49,920,12,0.0644388715508463,1
49,921,12,0.059302150126954,1
49,932,12,0.0765198670632302,1
49,933,12,0.0831825860058801,1
50,915,12,0.131243464424912,1
50,916,12,0.122364305114871,1
50,917,12,0.0977542825206395,1
50,919,12,0.064479318640557,1
50,920,12,0.0609177692916401,1
36,906,13,0.0616772298889215,1
36,907,13,0.0626747793106773,1
37,906,13,0.0616566200947039,1
37,907,13,0.0614172516349375,1
39,916,13,0.0585111704023211,1
39,917,13,0.0577391375357201,1
40,913,13,0.0571638677602953,1
40,914,13,0.0631660826025928,1
40,915,13,0.0693868084390921,1
40,916,13,0.0797757781762954,1
40,917,13,0.0792958146939023,1
40,918,13,0.0641093153392159,1
41,913,13,0.0588925135131846,1
41,914,13,0.0667383879642859,1
41,915,13,0.0747508272930616,1
41,916,13,0.0875419555261516,1
41,917,13,0.0869983817861831,1
41,918,13,0.0694703562400867,1
42,914,13,0.0608574672156259,1
42,915,13,0.0648071470496965,1
42,916,13,0.07139459749066,1
42,917,13,0.0703830369469982,1
42,918,13,0.0608110642197178,1
42,925,13,0.0619788405169189,1
43,916,13,0.0569613492587739,1
43,924,13,0.0618093566555141,1
43,925,13,0.0727648215261405,1
43,926,13,0.0612146328854901,1
44,918,13,0.0572251959033178,1
44,925,13,0.0630463570941518,1
44,931,13,0.0717757695903554,1
45,916,13,0.0582663059974301,1
45,917,13,0.0592129471635404,1
45,918,13,0.0601944392263106,1
45,928,13,0.0602317373517545,1
45,930,13,0.103240715886244,1
45,931,13,0.118395914300242,1
45,932,13,0.0984779015358737,1
46,917,13,0.0590504924508358,1
46,918,13,0.0605164119771788,1
46,919,13,0.0605771386326447,1
46,920,13,0.0574478111655527,1
46,926,13,0.0570772476552128,1
46,927,13,0.0577272434141358,1
46,928,13,0.0594055941928098,1
46,929,13,0.075764917622623,1
46,930,13,0.11097531513938,1
46,931,13,0.133250121264609,1
46,932,13,0.116840314158602,1
46,933,13,0.0866089303871797,1
47,918,13,0.0599706622675203,1
47,919,13,0.0633011991161577,1
47,920,13,0.0645856168238381,1
47,921,13,0.0620241584764504,1
47,927,13,0.0571285863872468,1
47,929,13,0.0572625294103827,1
47,930,13,0.0743139350372682,1
47,931,13,0.0948331169236143,1
47,932,13,0.108163525926661,1
47,933,13,0.104696598826104,1
48,919,13,0.0645107375199824,1
48,920,13,0.0659310147552682,1
48,921,13,0.0634373416967308,1
48,932,13,0.0969403224331837,1
48,933,13,0.111797819888302,1
49,919,13,0.0655487576191962,1
49,920,13,0.0649160929576139,1
49,921,13,0.0609091361761223,1
50,920,13,0.0622058666879019,1
50,927,13,0.0597537493431992,1
36,905,14,0.0570802904746166,1
36,906,14,0.0626014450042708,1
36,907,14,0.066440486509554,1
36,908,14,0.0641192221930887,1
37,905,14,0.0608286017098475,1
37,906,14,0.0653070539724455,1
37,907,14,0.0660251121762499,1
37,908,14,0.0609322698593029,1
38,906,14,0.0601451762160404,1
38,907,14,0.0575505652897995,1
39,917,14,0.0592188617911799,1
40,912,14,0.0579792136279059,1
40,913,14,0.0630059276952516,1
40,914,14,0.0646471985351443,1
40,915,14,0.067820251788824,1
40,916,14,0.0850933645496726,1
40,917,14,0.0925596413832119,1
40,918,14,0.0699675505718944,1
41,912,14,0.0570066672183055,1
41,913,14,0.0641397140485698,1
41,914,14,0.0676661943141641,1
41,915,14,0.0757805975776516,1
41,916,14,0.0990086612321126,1
41,917,14,0.106775186501242,1
41,918,14,0.0785172892998524,1
42,913,14,0.0599797317563635,1
42,914,14,0.0619258919211305,1
42,915,14,0.0649689354085393,1
42,916,14,0.0778782913281157,1
42,917,14,0.0815857073064368,1
43,917,14,0.0697046474372432,1
43,925,14,0.0771675630167899,1
44,916,14,0.0761949871225052,1
44,917,14,0.0801414767137513,1
44,918,14,0.069746816432508,1
44,925,14,0.0608706645602494,1
45,915,14,0.058872245741303,1
45,916,14,0.0749793807706834,1
45,917,14,0.0797546435546999,1
45,918,14,0.0713871614533185,1
45,919,14,0.058045147278592,1
45,931,14,0.079429280065155,1
46,916,14,0.0611813151924057,1
46,917,14,0.0643322077574817,1
46,918,14,0.0639806559714788,1
46,919,14,0.0609369048516505,1
46,920,14,0.0580537332186151,1
46,930,14,0.0773505862451543,1
46,931,14,0.0877485488110219,1
46,932,14,0.0835799216094241,1
47,919,14,0.0644302030537075,1
47,920,14,0.06578355595292,1
47,921,14,0.0632262077705022,1
47,932,14,0.0804607545644886,1
48,919,14,0.0645025112931058,1
48,920,14,0.0663598164137321,1
48,921,14,0.0634317926791746,1
49,920,14,0.0641520799251004,1
49,927,14,0.0590350247855331,1
35,908,15,0.057811734725023,1
36,906,15,0.0601778452460735,1
36,907,15,0.0669413959115641,1
36,908,15,0.0698571717083275,1
36,909,15,0.0621986842188441,1
37,905,15,0.0663623933751264,1
37,906,15,0.0658825360375962,1
37,907,15,0.0663631186983564,1
37,908,15,0.0654307186346883,1
37,909,15,0.0594162381637863,1
38,905,15,0.068490845548091,1
38,906,15,0.0654889272981283,1
38,907,15,0.0602489210256745,1
38,911,15,0.0571265283562935,1
39,906,15,0.0628077847208574,1
39,911,15,0.0579160574344664,1
39,912,15,0.0573341653989825,1
40,912,15,0.0580163643299292,1
40,913,15,0.0620300141347217,1
40,914,15,0.0609721095645202,1
40,915,15,0.0632755356470775,1
40,916,15,0.078079913495239,1
40,917,15,0.0874888536100057,1
40,918,15,0.0655377716258836,1
41,912,15,0.0585133640628215,1
41,913,15,0.0640301725500327,1
41,914,15,0.0642238043677526,1
41,915,15,0.0720838255703069,1
41,916,15,0.0927348983457724,1
41,917,15,0.102813128996767,1
41,918,15,0.0751964116337412,1
42,913,15,0.0615903385247449,1
42,914,15,0.059016225350922,1
42,915,15,0.0617659846851361,1
42,916,15,0.0733717696462112,1
42,917,15,0.0798591018936904,1
42,918,15,0.0637959816008023,1
43,916,15,0.0735932232118907,1
43,917,15,0.0807771252253691,1
43,918,15,0.0651597307996444,1
44,915,15,0.0641402447728844,1
44,916,15,0.0945219296702065,1
44,917,15,0.105245815934618,1
44,918,15,0.0787980601530958,1
45,915,15,0.0638295705529808,1
45,916,15,0.0923982304283261,1
45,917,15,0.102666200918733,1
45,918,15,0.0791191660542501,1
45,919,15,0.0583945997550837,1
46,916,15,0.0672548711764615,1
46,917,15,0.0729329608859482,1
46,920,15,0.0585619194406722,1
47,920,15,0.0660397660642702,1
48,920,15,0.0658626279788612,1
51,926,15,0.151424515953479,1
51,927,15,0.138127064930369,1
52,925,15,0.126185154570036,1
52,926,15,0.172376839643795,3
52,927,15,0.153966779771488,1
53,926,15,0.145680805130958,1
35,908,16,0.057370926903175,1
36,907,16,0.0627699676649725,1
36,908,16,0.0692925105222582,1
36,909,16,0.0629359251581535,1
37,906,16,0.0656522783452308,1
37,907,16,0.0630398173912084,1
37,908,16,0.0649954716242702,1
37,909,16,0.0606230226981118,1
38,904,16,0.0942933172232164,1
38,905,16,0.0884053142534247,1
38,906,16,0.0714179139788822,1
38,907,16,0.0610956562880264,1
38,908,16,0.057928110773345,1
38,911,16,0.0574182380273548,1
39,904,16,0.107128247903073,1
39,905,16,0.0964475331131873,1
39,907,16,0.0578378758459864,1
39,910,16,0.0596408760753536,1
39,911,16,0.061796524920974,1
39,912,16,0.058383236357814,1
40,904,16,0.111087651785975,1
40,910,16,0.0595968908235454,1
40,911,16,0.0615058177291736,1
40,912,16,0.0603728156684536,1
40,913,16,0.0618235328916512,1
40,914,16,0.0590254186754385,1
40,915,16,0.0583185823424199,1
40,916,16,0.0653752697376844,1
40,917,16,0.071072512697992,1
40,918,16,0.0572872611634439,1
41,911,16,0.0590268988065826,1
41,912,16,0.0621141929079569,1
41,913,16,0.0648402465561181,1
41,914,16,0.0623198073013136,1
41,915,16,0.0651783238414666,1
41,916,16,0.0754707784135881,1
41,917,16,0.0820749525673989,1
41,918,16,0.0656993300041901,1
42,913,16,0.0641499747186524,1
42,914,16,0.0576207447350025,1
42,916,16,0.0632642194253025,1
42,917,16,0.0691580367748077,1
42,918,16,0.0593333449227798,1
43,913,16,0.0626168124216474,1
43,916,16,0.0735437656027052,1
43,917,16,0.0833755573666752,1
43,918,16,0.0639834393256622,1
44,915,16,0.06684237454833,1
44,916,16,0.103726446572856,1
44,917,16,0.117979779262087,1
44,918,16,0.0803724538324098,1
45,915,16,0.0665870135958832,1
45,916,16,0.100431179303393,1
45,917,16,0.112881240504163,1
45,918,16,0.0787222137516001,1
45,919,16,0.0571979343643569,1
46,916,16,0.0685119801696865,1
46,917,16,0.074945479280853,1
46,918,16,0.0647739237076014,1
46,919,16,0.0608285545343529,1
46,920,16,0.0581852879823352,1
47,918,16,0.0594860519989059,1
47,919,16,0.0658908448215884,1
47,920,16,0.0632313381055435,1
47,921,16,0.0576941792893351,1
48,920,16,0.0623755628390326,1
50,926,16,0.13407917161341,1
50,927,16,0.1218575577454,1
51,925,16,0.172429322381574,1
51,926,16,0.268895649032435,3
51,927,16,0.233878293639715,3
51,928,16,0.132464106760786,1
52,924,16,0.10571545977756,1
52,925,16,0.224895324653734,3
52,926,16,0.343029886713711,3
52,927,16,0.285005184115105,3
52,928,16,0.149362746342177,1
53,925,16,0.196767855901131,1
53,926,16,0.271415905482198,3
53,927,16,0.213180753002036,3
54,926,16,0.151194948202722,1
36,907,17,0.0591387165227358,1
36,908,17,0.0645095581326165,1
36,909,17,0.0599769130205592,1
37,904,17,0.114771786657695,1
37,905,17,0.0945028707703749,1
37,906,17,0.0701528618117485,1
37,907,17,0.0621641576537098,1
37,908,17,0.0637171572462079,1
37,909,17,0.0606112229275168,1
38,903,17,0.143305931761779,1
38,904,17,0.162590884769797,1
38,905,17,0.127401704431751,1
38,906,17,0.0827057184153223,1
38,907,17,0.06446720633231,1
38,908,17,0.0615933636533382,1
38,909,17,0.0597103125065161,1
38,910,17,0.0583915510387431,1
38,911,17,0.0571353619676635,1
39,903,17,0.157399127234479,1
39,904,17,0.182887303970488,1
39,905,17,0.140412234096504,1
39,906,17,0.0852042151681858,1
39,907,17,0.0626179505304554,1
39,908,17,0.0590041897028538,1
39,909,17,0.058976928163893,1
39,910,17,0.0625003184345888,1
39,911,17,0.0623748021341816,1
39,912,17,0.0586612828262424,1
39,913,17,0.0569664736968784,1
40,903,17,0.133955453878736,1
40,904,17,0.152966871575,1
40,905,17,0.118185712090032,1
40,907,17,0.0590350011977858,1
40,909,17,0.0581471819765457,1
40,910,17,0.0640862406254036,1
40,911,17,0.0657512525329702,1
40,912,17,0.0642120635665259,1
40,913,17,0.0642828562931591,1
40,914,17,0.0607520476759323,1
41,904,17,0.113517885598105,1
41,910,17,0.0620752141555167,1
41,911,17,0.066371551318022,1
41,912,17,0.0668353748843139,1
41,913,17,0.0656937691927603,1
41,914,17,0.0616940066742003,1
41,915,17,0.0582754462495152,1
41,916,17,0.0577633090797825,1
41,917,17,0.0587764382086408,1
42,911,17,0.0746788787668099,1
42,912,17,0.0732090672621598,1
42,913,17,0.0653471826275675,1
42,914,17,0.0575291770999204,1
42,917,17,0.058710911446596,1
43,910,17,0.0745631631754127,1
43,911,17,0.0800488830116609,1
43,912,17,0.0747474778329427,1
43,913,17,0.0643427691713426,1
43,916,17,0.0700501194813753,1
43,917,17,0.0790930721087814,1
43,918,17,0.0630547897138174,1
44,911,17,0.070898688691081,1
44,912,17,0.0664552819240582,1
44,913,17,0.0611138601320178,1
44,914,17,0.0577015386664978,1
44,915,17,0.0664487776027357,1
44,916,17,0.097383707216426,1
44,917,17,0.110958815510133,1
44,918,17,0.0791096955737026,1
45,915,17,0.0659968894365859,1
45,916,17,0.094664718098586,1
45,917,17,0.106321358242875,1
45,918,17,0.0774810205908768,1
45,919,17,0.0586167550562459,1
46,916,17,0.0678539350919917,1
46,917,17,0.0738514500756365,1
46,918,17,0.0644960777350252,1
46,919,17,0.0595583071658727,1
47,918,17,0.0596325083219931,1
47,919,17,0.062404428344811,1
47,920,17,0.0587994834377689,1
47,933,17,0.0574101415330885,1
48,918,17,0.0575975461855169,1
48,919,17,0.061943093285861,1
48,920,17,0.0586587294525954,1
49,920,17,0.0577078365950313,1
49,926,17,0.0618403332646773,1
49,927,17,0.0588907267413253,1
50,922,17,0.057177159455908,1
50,924,17,0.0692028063192141,1
50,925,17,0.117656745062589,1
50,926,17,0.171804789595879,3
50,927,17,0.154751461567587,3
50,928,17,0.100022568756632,1
50,929,17,0.0589642320588999,1
51,924,17,0.111605308488579,1
51,925,17,0.250173535057006,3
51,926,17,0.400209676203444,3
51,927,17,0.347888844722142,3
51,928,17,0.187929208547105,3
52,924,17,0.140277076304381,3
52,925,17,0.339032754228976,3
52,926,17,0.535306659113555,3
52,927,17,0.448877709135336,3
52,928,17,0.227221005775884,3
52,929,17,0.103448913137932,1
53,924,17,0.128874594137426,1
53,925,17,0.280818901484641,3
53,926,17,0.415617664505431,3
53,927,17,0.333983183634481,3
53,928,17,0.174702355651714,3
54,925,17,0.158185707844237,1
54,926,17,0.198157881850483,3
54,927,17,0.153281060369254,3
36,907,18,0.0580783588268134,1
36,908,18,0.0609775111586556,1
36,909,18,0.0569573983110984,1
37,903,18,0.136438547832602,1
37,904,18,0.145443229339987,1
37,905,18,0.105868933455474,1
37,906,18,0.0726185480080949,1
37,907,18,0.0639357743852726,1
37,908,18,0.064402965102494,1
37,909,18,0.0615091966739767,1
38,902,18,0.132461559284076,1
38,903,18,0.215658740208608,1
38,904,18,0.237489837219069,1
38,905,18,0.160615977037988,1
38,906,18,0.0910421354534881,1
38,907,18,0.0691221008417712,1
38,908,18,0.066581670971116,1
38,909,18,0.0647776210869932,1
38,910,18,0.0619094276735037,1
39,902,18,0.137480017639861,1
39,903,18,0.230233043169446,1
39,904,18,0.261489355840322,1
39,905,18,0.17585446378776,1
39,906,18,0.0934012757952066,1
39,907,18,0.0675513927479754,1
39,908,18,0.0646758517511968,1
39,909,18,0.0639430806900039,1
39,910,18,0.0637967128209691,1
39,911,18,0.0603780757361052,1
39,912,18,0.0569375787064159,1
40,902,18,0.109626249313243,1
40,903,18,0.17220746782419,1
40,904,18,0.19848065658476,1
40,905,18,0.139369337230532,1
40,907,18,0.0637785561524723,1
40,908,18,0.0618208026098993,1
40,909,18,0.0623567339197373,1
40,910,18,0.0656273578901911,1
40,911,18,0.0665601235639426,1
40,912,18,0.0651078318586116,1
40,913,18,0.0646517745581237,1
40,914,18,0.0604643833035357,1
41,903,18,0.112120948438788,1
41,904,18,0.123156829836953,1
41,909,18,0.0611708481295341,1
41,910,18,0.0674851819412584,1
41,911,18,0.0721788252226235,1
41,912,18,0.0684669216753754,1
41,913,18,0.0646288590616058,1
41,914,18,0.0596153718235678,1
42,910,18,0.0908468819781402,1
42,911,18,0.0984949377863729,1
42,912,18,0.0821547086380123,1
42,913,18,0.0650702919587577,1
43,909,18,0.0910209418625244,1
43,910,18,0.115397357304271,1
43,911,18,0.122933453869867,1
43,912,18,0.0931588586190997,1
43,913,18,0.0662219519276049,1
43,916,18,0.0643610260877655,1
43,917,18,0.0699878596223338,1
43,918,18,0.0600488674437477,1
44,908,18,0.0849137851324164,1
44,909,18,0.0868067372361746,1
44,910,18,0.106186530679215,1
44,911,18,0.110530332286257,1
44,912,18,0.0858924466655087,1
44,913,18,0.065308522309716,1
44,914,18,0.0599080957677637,1
44,915,18,0.063333207689266,1
44,916,18,0.0818476492403849,1
44,917,18,0.0919880630902421,1
44,918,18,0.0741198786400965,1
45,911,18,0.0753453800519176,1
45,912,18,0.0649637873826875,1
45,913,18,0.0575565211959969,1
45,914,18,0.0569072566572407,1
45,915,18,0.0622842723599815,1
45,916,18,0.0802590262525023,1
45,917,18,0.0892685491450244,1
45,918,18,0.0732831917581014,1
45,919,18,0.0578047468548805,1
46,916,18,0.0641682257381384,1
46,917,18,0.0689718999637975,1
46,918,18,0.0631575438380643,1
47,917,18,0.0574646233324524,1
47,918,18,0.0586462397403914,1
47,919,18,0.0585114357644784,1
47,934,18,0.0579246669622369,1
48,919,18,0.0591472081117697,1
49,919,18,0.0612063005137506,1
49,920,18,0.0589264916631938,1
49,925,18,0.0606314553177774,1
49,926,18,0.0674491693480432,1
49,927,18,0.0617060305283948,1
50,920,18,0.0673233228191736,1
50,921,18,0.067569932717366,1
50,922,18,0.0602998705598778,1
50,924,18,0.0739317486644382,1
50,925,18,0.132182327531345,3
50,926,18,0.186898707042348,3
50,927,18,0.170061938122168,3
50,928,18,0.107526444459394,1
50,929,18,0.0647560382981988,1
51,922,18,0.0754973323201295,1
51,924,18,0.130909815739123,3
51,925,18,0.306398138719165,3
51,926,18,0.472690200508118,3
51,927,18,0.420807535020964,3
51,928,18,0.224024299908583,3
51,929,18,0.0993905822427853,1
52,924,18,0.161714482018258,3
52,925,18,0.412416429790646,3
52,926,18,0.642677424440661,3
52,927,18,0.56054960583459,3
52,928,18,0.287147989432312,3
52,929,18,0.135333096260748,1
53,924,18,0.139495508090928,3
53,925,18,0.332737278821232,3
53,926,18,0.499526546735866,3
53,927,18,0.424123925118149,3
53,928,18,0.22634877805562,3
54,925,18,0.161163778881663,3
54,926,18,0.215951086748847,3
54,927,18,0.178381761180097,3
36,908,19,0.0591016719655755,1
37,903,19,0.152557671334556,1
37,904,19,0.15799856265703,1
37,905,19,0.110779536836655,1
37,907,19,0.0687977634192346,1
37,908,19,0.0661277424648233,1
37,909,19,0.062949016357914,1
37,910,19,0.0585846934107062,1
38,902,19,0.158024285095478,1
38,903,19,0.266022307593094,1
38,904,19,0.282838696699593,1
38,905,19,0.182059692474273,1
38,906,19,0.0992265412540737,1
38,907,19,0.0749112416656233,1
38,908,19,0.0704523023669927,1
38,909,19,0.0686016313002991,1
38,910,19,0.0637258080525361,1
39,902,19,0.165038502751699,1
39,903,19,0.28234045271303,1
39,904,19,0.310972369029741,4
39,905,19,0.198956704501099,1
39,906,19,0.101376741330064,1
39,907,19,0.0724695088266766,1
39,908,19,0.0688477753404821,1
39,909,19,0.0675630450951497,1
39,910,19,0.0633566892917194,1
39,911,19,0.0585522366703989,1
40,902,19,0.13035557444043,1
40,903,19,0.208244969700595,1
40,904,19,0.235574889540938,1
40,905,19,0.158720843067604,1
40,906,19,0.0893551810439805,1
40,908,19,0.0656195208611453,1
40,909,19,0.0646074177992953,1
40,910,19,0.0637808264731515,1
40,911,19,0.0642201069883608,1
40,912,19,0.0632368871230996,1
40,913,19,0.0607081390843029,1
41,903,19,0.118489793534561,1
41,904,19,0.131622260059066,1
41,905,19,0.100895256437969,1
41,908,19,0.064224895301066,1
41,909,19,0.0639148815380872,1
41,910,19,0.0698969996196712,1
41,911,19,0.0744024244713255,1
41,912,19,0.0688903512243881,1
41,913,19,0.0616928744623291,1
42,909,19,0.0773456917875861,1
42,910,19,0.104445365729437,1
42,911,19,0.114224704240313,1
42,912,19,0.0887506270802624,1
42,913,19,0.0632675335038004,1
43,908,19,0.100590361216158,1
43,909,19,0.103430526488899,1
43,910,19,0.146937218285637,1
43,911,19,0.16078959465211,1
43,912,19,0.113166027171387,1
43,913,19,0.0676027137891989,1
43,917,19,0.0569669631426352,1
44,907,19,0.0960904028249441,1
44,908,19,0.103901184604976,1
44,909,19,0.100559178214206,1
44,910,19,0.136086382765169,1
44,911,19,0.14726262305374,1
44,912,19,0.106422372770757,1
44,913,19,0.0679716084664162,1
44,914,19,0.0593459997492151,1
44,915,19,0.0577673543784473,1
44,916,19,0.0637690384964302,1
44,917,19,0.0689703549663483,1
44,918,19,0.0628642243032486,1
45,908,19,0.0826441838795108,1
45,909,19,0.0779438947503393,1
45,910,19,0.0909466168707306,1
45,911,19,0.0943517027947612,1
45,912,19,0.076736791781425,1
45,913,19,0.0617557711905481,1
45,914,19,0.0586351888807737,1
45,915,19,0.0583474832298193,1
45,916,19,0.0650962325838688,1
45,917,19,0.0702855369934661,1
45,918,19,0.0640719700382772,1
46,912,19,0.0573481057576465,1
46,916,19,0.0597318422228791,1
46,917,19,0.0621768183770818,1
46,918,19,0.0583303290405835,1
47,935,19,0.0625534852170398,1
48,915,19,0.0582370748815683,1
48,919,19,0.0570528579244877,1
48,934,19,0.0577349684013819,1
48,935,19,0.0813363435387452,1
49,918,19,0.0582124905519278,1
49,919,19,0.0622008189099762,1
49,920,19,0.0622702553411387,1
49,921,19,0.0599652842611322,1
49,925,19,0.0655914632357125,1
49,926,19,0.0704108763857684,1
49,927,19,0.065059895659128,1
50,919,19,0.0688492377808157,1
50,920,19,0.0727308138914471,1
50,921,19,0.0732576521246946,1
50,922,19,0.0639130357968597,1
50,923,19,0.0617605830910007,1
50,924,19,0.0797802185697277,1
50,925,19,0.137562940365552,3
50,926,19,0.181823873970477,3
50,927,19,0.164481572449813,3
50,928,19,0.104220881138228,1
50,929,19,0.0681576273386898,1
51,920,19,0.0841113653503351,1
51,921,19,0.0905187410313488,1
51,922,19,0.0788565223848194,1
51,923,19,0.0803292587701367,1
51,924,19,0.140878257220233,3
51,925,19,0.3158381203094,3
51,926,19,0.46074701640943,3
51,927,19,0.410468412090777,3
51,928,19,0.218214873622039,3
51,929,19,0.102713541527597,1
51,930,19,0.0597447388237243,1
52,922,19,0.0811724735612017,1
52,924,19,0.172855529387833,3
52,925,19,0.419145778222527,3
52,926,19,0.635706301598787,3
52,927,19,0.56762791140027,3
52,928,19,0.305367755153144,3
52,929,19,0.151458812538077,3
53,924,19,0.145803084013046,3
53,925,19,0.331770086830272,3
53,926,19,0.494346016968271,3
53,927,19,0.442413298281312,3
53,928,19,0.259050665820779,3
53,929,19,0.167185565657297,1
54,925,19,0.155156923150081,3
54,926,19,0.214485037489894,3
54,927,19,0.19253267587048,3
54,928,19,0.13771913842828,1
31,912,20,0.0636617732155091,1
31,913,20,0.0574153013528139,1
32,911,20,0.0577162397300128,1
32,924,20,0.0604820623201493,1
36,908,20,0.0569857448864358,1
37,903,20,0.155204428873177,1
37,904,20,0.158840256038393,1
37,905,20,0.110619057597788,1
37,908,20,0.0666168697870489,1
37,909,20,0.0653339086227652,1
37,910,20,0.0608551202347679,1
38,902,20,0.168185709731257,1
38,903,20,0.283873821402824,1
38,904,20,0.296873736581284,4
38,905,20,0.187545836889973,1
38,906,20,0.0997954777193441,1
38,907,20,0.0753724293011526,1
38,908,20,0.0716984194699682,1
38,909,20,0.0711283507928266,1
38,910,20,0.0648821973647203,1
39,902,20,0.184720166287958,1
39,903,20,0.31426559595906,4
39,904,20,0.339052119769523,4
39,905,20,0.210725881787834,4
39,906,20,0.102673147510318,1
39,907,20,0.0724195912564184,1
39,908,20,0.069701445400545,1
39,909,20,0.0681527387780585,1
39,910,20,0.0619651596234754,1
40,902,20,0.15090987848253,1
40,903,20,0.239349212164522,1
40,904,20,0.263047444489303,4
40,905,20,0.17087999658072,1
40,906,20,0.0913407563345131,1
40,908,20,0.0664657548838667,1
40,909,20,0.0635815630807598,1
40,910,20,0.0605690067567574,1
40,911,20,0.060491007973319,1
40,912,20,0.0607826999535699,1
40,913,20,0.0571901445108057,1
41,903,20,0.129414718169349,1
41,904,20,0.141349115832162,1
41,905,20,0.105167693315506,1
41,908,20,0.0650589167676144,1
41,909,20,0.0642822253209184,1
41,910,20,0.0697258999975752,1
41,911,20,0.0732586487070188,1
41,912,20,0.0675257410727689,1
41,913,20,0.059114798546957,1
42,908,20,0.0724201042899225,1
42,909,20,0.0775042427281098,1
42,910,20,0.10804668402033,1
42,911,20,0.120111462956434,1
42,912,20,0.0902924401835957,1
42,913,20,0.061460776925673,1
43,908,20,0.101596071998485,1
43,909,20,0.108936366673608,1
43,910,20,0.163629299963779,1
43,911,20,0.185134331749212,1
43,912,20,0.126008777189478,1
43,913,20,0.0686372134171258,1
44,907,20,0.105502757266135,1
44,908,20,0.113453573605047,1
44,909,20,0.111587653059713,1
44,910,20,0.157979975512144,1
44,911,20,0.177537661848508,1
44,912,20,0.12312912602773,1
44,913,20,0.0705816988518334,1
45,908,20,0.0901619468685048,1
45,909,20,0.0845200584542119,1
45,910,20,0.103778209884342,1
45,911,20,0.111822728549468,1
45,912,20,0.087262953753957,1
45,913,20,0.0657418705064752,1
45,914,20,0.0592490776954922,1
45,917,20,0.0569678712709069,1
46,912,20,0.0633604043619217,1
46,913,20,0.0609793686937568,1
46,914,20,0.059313189192698,1
46,937,20,0.0623980537560987,1
47,913,20,0.0580717365667543,1
47,914,20,0.0573924743103485,1
47,935,20,0.0590620209623367,1
47,936,20,0.0681607291274619,1
48,935,20,0.0739621709615394,1
48,936,20,0.0910667846494337,1
49,919,20,0.0615832563036132,1
49,920,20,0.0646330164020703,1
49,921,20,0.0615043788765873,1
49,925,20,0.0618807213850197,1
49,926,20,0.0658118671466364,1
49,927,20,0.0612170565265268,1
49,935,20,0.072299187600242,1
50,918,20,0.0594753667493716,1
50,919,20,0.0696490098382607,1
50,920,20,0.0772376363171299,1
50,921,20,0.0747524548476265,1
50,922,20,0.0647218832400847,1
50,923,20,0.0611687488200229,1
50,924,20,0.0795052031268295,1
50,925,20,0.124945807150541,1
50,926,20,0.15873137499678,3
50,927,20,0.138185975329292,3
50,928,20,0.090817285252195,1
50,929,20,0.062604369884938,1
51,919,20,0.0710417188938705,1
51,920,20,0.0844845471006271,1
51,921,20,0.0860969465378046,1
51,922,20,0.0764456600101729,1
51,923,20,0.0783086261901552,1
51,924,20,0.132575405546498,1
51,925,20,0.267295715719715,3
51,926,20,0.375200130242106,3
51,927,20,0.323003865654381,3
51,928,20,0.178803238843019,3
51,929,20,0.0877620174147395,1
52,921,20,0.0808117579353664,1
52,922,20,0.0785388072223418,1
52,923,20,0.0875411004703114,1
52,924,20,0.165799679357598,3
52,925,20,0.357453110152987,3
52,926,20,0.527505106039662,3
52,927,20,0.46544144988033,3
52,928,20,0.271329149747569,3
52,929,20,0.135906243138914,1
52,930,20,0.0755157838354677,1
53,924,20,0.139052306112727,1
53,925,20,0.279622200712293,3
53,926,20,0.410630176861873,3
53,927,20,0.376836412273441,3
53,928,20,0.251042271790668,3
53,929,20,0.159295133951515,1
54,926,20,0.193889348745127,3
54,927,20,0.182487586004465,3
54,928,20,0.148323057409841,1
30,912,21,0.0883324399080908,1
30,913,21,0.0674263423055778,1
30,915,21,0.0582589348263937,1
30,916,21,0.0585588884151421,1
31,910,21,0.127141201350389,1
31,911,21,0.1170319410178,1
31,912,21,0.0859246498375323,1
31,913,21,0.0649382772339649,1
31,924,21,0.067390866333614,1
32,909,21,0.0742384188642349,1
32,910,21,0.0863379484490726,1
32,911,21,0.08219795087578,1
32,912,21,0.0677499956834422,1
32,923,21,0.0633221332419009,1
32,925,21,0.0814006260471191,1
33,909,21,0.0597557660955947,1
33,910,21,0.059212510790215,1
33,923,21,0.0611188430436384,1
33,924,21,0.0826612083361363,1
33,925,21,0.0799655769850764,1
33,926,21,0.0612704297017669,1
34,924,21,0.0597802088987513,1
34,925,21,0.0600067220362302,1
36,908,21,0.0575757393131229,1
37,903,21,0.149553689156703,1
37,904,21,0.151737879176576,1
37,905,21,0.108851191318048,1
37,907,21,0.0699701629149097,1
37,908,21,0.0675303347865587,1
37,909,21,0.0673158337094007,1
37,910,21,0.0614828963357189,1
38,902,21,0.167342129330109,1
38,903,21,0.265456956465416,1
38,904,21,0.274500498786505,1
38,905,21,0.17399048923158,1
38,906,21,0.0975486917150302,1
38,907,21,0.0749737609898853,1
38,908,21,0.0725014820181639,1
38,909,21,0.0726850949402112,1
38,910,21,0.0653264313068659,1
39,902,21,0.192639575541318,1
39,903,21,0.309816687349976,1
39,904,21,0.327145614617912,4
39,905,21,0.201828795789832,1
39,906,21,0.101913256436648,1
39,907,21,0.0730211731639746,1
39,908,21,0.0699322220233513,1
39,909,21,0.0678352005236857,1
39,910,21,0.0612335561557746,1
40,902,21,0.158383762364579,1
40,903,21,0.23685681284434,1
40,904,21,0.251388610684514,1
40,905,21,0.162295377471418,1
40,907,21,0.0702771043738005,1
40,908,21,0.0663999627596645,1
40,909,21,0.0626851284348124,1
40,910,21,0.0591722641963565,1
40,911,21,0.0581732051587724,1
40,912,21,0.057013030013144,1
41,903,21,0.130642955759859,1
41,904,21,0.137050378616367,1
41,907,21,0.068479116540738,1
41,908,21,0.0651378590609454,1
41,909,21,0.0653818330283752,1
41,910,21,0.069299209442496,1
41,911,21,0.0708024035065356,1
41,912,21,0.0635987290638693,1
42,908,21,0.0712009302913191,1
42,909,21,0.0810074595779133,1
42,910,21,0.105051853888435,1
42,911,21,0.114157455572714,1
42,912,21,0.0844613839327625,1
42,913,21,0.0588647153529722,1
43,908,21,0.0969338770812295,1
43,909,21,0.11471522323963,1
43,910,21,0.161253141062371,1
43,911,21,0.178418664210773,1
43,912,21,0.12017112816327,1
43,913,21,0.0675829649477583,1
44,907,21,0.108726211638893,1
44,908,21,0.117712919282823,1
44,909,21,0.129467790600811,1
44,910,21,0.170252880936694,1
44,911,21,0.183538549880019,1
44,912,21,0.124894775059222,1
44,913,21,0.0728383209467782,1
45,908,21,0.0982783315027669,1
45,909,21,0.100785042688633,1
45,910,21,0.118151686764528,1
45,911,21,0.122544256039147,1
45,912,21,0.0941291052233368,1
45,913,21,0.0707667978019616,1
45,914,21,0.0602496758335886,1
46,911,21,0.0744844980381127,1
46,912,21,0.0716162692430022,1
46,913,21,0.0673700678374178,1
46,914,21,0.0621584965943539,1
46,937,21,0.0577510729358622,1
46,938,21,0.0654090179071573,1
47,912,21,0.062386035798841,1
47,913,21,0.0623356936491311,1
47,914,21,0.0593767817594629,1
47,936,21,0.0599573116025393,1
47,937,21,0.0682109002660037,1
48,935,21,0.0644472039225858,1
48,936,21,0.0747112116714438,1
48,937,21,0.0871551341609739,1
49,919,21,0.0590791397699515,1
49,920,21,0.0626501124239213,1
49,921,21,0.0580353642603925,1
49,935,21,0.066197727311111,1
49,936,21,0.084065204128837,1
50,918,21,0.0573686212008749,1
50,919,21,0.0670948401047938,1
50,920,21,0.0747429312946475,1
50,921,21,0.0691051117667666,1
50,922,21,0.0603076073409976,1
50,924,21,0.0709609249623752,1
50,925,21,0.0996597774090331,1
50,926,21,0.121255362556414,1
50,927,21,0.102854030150613,1
50,928,21,0.0722008502816802,1
50,935,21,0.0637381857229404,1
51,919,21,0.0669029066048806,1
51,920,21,0.0772200870331265,1
51,921,21,0.0747977492194107,1
51,922,21,0.0686881806421396,1
51,923,21,0.0690161034022684,1
51,924,21,0.107371272463673,1
51,925,21,0.190386674413512,1
51,926,21,0.257325410806566,3
51,927,21,0.213382333890602,3
51,928,21,0.126977101392309,1
51,929,21,0.069946239042194,1
52,920,21,0.0682019310250867,1
52,921,21,0.0706264330146188,1
52,922,21,0.071470986410344,1
52,923,21,0.0784255506536023,1
52,924,21,0.135047873220198,1
52,925,21,0.257904348476699,3
52,926,21,0.366198739225471,3
52,927,21,0.316165471066656,3
52,928,21,0.198564133622513,3
52,929,21,0.105142277517773,1
52,930,21,0.0640062191926329,1
53,924,21,0.11703958344793,1
53,925,21,0.206970688827324,1
53,926,21,0.294903145407234,3
53,927,21,0.275857549065109,3
53,928,21,0.205633829660422,1
53,929,21,0.132789594086005,1
53,930,21,0.0846046264252778,1
53,931,21,0.0609792035795256,1
54,926,21,0.165908182995253,1
54,927,21,0.166425650995879,1
54,928,21,0.147463142493676,1
54,929,21,0.113751392502663,1
30,910,22,0.17419766041626,1
30,911,22,0.164999535793133,1
30,912,22,0.115930664477221,1
30,913,22,0.0776080229193649,1
30,914,22,0.061711821320361,1
30,915,22,0.0582472706853458,1
30,916,22,0.0570784683211364,1
31,909,22,0.11808724503886,1
31,910,22,0.18133990057104,1
31,911,22,0.175143269618425,1
31,912,22,0.120867379494681,1
31,913,22,0.0760463312419807,1
31,914,22,0.0575125182533783,1
31,923,22,0.0626267664510149,1
31,925,22,0.0886641131200429,1
32,908,22,0.0748513700659976,1
32,909,22,0.092297416396296,1
32,910,22,0.124655736827918,1
32,911,22,0.120977451717532,1
32,912,22,0.0891406092035805,1
32,913,22,0.0613456156463378,1
32,926,22,0.0805095399228756,1
33,908,22,0.0698983736059523,1
33,909,22,0.0698491341834295,1
33,910,22,0.0725415104253597,1
33,911,22,0.0677282418834797,1
33,912,22,0.0572093685248685,1
33,923,22,0.0787725676951837,1
33,925,22,0.124860384123635,1
33,926,22,0.0802230608347817,1
34,908,22,0.0626267605540781,1
34,909,22,0.0600388013725804,1
34,924,22,0.0744160994678321,1
34,925,22,0.0748553446014204,1
34,926,22,0.0632315091167115,1
36,907,22,0.0636309027512088,1
36,908,22,0.05831713169596,1
37,907,22,0.0703753296505626,1
37,908,22,0.0681553216363896,1
37,909,22,0.0677261661617159,1
37,910,22,0.0606405483943679,1
38,903,22,0.217346136888378,1
38,904,22,0.221892604420363,1
38,905,22,0.146402873251806,1
38,906,22,0.0909853715395713,1
38,907,22,0.0747315561035042,1
38,908,22,0.074166063449342,1
38,909,22,0.0737448983240717,1
38,910,22,0.0649275742936201,1
39,902,22,0.176250372332591,1
39,903,22,0.266951971478073,1
39,904,22,0.27435340559424,1
39,905,22,0.17287176955186,1
39,906,22,0.0952271915210917,1
39,907,22,0.0736397854250932,1
39,908,22,0.0708578877851605,1
39,909,22,0.0681265268938532,1
39,910,22,0.0611320050066409,1
40,902,22,0.1473066967596,1
40,903,22,0.205920515141305,1
40,904,22,0.210544657125203,1
40,905,22,0.139256658561602,1
40,907,22,0.0701610821416882,1
40,908,22,0.0659145151260204,1
40,909,22,0.062327143090729,1
40,910,22,0.0588221512629399,1
41,903,22,0.123620482392077,1
41,904,22,0.125000872746651,1
41,907,22,0.0684589195320983,1
41,908,22,0.0648986910970312,1
41,909,22,0.0656810612938936,1
41,910,22,0.0678312259882629,1
41,911,22,0.065537069890401,1
41,912,22,0.0579661637067032,1
42,908,22,0.0717901168376605,1
42,909,22,0.0833552601101095,1
42,910,22,0.0979861736645066,1
42,911,22,0.097629090551758,1
42,912,22,0.0732111429839236,1
43,908,22,0.0948486553521589,1
43,909,22,0.120132161204704,1
43,910,22,0.148216075181887,1
43,911,22,0.147001306195095,1
43,912,22,0.0995838602442955,1
43,913,22,0.0614603523462213,1
44,908,22,0.118614372222012,1
44,909,22,0.147438988640424,1
44,910,22,0.17154681040348,1
44,911,22,0.162971508454368,1
44,912,22,0.110561149678126,1
44,913,22,0.0694581731685978,1
45,909,22,0.120299398333177,1
45,910,22,0.129058602154241,1
45,911,22,0.121098940410085,1
45,912,22,0.0938215092044579,1
45,913,22,0.0722465397482319,1
45,914,22,0.058777086871692,1
46,910,22,0.0784270720633042,1
46,911,22,0.0791944227620629,1
46,912,22,0.07660433478637,1
46,913,22,0.0707287684563508,1
46,914,22,0.061953513173238,1
47,912,22,0.0645844787150301,1
47,913,22,0.0640454927919147,1
47,914,22,0.0599441673303472,1
47,937,22,0.0612743275770109,1
47,938,22,0.072626066602552,1
48,936,22,0.0626563749708337,1
48,937,22,0.0799516366264124,1
48,938,22,0.0970478943548199,1
49,920,22,0.0576556663949044,1
49,935,22,0.0594116444499965,1
49,936,22,0.0725300349862903,1
49,937,22,0.094355299926227,1
50,919,22,0.0635382382858765,1
50,920,22,0.0685599753385384,1
50,921,22,0.061218914061628,1
50,925,22,0.0661064899044913,1
50,926,22,0.075905724680228,1
50,927,22,0.0668259692700715,1
50,935,22,0.0587853013046949,1
50,936,22,0.0766858481441585,1
51,919,22,0.062272248505787,1
51,920,22,0.0689898679303158,1
51,921,22,0.0653594541531088,1
51,922,22,0.0608672797185095,1
51,923,22,0.0576904288375118,1
51,924,22,0.0739029598188386,1
51,925,22,0.112189506226363,1
51,926,22,0.143537752142404,1
51,927,22,0.120914236554725,1
51,928,22,0.0823135190437565,1
52,920,22,0.0612294165061206,1
52,921,22,0.0628372222295082,1
52,922,22,0.0640636140787904,1
52,923,22,0.0655208592110578,1
52,924,22,0.0928293083044061,1
52,925,22,0.155521483578729,1
52,926,22,0.209534181617918,3
52,927,22,0.184912500779575,3
52,928,22,0.12936004177107,1
52,929,22,0.0812575663596454,1
52,930,22,0.0574733802836436,1
53,922,22,0.0595967316062511,1
53,923,22,0.0645085910349766,1
53,924,22,0.0866389752803239,1
53,925,22,0.136148347777369,1
53,926,22,0.18763761681478,1
53,927,22,0.188531450911586,1
53,928,22,0.16101091848518,1
53,929,22,0.117381287349429,1
53,930,22,0.0801465068008665,1
53,931,22,0.0602525653326349,1
54,925,22,0.0981777002757785,1
54,926,22,0.135668113035882,1
54,927,22,0.158181485637468,1
54,928,22,0.158062568009372,1
54,929,22,0.127377149586795,1
54,930,22,0.0903275033699815,1
54,931,22,0.0626896985608549,1
29,911,23,0.111287015426292,1
29,912,23,0.0947262821190817,1
29,913,23,0.0734007471937893,1
29,914,23,0.0624240474536414,1
29,915,23,0.0582006436058382,1
30,910,23,0.198137101045098,1
30,911,23,0.198624117263938,1
30,912,23,0.150823134541775,1
30,913,23,0.0953055146360557,1
30,914,23,0.0669574001981182,1
30,915,23,0.0594610371928769,1
30,916,23,0.057753219420868,1
30,917,23,0.0593282558662963,1
30,918,23,0.0606905485217417,1
31,909,23,0.147389053379355,1
31,910,23,0.227987513212677,1
31,911,23,0.228315217786143,1
31,912,23,0.166877262005998,1
31,913,23,0.0981555985565431,1
31,914,23,0.0644768949995202,1
31,923,23,0.0722207878250993,1
32,908,23,0.0954675329754349,1
32,909,23,0.121310215862798,1
32,910,23,0.166434626133733,1
32,911,23,0.161704150584934,1
32,912,23,0.120259016109771,1
32,913,23,0.0751705712565561,1
33,908,23,0.0884062754541278,1
33,909,23,0.089854073693595,1
33,910,23,0.0953927775072525,1
33,911,23,0.0872034182797305,1
33,912,23,0.0702185124094667,1
33,923,23,0.0970814892039352,1
33,926,23,0.0998406246677076,1
33,927,23,0.060734563258234,1
34,907,23,0.0713831810209588,1
34,908,23,0.076030315161553,1
34,909,23,0.0706943952115741,1
34,910,23,0.0650190534746497,1
34,911,23,0.0571000923884887,1
34,923,23,0.0599776147560418,1
34,924,23,0.0888677225548776,1
34,925,23,0.0887577741676993,1
34,926,23,0.071518185492724,1
34,927,23,0.0619627418793755,1
35,907,23,0.0656320577488439,1
35,908,23,0.0631889037481213,1
35,909,23,0.0577609267173036,1
35,927,23,0.059158341528503,1
36,906,23,0.0715376217965127,1
36,907,23,0.0658957628669039,1
36,908,23,0.061000992761109,1
36,909,23,0.0570119154920833,1
37,906,23,0.0777403089032518,1
37,907,23,0.070873396729021,1
37,908,23,0.0688011954364691,1
37,909,23,0.0656736370504258,1
37,910,23,0.0581192010112916,1
38,906,23,0.0843274173218792,1
38,907,23,0.0749747988507672,1
38,908,23,0.075494519481262,1
38,909,23,0.0715961371006677,1
38,910,23,0.0626141764908848,1
39,903,23,0.204113127590937,1
39,904,23,0.202291233575969,1
39,906,23,0.0882289899452981,1
39,907,23,0.0744592945301052,1
39,908,23,0.0720532086742903,1
39,909,23,0.0675035980749756,1
39,910,23,0.0608887740532515,1
40,903,23,0.16383241405592,1
40,904,23,0.161253247207234,1
40,906,23,0.0831459011618664,1
40,907,23,0.0709280908181108,1
40,908,23,0.0662697760852888,1
40,909,23,0.0624719954469987,1
40,910,23,0.0585264965411399,1
41,907,23,0.0696492928912285,1
41,908,23,0.0661777779738182,1
41,909,23,0.0660940355739083,1
41,910,23,0.0647381528887961,1
41,911,23,0.0580075484093697,1
42,907,23,0.0727600214195616,1
42,908,23,0.0755456459235702,1
42,909,23,0.0838031737408365,1
42,910,23,0.0868307082843848,1
42,911,23,0.0766882364035743,1
42,912,23,0.0597138152869926,1
43,907,23,0.0855840958387157,1
43,908,23,0.0960967420320354,1
43,909,23,0.117829690425913,1
43,910,23,0.125179290467352,1
43,911,23,0.107231833495413,1
43,912,23,0.075642019562168,1
44,908,23,0.113380062390535,1
44,909,23,0.146041921748497,1
44,910,23,0.15210929184582,1
44,911,23,0.125865823646868,1
44,912,23,0.0882251687302329,1
44,913,23,0.0611273464265459,1
45,909,23,0.126591040731983,1
45,910,23,0.127719879555301,1
45,911,23,0.1087751444207,1
45,912,23,0.0871434051536209,1
45,913,23,0.0685737977584658,1
46,910,23,0.0829155903970695,1
46,911,23,0.0798937640883718,1
46,912,23,0.0776943776622901,1
46,913,23,0.0700500310273228,1
46,914,23,0.0600380878432241,1
47,911,23,0.0616659254610202,1
47,912,23,0.0655961866821125,1
47,913,23,0.0644457650699995,1
47,914,23,0.0602721077812865,1
47,938,23,0.064076947052961,1
47,939,23,0.068820313305669,1
48,937,23,0.0705998024478987,1
48,938,23,0.0850264225227888,1
48,939,23,0.0886002610880575,1
49,936,23,0.0623711283425371,1
49,937,23,0.0789499180703185,1
49,938,23,0.0856955479447854,1
50,919,23,0.0594464540680986,1
50,920,23,0.0598962901002319,1
50,936,23,0.0656803300737268,1
50,937,23,0.0815853299024798,1
51,919,23,0.0578753154979142,1
51,920,23,0.0609814208277733,1
51,921,23,0.0581515221220519,1
51,924,23,0.0582618361193136,1
51,925,23,0.0745246561779188,1
51,926,23,0.0863368928973802,1
51,927,23,0.0751210782657496,1
51,928,23,0.0587366633697286,1
52,921,23,0.0570827553942112,1
52,922,23,0.0570641328677049,1
52,923,23,0.0572780973236115,1
52,924,23,0.0709048450931306,1
52,925,23,0.100176231136525,1
52,926,23,0.124385645327272,1
52,927,23,0.114852102937307,1
52,928,23,0.0911093015639714,1
52,929,23,0.0675153211853919,1
53,924,23,0.070107644100143,1
53,925,23,0.098399088975153,1
53,926,23,0.132118227828013,1
53,927,23,0.144830655542182,1
53,928,23,0.139999436724594,1
53,929,23,0.113932404875568,1
53,930,23,0.0809502239090502,1
53,931,23,0.0572132899878599,1
54,924,23,0.0622600654342981,1
54,925,23,0.0845987176945751,1
54,926,23,0.12613480652339,1
54,927,23,0.170118595891222,1
54,928,23,0.188399642579582,1
54,929,23,0.160161865726654,1
54,930,23,0.106751657723294,1
54,931,23,0.0628517345910446,1
55,925,23,0.0741126372016704,1
55,926,23,0.127678612791371,1
55,927,23,0.193402521228265,1
55,928,23,0.210280238477786,1
55,929,23,0.166414718074998,1
55,930,23,0.101604044657078,1
29,911,24,0.111848274079811,1
29,912,24,0.101967048294403,1
29,913,24,0.0792567946629042,1
29,914,24,0.0648620180468911,1
29,915,24,0.0596311874081434,1
29,916,24,0.0570962711734234,1
30,909,24,0.137963424933362,1
30,910,24,0.192647984573236,1
30,911,24,0.1974589768975,1
30,912,24,0.166599386548738,1
30,913,24,0.10808082728457,1
30,914,24,0.0733938772623834,1
30,915,24,0.0622421033647167,1
30,916,24,0.059230349024123,1
30,917,24,0.0605027605684194,1
30,918,24,0.0609870936810029,1
30,924,24,0.071591814645972,1
31,908,24,0.130750905085452,1
31,909,24,0.181248191409475,1
31,910,24,0.240090056132234,1
31,911,24,0.238401668767077,1
31,912,24,0.190686073690198,1
31,913,24,0.11479256746308,1
31,914,24,0.072532393761022,1
31,915,24,0.0598417788161838,1
31,923,24,0.0786457422748005,1
31,926,24,0.0979832016083447,1
32,908,24,0.13747246956072,1
32,909,24,0.164241460976006,1
32,910,24,0.188445166931903,1
32,911,24,0.17202086515517,1
32,912,24,0.134202865760337,1
32,913,24,0.0845418476357954,1
32,914,24,0.0614410162903588,1
32,922,24,0.0569025685924616,1
32,927,24,0.0665558895632993,1
33,907,24,0.0891570380695863,1
33,908,24,0.114676468570789,1
33,909,24,0.116583561529063,1
33,910,24,0.112723650764342,1
33,911,24,0.0968288880179244,1
33,912,24,0.077723602881215,1
33,913,24,0.0577809527147752,1
33,923,24,0.0994384535759638,1
33,926,24,0.113356392086103,1
33,927,24,0.0656718856601876,1
34,907,24,0.0774814805519495,1
34,908,24,0.0861255997538571,1
34,909,24,0.078277614199371,1
34,910,24,0.0701853598306136,1
34,911,24,0.0606271505538922,1
34,923,24,0.0584747214357805,1
34,924,24,0.0876410948281222,1
34,925,24,0.0886993944930913,1
34,926,24,0.0721208701274672,1
34,927,24,0.0627439091011247,1
35,906,24,0.0677474305159216,1
35,907,24,0.0683025681490119,1
35,908,24,0.0675726688960547,1
35,909,24,0.0600837655159022,1
35,927,24,0.0616686262580879,1
35,928,24,0.0573431936092678,1
36,906,24,0.0726846762576963,1
36,907,24,0.0671529721080549,1
36,908,24,0.0619793358596125,1
37,906,24,0.0767665241369172,1
37,907,24,0.0711969734467067,1
37,908,24,0.0670360948201024,1
37,909,24,0.060453609599949,1
38,906,24,0.0787777511026564,1
38,907,24,0.0735597286107015,1
38,908,24,0.0724617484578095,1
38,909,24,0.0659772939155028,1
39,906,24,0.079540413736636,1
39,907,24,0.0711296717066764,1
39,908,24,0.0692248431721444,1
39,909,24,0.0651223737048322,1
39,910,24,0.0581971408253617,1
40,906,24,0.0770617542792655,1
40,907,24,0.0675969878635379,1
40,908,24,0.0641959590320457,1
40,909,24,0.0625616996500427,1
40,910,24,0.057726824731621,1
41,906,24,0.0731201237639667,1
41,907,24,0.0662964007550721,1
41,908,24,0.0649692243584439,1
41,909,24,0.0662910640272418,1
41,910,24,0.0622979060779303,1
42,907,24,0.0696695606631101,1
42,908,24,0.0762008486777133,1
42,909,24,0.0827981882817392,1
42,910,24,0.0788421987252615,1
42,911,24,0.0631258065240501,1
43,907,24,0.0786186989225023,1
43,908,24,0.0928573069604706,1
43,909,24,0.108205901314715,1
43,910,24,0.104956453244414,1
43,911,24,0.081551923755343,1
43,912,24,0.0610903962203748,1
44,908,24,0.100773048319123,1
44,909,24,0.125903387134469,1
44,910,24,0.124223196511504,1
44,911,24,0.096665843611537,1
44,912,24,0.0720179155073682,1
45,908,24,0.0907184643848132,1
45,909,24,0.113397871139759,1
45,910,24,0.113538383350523,1
45,911,24,0.0950049064873193,1
45,912,24,0.0793571546307984,1
45,913,24,0.0622502470344776,1
46,909,24,0.0810247081181384,1
46,910,24,0.0826475038549455,1
46,911,24,0.0776682837168214,1
46,912,24,0.0751784318733493,1
46,913,24,0.0657192262690515,1
46,940,24,0.0583518115814518,1
47,911,24,0.0620657023964113,1
47,912,24,0.063987101323433,1
47,913,24,0.0618531473084069,1
47,914,24,0.0574869137536664,1
47,939,24,0.0648031666173368,1
47,940,24,0.0787065986628766,1
48,937,24,0.0575436894614568,1
48,938,24,0.0664639681120075,1
48,939,24,0.0791610343057366,1
48,940,24,0.0889839629736526,1
49,937,24,0.0614109124278463,1
49,938,24,0.0671453355748612,1
49,939,24,0.0708045676823519,1
50,937,24,0.0618266169896128,1
50,938,24,0.065293720998275,1
52,925,24,0.067232014649312,1
52,926,24,0.0759087026333267,1
52,927,24,0.0766301574727446,1
52,928,24,0.0689908114402084,1
52,929,24,0.0571032590435659,1
53,924,24,0.0597036666587097,1
53,925,24,0.0764354701033323,1
53,926,24,0.10048684638706,1
53,927,24,0.121022669429138,1
53,928,24,0.123778933084674,1
53,929,24,0.105708300896249,1
53,930,24,0.0746495945785167,1
54,925,24,0.0751374245746398,1
54,926,24,0.120695424816744,1
54,927,24,0.177958962603325,1
54,928,24,0.202657881520255,1
54,929,24,0.177409816258053,1
54,930,24,0.113045824011062,1
54,931,24,0.0635311855494289,1
55,925,24,0.0694261056261212,1
55,926,24,0.131596549414491,1
55,927,24,0.214413590203273,1
55,928,24,0.239765370790424,1
55,929,24,0.194293100215941,1
55,930,24,0.111666447929623,1
55,931,24,0.0582602321524961,1
56,927,24,0.176575611986463,1
56,928,24,0.186426138318739,1
56,929,24,0.136771547855341,1
29,910,25,0.104362961934188,1
29,911,25,0.105706720517179,1
29,912,25,0.100552208034874,1
29,913,25,0.0806285460050234,1
29,914,25,0.0649839667005167,1
29,915,25,0.060149675578841,1
29,916,25,0.0592107711938504,1
29,917,25,0.0581537216794891,1
30,909,25,0.139401381185262,1
30,910,25,0.168054491092936,1
30,911,25,0.171566871782572,1
30,912,25,0.1545619340179,1
30,913,25,0.106926584457392,1
30,914,25,0.0734403687123439,1
30,915,25,0.062875976898349,1
30,916,25,0.059298216870089,1
30,917,25,0.0590198578640087,1
30,922,25,0.0579514095707568,1
30,923,25,0.0736775670993572,1
31,908,25,0.155863329006711,1
31,909,25,0.195572476042633,1
31,910,25,0.215243525092598,1
31,911,25,0.20753087423834,1
31,912,25,0.17640921222302,1
31,913,25,0.11364444565633,1
31,914,25,0.0730370477179185,1
31,915,25,0.060140287655409,1
31,922,25,0.0584758359568412,1
32,907,25,0.107644678042817,1
32,908,25,0.170440250207501,1
32,909,25,0.194538094353442,1
32,910,25,0.185536597191945,1
32,911,25,0.158748216648364,1
32,912,25,0.129422289836238,1
32,913,25,0.0874070100237548,1
32,914,25,0.0628140826493909,1
32,922,25,0.0597689162647236,1
32,927,25,0.077687584391063,1
33,907,25,0.0926937849022,1
33,908,25,0.128690963524568,1
33,909,25,0.134080799167975,1
33,910,25,0.120121747214263,1
33,911,25,0.100508665053328,1
33,912,25,0.0824795414032426,1
33,913,25,0.0621369020116858,1
33,923,25,0.0869525389992738,1
33,926,25,0.110191954257131,1
33,927,25,0.0685902737999663,1
34,906,25,0.0705592197286409,1
34,907,25,0.0802654362228355,1
34,908,25,0.0899177900960333,1
34,909,25,0.0839370518976673,1
34,910,25,0.0745063167043803,1
34,911,25,0.0638630061848017,1
34,924,25,0.075553659860721,1
34,925,25,0.0789224147569476,1
34,926,25,0.0698331004121912,1
34,927,25,0.0616868006173951,1
35,906,25,0.0701594958656812,1
35,907,25,0.0702162302949138,1
35,908,25,0.0688594807600878,1
35,909,25,0.0612620560514696,1
35,927,25,0.0575974459375908,1
36,905,25,0.0746870401273814,1
36,906,25,0.0739436781676434,1
36,907,25,0.069878754497122,1
36,908,25,0.0631433676019271,1
37,905,25,0.0773026795303547,1
37,906,25,0.0762874098134275,1
37,907,25,0.073016190252354,1
37,908,25,0.06534364446547,1
38,905,25,0.079558010196134,1
38,906,25,0.0745492817861171,1
38,907,25,0.0716099418297846,1
38,908,25,0.0665594395192704,1
38,909,25,0.059788671003101,1
38,936,25,0.0608094838406476,1
39,905,25,0.0821680887876775,1
39,906,25,0.072726644757109,1
39,907,25,0.0676760127139845,1
39,908,25,0.0646847030533773,1
39,909,25,0.0618845426000849,1
40,905,25,0.0799951678140848,1
40,906,25,0.0714137212567967,1
40,907,25,0.0644597585010949,1
40,908,25,0.0615201413887315,1
40,909,25,0.0610142844567218,1
41,906,25,0.068784153289033,1
41,907,25,0.0631607812563834,1
41,908,25,0.0625231690648015,1
41,909,25,0.0639789340659247,1
41,910,25,0.0583261658031821,1
42,906,25,0.0643185268640382,1
42,907,25,0.0648542458841504,1
42,908,25,0.0713660386255967,1
42,909,25,0.0762179615883914,1
42,910,25,0.0693705741720017,1
43,907,25,0.0698113525091655,1
43,908,25,0.0821925256938973,1
43,909,25,0.0913745693702911,1
43,910,25,0.0844315100507863,1
43,911,25,0.0663338286131263,1
44,907,25,0.0695893741161081,1
44,908,25,0.0833081966572765,1
44,909,25,0.0966187506740199,1
44,910,25,0.0926486497477102,1
44,911,25,0.0754825074209412,1
44,912,25,0.0601471693806886,1
44,941,25,0.0579171306769693,1
45,908,25,0.0757448975220883,1
45,909,25,0.0894899968137671,1
45,910,25,0.0891496727954868,1
45,911,25,0.0787296733766889,1
45,912,25,0.0673768729025185,1
45,941,25,0.0647232041539344,1
46,909,25,0.0739993393543732,1
46,910,25,0.0748805422124911,1
46,911,25,0.0708247057216233,1
46,912,25,0.0669663930267826,1
46,913,25,0.0583971000562992,1
46,940,25,0.0602282994375832,1
46,941,25,0.0679251818827608,1
47,910,25,0.0631029971723952,1
47,911,25,0.0611473960117648,1
47,912,25,0.060931574020757,1
47,913,25,0.0586999962165253,1
47,939,25,0.0611204529073927,1
47,940,25,0.0823983287892324,1
47,941,25,0.0840660827724246,1
48,939,25,0.0709522210836154,1
48,940,25,0.0942421023268558,1
48,941,25,0.0913347532528211,1
49,939,25,0.0606926596251265,1
49,940,25,0.0702654638204999,1
52,925,25,0.0603476593359408,1
52,926,25,0.0616579645963009,1
52,927,25,0.0643939840677032,1
52,928,25,0.0604523771401517,1
53,924,25,0.059076191301537,1
53,925,25,0.0719820621314473,1
53,926,25,0.0889259017336334,1
53,927,25,0.109436745351303,1
53,928,25,0.108399132140731,1
53,929,25,0.0929164886184873,1
53,930,25,0.0643912007135199,1
54,925,25,0.0733193281869901,1
54,926,25,0.114388898549382,1
54,927,25,0.167723106830889,1
54,928,25,0.182568775030728,1
54,929,25,0.160694795495646,1
54,930,25,0.0999603678669591,1
54,931,25,0.0586295632030387,1
55,925,25,0.0690658735491059,1
55,926,25,0.125562839032589,1
55,927,25,0.203140227365127,1
55,928,25,0.224765285402779,1
55,929,25,0.187214098811715,1
55,930,25,0.106342292368618,1
55,931,25,0.0569796946292492,1
56,927,25,0.172476462494585,1
56,928,25,0.18376420206472,1
56,929,25,0.139581921803221,1
29,911,26,0.0979882375923967,1
29,912,26,0.0939524035112532,1
29,913,26,0.0786056607951732,1
29,914,26,0.064885175317819,1
29,915,26,0.0598733156343458,1
29,916,26,0.0609904608319323,1
29,917,26,0.0607455138699257,1
29,923,26,0.0638576458692241,1
30,909,26,0.139716442726166,1
30,910,26,0.143067105820201,1
30,911,26,0.138681966685987,1
30,912,26,0.127546155796316,1
30,913,26,0.096218619922419,1
30,914,26,0.0717917443922254,1
30,915,26,0.062734998829576,1
30,916,26,0.059549190501535,1
30,917,26,0.0579269903553475,1
30,921,26,0.0579685106875611,1
30,922,26,0.0631651272988265,1
30,923,26,0.088839452639719,1
31,908,26,0.176095919763164,1
31,909,26,0.198154438039375,1
31,910,26,0.179520212010447,1
31,911,26,0.160031968002183,1
31,912,26,0.139246633768993,1
31,913,26,0.0986530464566344,1
31,914,26,0.0697833361622905,1
31,915,26,0.058934246135124,1
31,922,26,0.064635475424728,1
32,907,26,0.114527488358739,1
32,908,26,0.188129385964705,1
32,909,26,0.203692746758265,1
32,910,26,0.16732062909843,1
32,911,26,0.133409020124406,1
32,912,26,0.111779091216932,1
32,913,26,0.0818643139838639,1
32,914,26,0.0602860776246346,1
32,922,26,0.0615452977212443,1
32,923,26,0.0924280158562499,1
32,926,26,0.130167426773961,1
32,927,26,0.078983713415286,1
33,906,26,0.0698932668586583,1
33,907,26,0.0894797066590003,1
33,908,26,0.127190252070933,1
33,909,26,0.13422811644384,1
33,910,26,0.115089313118194,1
33,911,26,0.0963428801752815,1
33,912,26,0.0808809525921189,1
33,913,26,0.0618959531728492,1
33,923,26,0.0682430562625328,1
33,924,26,0.0967350323713527,1
33,925,26,0.10953161527101,1
33,926,26,0.0936071437568469,1
33,927,26,0.0665591446724289,1
34,906,26,0.0711537547966864,1
34,907,26,0.0771325352120251,1
34,908,26,0.085291088841552,1
34,909,26,0.0828534720645119,1
34,910,26,0.0755423200511986,1
34,911,26,0.065616012183732,1
34,924,26,0.057733794910953,1
34,925,26,0.064268332137749,1
34,926,26,0.0638458402016922,1
34,927,26,0.058235152480162,1
35,905,26,0.0717282756611339,1
35,906,26,0.0707626522553708,1
35,907,26,0.0702533751000003,1
35,908,26,0.0675906545533835,1
35,909,26,0.0605347455537804,1
36,905,26,0.074587718020369,1
36,906,26,0.0734576349433795,1
36,907,26,0.0710139207336582,1
36,908,26,0.0629529378209054,1
37,905,26,0.0743820682453915,1
37,906,26,0.0752175875338944,1
37,907,26,0.0730027983088151,1
37,908,26,0.0624054662056929,1
37,936,26,0.0810872510301477,1
38,905,26,0.0719046530416919,1
38,906,26,0.0715451639787171,1
38,907,26,0.0683612603612718,1
38,908,26,0.0600418795736052,1
38,936,26,0.0663157486048083,1
38,937,26,0.0782258508878853,1
39,905,26,0.0695480306919994,1
39,906,26,0.0676645254810414,1
39,907,26,0.0636432332461184,1
39,908,26,0.0593895663185084,1
40,905,26,0.0695121596252681,1
40,906,26,0.0671402995908092,1
40,907,26,0.0618203780304476,1
40,908,26,0.0588893704458547,1
40,909,26,0.0577342489750888,1
41,905,26,0.069331471583888,1
41,906,26,0.0662513363638242,1
41,907,26,0.0616219637969593,1
41,908,26,0.0604095771726462,1
41,909,26,0.0605846690209755,1
42,906,26,0.0621768596556396,1
42,907,26,0.0615149402904482,1
42,908,26,0.0656374770337898,1
42,909,26,0.0684303547700982,1
42,910,26,0.0617562901209891,1
43,906,26,0.0584161943377518,1
43,907,26,0.062535605704574,1
43,908,26,0.0707424375559206,1
43,909,26,0.076071198624589,1
43,910,26,0.0693195479776196,1
44,907,26,0.0610907146549636,1
44,908,26,0.0683646039244539,1
44,909,26,0.0739642054047455,1
44,910,26,0.0706765510807293,1
44,911,26,0.0618823843212055,1
44,941,26,0.0581195312397541,1
44,942,26,0.0572293060682877,1
45,908,26,0.0639250065786227,1
45,909,26,0.069702825283763,1
45,910,26,0.0696322153621715,1
45,911,26,0.0659625633673038,1
45,912,26,0.0580411668462323,1
45,941,26,0.0673930599941144,1
45,942,26,0.0745204516619597,1
46,909,26,0.0649410134126536,1
46,910,26,0.0656829365198053,1
46,911,26,0.0635503093155657,1
46,912,26,0.0591412109270145,1
46,941,26,0.0667047990121074,1
46,942,26,0.071688524409969,1
47,910,26,0.0615135073347987,1
47,911,26,0.0595506824265527,1
47,912,26,0.0579174491115581,1
47,940,26,0.0749779655058444,1
47,941,26,0.0765772737432613,1
48,911,26,0.056862669917876,1
48,939,26,0.0618951806741246,1
48,940,26,0.0861597371211607,1
48,941,26,0.0833335122070838,1
49,940,26,0.0656966056193751,1
53,925,26,0.0604307648666731,1
53,926,26,0.0722812432214711,1
53,927,26,0.0877622002197812,1
53,928,26,0.0864133407864325,1
53,929,26,0.0726707535898428,1
54,925,26,0.0631948006849504,1
54,926,26,0.0941246530360308,1
54,927,26,0.134816206159931,1
54,928,26,0.144997173244362,1
54,929,26,0.124514788243829,1
54,930,26,0.0795615542551683,1
55,925,26,0.0632370109587731,1
55,926,26,0.104674968861815,1
55,927,26,0.164557996751118,1
55,928,26,0.184783758854722,1
55,929,26,0.155430930216782,1
55,930,26,0.0928262890727496,1
56,927,26,0.140773480446654,1
56,928,26,0.153126018106144,1
56,929,26,0.122549940686251,1
56,930,26,0.0735433528171271,1
29,911,27,0.0933989406082223,1
29,912,27,0.0873275016244882,1
29,913,27,0.0745916984527287,1
29,914,27,0.063700557369034,1
29,915,27,0.0589702233467183,1
29,916,27,0.0603109685949902,1
29,917,27,0.0599962844580427,1
29,921,27,0.0574397205682232,1
29,922,27,0.060297830219735,1
29,923,27,0.0681497018555915,1
30,908,27,0.123172480307297,1
30,909,27,0.129831478282808,1
30,910,27,0.124068059897405,1
30,911,27,0.113442216104714,1
30,912,27,0.10274463017856,1
30,913,27,0.0823810330735127,1
30,914,27,0.0669359707296813,1
30,915,27,0.0602111452483474,1
30,916,27,0.0584168194130557,1
30,921,27,0.0604371040737644,1
30,922,27,0.0704193561809286,1
30,926,27,0.0806801383053411,1
31,907,27,0.106850242713202,1
31,908,27,0.165956066122305,1
31,909,27,0.173445010781016,1
31,910,27,0.145549492141648,1
31,911,27,0.121340254859005,1
31,912,27,0.105029150681643,1
31,913,27,0.0804257149658501,1
31,914,27,0.0631480143881485,1
31,921,27,0.0584098492337237,1
31,922,27,0.0758585197009111,1
31,926,27,0.0986297063806649,1
31,927,27,0.0673490452576221,1
32,907,27,0.105865466056618,1
32,908,27,0.165300574418258,1
32,909,27,0.172737944467461,1
32,910,27,0.13869828940713,1
32,911,27,0.109573507110243,1
32,912,27,0.0931007973790805,1
32,913,27,0.0716211813913808,1
32,922,27,0.0669565982147095,1
32,923,27,0.0875014140854516,1
32,925,27,0.113154327648718,1
32,926,27,0.0990496213553274,1
32,927,27,0.0717550949298326,1
33,906,27,0.070026183814786,1
33,907,27,0.0841911803903168,1
33,908,27,0.112906974736485,1
33,909,27,0.119541995766849,1
33,910,27,0.10404537650432,1
33,911,27,0.0881431836174981,1
33,912,27,0.0741332587897617,1
33,913,27,0.0571738276865996,1
33,923,27,0.0593552225584158,1
33,924,27,0.0670219126870284,1
33,925,27,0.0742082973109119,1
33,926,27,0.0739868673329796,1
33,927,27,0.0617273066764741,1
34,905,27,0.070845899312587,1
34,906,27,0.0702078566446165,1
34,907,27,0.0743833891592412,1
34,908,27,0.0802261331388697,1
34,909,27,0.0799906979359683,1
34,910,27,0.0734922322717558,1
34,911,27,0.0638162257849366,1
35,905,27,0.07140125513234,1
35,906,27,0.0701233653337294,1
35,907,27,0.0699602737518473,1
35,908,27,0.0663918190899036,1
35,909,27,0.0596238575156649,1
36,905,27,0.0729576808451358,1
36,906,27,0.0714314356550313,1
36,907,27,0.0688421378688734,1
36,908,27,0.0601876990275149,1
37,905,27,0.0720468281886412,1
37,906,27,0.0719972821254032,1
37,907,27,0.0681436221137207,1
37,908,27,0.0569739981882723,1
37,936,27,0.0773597559819235,1
37,937,27,0.0976006378315576,1
38,905,27,0.0679194677509734,1
38,906,27,0.0677995004681224,1
38,907,27,0.0632489758435993,1
38,936,27,0.0642222180917456,1
38,937,27,0.0757178600667269,1
38,938,27,0.0728703236229497,1
39,905,27,0.0641975571019263,1
39,906,27,0.0635764563334658,1
39,907,27,0.0602383301271295,1
40,905,27,0.064479076866147,1
40,906,27,0.0631764671083488,1
40,907,27,0.0599784992965662,1
40,908,27,0.0575320960836508,1
41,905,27,0.065035051864267,1
41,906,27,0.0627830470708594,1
41,907,27,0.0598849325998991,1
41,908,27,0.0589248228300711,1
41,909,27,0.0573662093537118,1
42,906,27,0.0595117331587966,1
42,907,27,0.0578464323013254,1
42,908,27,0.0598459302597115,1
42,909,27,0.060836208758357,1
43,908,27,0.0612931034238747,1
43,909,27,0.0643817597176566,1
43,910,27,0.058999077058623,1
44,908,27,0.0597427810406971,1
44,909,27,0.0619264698209398,1
44,910,27,0.0586551441150033,1
44,942,27,0.0596847080068042,1
45,908,27,0.0582672907858805,1
45,909,27,0.0598983127495643,1
45,910,27,0.0586510162592229,1
45,941,27,0.0620002346037348,1
45,942,27,0.0754049921863228,1
46,909,27,0.057693978793483,1
46,910,27,0.0583681107148474,1
46,941,27,0.059884313421532,1
46,942,27,0.0718972229012873,1
47,909,27,0.0570840645141872,1
47,910,27,0.0585716965619349,1
47,911,27,0.0576537027149403,1
47,940,27,0.0604404004614518,1
47,941,27,0.0628610045757399,1
47,942,27,0.0623883297072676,1
48,911,27,0.0583340323169121,1
48,912,27,0.057841820896725,1
48,940,27,0.0685843060998952,1
48,941,27,0.0669822204052318,1
48,942,27,0.0571974567124738,1
49,912,27,0.0573636559800648,1
49,940,27,0.0573513608667761,1
53,927,27,0.0646747608178834,1
53,928,27,0.0636623334245078,1
54,926,27,0.0721889207784749,1
54,927,27,0.0959622211090902,1
54,928,27,0.103562311233155,1
54,929,27,0.0857805228044926,1
54,930,27,0.0583457849120125,1
55,926,27,0.0817991292441552,1
55,927,27,0.119008228632827,1
55,928,27,0.135561590769001,1
55,929,27,0.111705992787999,1
55,930,27,0.071594332637998,1
56,927,27,0.102834228236741,1
56,928,27,0.112667405780866,1
56,929,27,0.0924923396431815,1
56,930,27,0.0634719449220439,1
29,911,28,0.0799267869346147,1
29,912,28,0.0736258686541765,1
29,913,28,0.0667169113203543,1
29,914,28,0.0607828060984328,1
29,915,28,0.0576806045407546,1
29,916,28,0.0575272782862615,1
29,917,28,0.0570766697554035,1
29,922,28,0.0606223563442502,1
29,923,28,0.0688556477511489,1
30,909,28,0.111541102640384,1
30,910,28,0.0998743787341173,1
30,911,28,0.0858119475808548,1
30,912,28,0.0762986198903396,1
30,913,28,0.0673753220081325,1
30,914,28,0.0610166550253271,1
30,915,28,0.0577489087600459,1
30,921,28,0.0598164160908819,1
30,922,28,0.0707650169270392,1
31,908,28,0.136327319810132,1
31,909,28,0.136663952345957,1
31,910,28,0.10994976706156,1
31,911,28,0.0868179060345289,1
31,912,28,0.0737629783323897,1
31,913,28,0.0625649193775514,1
31,921,28,0.0579216005550857,1
31,922,28,0.0797548558444258,1
31,923,28,0.111055206839541,1
31,925,28,0.105034740977757,1
31,926,28,0.0794510692467385,1
31,927,28,0.0622254386212377,1
32,907,28,0.0902135096841384,1
32,908,28,0.124610365795955,1
32,909,28,0.126511656168389,1
32,910,28,0.102794412119271,1
32,911,28,0.0817179579087028,1
32,912,28,0.068911780692825,1
32,922,28,0.069757407331053,1
32,923,28,0.0915693039151981,1
32,924,28,0.0974685700343334,1
32,925,28,0.0844359150625976,1
32,926,28,0.0739642348894296,1
32,927,28,0.0633153930431053,1
33,906,28,0.0704670977814969,1
33,907,28,0.077135123967293,1
33,908,28,0.0922142577931322,1
33,909,28,0.0959712611132492,1
33,910,28,0.0851198889715299,1
33,911,28,0.0715462431181568,1
33,912,28,0.059371120700107,1
33,923,28,0.0609619314515532,1
33,924,28,0.0622991208469171,1
33,925,28,0.0608838678018097,1
33,926,28,0.0620732622694262,1
33,927,28,0.0577804868567657,1
34,905,28,0.0730352137705646,1
34,906,28,0.0704730772754416,1
34,907,28,0.0717055193819104,1
34,908,28,0.0739517982496571,1
34,909,28,0.0732388585870203,1
34,910,28,0.0663314108690264,1
35,905,28,0.070648853168443,1
35,906,28,0.0692994983924007,1
35,907,28,0.0682124747481371,1
35,908,28,0.0635765801691392,1
36,905,28,0.0706744458742813,1
36,906,28,0.0686302550316675,1
36,907,28,0.0641578943048139,1
37,905,28,0.0693866256340504,1
37,906,28,0.0671187698744462,1
37,907,28,0.0603641943468095,1
37,936,28,0.0663668337685587,1
37,937,28,0.0786554604266948,1
38,905,28,0.0643038316974602,1
38,906,28,0.0630127563480997,1
38,907,28,0.0569336631403613,1
38,936,28,0.0595341061371261,1
38,937,28,0.0667030122402482,1
38,938,28,0.0670167351764925,1
39,905,28,0.0603652852801229,1
39,906,28,0.0600069225320824,1
39,907,28,0.056931569727787,1
39,939,28,0.0628017698452917,1
40,905,28,0.0612561885993247,1
40,906,28,0.0605805824437529,1
40,907,28,0.0588159476853957,1
41,905,28,0.0623437311740292,1
41,906,28,0.0608215548703367,1
41,907,28,0.0592271351935511,1
41,908,28,0.057971276350934,1
42,906,28,0.0584788316007504,1
43,909,28,0.0572752373092494,1
44,942,28,0.0571791880021772,1
44,943,28,0.0588418529288859,1
45,942,28,0.0661384041266103,1
45,943,28,0.0730702179875821,1
45,944,28,0.0680877958127597,1
46,942,28,0.0626264126348052,1
46,943,28,0.0700283656814128,1
48,911,28,0.0581035387470736,1
48,912,28,0.0588688137240685,1
49,912,28,0.0582038456425364,1
54,927,28,0.0572964957665183,1
54,928,28,0.0635545138315248,1
55,927,28,0.0715402577272753,1
55,928,28,0.083516163928428,1
55,929,28,0.072257024501914,1
56,927,28,0.0630858429831594,1
56,928,28,0.0695242070672099,1
56,929,28,0.0614139080717554,1
28,923,29,0.0571492787385801,1
29,911,29,0.0746440927364551,1
29,912,29,0.0674775984804962,1
29,913,29,0.0628232818708443,1
29,914,29,0.0589953796792312,1
29,921,29,0.0570137966149318,1
29,922,29,0.0633073791059546,1
30,909,29,0.106264641504453,1
30,910,29,0.0915562186123743,1
30,911,29,0.0760095461500409,1
30,912,29,0.0657380964669046,1
30,913,29,0.0610866811501725,1
30,914,29,0.0579446575780875,1
30,921,29,0.059756379377025,1
30,926,29,0.0671799564909848,1
31,908,29,0.113187893013149,1
31,909,29,0.115779879802501,1
31,910,29,0.0953801639593751,1
31,911,29,0.0757577115658179,1
31,912,29,0.0625160750497961,1
31,921,29,0.0571303495713587,1
31,922,29,0.0798355377341214,1
31,925,29,0.0863955143463982,1
31,926,29,0.0674112992197268,1
31,927,29,0.0580516987754091,1
32,907,29,0.0824865233764483,1
32,908,29,0.0980446712778511,1
32,909,29,0.100596199183619,1
32,910,29,0.0867233368586008,1
32,911,29,0.0710843950257026,1
32,912,29,0.057815461589099,1
32,922,29,0.0731475799018429,1
32,923,29,0.0977700804144046,1
32,924,29,0.0957341040047938,1
32,925,29,0.0742482785426131,1
32,926,29,0.0624907771907993,1
32,927,29,0.0570565553038795,1
33,906,29,0.0724382727522929,1
33,907,29,0.0744851938766585,1
33,908,29,0.0801039780924551,1
33,909,29,0.0831506305052033,1
33,910,29,0.0753865406709846,1
33,911,29,0.0621887537772239,1
33,923,29,0.0642037901641547,1
33,924,29,0.0639078405955133,1
33,925,29,0.0569134543378481,1
34,906,29,0.0716984017791577,1
34,907,29,0.0694476235486105,1
34,908,29,0.0684629589338263,1
34,909,29,0.0675143894693729,1
34,910,29,0.0602132386609217,1
35,905,29,0.0718842083617055,1
35,906,29,0.0691186452367894,1
35,907,29,0.0645539974485606,1
35,908,29,0.0581036330980629,1
36,905,29,0.0708865645889604,1
36,906,29,0.0667938663459739,1
36,907,29,0.0596388180444003,1
37,905,29,0.0688302614380997,1
37,906,29,0.0637532641904124,1
37,936,29,0.0571253253811804,1
37,937,29,0.0610586294216766,1
38,905,29,0.0633025554116284,1
38,906,29,0.0600874098228626,1
38,936,29,0.0570332918880888,1
38,937,29,0.0584658524427896,1
38,938,29,0.0592810096084217,1
39,905,29,0.0609415280501245,1
39,906,29,0.0598508954805216,1
39,939,29,0.0601082731853639,1
39,940,29,0.0664449799754178,1
40,905,29,0.0632455025478069,1
40,906,29,0.0629979550366587,1
40,907,29,0.0616655421601263,1
41,905,29,0.0639921196166746,1
41,906,29,0.0639801134532905,1
41,908,29,0.0619930698254875,1
42,906,29,0.0611240795235426,1
42,907,29,0.0614688380383184,1
42,908,29,0.060680671152553,1
42,909,29,0.0572462892463554,1
43,908,29,0.056977701464601,1
44,944,29,0.0572671997843514,1
45,943,29,0.0633896295808467,1
45,944,29,0.0704664137368247,1
46,943,29,0.0601457187342286,1
46,944,29,0.0649802221456302,1
47,910,29,0.0573527289561205,1
47,911,29,0.0574813116636787,1
48,910,29,0.0572218110615779,1
48,911,29,0.059940965293649,1
48,912,29,0.0607110934496543,1
49,911,29,0.0589985109526874,1
49,912,29,0.0612731658804556,1
49,913,29,0.060208603668574,1
50,913,29,0.0583739250945609,1
50,914,29,0.0572844247368291,1
55,927,29,0.0584908200733239,1
55,928,29,0.0644655080145033,1
55,929,29,0.0584311312787399,1
28,923,30,0.061082488428087,1
29,911,30,0.0673297563772541,1
29,912,30,0.0622339596949557,1
29,913,30,0.0604844034040705,1
30,909,30,0.0959718626008058,1
30,910,30,0.0779581771313393,1
31,908,30,0.0900068102544052,1
32,907,30,0.074635023247612,1
33,906,30,0.0747084342141973,1
34,906,30,0.0740528304683498,1
35,905,30,0.0734112850199029,1
36,905,30,0.0707260853500936,1
37,905,30,0.0672448994562835,1
38,905,30,0.0623946217388642,1
38,939,30,0.0571886879674089,1
39,905,30,0.0622819194821867,1
40,905,30,0.0655421176683266,1
41,905,30,0.0656799821544539,1
42,906,30,0.0645645765532319,1
43,906,30,0.0583247800230273,1
47,909,30,0.0592233906386647,1
48,910,30,0.0593724416139567,1
50,913,30,0.0610519363983755,1
51,914,30,0.0585878482719097,1
