x,y,z,signal,cytoplasm.p
1,441,1,0.154501950376475,1
1,442,1,0.151525896091444,1
1,443,1,0.114746406241582,1
2,440,1,0.127038571061816,1
2,441,1,0.17976053577398,1
2,442,1,0.174832052880333,1
2,443,1,0.12703097580718,1
2,444,1,0.0822413641247158,1
3,423,1,0.0642065145489697,1
3,440,1,0.0970514678985383,1
3,441,1,0.132472185564242,1
3,442,1,0.131724336035577,1
3,443,1,0.103824890036281,1
3,444,1,0.0749970538903602,1
4,422,1,0.0634389633543588,1
4,423,1,0.0722931019614344,1
4,424,1,0.070578331700904,1
4,429,1,0.18486280139598,1
4,430,1,0.18461919893557,1
4,439,1,0.0639344475744861,1
4,440,1,0.0754360572495385,1
4,441,1,0.0900867963055549,1
4,442,1,0.0941391418098199,1
4,443,1,0.0861868571336377,1
4,444,1,0.0719852051987773,1
5,422,1,0.0680372531671976,1
5,423,1,0.0844020371605145,1
5,424,1,0.0812517342891214,1
5,425,1,0.0722064641655415,1
5,426,1,0.0800559003664875,1
5,428,1,0.154348040325235,1
5,429,1,0.216735025530906,1
5,430,1,0.210488659813074,1
5,431,1,0.143001201654199,1
5,439,1,0.060873436120559,1
5,440,1,0.0635370294138266,1
5,441,1,0.0676965694357707,1
5,442,1,0.0725143255465776,1
5,443,1,0.0704361388631442,1
5,444,1,0.0625422397585068,1
6,422,1,0.0667506948714482,1
6,423,1,0.0826159906245309,1
6,424,1,0.0801065137752916,1
6,425,1,0.0723755175505577,1
6,426,1,0.0792758712535463,1
6,427,1,0.0946381465012342,1
6,428,1,0.137001257132581,1
6,429,1,0.185184880291711,1
6,430,1,0.17924173506563,1
6,431,1,0.127787022078037,1
6,434,1,0.0700074669372905,1
6,435,1,0.0663518201673919,1
6,436,1,0.0622281806968632,1
6,437,1,0.0598151895280214,1
6,438,1,0.0582686175966671,1
6,439,1,0.0573661798690276,1
6,442,1,0.058670057468244,1
6,443,1,0.057586430459594,1
7,423,1,0.0670571763692664,1
7,424,1,0.0674507320363029,1
7,425,1,0.0664002752973165,1
7,429,1,0.12348724700136,1
7,430,1,0.123993039067065,1
7,435,1,0.0716194005164584,1
7,436,1,0.0725047135395462,1
1,440,2,0.110854085912048,1
1,441,2,0.15595137027357,1
1,442,2,0.156482153557556,1
1,443,2,0.117239572163552,1
1,444,2,0.0772947304595091,1
2,423,2,0.0603404473821988,1
2,439,2,0.0653126796501805,1
2,440,2,0.107354383636595,1
2,441,2,0.165653989636299,1
2,442,2,0.17025841226344,1
2,443,2,0.124573710436625,1
2,444,2,0.076608132413688,1
3,422,2,0.0589186664280216,1
3,423,2,0.0618995915828728,1
3,424,2,0.060543313802993,1
3,429,2,0.124909611752284,1
3,430,2,0.129462825380001,1
3,439,2,0.058557891832818,1
3,440,2,0.078872267206153,1
3,441,2,0.114126131044278,1
3,442,2,0.122992387856537,1
3,443,2,0.101731642576186,1
3,444,2,0.0737938546936268,1
4,422,2,0.0631890747592894,1
4,423,2,0.0736859407496545,1
4,424,2,0.06913815230382,1
4,425,2,0.0649672606784799,1
4,426,2,0.0673182809381847,1
4,428,2,0.128195738769661,1
4,429,2,0.21028292748098,1
4,430,2,0.215979651510847,1
4,431,2,0.133459073324211,1
4,439,2,0.0592075337755313,1
4,440,2,0.0658955800618622,1
4,441,2,0.078718557650766,1
4,442,2,0.0867176463145607,1
4,443,2,0.0831696658172876,1
4,444,2,0.0707008877390229,1
4,445,2,0.0575552592515155,1
5,422,2,0.0712810578689527,1
5,423,2,0.0947695774292809,1
5,424,2,0.0874768651374321,1
5,425,2,0.0730706189792865,1
5,426,2,0.0721433138690387,1
5,427,2,0.0871801312761924,1
5,428,2,0.1545311755954,1
5,429,2,0.257563576291219,1
5,430,2,0.257345743444753,1
5,431,2,0.153277899611114,1
5,432,2,0.0879043163973622,1
5,434,2,0.0651296505248793,1
5,435,2,0.0588540831758694,1
5,439,2,0.0571652063649555,1
5,440,2,0.0589237142059473,1
5,441,2,0.0614277422855565,1
5,442,2,0.0671305460572939,1
5,443,2,0.0669396327274522,1
5,444,2,0.0605495173805373,1
6,422,2,0.0671434957305706,1
6,423,2,0.091418737427141,1
6,424,2,0.0876254148730937,1
6,425,2,0.0751360564852954,1
6,426,2,0.0739482011181913,1
6,427,2,0.0836285005750221,1
6,428,2,0.128668189554534,1
6,429,2,0.198370596155782,1
6,430,2,0.196013602299069,1
6,431,2,0.127498225493769,1
6,432,2,0.086287594505489,1
6,433,2,0.074717828034566,1
6,434,2,0.0693642290679736,1
6,435,2,0.0660542135595015,1
6,436,2,0.0611173157369996,1
6,437,2,0.0573151241899614,1
7,423,2,0.0679950959658064,1
7,424,2,0.0695759644817588,1
7,425,2,0.0677903897007215,1
7,426,2,0.0710563256063962,1
7,427,2,0.0756115323987616,1
7,428,2,0.090355637655593,1
7,429,2,0.116512644966757,1
7,430,2,0.119789596350428,1
7,431,2,0.100594111667981,1
7,434,2,0.0696530905185464,1
7,435,2,0.0710338759678878,1
7,436,2,0.0715719891443526,1
7,437,2,0.0657056810051551,1
1,423,3,0.0568512711389853,1
1,441,3,0.146041202322204,1
1,442,3,0.15060804966787,1
1,443,3,0.111476943967684,1
2,423,3,0.0584312020419819,1
2,424,3,0.0580005369514799,1
2,440,3,0.0920092330934585,1
2,441,3,0.143878984288956,1
2,442,3,0.160217568191942,1
2,443,3,0.121274539394982,1
2,444,3,0.0731733082372282,1
3,423,3,0.0594167099187327,1
3,424,3,0.0588558994324128,1
3,425,3,0.0621651129574761,1
3,429,3,0.127998368293992,1
3,430,3,0.139295554756927,1
3,440,3,0.0662560185316665,1
3,441,3,0.0937669861265362,1
3,442,3,0.110553495454122,1
3,443,3,0.094579495567532,1
3,444,3,0.0671547234982931,1
4,422,3,0.059783322481397,1
4,423,3,0.0682462347114836,1
4,424,3,0.0642462658001346,1
4,425,3,0.0638345711554118,1
4,426,3,0.0653248450308589,1
4,428,3,0.12105504361233,1
4,429,3,0.239553293354303,1
4,430,3,0.26373111175752,1
4,431,3,0.154617636483188,1
4,439,3,0.0572419255131019,1
4,440,3,0.0595600526591741,1
4,441,3,0.0670286234011399,1
4,442,3,0.0753612958844193,1
4,443,3,0.0728179824116547,1
4,444,3,0.0615250063616155,1
5,422,3,0.0688483886219123,1
5,423,3,0.0917138496307527,1
5,424,3,0.0862177217010011,1
5,425,3,0.0741206511388212,1
5,426,3,0.0683190088088914,1
5,427,3,0.0750399776935391,1
5,428,3,0.145717283582182,1
5,429,3,0.289806800309811,1
5,430,3,0.310323658803046,2
5,431,3,0.178936132211399,1
5,432,3,0.0892818172528898,1
5,434,3,0.064956109570936,1
5,435,3,0.0586865453036182,1
5,442,3,0.0596165571078704,1
5,443,3,0.0595621047931906,1
6,422,3,0.0635216502025763,1
6,423,3,0.0894139499164192,1
6,424,3,0.0901862776298616,1
6,425,3,0.0786024528615381,1
6,426,3,0.0715214995712219,1
6,427,3,0.0751405322603487,1
6,428,3,0.112572075900087,1
6,429,3,0.194509470622074,1
6,430,3,0.204425358602164,1
6,431,3,0.13392667682701,1
6,432,3,0.0905797802244667,1
6,433,3,0.0768526371054324,1
6,434,3,0.0697432487857264,1
6,435,3,0.0660484050767248,1
6,436,3,0.0620477875023246,1
6,437,3,0.0571437297210239,1
7,423,3,0.0667516029997199,1
7,424,3,0.0726213431561519,1
7,425,3,0.0712438423006243,1
7,426,3,0.0709804968957109,1
7,427,3,0.0740698844096595,1
7,428,3,0.0813199854359813,1
7,429,3,0.104772740074441,1
7,430,3,0.114915848824429,1
7,431,3,0.104975594701362,1
7,433,3,0.0777270761770074,1
7,434,3,0.0702672859739801,1
7,435,3,0.0708401615930523,1
7,436,3,0.0711044446109215,1
7,437,3,0.0634306014979352,1
1,423,4,0.0583935736880754,1
1,441,4,0.124517618773507,1
1,442,4,0.135199530641569,1
1,443,4,0.102035098945411,1
2,423,4,0.0595853800028551,1
2,424,4,0.0594562076016139,1
2,440,4,0.0729608769848971,1
2,441,4,0.114066760684282,1
2,442,4,0.140292431927884,1
2,443,4,0.11102260857275,1
2,444,4,0.0689500695036562,1
3,423,4,0.0578553661606214,1
3,424,4,0.0582820449218269,1
3,425,4,0.060586685773371,1
3,429,4,0.131340221364404,1
3,430,4,0.153051775671465,1
3,431,4,0.100483980475761,1
3,441,4,0.0728604403568241,1
3,442,4,0.0939305140817436,1
3,443,4,0.0820905499653119,1
3,444,4,0.0582072658658972,1
4,422,4,0.0571927273691368,1
4,423,4,0.0622937310466553,1
4,424,4,0.0610548907637269,1
4,425,4,0.0612900959860919,1
4,426,4,0.0619139388301779,1
4,428,4,0.111673559635439,1
4,429,4,0.260924783108305,1
4,430,4,0.315588632706034,2
4,431,4,0.185326076547146,1
4,432,4,0.0771070545479866,1
4,442,4,0.0616250361010473,1
4,443,4,0.0595529527472319,1
5,422,4,0.0629247386689887,1
5,423,4,0.0796365868793816,1
5,424,4,0.0798244986683773,1
5,425,4,0.0705545788393564,1
5,426,4,0.0632529385851484,1
5,427,4,0.0623930708444781,1
5,428,4,0.130166837080278,1
5,429,4,0.303511163561874,2
5,430,4,0.359422899343628,2
5,431,4,0.210814123550545,2
5,432,4,0.0906862671097263,1
5,434,4,0.0628428066286854,1
5,435,4,0.0590794287198562,1
6,422,4,0.059336653104341,1
6,423,4,0.0810165231698196,1
6,424,4,0.088153190719297,1
6,425,4,0.0775272525756169,1
6,426,4,0.0682179765901987,1
6,427,4,0.0658989766974757,1
6,428,4,0.0952235708018787,1
6,429,4,0.182482196204203,1
6,430,4,0.212513290516225,2
6,431,4,0.143727079196239,1
6,432,4,0.0931277522773262,1
6,433,4,0.0766479603250316,1
6,434,4,0.0693579724179979,1
6,435,4,0.0678081040989561,1
6,436,4,0.0643415897839768,1
6,437,4,0.0569442599358432,1
7,423,4,0.0633024197820813,1
7,424,4,0.0729796115532031,1
7,425,4,0.0707052986477711,1
7,426,4,0.0687717697216919,1
7,427,4,0.0694061150102706,1
7,428,4,0.0733444550348188,1
7,429,4,0.0937314570821409,1
7,430,4,0.110308218263653,1
7,431,4,0.107067875063817,1
7,432,4,0.0956525965439421,1
7,433,4,0.078638235474217,1
7,434,4,0.0700387914657266,1
7,435,4,0.0714349502293814,1
7,436,4,0.0705038239040684,1
7,437,4,0.0615425556456188,1
1,420,5,0.0632290265063065,1
1,421,5,0.0597158674210091,1
1,422,5,0.05919429515235,1
1,423,5,0.0605359485288935,1
1,424,5,0.060250389362945,1
1,428,5,0.120259617597328,1
1,429,5,0.121576875346209,1
1,442,5,0.110080396006198,1
1,443,5,0.0871686676309967,1
2,423,5,0.0585445647555842,1
2,424,5,0.0590223640621611,1
2,425,5,0.0611437988802991,1
2,428,5,0.0960839515760531,1
2,429,5,0.0995147009691639,1
2,430,5,0.0824949972746717,1
2,441,5,0.0859118475876764,1
2,442,5,0.111871566980286,1
2,443,5,0.0925211579734653,1
2,444,5,0.0631640186747026,1
3,423,5,0.0578357883303489,1
3,424,5,0.059469452121732,1
3,425,5,0.0626070824758794,1
3,426,5,0.0673248914043701,1
3,428,5,0.082450958950432,1
3,429,5,0.131553843797975,1
3,430,5,0.163472936786819,2
3,431,5,0.106717490871306,1
3,441,5,0.0596998218558972,1
3,442,5,0.0787556788681052,1
3,443,5,0.0701504204799012,1
4,422,5,0.0576893791827563,1
4,423,5,0.0605207639165586,1
4,424,5,0.0627257760203753,1
4,425,5,0.0646986080304203,1
4,426,5,0.0649792196663692,1
4,427,5,0.0623776326638596,1
4,428,5,0.108563680266009,1
4,429,5,0.267069108231246,2
4,430,5,0.358885287406794,2
4,431,5,0.224327874216545,2
4,432,5,0.0910463163817,1
5,422,5,0.0590472668263903,1
5,423,5,0.0697322509985401,1
5,424,5,0.0771808193307816,1
5,425,5,0.074388778959503,1
5,426,5,0.066938535897202,1
5,427,5,0.0613698697475158,1
5,428,5,0.120302960083021,1
5,429,5,0.303809194749216,2
5,430,5,0.408448121533132,2
5,431,5,0.259881449869008,2
5,432,5,0.110540769864445,1
5,434,5,0.0664570745928543,1
5,435,5,0.0630590060236502,1
6,423,5,0.0743041815037529,1
6,424,5,0.0885565942708381,1
6,425,5,0.0830021161511627,1
6,426,5,0.0714068041498962,1
6,427,5,0.0639614378543528,1
6,428,5,0.0871141504500118,1
6,429,5,0.175603053782989,1
6,430,5,0.235839402539344,2
6,431,5,0.170615507170062,1
6,432,5,0.105619575584719,1
6,433,5,0.0800813220611577,1
6,434,5,0.0734388590965157,1
6,435,5,0.0729973672299955,1
6,436,5,0.0682253064826772,1
6,437,5,0.0586775347841433,1
6,440,5,0.0570335041778146,1
7,423,5,0.0630577735638529,1
7,424,5,0.0763300800483228,1
7,425,5,0.075311171921372,1
7,426,5,0.0701768977262638,1
7,427,5,0.068976747245871,1
7,428,5,0.0728848064998019,1
7,429,5,0.0904230160558022,1
7,430,5,0.112793906869724,1
7,431,5,0.112011631023851,1
7,432,5,0.0992767241864893,1
7,433,5,0.0815783892078319,1
7,434,5,0.073298111008279,1
7,435,5,0.0748671089903944,1
7,436,5,0.0726586176938486,1
7,437,5,0.0636289449681815,1
7,438,5,0.0571922909958115,1
1,419,6,0.0667892372505631,1
1,420,6,0.0699946293058135,1
1,421,6,0.0678862090272573,1
1,422,6,0.0665159024346612,1
1,423,6,0.0663471792781074,1
1,424,6,0.0681011877562986,1
1,426,6,0.0713002936768892,1
1,427,6,0.0843019307609039,1
1,428,6,0.100750911218267,1
1,429,6,0.100029550729838,1
1,430,6,0.079859255214048,1
1,431,6,0.0594052934490315,1
1,440,6,0.0589405853422153,1
1,441,6,0.0727820464786182,1
1,442,6,0.0867108471463968,1
1,443,6,0.0776160191657052,1
1,444,6,0.0618860993914078,1
2,419,6,0.0579508670525685,1
2,420,6,0.0604843916101968,1
2,421,6,0.0588854784675475,1
2,422,6,0.0588851010635904,1
2,423,6,0.0601452882578401,1
2,424,6,0.0633774642001683,1
2,425,6,0.0637181833132161,1
2,426,6,0.0679940993834823,1
2,427,6,0.0765790605151205,1
2,428,6,0.0860402239024456,1
2,429,6,0.0870189679926534,1
2,430,6,0.0759513610743483,1
2,431,6,0.0595986893892783,1
2,441,6,0.0648985849521683,1
2,442,6,0.0890502799252325,1
2,443,6,0.0811330053630046,1
3,423,6,0.0596942787352778,1
3,424,6,0.0642601943649249,1
3,425,6,0.0657614837183687,1
3,426,6,0.0671832116001145,1
3,428,6,0.080815702986105,1
3,429,6,0.120813009737116,1
3,430,6,0.156002543891373,2
3,431,6,0.105824446964035,1
3,432,6,0.0594055706050625,1
3,442,6,0.0680632763494244,1
3,443,6,0.0646883178756535,1
4,422,6,0.0577664580440493,1
4,423,6,0.0626873044045023,1
4,424,6,0.0691192054457881,1
4,425,6,0.070941264574987,1
4,426,6,0.0683552277948957,1
4,427,6,0.0664594097798386,1
4,428,6,0.106979527156243,1
4,429,6,0.248889866260303,2
4,430,6,0.364795928717073,2
4,431,6,0.252508816392314,2
4,432,6,0.112746554466986,1
4,433,6,0.0638863757454554,1
4,434,6,0.0568431687477822,1
5,423,6,0.0639635194730535,1
5,424,6,0.076580116066813,1
5,425,6,0.0805072872930069,1
5,426,6,0.073101513031334,1
5,427,6,0.0665486776095573,1
5,428,6,0.115840464931483,1
5,429,6,0.291368285594406,2
5,430,6,0.439481058236922,2
5,431,6,0.319713941009686,2
5,432,6,0.151781870325321,2
5,433,6,0.0821079223412104,1
5,434,6,0.0697254636242498,1
5,435,6,0.0653738603697823,1
5,436,6,0.0578613928300608,1
6,423,6,0.0680047610452693,1
6,424,6,0.0886500489257055,1
6,425,6,0.0924042688916391,1
6,426,6,0.0805278617056036,1
6,427,6,0.067713257766997,1
6,428,6,0.0851240522089312,1
6,429,6,0.173154055917869,1
6,430,6,0.266832240072696,2
6,431,6,0.218728567583095,2
6,432,6,0.136757348031456,1
6,433,6,0.0895345894500687,1
6,434,6,0.0767495999282178,1
6,435,6,0.0761417790614964,1
6,436,6,0.0710858515690994,1
6,437,6,0.0589375012442537,1
7,423,6,0.0624712996084528,1
7,424,6,0.0808341368106328,1
7,425,6,0.0845392883652115,1
7,426,6,0.0777796532657755,1
7,427,6,0.073613502777646,1
7,428,6,0.0756950625089457,1
7,429,6,0.0918905985183309,1
7,430,6,0.124134872191678,1
7,431,6,0.132777222312537,1
7,432,6,0.117503070888823,1
7,433,6,0.0925471044955133,1
7,434,6,0.0788903766991552,1
7,435,6,0.078184489772966,1
7,436,6,0.0755716396211129,1
7,437,6,0.0643647470549046,1
7,438,6,0.0580956309547858,1
7,439,6,0.0582934495976544,1
7,440,6,0.0590408863407412,1
1,419,7,0.0688254141560262,1
1,420,7,0.0758968379964265,1
1,421,7,0.0784575002573423,1
1,422,7,0.0744156395067594,1
1,423,7,0.0712464841283238,1
1,425,7,0.0753533114319527,1
1,426,7,0.0707210316752311,1
1,427,7,0.0735701838796995,1
1,428,7,0.0799005691534725,1
1,429,7,0.0773683242311362,1
1,430,7,0.0677541589208436,1
1,431,7,0.0569389939712548,1
1,442,7,0.065653239545934,1
1,443,7,0.0683905976219965,1
1,444,7,0.0619842715957385,1
2,419,7,0.0609424892508277,1
2,420,7,0.0662619980256112,1
2,421,7,0.0669552773008597,1
2,422,7,0.0637199700850754,1
2,423,7,0.062620586461218,1
2,424,7,0.0686669162879339,1
2,425,7,0.0691201784403649,1
2,426,7,0.0677189777957212,1
2,427,7,0.0716503830225585,1
2,428,7,0.0768007853398942,1
2,429,7,0.0751183420870609,1
2,430,7,0.0686133013382839,1
2,442,7,0.069714035360675,1
2,443,7,0.0722584574575635,1
2,444,7,0.0631784366852497,1
3,422,7,0.058189746066578,1
3,423,7,0.0627664589875592,1
3,424,7,0.0695751448075396,1
3,425,7,0.0695611336856336,1
3,426,7,0.0671770316103176,1
3,427,7,0.0684076279755589,1
3,428,7,0.0789234879994505,1
3,429,7,0.10538277818941,1
3,430,7,0.135455021326626,1
3,431,7,0.101918587267542,1
3,432,7,0.06288412056811,1
3,442,7,0.05927368561288,1
3,443,7,0.0615413467735689,1
4,422,7,0.0598636387610092,1
4,423,7,0.0673512860936171,1
4,424,7,0.0763780634233011,1
4,425,7,0.0766529373397154,1
4,426,7,0.0709845834729335,1
4,427,7,0.070734523866696,1
4,428,7,0.104941321704511,1
4,429,7,0.209034144962558,1
4,430,7,0.321905101208891,2
4,431,7,0.252769154359445,2
4,432,7,0.131195545916239,1
4,433,7,0.06710607966639,1
5,422,7,0.057969448300517,1
5,423,7,0.0663620749405376,1
5,424,7,0.078892316791372,1
5,425,7,0.0842409682279648,1
5,426,7,0.0770942994736253,1
5,427,7,0.0743974946321363,1
5,428,7,0.117951910338632,1
5,429,7,0.262592484019065,2
5,430,7,0.425519753653341,2
5,431,7,0.359248963294918,2
5,432,7,0.198811309626641,2
5,433,7,0.0959213376460542,1
5,434,7,0.0691096347173145,1
5,435,7,0.0628421343778868,1
6,423,7,0.0678900479331331,1
6,424,7,0.0891281489760606,1
6,425,7,0.0988318356843556,1
6,426,7,0.0886498543267901,1
6,427,7,0.0759702725507592,1
6,428,7,0.09070346257752,1
6,429,7,0.166659700418626,1
6,430,7,0.27974176700344,2
6,431,7,0.265044524703589,2
6,432,7,0.179457232725112,1
6,433,7,0.10477973384152,1
6,434,7,0.0781626475189511,1
6,435,7,0.0743055024176026,1
6,436,7,0.0705690970978296,1
6,437,7,0.0579824687370356,1
7,423,7,0.0641959767228561,1
7,424,7,0.0845679238904536,1
7,425,7,0.092464411750359,1
7,426,7,0.0865107286981649,1
7,427,7,0.082592733105677,1
7,428,7,0.0832742361980778,1
7,429,7,0.095222491662439,1
7,430,7,0.137118216977649,1
7,431,7,0.160638762801896,1
7,432,7,0.14695389482299,1
7,433,7,0.110011083410709,1
7,434,7,0.0862488398366482,1
7,435,7,0.0810500177710088,1
7,436,7,0.0793219204332447,1
7,437,7,0.0664214570944066,1
7,438,7,0.0599178434043422,1
7,439,7,0.0613782787794341,1
7,440,7,0.0624828635015747,1
7,441,7,0.0598892432607211,1
1,418,8,0.0620688690514886,1
1,419,8,0.0702103510488952,1
1,420,8,0.0801093678927169,1
1,421,8,0.0870608598318873,1
1,422,8,0.0794627451816601,1
1,424,8,0.0806924393155666,1
1,425,8,0.0796727292052071,1
1,426,8,0.0688630484068694,1
1,427,8,0.0643064027619176,1
1,428,8,0.0630815382192741,1
1,429,8,0.0595141273151492,1
1,443,8,0.0593040843222339,1
1,444,8,0.0586846936654538,1
2,419,8,0.0619184676776627,1
2,420,8,0.0698857718519486,1
2,421,8,0.0742349809500635,1
2,422,8,0.067365816145964,1
2,423,8,0.0643070573219057,1
2,424,8,0.0708105294854861,1
2,425,8,0.0712023632469685,1
2,426,8,0.0649085802600936,1
2,427,8,0.065534410371891,1
2,428,8,0.0664684792686817,1
2,429,8,0.0627686821327437,1
2,430,8,0.0576814360088475,1
2,443,8,0.0640722648851187,1
2,444,8,0.0610484100301517,1
3,420,8,0.0594581417968938,1
3,421,8,0.0604634574844536,1
3,422,8,0.0609961867575933,1
3,423,8,0.0645254739651182,1
3,424,8,0.0708381566345304,1
3,425,8,0.0692882706246781,1
3,426,8,0.0638087130874163,1
3,427,8,0.0652278816985782,1
3,428,8,0.0724711009996204,1
3,429,8,0.087138363272632,1
3,430,8,0.105306601559452,1
3,431,8,0.0883659168184695,1
3,432,8,0.0586794335978023,1
3,443,8,0.0585902660160097,1
4,420,8,0.0568796354051332,1
4,422,8,0.061978734372056,1
4,423,8,0.0710024452945888,1
4,424,8,0.0797627636367136,1
4,425,8,0.078509298950449,1
4,426,8,0.0717690647731807,1
4,427,8,0.0725692849978247,1
4,428,8,0.0959752533394825,1
4,429,8,0.159663786854322,1
4,430,8,0.243467019564527,2
4,431,8,0.217935830571287,2
4,432,8,0.127352441421481,1
4,433,8,0.0653243614820389,1
4,443,8,0.0597599941993012,1
5,419,8,0.0580184636394403,1
5,420,8,0.0584708353544101,1
5,422,8,0.0602310827917665,1
5,423,8,0.0695454124520473,1
5,424,8,0.0802996856319389,1
5,425,8,0.0855295196883625,1
5,426,8,0.0810357530808193,1
5,427,8,0.0815637176290012,1
5,428,8,0.11440262661832,1
5,429,8,0.217301367343972,2
5,430,8,0.357706442559165,2
5,431,8,0.349475144316914,2
5,432,8,0.2188168565213,2
5,433,8,0.105347455537804,1
5,434,8,0.064747163408271,1
5,435,8,0.0582106742953844,1
5,442,8,0.058051079597042,1
5,443,8,0.0589685604105325,1
6,423,8,0.0671886603697445,1
6,424,8,0.08557953160961,1
6,425,8,0.0972619767494631,1
6,426,8,0.0911861622386018,1
6,427,8,0.0811564397899634,1
6,428,8,0.091415735886295,1
6,429,8,0.150196655766926,1
6,430,8,0.260232435549075,2
6,431,8,0.287870883124316,2
6,432,8,0.214089235089925,1
6,433,8,0.123159483458526,1
6,434,8,0.0780822840638443,1
6,435,8,0.070387565794483,1
6,436,8,0.0668994156182778,1
7,423,8,0.0640957582814458,1
7,424,8,0.0832486788738606,1
7,425,8,0.0922935126241152,1
7,426,8,0.088482345939223,1
7,427,8,0.0869407215378683,1
7,428,8,0.086233148087746,1
7,429,8,0.0972133034328758,1
7,430,8,0.146158858005818,1
7,431,8,0.191144029804345,1
7,432,8,0.181820748593958,1
7,433,8,0.132859968130123,1
7,434,8,0.0918429158871309,1
7,435,8,0.0811702327252066,1
7,436,8,0.0780696823098405,1
7,437,8,0.0656022841147938,1
7,438,8,0.0588942354187387,1
7,439,8,0.0629196378186316,1
7,440,8,0.0645318013783359,1
7,441,8,0.0631704404389095,1
1,417,9,0.0585605218666437,1
1,418,9,0.0647437785665311,1
1,419,9,0.0715727203645194,1
1,420,9,0.0840448655937135,1
1,421,9,0.0903629321664506,1
1,422,9,0.079079114059307,1
1,423,9,0.0732082475879405,1
1,424,9,0.0795913691677761,1
1,425,9,0.077392861385282,1
1,426,9,0.0642427748135318,1
2,418,9,0.057206626449243,1
2,419,9,0.0615262034397918,1
2,420,9,0.0727421242162853,1
2,421,9,0.0781332453919213,1
2,422,9,0.0684875845420245,1
2,423,9,0.0640710560130687,1
2,424,9,0.069985365218055,1
2,425,9,0.0695174609714774,1
2,426,9,0.060621672299578,1
2,427,9,0.0572604359978084,1
3,417,9,0.0568500091945039,1
3,420,9,0.0602958488489604,1
3,421,9,0.0631892575643311,1
3,422,9,0.0618258326970145,1
3,423,9,0.0627859129821583,1
3,424,9,0.0669356169134716,1
3,425,9,0.0653721030826072,1
3,426,9,0.059492119946903,1
3,427,9,0.0602042871108151,1
3,428,9,0.066067269377641,1
3,429,9,0.0731471848070753,1
3,430,9,0.0803926213563653,1
3,431,9,0.0736438366206948,1
4,422,9,0.0602651493958282,1
4,423,9,0.0675640121927896,1
4,424,9,0.074860946691408,1
4,425,9,0.0763016568128066,1
4,426,9,0.0728111360679961,1
4,427,9,0.0725502378918668,1
4,428,9,0.0843562533429735,1
4,429,9,0.114389783089906,1
4,430,9,0.16028055927115,1
4,431,9,0.159921270704027,1
4,432,9,0.1068368566666,1
4,433,9,0.0610552091983157,1
4,442,9,0.061411508018466,1
4,443,9,0.0686509473830008,1
4,444,9,0.0623210633488582,1
5,420,9,0.0604065756318002,1
5,421,9,0.0584962924307013,1
5,422,9,0.0617412352412644,1
5,423,9,0.0700759303738762,1
5,424,9,0.0806447743751771,1
5,425,9,0.0892632536957518,1
5,426,9,0.0895226245652424,1
5,427,9,0.0889506806621892,1
5,428,9,0.105568331203674,1
5,429,9,0.164566264256552,1
5,430,9,0.258606909530516,2
5,431,9,0.28378060262543,2
5,432,9,0.199978148310886,1
5,433,9,0.105934188958425,1
5,434,9,0.0598776616767888,1
5,442,9,0.0719395098352886,1
5,443,9,0.0798467419140966,1
5,444,9,0.0701662065797927,1
6,422,9,0.0572912121111194,1
6,423,9,0.0666800259804884,1
6,424,9,0.0814535510551601,1
6,425,9,0.0926979127579804,1
6,426,9,0.0913398953817361,1
6,427,9,0.085351467577745,1
6,428,9,0.0917527104444564,1
6,429,9,0.135003009324803,1
6,430,9,0.224150352830242,1
6,431,9,0.274326940141751,1
6,432,9,0.223241398987406,1
6,433,9,0.137006599757348,1
6,434,9,0.0787791545736218,1
6,435,9,0.0660847596922761,1
6,436,9,0.0650681218860046,1
6,437,9,0.0570074338200932,1
6,443,9,0.0722475835060507,1
7,423,9,0.0653905722887559,1
7,424,9,0.0808657974644681,1
7,425,9,0.0869504632775099,1
7,426,9,0.0842044013226877,1
7,427,9,0.0855503181845586,1
7,428,9,0.089808425505601,1
7,429,9,0.109955817318747,1
7,430,9,0.160692920269734,1
7,431,9,0.211200420088345,1
7,432,9,0.20427878434034,1
7,433,9,0.151111742424064,1
7,434,9,0.0945982183419644,1
7,435,9,0.0770440693657151,1
7,436,9,0.0747889627835353,1
7,437,9,0.0644620877911424,1
7,439,9,0.0580015512246145,1
7,440,9,0.0600510080318167,1
1,417,10,0.0643150063927513,1
1,418,10,0.0676336727075517,1
1,419,10,0.069225132122049,1
1,420,10,0.0816314970209147,1
1,421,10,0.0849649174716614,1
1,422,10,0.0737106901935261,1
1,423,10,0.0683692153290543,1
1,424,10,0.0723989637713902,1
1,425,10,0.0692385181686511,1
1,426,10,0.057167087487804,1
2,417,10,0.0600553540742597,1
2,418,10,0.0583147375396074,1
2,419,10,0.0585309900070037,1
2,420,10,0.0723189541324931,1
2,421,10,0.0775991244416898,1
2,422,10,0.0680470538762075,1
2,423,10,0.0622969271864167,1
2,424,10,0.0656910624987557,1
2,425,10,0.0642226072895763,1
3,416,10,0.0581285771408499,1
3,417,10,0.0600175606061221,1
3,420,10,0.0611588537600237,1
3,421,10,0.0666532185056634,1
3,422,10,0.0643958357058676,1
3,423,10,0.0618700007538644,1
3,424,10,0.0628536098169562,1
3,425,10,0.0598825384435465,1
3,428,10,0.0593828556043969,1
3,429,10,0.0622039148018115,1
3,430,10,0.061775236979021,1
3,431,10,0.0570903919274048,1
4,420,10,0.0576169706954319,1
4,421,10,0.0613781490468239,1
4,422,10,0.0633642491647343,1
4,423,10,0.0676991876757228,1
4,424,10,0.0737653547979318,1
4,425,10,0.075459084787856,1
4,426,10,0.0727619261301574,1
4,427,10,0.0701261251001654,1
4,428,10,0.0743306115746208,1
4,429,10,0.0838012513394302,1
4,430,10,0.101455642344837,1
4,431,10,0.104239255993387,1
4,432,10,0.0800987769941718,1
4,442,10,0.067882806494707,1
4,443,10,0.0762162927552687,1
4,444,10,0.0664375026595185,1
5,420,10,0.0601255158286522,1
5,421,10,0.0635575979294864,1
5,422,10,0.0663237625419591,1
5,423,10,0.0737838240040805,1
5,424,10,0.0873209442307342,1
5,425,10,0.0986484881244656,1
5,426,10,0.0989757799123536,1
5,427,10,0.0920561609167444,1
5,428,10,0.0953088758900483,1
5,429,10,0.12291395859671,1
5,430,10,0.176002075910466,1
5,431,10,0.200270777904093,1
5,432,10,0.156929907970989,1
5,433,10,0.0941541318232395,1
5,441,10,0.0600884535806814,1
5,442,10,0.0854914195795097,1
5,443,10,0.0978720974215479,1
5,444,10,0.0820427317045648,1
6,421,10,0.0581763541230392,1
6,422,10,0.0612608471794196,1
6,423,10,0.069025432356332,1
6,424,10,0.083740294703428,1
6,425,10,0.095232911549816,1
6,426,10,0.094799415929636,1
6,427,10,0.0872120985707429,1
6,428,10,0.0921016086088862,1
6,429,10,0.125634958570009,1
6,430,10,0.193148139167332,1
6,431,10,0.235626263654593,1
6,432,10,0.205858007610917,1
6,433,10,0.137443350486658,1
6,434,10,0.0798715739150839,1
6,435,10,0.062468121159502,1
6,436,10,0.064455129405684,1
6,437,10,0.0590879438966374,1
6,442,10,0.0759885412610557,1
6,443,10,0.086284074034202,1
6,444,10,0.0734730613301244,1
7,422,10,0.0581743963400119,1
7,423,10,0.068232595096598,1
7,424,10,0.0803759153343285,1
7,425,10,0.0844263974065555,1
7,426,10,0.082027818351324,1
7,427,10,0.0822628230778368,1
7,428,10,0.092124075938205,1
7,429,10,0.122146177421563,1
7,430,10,0.171467520190876,1
7,431,10,0.211933527274937,1
7,432,10,0.207147856397417,1
7,433,10,0.157897960914725,1
7,434,10,0.0958934038562948,1
7,435,10,0.072837707665348,1
7,436,10,0.0713916785069296,1
7,437,10,0.0638572507744565,1
1,417,11,0.0666103064963581,1
1,418,11,0.0670335178587081,1
1,419,11,0.0649088397253141,1
1,420,11,0.0740209929064096,1
1,421,11,0.0757594039866878,1
1,422,11,0.066215011232957,1
1,423,11,0.062004851905272,1
1,424,11,0.0628605740993514,1
1,425,11,0.0594083598561827,1
2,417,11,0.0609866160291197,1
2,418,11,0.0585570426739146,1
2,419,11,0.0572204783538545,1
2,420,11,0.0689403926303197,1
2,421,11,0.0734373612745611,1
2,422,11,0.0648202323525202,1
2,423,11,0.0593012302048086,1
2,424,11,0.0592082532018244,1
2,425,11,0.056942750320015,1
3,417,11,0.0587268272790977,1
3,420,11,0.0600527830098022,1
3,421,11,0.0659456686432884,1
3,422,11,0.0627505903305521,1
3,423,11,0.058792336350332,1
3,424,11,0.0582596719434973,1
3,443,11,0.0584520418167358,1
3,444,11,0.0585836437559506,1
4,420,11,0.0572931463063994,1
4,421,11,0.0637554401601023,1
4,422,11,0.063932725668932,1
4,423,11,0.0671106910709903,1
4,424,11,0.0756255081390466,1
4,425,11,0.0768524248157066,1
4,426,11,0.0709564727750692,1
4,427,11,0.0650835954482441,1
4,428,11,0.0666409292893115,1
4,429,11,0.0695689353330585,1
4,430,11,0.0730346535615659,1
4,431,11,0.0719798507801364,1
4,432,11,0.0628730579146186,1
4,442,11,0.0719172842803798,1
4,443,11,0.0814752340918807,1
4,444,11,0.072202961385065,1
5,420,11,0.0579310356540123,1
5,421,11,0.0657616429356631,1
5,422,11,0.0678420527642811,1
5,423,11,0.0753864640108058,1
5,424,11,0.0940127999382567,1
5,425,11,0.105776516661488,1
5,426,11,0.100935497134891,1
5,427,11,0.0888059757293402,1
5,428,11,0.0882234527216156,1
5,429,11,0.102116936634725,1
5,430,11,0.127100441723026,1
5,431,11,0.136287503692662,1
5,432,11,0.1182668539408,1
5,433,11,0.082829695615217,1
5,441,11,0.0636179294901848,1
5,442,11,0.090694664347771,1
5,443,11,0.104373918442816,1
5,444,11,0.0873743881692162,1
5,445,11,0.058623996494672,1
6,421,11,0.0609790679499785,1
6,422,11,0.0640448913043581,1
6,423,11,0.0705979567066712,1
6,424,11,0.0858410489641063,1
6,425,11,0.0965202895197846,1
6,426,11,0.0943419964367405,1
6,427,11,0.0867604993544977,1
6,428,11,0.096983924384098,1
6,429,11,0.127364990103053,1
6,430,11,0.172480649319734,1
6,431,11,0.190389221890222,1
6,432,11,0.174922724181017,1
6,433,11,0.126853324688267,1
6,434,11,0.0790212592120768,1
6,435,11,0.0587024316514357,1
6,436,11,0.0608699392370194,1
6,437,11,0.0572276313382282,1
6,441,11,0.0585030562172443,1
6,442,11,0.0786490504563616,1
6,443,11,0.0889322232499142,1
6,444,11,0.0737364126319746,1
7,420,11,0.0585488577255958,1
7,421,11,0.0578516333996086,1
7,422,11,0.0617012186279423,1
7,423,11,0.0693548706292258,1
7,424,11,0.0769920288981984,1
7,425,11,0.0792735891389934,1
7,426,11,0.0781039553066912,1
7,427,11,0.0790578261173539,1
7,428,11,0.0957615424518595,1
7,429,11,0.129970893663322,1
7,430,11,0.16873221424883,1
7,431,11,0.189846786259062,1
7,432,11,0.190162850279227,1
7,433,11,0.149411254544533,1
7,434,11,0.0939339107173572,1
7,435,11,0.0671644947226189,1
7,436,11,0.0650591408512139,1
7,437,11,0.0604533560316653,1
1,417,12,0.0639713034296679,1
1,418,12,0.0619058187481643,1
1,419,12,0.0583053378223018,1
1,421,12,0.0640588434568957,1
1,422,12,0.0588316276404242,1
2,417,12,0.0594889002193944,1
2,418,12,0.0579111275952773,1
2,420,12,0.0613235080301655,1
2,421,12,0.0642278201817332,1
2,422,12,0.0589334677394626,1
3,421,12,0.0608890217245983,1
3,422,12,0.0584979848515713,1
3,443,12,0.0577205621847085,1
3,444,12,0.0598311171543968,1
4,421,12,0.0627656393133399,1
4,422,12,0.0629876118094604,1
4,423,12,0.0666027348294695,1
4,424,12,0.081799618689912,1
4,425,12,0.0858266309535592,1
4,426,12,0.0763033728214239,1
4,427,12,0.0652024482100344,1
4,428,12,0.0627433017166313,1
4,429,12,0.0626461614762458,1
4,430,12,0.0604025362300722,1
4,442,12,0.0686412292311064,1
4,443,12,0.0773177521008899,1
5,421,12,0.0678405431484529,1
5,422,12,0.0721667423990607,1
5,423,12,0.0789496173265402,1
5,424,12,0.102614425813374,1
5,425,12,0.115142409137403,1
5,426,12,0.10517205704876,1
5,427,12,0.0885083396367657,1
5,428,12,0.0858447463434982,1
5,429,12,0.096138675149827,1
5,430,12,0.103913886606905,1
5,431,12,0.0984257018510626,1
5,432,12,0.0898538731977428,1
5,433,12,0.0746831127674532,1
5,441,12,0.0627028723177311,1
5,442,12,0.0837103264704625,1
5,443,12,0.0937130055668027,1
5,444,12,0.080188652208384,1
6,420,12,0.0605619363294993,1
6,421,12,0.076187509806606,1
6,422,12,0.0825648641822227,1
6,423,12,0.0807996810087404,1
6,424,12,0.0884518233941957,1
6,425,12,0.0972228918521599,1
6,426,12,0.0944014434569146,1
6,427,12,0.0886465756299132,1
6,428,12,0.102844005358004,1
6,429,12,0.135140867913993,1
6,430,12,0.157896003131698,1
6,431,12,0.149582077010598,1
6,432,12,0.135863914926355,1
6,433,12,0.109020916953863,1
6,434,12,0.0775709724652677,1
6,435,12,0.0574387416767095,1
6,441,12,0.0582748683497059,1
6,442,12,0.0725316802316656,1
6,443,12,0.0776163788788517,1
7,420,12,0.0700476545617807,1
7,421,12,0.0820770105983523,1
7,422,12,0.0880487323803066,1
7,423,12,0.0826050341159024,1
7,424,12,0.0747604982694613,1
7,425,12,0.0740657801416265,1
7,426,12,0.0759843190542861,1
7,427,12,0.0791113879945726,1
7,428,12,0.0980791742552381,1
7,429,12,0.132536863167383,1
7,430,12,0.15477310332575,1
7,431,12,0.156301542176355,1
7,432,12,0.157946598849692,1
7,433,12,0.132028735914695,1
7,434,12,0.0932484389864704,1
7,435,12,0.0657268097298137,1
7,436,12,0.059159792174963,1
7,437,12,0.0569178652465962,1
1,415,13,0.0584822931026691,1
1,416,13,0.0606015814358013,1
1,417,13,0.0604469991337636,1
2,417,13,0.0576512672800299,1
2,418,13,0.0576058195878881,1
2,419,13,0.0571799074284704,1
2,420,13,0.0576763292615535,1
2,421,13,0.057947435035334,1
3,424,13,0.0582033090212849,1
3,425,13,0.0578013266315197,1
4,421,13,0.0603066520372313,1
4,422,13,0.0612041422348711,1
4,423,13,0.0652119186905819,1
4,424,13,0.0826625823224175,1
4,425,13,0.0890936165139895,1
4,426,13,0.0779169516459672,1
4,427,13,0.0645368432593247,1
4,428,13,0.0607904367346896,1
4,429,13,0.0606745029566298,1
4,430,13,0.0571887705245245,1
4,442,13,0.0595258858071864,1
4,443,13,0.0671027007215869,1
5,421,13,0.0712670172623626,1
5,422,13,0.0813811661555831,1
5,423,13,0.0854588331065922,1
5,424,13,0.103606373145142,1
5,425,13,0.112775425869701,1
5,426,13,0.10041653131231,1
5,427,13,0.0841719033038225,1
5,428,13,0.0841845935118787,1
5,429,13,0.0946563208605414,1
5,430,13,0.093092258614552,1
5,431,13,0.0788812659317542,1
5,432,13,0.0710439125543709,1
5,433,13,0.0658767157609459,1
5,442,13,0.0693587390197857,1
5,443,13,0.0731617974165378,1
6,420,13,0.0662653062071723,1
6,421,13,0.0997449173829715,1
6,422,13,0.121291274901703,1
6,423,13,0.10864295868474,1
6,424,13,0.0940002807413686,1
6,425,13,0.0918964364857917,1
6,426,13,0.0885757534185958,1
6,427,13,0.0869818113936934,1
6,428,13,0.105330991290177,1
6,429,13,0.137737631222176,1
6,430,13,0.142664309653153,1
6,431,13,0.117906138314965,1
6,432,13,0.0998455898885177,1
6,433,13,0.086887389641186,1
6,434,13,0.0694257812945956,1
6,442,13,0.0630210238535341,1
7,420,13,0.0777721818468131,1
7,421,13,0.116037528766437,1
7,422,13,0.141189131935989,1
7,423,13,0.120518080338546,1
7,424,13,0.0843743628359756,1
7,425,13,0.0715089626835233,1
7,426,13,0.0747335492681524,1
7,427,13,0.0795909799699454,1
7,428,13,0.0986421194326901,1
7,429,13,0.130609897531995,1
7,430,13,0.138144083490058,1
7,431,13,0.12591348269032,1
7,432,13,0.121453086848293,1
7,433,13,0.108878706425293,1
7,434,13,0.0853753796565869,1
7,435,13,0.06378222404718,1
1,415,14,0.0620673240540393,1
1,416,14,0.0673002775900455,1
1,417,14,0.0627534326541037,1
2,417,14,0.0579305756929396,1
2,418,14,0.0598513554415942,1
2,419,14,0.0601027595494287,1
2,420,14,0.0576009428211304,1
4,421,14,0.0578093582594809,1
4,422,14,0.0579472758180396,1
4,423,14,0.0598220830471746,1
4,424,14,0.0719646130953701,1
4,425,14,0.0786569287639652,1
4,426,14,0.069792600250049,1
4,427,14,0.0597373499618775,1
4,428,14,0.0593392949320404,1
4,429,14,0.0620875859289841,1
4,430,14,0.0580516044244198,1
5,421,14,0.0713603539784934,1
5,422,14,0.0877319194491638,1
5,423,14,0.0888438163729725,1
5,424,14,0.0932506090592235,1
5,425,14,0.0953340440164348,1
5,426,14,0.0856270373327051,1
5,427,14,0.076937252251993,1
5,428,14,0.0862099436413236,1
5,429,14,0.0993864661808786,1
5,430,14,0.0920876505594117,1
5,431,14,0.0681805664229549,1
6,420,14,0.0687086076313156,1
6,421,14,0.114647349496727,1
6,422,14,0.158571131635387,1
6,423,14,0.143078970457101,1
6,424,14,0.101044649435597,1
6,425,14,0.0796122914996458,1
6,426,14,0.0763474819089054,1
6,427,14,0.0827626828250913,1
6,428,14,0.110573568627088,1
6,429,14,0.143229707956326,1
6,430,14,0.138193959781759,1
6,431,14,0.0993255979989287,1
6,432,14,0.0745192722745938,1
6,433,14,0.0678490465313604,1
6,434,14,0.0609533867900878,1
7,420,14,0.077127605372836,1
7,421,14,0.136975015763692,1
7,422,14,0.19298045387166,1
7,423,14,0.16872531483274,1
7,424,14,0.101813562822616,1
7,425,14,0.0670558259707325,1
7,427,14,0.0774003269073076,1
7,428,14,0.103611420923068,1
7,429,14,0.140871971085573,1
7,430,14,0.145792445939006,1
7,431,14,0.116932341754757,1
7,432,14,0.0957183120079655,1
7,433,14,0.0874099525952325,1
7,434,14,0.0765776216625342,1
1,415,15,0.0588138542728214,1
1,416,15,0.0691714228214097,1
1,417,15,0.0673835364411354,1
1,418,15,0.0611810380363748,1
2,417,15,0.0588952143102523,1
2,418,15,0.0634123504784491,1
2,419,15,0.0620142752103249,1
2,420,15,0.0574094280037321,1
3,418,15,0.057835747051791,1
3,419,15,0.0635328013101201,1
3,420,15,0.0591093438803901,1
4,419,15,0.0591930803833632,1
4,420,15,0.0602735230461255,1
4,424,15,0.0569031582861445,1
4,425,15,0.0603956073292981,1
4,429,15,0.0596714811774966,1
5,420,15,0.0617368184355795,1
5,421,15,0.071443176456258,1
5,422,15,0.0874884172366803,1
5,423,15,0.0870048507258846,1
5,424,15,0.0774493363492942,1
5,425,15,0.0723775637876374,1
5,426,15,0.066554379947471,1
5,427,15,0.0657730417145537,1
5,428,15,0.080618208674762,1
5,429,15,0.0977263723186274,1
5,430,15,0.0917666390092467,1
5,431,15,0.0669811235749816,1
6,420,15,0.0731166032926797,1
6,421,15,0.115793242261355,1
6,422,15,0.168531977861861,1
6,423,15,0.160881645836012,1
6,424,15,0.103800795152397,1
6,425,15,0.0697631273597772,1
6,427,15,0.0745644840892624,1
6,428,15,0.105730544141969,1
6,429,15,0.140125619378863,1
6,430,15,0.136974414276135,1
6,431,15,0.0960499203536124,1
7,420,15,0.074768618351475,1
7,421,15,0.135734595101693,1
7,422,15,0.210035114607675,1
7,423,15,0.198844615525852,1
7,424,15,0.118134632823218,1
7,425,15,0.0690507007306446,1
7,427,15,0.0730075335490889,1
7,428,15,0.104579638981036,1
7,429,15,0.151404183315292,1
7,430,15,0.162774727672381,1
7,431,15,0.122481382898676,1
7,432,15,0.0838490990848614,1
1,416,16,0.0652831124089195,1
1,417,16,0.0722482675507229,1
1,418,16,0.0661790694029837,1
2,417,16,0.0606586166088122,1
2,418,16,0.0647609858281984,1
2,419,16,0.0609109701234762,1
3,418,16,0.0598231032172461,1
3,419,16,0.0687177478834007,1
3,420,16,0.0572482411324459,1
4,419,16,0.0658414402848343,1
4,420,16,0.0608074317066311,1
5,420,16,0.0654770567642913,1
5,421,16,0.0705821882975902,1
5,422,16,0.0812386077077399,1
5,423,16,0.0804288108576854,1
5,424,16,0.0644330689650064,1
5,428,16,0.0724097374749769,1
5,429,16,0.0942972386862078,1
5,430,16,0.0949959490402759,1
6,420,16,0.0732375022915497,1
6,421,16,0.105831181265894,1
6,422,16,0.151810918636141,1
6,423,16,0.152499268072201,1
6,424,16,0.0971596884832258,1
6,425,16,0.0625821089484082,1
6,428,16,0.0981490293689155,1
6,429,16,0.14265739844319,1
6,430,16,0.150480581481373,1
6,431,16,0.106381624937268,1
7,420,16,0.0674570889342046,1
7,421,16,0.117856839923074,1
7,422,16,0.19052591288592,1
7,423,16,0.194123292023011,1
7,424,16,0.120254699552012,1
7,425,16,0.0707086009323954,1
7,428,16,0.104086890939597,1
7,429,16,0.165637147984715,1
7,430,16,0.185829427281004,1
7,431,16,0.133803772869618,1
7,432,16,0.0786177731034201,1
1,417,17,0.0695669244775998,1
1,418,17,0.0649490745252989,1
2,417,17,0.0604667774598883,1
2,418,17,0.0623006658443663,1
2,419,17,0.0578783995958758,1
3,418,17,0.0585407317466453,1
3,419,17,0.0658269692018557,1
4,419,17,0.0637601046371341,1
4,420,17,0.0580666298194603,1
5,420,17,0.0671151727429805,1
5,421,17,0.0739146711353811,1
5,422,17,0.0817872292256341,1
5,423,17,0.0770665366950339,1
5,424,17,0.0594419664991716,1
5,429,17,0.0887874652446337,1
5,430,17,0.0972431714179152,1
6,420,17,0.0704378666656351,1
6,421,17,0.0935643084077204,1
6,422,17,0.123725978591949,1
6,423,17,0.123274414757325,1
6,424,17,0.0840594015429972,1
6,425,17,0.0593045265924961,1
6,428,17,0.0884581331166028,1
6,429,17,0.137606778193939,1
6,430,17,0.157004468840256,1
6,431,17,0.119868721448801,1
7,421,17,0.0930795684064958,1
7,422,17,0.140845953800283,1
7,423,17,0.147912135263843,1
7,424,17,0.103465094332591,1
7,428,17,0.0977192016434433,1
7,429,17,0.161839591430024,1
7,430,17,0.187005111370492,1
7,431,17,0.139583985731111,1
7,432,17,0.0828879455572148,1
5,420,18,0.0631054738858634,1
5,421,18,0.0726619671539675,1
5,422,18,0.0818901897426699,1
5,423,18,0.0745531678674874,1
5,430,18,0.0943118984711649,1
6,420,18,0.0617319239780113,1
6,421,18,0.0792060574184267,1
6,422,18,0.0984450555977357,1
6,423,18,0.093875849477338,1
6,424,18,0.0713214754739793,1
6,429,18,0.123556359100997,1
6,430,18,0.146481184572896,1
6,431,18,0.120041737575366,1
7,421,18,0.0693694124754463,1
7,422,18,0.0914472196320255,1
7,423,18,0.0948874630934312,1
7,428,18,0.0888249402781826,1
7,429,18,0.14092944263191,1
7,430,18,0.164524714439655,1
7,431,18,0.129826796114966,1
5,421,19,0.0642351500742118,1
5,422,19,0.0729104876596926,1
6,421,19,0.0653053733454493,1
6,422,19,0.07776783580437,1
6,423,19,0.0747807011750378,1
6,430,19,0.121196676241091,1
7,429,19,0.111887229244504,1
7,430,19,0.129905708923613,1
