x,y,z,signal,cytoplasm.p
115,877,1,0.0575379635357958,1
116,876,1,0.0619191222376507,1
116,877,1,0.0812212294349046,1
116,878,1,0.0680700283420937,1
117,876,1,0.059030955899121,1
117,877,1,0.0762723254490187,1
117,878,1,0.0650378411153872,1
121,844,1,0.0605543056932425,1
122,844,1,0.0582102379220591,1
124,842,1,0.0568667211134775,1
141,883,1,0.0674709172510688,1
141,884,1,0.0730110304326285,1
141,885,1,0.0569216098014827,1
142,883,1,0.0677107456719078,1
142,884,1,0.0720543408861615,1
154,862,1,0.062968269856661,1
154,864,1,0.0625892501389082,1
155,869,1,0.0594092031181492,1
155,870,1,0.0655439103371227,1
155,871,1,0.060841970065639,1
156,871,1,0.0730596211921002,1
116,876,2,0.060366317244068,1
116,877,2,0.0824526690621125,1
116,878,2,0.0662903917764433,1
117,877,2,0.0763381175732208,1
117,878,2,0.0629729402306297,1
120,844,2,0.0570803081654271,1
121,844,2,0.0713229379143129,1
121,845,2,0.0641833454841682,1
122,843,2,0.0575726964937191,1
122,844,2,0.0669922451978413,1
123,842,2,0.0618013604091738,1
123,843,2,0.0577258104584864,1
124,841,2,0.0579486851859417,1
124,842,2,0.0709186911008053,1
125,842,2,0.0600167055502819,1
141,884,2,0.0571891184437974,1
142,884,2,0.0572183849412802,1
116,876,3,0.0589317753185926,1
116,877,3,0.0806415251629843,1
116,878,3,0.066093215899689,1
117,877,3,0.0743194191885192,1
117,878,3,0.0637375311629524,1
120,844,3,0.0632407555136595,1
120,845,3,0.0602225735119221,1
121,843,3,0.0589500558227628,1
121,844,3,0.0829937425008654,1
121,845,3,0.0712415483921978,1
122,843,3,0.0598326857395933,1
122,844,3,0.0773197039869803,1
122,845,3,0.0623344376015865,1
123,842,3,0.0682607883515778,1
123,843,3,0.0602448875208834,1
124,841,3,0.0652871400167737,1
124,842,3,0.0835299745544817,1
124,843,3,0.0620743355119291,1
125,842,3,0.0645565036467129,1
127,840,3,0.0574716642750263,1
128,839,3,0.0605797627695336,1
128,840,3,0.0647432596360901,1
155,870,3,0.0633389159241165,1
156,871,3,0.061605069072944,1
116,877,4,0.070835927592409,1
116,878,4,0.0594445965329974,1
117,877,4,0.0662053756381783,1
117,878,4,0.0593813047100108,1
120,844,4,0.0636504275090499,1
120,845,4,0.0582944461799785,1
121,843,4,0.0595001043993696,1
121,844,4,0.0878813360345393,1
121,845,4,0.0714990735204609,1
122,843,4,0.0612812505808483,1
122,844,4,0.0815383784914466,1
122,845,4,0.0630288726764536,1
123,842,4,0.0750306841210965,1
123,843,4,0.06303576029867,1
124,841,4,0.0735206437133983,1
124,842,4,0.0951952831959095,1
124,843,4,0.0699551493137428,1
125,841,4,0.0585900065507892,1
125,842,4,0.0689679785008062,1
127,839,4,0.0608395464246023,1
127,840,4,0.0703465584957735,1
128,839,4,0.0694904647946738,1
128,840,4,0.0749993006232921,1
116,877,5,0.0593334923462006,1
117,877,5,0.0573047043025844,1
120,844,5,0.0617610253612629,1
121,843,5,0.0602035912722693,1
121,844,5,0.0854876514368759,1
121,845,5,0.0686455516858022,1
122,843,5,0.0609571195511006,1
122,844,5,0.0782922621904545,1
122,845,5,0.0606277992169434,1
123,841,5,0.0629751574788774,1
123,842,5,0.0769727695025146,1
123,843,5,0.0619925214103624,1
124,841,5,0.0794992295298217,1
124,842,5,0.0963024212916971,1
124,843,5,0.0695537271329763,1
125,841,5,0.0637135011453738,1
125,842,5,0.0711814173273516,1
126,840,5,0.0631504085445011,1
126,841,5,0.0573527643377414,1
127,839,5,0.07055010896124,1
127,840,5,0.0803140741578018,1
127,841,5,0.0608707058388072,1
128,839,5,0.0734751252580146,1
128,840,5,0.0784289178045317,1
129,839,5,0.060003761773942,1
129,840,5,0.05815072603558,1
121,844,6,0.0708655243183542,1
121,845,6,0.0586632936817011,1
122,844,6,0.0647154968574988,1
123,841,6,0.0622399804674582,1
123,842,6,0.0687407282462236,1
124,841,6,0.0766954542542531,1
124,842,6,0.0831463257413181,1
124,843,6,0.0624163519510794,1
125,841,6,0.0639601759098714,1
125,842,6,0.0646882471124116,1
126,839,6,0.0575756272713232,1
126,840,6,0.0649802044548197,1
127,839,6,0.0747919289427604,1
127,840,6,0.0817861677770048,1
127,841,6,0.0606317914431767,1
128,839,6,0.071500966437183,1
128,840,6,0.0752662313657976,1
128,882,6,0.0618242582148812,1
128,883,6,0.0669986964467323,1
129,839,6,0.0581386196242698,1
129,882,6,0.0749818633810885,1
129,883,6,0.0843672570270966,1
129,884,6,0.0572915423395819,1
130,882,6,0.0582704869256419,1
130,883,6,0.0680774820702456,1
133,838,6,0.0588894353121598,1
123,841,7,0.057512907451209,1
123,842,7,0.0582994880609673,1
124,841,7,0.0684902735452186,1
124,842,7,0.0668910419679805,1
125,840,7,0.0577708748497343,1
125,841,7,0.061267457645605,1
126,839,7,0.0601174606129437,1
126,840,7,0.0637485584348228,1
127,839,7,0.0753726180031311,1
127,840,7,0.076796103172052,1
127,841,7,0.0580481842010589,1
128,838,7,0.0588741268641515,1
128,839,7,0.0710698944580399,1
128,840,7,0.0717588453816559,1
128,882,7,0.0766637641157336,1
128,883,7,0.084101570538262,1
129,839,7,0.0577194830452688,1
129,882,7,0.107412350525625,1
129,883,7,0.119136192162018,1
129,884,7,0.0695671072826415,1
130,882,7,0.0803660733467607,1
130,883,7,0.0914132650697636,1
132,838,7,0.0694802041245912,1
133,837,7,0.0604410904030608,1
133,838,7,0.0769523896888333,1
133,839,7,0.0618310043106136,1
150,882,7,0.0570135666343955,1
118,881,8,0.0602540808454,1
119,881,8,0.0649034676158628,1
124,841,8,0.0582383309291129,1
125,841,8,0.0569114611731998,1
126,839,8,0.0576657147752611,1
126,840,8,0.0603527542893611,1
127,839,8,0.0697984735991308,1
127,840,8,0.0677052615206568,1
128,838,8,0.0587181823697062,1
128,839,8,0.068561302149325,1
128,840,8,0.0658205179529647,1
128,882,8,0.0803645578339957,1
128,883,8,0.0896120516122555,1
129,882,8,0.122442545672719,1
129,883,8,0.135184116048698,1
129,884,8,0.0731764748923054,1
130,882,8,0.0913315394222493,1
130,883,8,0.102500379055099,1
130,884,8,0.0576867078703727,1
132,837,8,0.0577741476496744,1
132,838,8,0.0747662890614275,1
133,837,8,0.0659056048544716,1
133,838,8,0.0869264627446156,1
133,839,8,0.0642695881852936,1
134,838,8,0.0620527350323242,1
145,841,8,0.0606579502549505,1
117,880,9,0.0592931160197318,1
117,881,9,0.0639000625358357,1
118,880,9,0.0669410479922911,1
118,881,9,0.0907846633976565,1
118,882,9,0.0743215126010935,1
119,880,9,0.0673058089167912,1
119,881,9,0.0950665766526779,1
119,882,9,0.0764710699109695,1
120,881,9,0.0660162903587536,1
125,883,9,0.058226318868792,1
127,839,9,0.0573942139067131,1
127,883,9,0.0582878239199194,1
128,839,9,0.0580929832301495,1
128,882,9,0.0767037158627506,1
128,883,9,0.08804668024629,1
128,884,9,0.0568433515528239,1
129,882,9,0.114029786890364,1
129,883,9,0.13059662942413,1
129,884,9,0.0781600233820622,1
130,882,9,0.0870390765472406,1
130,883,9,0.101312063726923,1
130,884,9,0.0640484412603292,1
132,838,9,0.0685021086974346,1
133,837,9,0.0647198193121945,1
133,838,9,0.0825580001477536,1
133,839,9,0.062102045218089,1
134,838,9,0.0634520368633089,1
115,880,10,0.0576815303598367,1
116,880,10,0.0613637074485294,1
117,880,10,0.0606338435771932,1
117,881,10,0.0691930056102042,1
118,880,10,0.0770989757445307,1
118,881,10,0.118255508234341,1
118,882,10,0.0952406424339989,1
119,880,10,0.08176711477411,1
119,881,10,0.13053092575398,1
119,882,10,0.104222909684497,1
120,881,10,0.0833424283755694,1
120,882,10,0.0691321551190648,1
124,883,10,0.0652519176130936,1
125,882,10,0.0673505018010189,1
125,883,10,0.0852281980102697,1
125,884,10,0.0601015329865683,1
126,882,10,0.0612862099047215,1
126,883,10,0.076079306912729,1
127,883,10,0.0597477698492545,1
128,882,10,0.0632051203244013,1
128,883,10,0.0760549997391195,1
128,884,10,0.057930115731867,1
129,882,10,0.0856939557718416,1
129,883,10,0.110013501154809,1
129,884,10,0.0860673557087962,1
130,882,10,0.0667546870976815,1
130,883,10,0.0904444042456813,1
130,884,10,0.0779291111297087,1
132,838,10,0.0584179221402427,1
133,838,10,0.0694516806411489,1
133,839,10,0.0583312961382234,1
134,838,10,0.0597961542159371,1
110,877,11,0.107629027572473,1
111,878,11,0.0704389870836326,1
116,880,11,0.0608189543211951,1
117,880,11,0.0588192735577673,1
117,881,11,0.0674706754766588,1
118,880,11,0.0781707027346596,1
118,881,11,0.123433926898552,1
118,882,11,0.100740556197195,1
119,880,11,0.0872775014971143,1
119,881,11,0.144604791067754,1
119,882,11,0.117728133379842,1
119,883,11,0.0590679532807868,1
120,846,11,0.0644060963759502,1
120,881,11,0.0892686788776346,1
120,882,11,0.0757316294142228,1
124,882,11,0.0621282983808521,1
124,883,11,0.0766298390381558,1
125,882,11,0.0879934721852812,1
125,883,11,0.111053968482807,1
125,884,11,0.0705027919401233,1
126,882,11,0.0754902559959346,1
126,883,11,0.0947603546200802,1
126,884,11,0.062164635305593,1
127,883,11,0.0631696325585639,1
128,883,11,0.0629775988107246,1
128,884,11,0.0589335974720728,1
129,882,11,0.0577235991071755,1
129,883,11,0.0845456747477975,1
129,884,11,0.0899915902604493,1
129,885,11,0.0589813744542621,1
130,883,11,0.0763782816099638,1
130,884,11,0.090000123128041,1
130,885,11,0.0632473129074135,1
132,839,11,0.0596832809480916,1
133,838,11,0.0575673892505729,1
133,839,11,0.0605254165997168,1
138,839,11,0.0588683301752485,1
155,876,11,0.0570592796886946,1
110,877,12,0.09646445142495,1
110,878,12,0.191025171145618,1
111,878,12,0.0689476045840617,1
117,881,12,0.0585524961356194,1
118,880,12,0.0695547237153004,1
118,881,12,0.106414954424226,1
118,882,12,0.0891792518306215,1
119,880,12,0.0821801598173667,1
119,881,12,0.133465630717965,1
119,882,12,0.112257509701876,1
119,883,12,0.0585336200408294,1
120,846,12,0.062291431241292,1
120,881,12,0.0834675967567036,1
120,882,12,0.0739607851813846,1
124,882,12,0.0637964592526854,1
124,883,12,0.0785249199361093,1
125,882,12,0.0987673585770663,1
125,883,12,0.124175749757777,1
125,884,12,0.0805130014247943,1
126,882,12,0.0841355486882712,1
126,883,12,0.109741888244461,1
126,884,12,0.0771186184411084,1
127,883,12,0.075005687005878,1
127,884,12,0.0652253047371839,1
128,883,12,0.0598505121796277,1
128,884,12,0.0649337778711643,1
129,883,12,0.0685046738649552,1
129,884,12,0.0883143834875201,1
129,885,12,0.0629934792616054,1
130,883,12,0.0661535651511979,1
130,884,12,0.0925924283519816,1
130,885,12,0.0691486606452494,1
131,884,12,0.058997490782616,1
132,839,12,0.0785316070624735,1
132,840,12,0.0740402346112829,1
133,839,12,0.0752372184365984,1
133,840,12,0.0695063688333019,1
138,839,12,0.0650534326163633,1
155,874,12,0.0702598322458281,1
155,876,12,0.0796831137109631,1
155,877,12,0.0618248420116273,1
157,861,12,0.0633050321250966,1
109,877,13,0.122071970368506,1
110,877,13,0.0860702923833371,1
110,878,13,0.154200640492256,1
111,878,13,0.068403830348241,1
118,881,13,0.0793859965488295,1
118,882,13,0.0694412312690878,1
119,880,13,0.0663105239187778,1
119,881,13,0.101852576956677,1
119,882,13,0.0899250728130172,1
120,881,13,0.0687318533562958,1
120,882,13,0.0651872164222048,1
124,882,13,0.0630946058312874,1
124,883,13,0.0750645679201164,1
125,882,13,0.097783973597574,1
125,883,13,0.11785415091988,1
125,884,13,0.0845248290761066,1
126,882,13,0.0862454019224769,1
126,883,13,0.108668079635632,1
126,884,13,0.0856649664303898,1
127,882,13,0.0581840024501065,1
127,883,13,0.0805122053383224,1
127,884,13,0.0772745098631222,1
128,883,13,0.0588251763915332,1
128,884,13,0.0679364332382307,1
129,883,13,0.0581689180856977,1
129,884,13,0.0782793950742934,1
129,885,13,0.0615124164014853,1
130,883,13,0.0574050111980472,1
130,884,13,0.0822726178899099,1
130,885,13,0.0667529003258223,1
131,839,13,0.0617971499962779,1
131,840,13,0.057549480253423,1
132,838,13,0.060574850621155,1
132,839,13,0.0956129632315138,1
132,840,13,0.0910935567426378,1
133,838,13,0.0596845369956362,1
133,839,13,0.0932744621686971,1
133,840,13,0.0878101482131385,1
134,839,13,0.0570246823603183,1
138,837,13,0.0573920320400863,1
138,839,13,0.0688075523343708,1
141,839,13,0.0624497227165952,1
144,838,13,0.058344251708437,1
145,838,13,0.0618924739801201,1
152,844,13,0.0575656909327661,1
155,874,13,0.0809862070175813,1
155,877,13,0.0691695593893717,1
109,877,14,0.0889284433134067,1
109,878,14,0.142818148941151,1
110,877,14,0.0695705334029392,1
110,878,14,0.10845767692957,1
110,879,14,0.089445044464319,1
111,878,14,0.0612162958216759,1
111,879,14,0.0569553461770819,1
119,881,14,0.068658772618173,1
119,882,14,0.0635083585069635,1
124,882,14,0.0574367779967455,1
124,883,14,0.0688957528185235,1
124,884,14,0.0600536852411371,1
125,882,14,0.0838183583531714,1
125,883,14,0.0997372277773464,1
125,884,14,0.0818439282732457,1
126,882,14,0.0780794417402927,1
126,883,14,0.096776010185378,1
126,884,14,0.0855124598501159,1
127,883,14,0.0772911038433592,1
127,884,14,0.0794414690335807,1
128,884,14,0.0649713236679551,1
129,884,14,0.0634616016948457,1
130,884,14,0.0644950221833328,1
131,839,14,0.0597270362193634,1
132,838,14,0.0591837101507417,1
132,839,14,0.0948568461974145,1
132,840,14,0.08985558920636,1
133,838,14,0.0584752403662215,1
133,839,14,0.0953934438611142,1
133,840,14,0.0903660988215278,1
138,838,14,0.0677782066292326,1
138,839,14,0.0614421838838509,1
139,837,14,0.0682872243193826,1
139,839,14,0.0978154809310518,1
140,837,14,0.0661389171601145,1
140,839,14,0.100749637479911,1
141,838,14,0.0642148469207092,1
141,839,14,0.0630227634498986,1
145,838,14,0.0588271813500551,1
146,839,14,0.058478465990667,1
147,839,14,0.0726334731552094,1
147,840,14,0.0645210040870018,1
148,840,14,0.0758159438170051,1
148,841,14,0.0575924158504756,1
149,841,14,0.0574870081046556,1
152,844,14,0.0749323703902819,1
152,845,14,0.0767776988322084,1
155,874,14,0.073876482572476,1
155,877,14,0.0799771349812614,1
155,878,14,0.0580420454898199,1
156,871,14,0.057878706236591,1
156,873,14,0.0634405850119868,1
157,871,14,0.0648070350078967,1
109,877,15,0.0600642525519348,1
109,878,15,0.0831365840016764,1
110,878,15,0.0696784768315957,1
110,879,15,0.0689417135441694,1
110,880,15,0.0628200503494619,1
110,881,15,0.0596933234315115,1
111,880,15,0.0595867657830099,1
111,881,15,0.0593650999276045,1
125,882,15,0.0611984340000206,1
125,883,15,0.0732655481231088,1
125,884,15,0.0678942819337764,1
126,882,15,0.060000312065897,1
126,883,15,0.0739234221896355,1
126,884,15,0.0714477760669847,1
127,883,15,0.0633423302505406,1
127,884,15,0.0681421714672607,1
132,839,15,0.0770422766969191,1
132,840,15,0.0728029511196773,1
133,839,15,0.0804230908289612,1
133,840,15,0.0757351027100152,1
139,837,15,0.0573810932222684,1
139,838,15,0.0752228652923564,1
139,839,15,0.0711611259677227,1
140,837,15,0.0597505296156905,1
140,838,15,0.0817550496413577,1
140,839,15,0.0798699404635823,1
141,838,15,0.0577220776974736,1
145,838,15,0.0576717768263214,1
146,839,15,0.0705913757251699,1
146,840,15,0.0587918115229542,1
147,840,15,0.0873921025674508,1
148,841,15,0.0686599873871598,1
151,844,15,0.0609205290580761,1
151,845,15,0.059369015493659,1
152,845,15,0.0993890018637151,1
152,846,15,0.0667000048024654,1
153,846,15,0.0768565113929291,1
155,874,15,0.0687028109424126,1
155,878,15,0.0668386005087594,1
156,871,15,0.0637614255509838,1
156,872,15,0.0626862016773153,1
109,880,16,0.0585464989508642,1
109,881,16,0.0583480729235022,1
110,879,16,0.0575732979812757,1
110,880,16,0.0722100730908809,1
110,881,16,0.0753154825821941,1
110,882,16,0.0572338408127092,1
111,880,16,0.0738599711493545,1
111,881,16,0.0791068473532142,1
111,882,16,0.0605448941820633,1
112,881,16,0.062576011515727,1
126,884,16,0.0584882961843611,1
127,884,16,0.0583419695938841,1
133,839,16,0.057921175975634,1
140,838,16,0.0595627003838104,1
145,838,16,0.0579479126872171,1
146,839,16,0.0797856496485473,1
146,840,16,0.064662424426037,1
147,840,16,0.107020805714047,1
147,841,16,0.0603020111479468,1
148,841,16,0.077189086836216,1
151,844,16,0.0630461212166786,1
151,845,16,0.0612556048025786,1
152,845,16,0.106868369897015,1
152,846,16,0.0690088383760949,1
153,846,16,0.0885181875212702,1
154,876,16,0.0572822251793919,1
155,874,16,0.0596385408883693,1
155,875,16,0.116274809710566,1
109,880,17,0.0597463604813523,1
109,881,17,0.0639659725987744,1
110,880,17,0.088392777365726,1
110,881,17,0.0987099872786561,1
110,882,17,0.0674106918352334,1
111,880,17,0.0961236084762287,1
111,881,17,0.108955000993988,1
111,882,17,0.0747920173968128,1
112,880,17,0.064802022611592,1
112,881,17,0.0757086903299577,1
113,882,17,0.0690324850927796,1
114,882,17,0.0648212112440338,1
114,883,17,0.0638525214311196,1
145,839,17,0.0592244756750412,1
146,840,17,0.0674794029431659,1
147,841,17,0.0658461342465503,1
151,844,17,0.0687887352089492,1
151,845,17,0.0661725297000403,1
152,845,17,0.099048394792467,1
152,846,17,0.0655986574986439,1
153,846,17,0.0853256507883072,1
154,876,17,0.0599646473919547,1
154,877,17,0.0587630934405966,1
155,877,17,0.0913629936832956,1
109,880,18,0.0636156060970741,1
109,881,18,0.0703067659660508,1
110,879,18,0.0585419465156321,1
110,880,18,0.10769017880739,1
110,881,18,0.123610799621803,1
110,882,18,0.0773021252182928,1
111,879,18,0.0618947678885466,1
111,880,18,0.119025884061693,1
111,881,18,0.137730955889686,1
111,882,18,0.0860759475457562,1
112,880,18,0.0733168219888377,1
112,881,18,0.085999222500673,1
112,882,18,0.0639162083488737,1
113,882,18,0.0619900270060837,1
113,883,18,0.0605878710576736,1
114,882,18,0.0673652736277757,1
114,883,18,0.0714828746349914,1
115,883,18,0.058264548710255,1
147,841,18,0.0739047996631292,1
147,842,18,0.057323763202416,1
148,842,18,0.0666856752459707,1
149,842,18,0.0593249299939247,1
151,844,18,0.069704547189317,1
151,845,18,0.0693445627836486,1
152,845,18,0.0863140776487884,1
152,846,18,0.066248617875946,1
154,876,18,0.0730807322259484,1
154,877,18,0.0713723306571933,1
109,880,19,0.0666933117791643,1
109,881,19,0.073156961928338,1
110,879,19,0.0625447577505328,1
110,880,19,0.115091813419409,1
110,881,19,0.131342473994273,1
110,882,19,0.0800443541641762,1
111,879,19,0.0658362097018669,1
111,880,19,0.126201630611537,1
111,881,19,0.146177091334494,1
111,882,19,0.0890750765445988,1
112,880,19,0.0764770140232932,1
112,881,19,0.0899342956222179,1
112,882,19,0.0637625813506023,1
114,882,19,0.0622363715421188,1
114,883,19,0.0697096067611164,1
115,883,19,0.0577909244349532,1
145,840,19,0.057069304481304,1
146,840,19,0.0759680081270168,1
146,841,19,0.0632401127475452,1
147,841,19,0.0799411400788567,1
147,842,19,0.0645098352886475,1
148,842,19,0.0733171522173001,1
148,843,19,0.0574480234552785,1
151,845,19,0.0657911983830505,1
151,846,19,0.0570051340147299,1
152,846,19,0.0674897815519851,1
153,876,19,0.0657084466685279,1
153,877,19,0.0659919065249653,1
109,880,20,0.06436566697705,1
109,881,20,0.0679650687634727,1
110,879,20,0.060594552287101,1
110,880,20,0.105047242483835,1
110,881,20,0.116172615795318,1
110,882,20,0.0741794730836913,1
111,879,20,0.0622063797214061,1
111,880,20,0.113841167468949,1
111,881,20,0.129012830130573,1
111,882,20,0.0819690199942012,1
112,880,20,0.0708193984784771,1
112,881,20,0.0822926792690025,1
112,882,20,0.060378081633042,1
114,883,20,0.0602252094426847,1
120,885,20,0.0596190161305282,1
122,885,20,0.0672918567642536,1
123,884,20,0.0569472732705629,1
123,885,20,0.0805662212796768,1
123,886,20,0.0677134169842914,1
124,885,20,0.0620789351226558,1
146,841,20,0.0688050225484712,1
147,841,20,0.0852218823909258,1
147,842,20,0.0707222287534074,1
148,842,20,0.0790960736496274,1
148,843,20,0.0608479377657101,1
149,843,20,0.0574574998327629,1
151,846,20,0.0593795238350884,1
109,881,21,0.059565990874561,1
110,880,21,0.0814385905264247,1
110,881,21,0.0873164035893758,1
110,882,21,0.0629093004883702,1
111,880,21,0.087461273636456,1
111,881,21,0.0962444720934777,1
111,882,21,0.0682706893085139,1
112,880,21,0.0594116739346806,1
112,881,21,0.0675072187941887,1
119,885,21,0.0608436801773195,1
120,884,21,0.0645869849131825,1
120,885,21,0.0726766269389246,1
121,885,21,0.0644774846932031,1
122,884,21,0.0672295556266543,1
122,885,21,0.107813554519728,1
122,886,21,0.0817746687501881,1
123,884,21,0.0899557368845284,1
123,885,21,0.149091888239744,1
123,886,21,0.115516475428219,1
124,884,21,0.0635284965462349,1
124,885,21,0.103089766097293,1
124,886,21,0.0790117002774768,1
146,841,21,0.0685770233829113,1
146,842,21,0.0589455092844676,1
147,842,21,0.0708650289756606,1
148,843,21,0.063946666027596,1
149,844,21,0.0573199950597822,1
110,880,22,0.0588946953798113,1
110,881,22,0.0629583217242304,1
111,880,22,0.0616953924543551,1
111,881,22,0.0670667529946768,1
119,885,22,0.0590873954815123,1
120,884,22,0.0639950857758996,1
120,885,22,0.070553352276496,1
121,885,22,0.066120854842607,1
122,884,22,0.0715263586471691,1
122,885,22,0.130535678685064,1
122,886,22,0.094545753294996,1
123,884,22,0.109446369152208,1
123,885,22,0.199874480161431,1
123,886,22,0.148852661306461,1
124,884,22,0.0717663934607971,1
124,885,22,0.133143964607812,1
124,886,22,0.0968717823364192,1
138,838,22,0.0579205155187092,1
146,842,22,0.0609499960514111,1
147,842,22,0.0709277311049643,1
147,843,22,0.059501608118261,1
148,843,22,0.0700809958426124,1
148,844,22,0.0589053511446615,1
149,844,22,0.063475011329195,1
120,885,23,0.0598393787628944,1
121,885,23,0.0639037481213539,1
122,884,23,0.0731481931832731,1
122,885,23,0.129054497886208,1
122,886,23,0.095465528016913,1
123,884,23,0.114038620501734,1
123,885,23,0.202836181302219,1
123,886,23,0.151375288324829,1
123,887,23,0.0632705468385201,1
124,884,23,0.0772717677874967,1
124,885,23,0.141712779926412,1
124,886,23,0.107440879906004,1
125,885,23,0.0681526326331955,1
125,886,23,0.064821930670327,1
137,838,23,0.0672432247262241,1
137,839,23,0.0577890845906625,1
138,838,23,0.0975803582658024,1
138,839,23,0.0674824162778856,1
139,839,23,0.0659918593494707,1
140,839,23,0.0578260112090862,1
141,888,23,0.0573446678434751,1
143,840,23,0.0592964595829139,1
143,841,23,0.0605052019002667,1
143,842,23,0.0676462862554291,1
143,843,23,0.0665546806912493,1
144,841,23,0.0668093340112766,1
144,842,23,0.0788230395775038,1
144,843,23,0.0802206902661764,1
144,844,23,0.0609828301956755,1
145,842,23,0.0738963611465268,1
145,843,23,0.0733082006671936,1
145,844,23,0.0579712350723762,1
146,842,23,0.0653717079878397,1
146,843,23,0.0608984155449671,1
147,843,23,0.0605921109552538,1
148,844,23,0.0611581343337306,1
116,853,24,0.0577534140197833,1
116,854,24,0.0606035628065758,1
117,853,24,0.0580858892151441,1
117,854,24,0.0600559850465004,1
117,885,24,0.0577970631461922,1
122,884,24,0.0585809960313143,1
122,885,24,0.0963172933663801,1
122,886,24,0.0770798696692045,1
123,884,24,0.085409570096322,1
123,885,24,0.146265734088909,1
123,886,24,0.117801597418859,1
123,887,24,0.0633472718836033,1
124,884,24,0.0620237692786197,1
124,885,24,0.118302931400321,1
124,886,24,0.117104343608188,1
124,887,24,0.0839843335371629,1
125,846,24,0.0568788747002823,1
125,885,24,0.0789248383979844,1
125,886,24,0.108652452753034,1
125,887,24,0.0992920562222449,1
126,886,24,0.0830302209520902,1
126,887,24,0.0777922078442846,1
137,839,24,0.0587074086661195,1
138,839,24,0.0779320124226286,1
141,888,24,0.0580870155300785,1
142,841,24,0.0572792177416091,1
142,842,24,0.0617672466296176,1
142,843,24,0.0598381168184129,1
143,841,24,0.0722005495379019,1
143,842,24,0.095109081773342,1
143,843,24,0.0998325576581254,1
143,844,24,0.0728837804327936,1
144,841,24,0.0847100990374029,1
144,842,24,0.125876072523077,1
144,843,24,0.136178481124566,1
144,844,24,0.0956449305260643,1
145,842,24,0.115481070219497,1
145,843,24,0.123180500141385,1
145,844,24,0.0869806673879485,1
146,843,24,0.0811364550710496,1
146,844,24,0.0628392212910933,1
148,867,24,0.0620042740054627,1
149,867,24,0.0590009345937242,1
115,885,25,0.0592379147940747,1
116,853,25,0.064639756600866,1
116,854,25,0.073129151974252,1
116,884,25,0.0659846297049182,1
116,885,25,0.069004969985535,1
117,853,25,0.0665918549810199,1
117,854,25,0.0733727249499775,1
117,884,25,0.0631288906220117,1
117,885,25,0.0665886647381953,1
122,885,25,0.0598362769741223,1
123,885,25,0.085397009620876,1
123,886,25,0.0826574637812499,1
123,887,25,0.062553202164072,1
124,885,25,0.089249136428983,1
124,886,25,0.11958091554992,1
124,887,25,0.108136223109142,1
125,885,25,0.088490283216195,1
125,886,25,0.1496600698971,1
125,887,25,0.146320587395293,1
126,885,25,0.0637310209446931,1
126,886,25,0.106084584435314,1
126,887,25,0.103265789661641,1
127,886,25,0.0589915702580396,1
139,840,25,0.058442583130062,1
139,841,25,0.0574396085264234,1
140,840,25,0.0595762279568963,1
140,841,25,0.0586529150728819,1
141,840,25,0.0584566355305257,1
141,841,25,0.0573249072081608,1
142,841,25,0.062844923629007,1
142,842,25,0.0697366619072883,1
142,843,25,0.0696105559131982,1
142,844,25,0.0597470327321508,1
143,842,25,0.116707857163547,1
143,843,25,0.125552118401434,1
143,844,25,0.0936992598070541,1
143,845,25,0.05732027811275,1
144,842,25,0.167715393637517,1
144,843,25,0.185449499434979,1
144,844,25,0.125689800082519,1
144,845,25,0.0629389679775573,1
145,843,25,0.169747843678904,1
145,844,25,0.11225958542364,1
146,844,25,0.0726371115652329,1
146,867,25,0.0750221630473784,1
146,868,25,0.0737121644277334,1
146,869,25,0.0579068994915708,1
146,870,25,0.0666857460092126,1
146,871,25,0.0810983195805759,1
146,872,25,0.0636528806347708,1
147,866,25,0.0605913974258974,1
147,867,25,0.0794653752154859,1
147,868,25,0.0729725529198187,1
147,869,25,0.0582051193808914,1
147,870,25,0.0741052247520763,1
147,871,25,0.0918283976286577,1
147,872,25,0.0724261545471091,1
148,866,25,0.058574727587465,1
148,867,25,0.0701491290507356,1
148,868,25,0.0598643522903655,1
148,870,25,0.0573223597314507,1
148,871,25,0.0682329960883023,1
148,872,25,0.057682591808466,1
149,867,25,0.0651891624113584,1
115,884,26,0.0741597891085558,1
115,885,26,0.0798749705506975,1
116,853,26,0.0639152353542969,1
116,854,26,0.0756163973716456,1
116,884,26,0.0773970835920516,1
116,885,26,0.0831213109352891,1
116,886,26,0.0596365359298474,1
117,853,26,0.0668354515444927,1
117,854,26,0.0759235216355782,1
117,884,26,0.0620145051908612,1
117,885,26,0.0673103318673391,1
123,886,26,0.0630057802718309,1
123,887,26,0.0614394653959727,1
124,885,26,0.0652636466204466,1
124,886,26,0.11113515750907,1
124,887,26,0.112884849429502,1
124,888,26,0.0636581996717906,1
125,885,26,0.0834110510294495,1
125,886,26,0.159387597920995,1
125,887,26,0.161592521570759,1
125,888,26,0.0854968034828347,1
126,885,26,0.0599842723977219,1
126,886,26,0.110007344752759,1
126,887,26,0.110722218610676,1
126,888,26,0.0604216894808931,1
127,886,26,0.0593409460743525,1
127,887,26,0.0605262539647465,1
133,841,26,0.0580354232297608,1
134,840,26,0.0581930306603918,1
134,841,26,0.0686535007566478,1
134,842,26,0.063476668368444,1
135,840,26,0.0576019217126441,1
135,841,26,0.0646213227763382,1
135,842,26,0.0593708022655182,1
135,888,26,0.0576040092282816,1
136,841,26,0.0569882098060304,1
136,888,26,0.0574259630146009,1
138,840,26,0.0584632813783321,1
138,841,26,0.0579221902487686,1
138,888,26,0.0569784385817046,1
139,840,26,0.0669790655440283,1
139,841,26,0.064223892821805,1
139,842,26,0.0583968405910788,1
140,841,26,0.0660911932503567,1
140,842,26,0.0614940238555154,1
140,843,26,0.0595317473623945,1
141,841,26,0.0632943114939413,1
141,842,26,0.0613721164804477,1
141,843,26,0.0602064689774419,1
142,842,26,0.075247862407575,1
142,843,26,0.0772585822367468,1
142,844,26,0.0712808809608478,1
142,845,26,0.0578765951332061,1
142,888,26,0.0572551346515991,1
143,843,26,0.134946976631053,1
143,844,26,0.106408927754787,1
143,845,26,0.0716528066635952,1
144,843,26,0.201128098168053,1
144,844,26,0.137272150616636,1
144,845,26,0.0719883305752967,1
145,845,26,0.0602160868814101,1
145,867,26,0.0829471036274842,1
145,868,26,0.0832407415968886,1
145,871,26,0.0596742645316799,1
146,866,26,0.0796480092460195,1
146,867,26,0.132338336892095,1
146,868,26,0.129289585169836,1
146,869,26,0.0828540440673843,1
146,870,26,0.0887471537844701,1
146,871,26,0.117076569035723,1
146,872,26,0.0821441590180251,1
147,866,26,0.0769692785159118,1
147,868,26,0.107403245655161,1
147,869,26,0.0732484234185571,1
147,870,26,0.097149640102869,1
147,871,26,0.132116694624437,1
147,872,26,0.0941553996646577,1
148,866,26,0.0607052790699408,1
148,867,26,0.074262118653351,1
148,868,26,0.0648884481177591,1
148,870,26,0.0630586816921246,1
148,871,26,0.0827274899060953,1
148,872,26,0.0635415818490586,1
149,867,26,0.0632529739667694,1
114,884,27,0.0581265544915175,1
115,884,27,0.0800426558463694,1
115,885,27,0.088277126640634,1
116,854,27,0.0612092371882915,1
116,884,27,0.0763716416590942,1
116,885,27,0.0837536984408405,1
116,886,27,0.05924718477877,1
117,854,27,0.0625119236062684,1
117,885,27,0.0594819949063675,1
123,887,27,0.0573445381108649,1
124,886,27,0.0866787206345519,1
124,887,27,0.0932765437873978,1
124,888,27,0.0618739575984767,1
125,885,27,0.0637736145194095,1
125,886,27,0.123555698644072,1
125,887,27,0.129435817409324,1
125,888,27,0.0786108795842669,1
126,886,27,0.0900297788233545,1
126,887,27,0.0945561495946257,1
126,888,27,0.060909596137195,1
127,887,27,0.0597336525824856,1
133,841,27,0.064796225922689,1
133,842,27,0.0621336645933666,1
134,840,27,0.0653199387794171,1
134,841,27,0.0812162701110313,1
134,842,27,0.0765927885840587,1
134,843,27,0.0600350273330098,1
135,840,27,0.0645452640851167,1
135,841,27,0.0764705863621495,1
135,842,27,0.0751364928586208,1
135,843,27,0.0626487856131347,1
136,840,27,0.0612009225073624,1
136,841,27,0.0655456853151083,1
136,842,27,0.0672994402250158,1
136,843,27,0.0611252766017189,1
137,840,27,0.0588413104106976,1
137,841,27,0.0596274546471306,1
137,842,27,0.0584572547088928,1
138,840,27,0.0617893247611057,1
138,841,27,0.0612211961761808,1
138,842,27,0.0578139047977761,1
139,841,27,0.0667558193095527,1
139,842,27,0.0641992908013541,1
139,843,27,0.0654111879799104,1
139,844,27,0.0604432604758139,1
140,842,27,0.0663913945104519,1
140,843,27,0.0683889523766212,1
140,844,27,0.062329142152314,1
141,842,27,0.0669718830749704,1
141,843,27,0.0679952080076062,1
141,844,27,0.0627305643330805,1
142,843,27,0.082434123195785,1
142,844,27,0.0782802619240073,1
142,845,27,0.0666580245091791,1
143,844,27,0.106688749201201,1
143,845,27,0.079112131008613,1
144,845,27,0.0746302172440963,1
145,866,27,0.0648139992902919,1
145,867,27,0.103642592131146,1
145,868,27,0.100673036270502,1
145,869,27,0.0604680806829276,1
145,871,27,0.0610238315974481,1
146,868,27,0.164841026131167,1
146,869,27,0.0969114097519107,1
146,870,27,0.0944093394553287,1
146,871,27,0.123918607930408,1
146,872,27,0.0829491026890692,1
147,869,27,0.0811582265618226,1
147,870,27,0.104948905165273,1
147,871,27,0.143340641131955,1
147,872,27,0.0988362230053564,1
115,884,28,0.0768073545275219,1
115,885,28,0.0850892779724501,1
116,884,28,0.0694287297630101,1
116,885,28,0.0778740573274724,1
124,886,28,0.0595458115567319,1
124,887,28,0.0697282705661805,1
125,886,28,0.0777730958720216,1
125,887,28,0.0884801699695331,1
125,888,28,0.0665390007362208,1
126,886,28,0.0627345034868823,1
126,887,28,0.0732436822813465,1
126,888,28,0.05854598591736,1
133,841,28,0.0668830457216402,1
133,842,28,0.0700144017350015,1
133,843,28,0.0613106350170676,1
134,840,28,0.0656695976486979,1
134,841,28,0.0864794513452234,1
134,842,28,0.0875045453589079,1
134,843,28,0.0697429303511376,1
134,888,28,0.0582930898845078,1
135,840,28,0.0659084176933391,1
135,841,28,0.0812123604419136,1
135,842,28,0.0866961107012609,1
135,843,28,0.078863020809205,1
136,841,28,0.070886611764455,1
136,842,28,0.0835246378266514,1
136,843,28,0.0877817780500538,1
136,844,28,0.0657017654391005,1
137,841,28,0.0630240725698747,1
137,842,28,0.0690701665191174,1
137,843,28,0.0737716055509706,1
137,844,28,0.058353220949354,1
138,841,28,0.0628578084359786,1
138,842,28,0.0624893678228972,1
138,843,28,0.0626232400827911,1
139,842,28,0.0678128098545457,1
139,843,28,0.0718050183970276,1
139,844,28,0.0672475117992988,1
140,842,28,0.0705241919238761,1
140,843,28,0.0747172855163778,1
140,844,28,0.0692497282455632,1
140,889,28,0.0575733333628966,1
141,843,28,0.0781602887442195,1
141,844,28,0.0712960419854354,1
141,845,28,0.0595580359067786,1
142,844,28,0.0856061798671406,1
142,845,28,0.0711465487398812,1
142,846,28,0.0578100717888372,1
143,845,28,0.0804039788566981,1
143,846,28,0.061836341038444,1
145,868,28,0.0941197880631469,1
146,869,28,0.0890012645863091,1
146,870,28,0.0811420158824794,1
146,871,28,0.100904325926812,1
146,872,28,0.0709972795779265,1
115,884,29,0.0668254444426937,1
115,885,29,0.0714822495596875,1
116,884,29,0.0617239100408606,1
116,885,29,0.0678404075189058,1
124,848,29,0.0594611551316135,1
125,847,29,0.0627881066426587,1
125,887,29,0.0581451593272133,1
126,847,29,0.0613766335340588,1
126,848,29,0.0597818128655688,1
127,846,29,0.0581347748214573,1
128,845,29,0.0600224668575639,1
129,843,29,0.0639234261995525,1
129,844,29,0.0649594354433077,1
129,845,29,0.0610178874851244,1
130,842,29,0.0583305295364357,1
130,843,29,0.069851150935825,1
130,844,29,0.0681835502729904,1
130,845,29,0.0571399615783902,1
131,843,29,0.0623744601118455,1
131,844,29,0.0613639551198762,1
132,842,29,0.0576960604121836,1
132,843,29,0.0614007637995634,1
132,844,29,0.0603071827615459,1
133,841,29,0.0671476058955404,1
133,842,29,0.0772438222038636,1
133,843,29,0.0726889574338342,1
133,844,29,0.065484245130286,1
133,888,29,0.0577033549230412,1
134,840,29,0.0628241605144318,1
134,841,29,0.0845598627778082,1
134,842,29,0.0929062633300257,1
134,843,29,0.0798230185372332,1
134,844,29,0.0641017377753905,1
134,888,29,0.0651236769278714,1
134,889,29,0.0704500615309976,1
135,840,29,0.0633415282671318,1
135,841,29,0.0794008568296388,1
135,842,29,0.0904907541691579,1
135,843,29,0.09108419830389,1
135,844,29,0.0670648659748915,1
135,889,29,0.0606598431716727,1
136,841,29,0.0732885107951213,1
136,842,29,0.0955763904292998,1
136,843,29,0.112708271553092,1
136,844,29,0.0840611588301723,1
137,842,29,0.0797402432349633,1
137,843,29,0.0940691923451533,1
137,844,29,0.0713428518699847,1
138,842,29,0.0695050243317049,1
138,843,29,0.0709454514001357,1
138,844,29,0.0607449064854323,1
139,843,29,0.0709494672141163,1
139,844,29,0.0666946739715719,1
139,848,29,0.0585854718063676,1
139,849,29,0.0572306446729479,1
140,843,29,0.0735351737657452,1
140,844,29,0.0699236360833281,1
140,845,29,0.0601449698232513,1
140,888,29,0.0580908367451437,1
141,844,29,0.0738525940813813,1
141,845,29,0.0648485435462367,1
141,846,29,0.058358085922238,1
142,845,29,0.0783290295915838,1
142,846,29,0.0776642679028407,1
142,847,29,0.0629609458611193,1
143,846,29,0.0877893438200055,1
143,847,29,0.0705336800952341,1
144,847,29,0.0604081619078072,1
145,867,29,0.0900067218003527,1
145,868,29,0.0778708552907742,1
146,870,29,0.0645098411855843,1
146,871,29,0.0705633475844213,1
147,872,29,0.0694691237802894,1
111,878,30,0.062359299087258,1
115,884,30,0.0582517110787781,1
116,885,30,0.0584263547599083,1
124,847,30,0.0698525544067903,1
124,849,30,0.0599223073855218,1
125,846,30,0.0612186840810917,1
126,846,30,0.0655255826574579,1
126,849,30,0.0584154041482167,1
127,845,30,0.0590023557555,1
127,847,30,0.0648254039661193,1
128,844,30,0.0584691960059717,1
129,843,30,0.077650870062365,1
130,845,30,0.06822334869965,1
131,843,30,0.0722517231557047,1
131,844,30,0.0707495964372312,1
131,845,30,0.0607622729643939,1
132,842,30,0.0581730518384149,1
132,843,30,0.0648574361269749,1
132,844,30,0.0721207344979202,1
132,845,30,0.0675205576652961,1
133,842,30,0.0785406765513166,1
133,843,30,0.0806038496335832,1
133,844,30,0.0874449391214394,1
133,845,30,0.0818584583255926,1
133,846,30,0.0623692413227518,1
133,888,30,0.0589554574168982,1
133,889,30,0.0674931899814723,1
134,841,30,0.0785451523263699,1
134,842,30,0.0922397797357285,1
134,843,30,0.0862712010211042,1
134,844,30,0.0822632358634149,1
134,845,30,0.0731764866861791,1
134,846,30,0.0575252379461186,1
134,888,30,0.0684680833719307,1
134,889,30,0.0785042747602707,1
135,841,30,0.0752107470871727,1
135,842,30,0.0892166619978652,1
135,843,30,0.0942059953826513,1
135,844,30,0.0752100984241215,1
135,845,30,0.0574876095922122,1
135,888,30,0.0571340646415611,1
135,889,30,0.0651016990443094,1
136,842,30,0.0967374088368948,1
136,843,30,0.118306693646018,1
136,844,30,0.089814015801715,1
137,842,30,0.0862763608408296,1
137,843,30,0.103759115602889,1
137,844,30,0.0776473083125203,1
138,843,30,0.0790636994664357,1
138,844,30,0.0645100534753102,1
138,847,30,0.06691462381836,1
138,848,30,0.0915001918155612,1
138,849,30,0.0940617563078118,1
138,850,30,0.0698575137306636,1
139,844,30,0.0643975988899795,1
139,845,30,0.0568587956303792,1
139,847,30,0.0789512566749787,1
139,848,30,0.115950537154335,1
139,849,30,0.120423269388208,1
139,850,30,0.0858112281545616,1
140,844,30,0.0683353728085921,1
140,845,30,0.0615628470052477,1
140,847,30,0.0686269468501064,1
140,848,30,0.0956980147513998,1
140,849,30,0.100975879358296,1
140,850,30,0.0754219576735801,1
141,845,30,0.0704073146359236,1
141,846,30,0.0687644987985817,1
141,847,30,0.0621946035385584,1
141,848,30,0.0641748892767553,1
141,849,30,0.0681195567145212,1
141,850,30,0.0579258640404132,1
142,846,30,0.104080439690706,1
142,847,30,0.0791264310804236,1
143,847,30,0.091879246914935,1
144,866,30,0.0581815611182592,1
145,866,30,0.0694427644726634,1
145,867,30,0.0744246972017289,1
145,868,30,0.0625419331177916,1
146,869,30,0.0572441486582865,1
147,870,30,0.0583129861493691,1
147,871,30,0.0599545636299769,1
111,878,31,0.0693722606959348,1
112,878,31,0.0574472214718698,1
112,879,31,0.0569856210507624,1
123,888,31,0.0659430504033363,1
124,849,31,0.0706381797127824,1
124,888,31,0.0645588270398236,1
124,889,31,0.0591399607764067,1
125,888,31,0.0590109770771441,1
127,845,31,0.0650123663482855,1
127,888,31,0.0588908446800619,1
129,847,31,0.0587224871335915,1
130,846,31,0.065201392658342,1
131,845,31,0.0740404645918192,1
131,846,31,0.0641941250846918,1
132,843,31,0.0692814006932722,1
132,844,31,0.0840551970270381,1
133,843,31,0.0846203476588642,1
133,844,31,0.10554023819662,1
133,846,31,0.0816894108375132,1
133,888,31,0.0589035643728023,1
133,889,31,0.0696308472728271,1
134,842,31,0.0825972265715407,1
134,843,31,0.0868248762138609,1
134,845,31,0.0888214964670744,1
134,846,31,0.0699779173868399,1
134,888,31,0.0661023502548373,1
134,889,31,0.0775010760730326,1
135,842,31,0.0808309583616819,1
135,843,31,0.0892935698479902,1
135,845,31,0.0700491464867985,1
135,846,31,0.0587780126907742,1
135,889,31,0.0648908776557327,1
136,842,31,0.0861459205981702,1
136,843,31,0.103520348630679,1
136,844,31,0.0866982041138352,1
136,845,31,0.0661715684993371,1
136,846,31,0.057086623784771,1
137,842,31,0.0845641321600725,1
137,843,31,0.0986566907635948,1
137,844,31,0.0789919160544152,1
137,845,31,0.0604867798696126,1
137,846,31,0.057997842051349,1
137,847,31,0.0675797511171865,1
137,848,31,0.0803558480582991,1
137,849,31,0.0805566682420137,1
137,850,31,0.0636881325231351,1
138,843,31,0.082206955498318,1
138,846,31,0.0622383706037039,1
138,847,31,0.0961882742854965,1
138,848,31,0.1427981583253,1
138,849,31,0.150472856494127,1
138,850,31,0.108698649356154,1
138,851,31,0.062166840759967,1
139,846,31,0.0652815497206597,1
139,847,31,0.11074183182257,1
139,848,31,0.178067171394139,1
139,849,31,0.193442761925187,1
139,850,31,0.136976147975563,1
139,851,31,0.0733750365492145,1
140,847,31,0.0896009122985854,1
140,848,31,0.139346716580856,1
140,849,31,0.155180522691271,1
140,850,31,0.114102095129762,1
140,851,31,0.0659962348765979,1
141,848,31,0.0821718923119323,1
141,849,31,0.0905825223000922,1
141,850,31,0.0762554484158139,1
145,867,31,0.0606055677650977,1
112,878,32,0.0577071997258538,1
120,887,32,0.0599728205463998,1
121,887,32,0.0593145101065477,1
121,888,32,0.0572048809559416,1
122,887,32,0.0578323386223038,1
122,888,32,0.0659077690302879,1
123,848,32,0.0573043092078168,1
123,849,32,0.0592824012855134,1
123,887,32,0.0585087762459685,1
123,888,32,0.0750719272972791,1
123,889,32,0.0675032383618291,1
124,849,32,0.080434725485325,1
124,850,32,0.0601125897431228,1
124,888,32,0.0724897648046845,1
124,889,32,0.066307239324964,1
125,850,32,0.0604847867049644,1
125,888,32,0.0642147997452146,1
125,889,32,0.0629425238304652,1
126,888,32,0.0578755277876401,1
126,889,32,0.0633287142234022,1
127,849,32,0.0624135037305909,1
127,888,32,0.061697468176119,1
127,889,32,0.0718502243147594,1
128,848,32,0.0602547825808826,1
128,889,32,0.0662864644165151,1
129,889,32,0.057823811651649,1
130,847,32,0.0615986944842317,1
130,889,32,0.0586033041433388,1
131,847,32,0.0663336163234005,1
131,889,32,0.0648870505437306,1
132,889,32,0.0698560394964563,1
133,847,32,0.0633616132339717,1
133,889,32,0.0698158813566502,1
134,846,32,0.0780687329030111,1
134,888,32,0.0576810821926377,1
134,889,32,0.0697177150492564,1
135,846,32,0.0777993844164056,1
135,889,32,0.0606562342463333,1
136,843,32,0.0883273449546705,1
136,845,32,0.0865019186745422,1
136,846,32,0.0784813297790687,1
136,847,32,0.0616941069221264,1
137,843,32,0.0893147044695856,1
137,845,32,0.0713395790700446,1
137,846,32,0.0723664185770305,1
137,847,32,0.0807749315648687,1
137,848,32,0.0969776854249328,1
137,849,32,0.0978134995602772,1
137,850,32,0.0767621427128532,1
138,846,32,0.0700571486300755,1
138,847,32,0.113989994360641,1
138,848,32,0.171411593641989,1
138,849,32,0.182565000991157,1
138,850,32,0.134084502444304,1
138,851,32,0.0809277742705418,1
138,852,32,0.058718017255475,1
139,847,32,0.12746192395065,1
139,848,32,0.206443714964529,1
139,849,32,0.228862642225861,1
139,850,32,0.167226006850071,1
139,851,32,0.0930358897954027,1
139,852,32,0.0600415375512691,1
140,849,32,0.180852672062474,1
140,850,32,0.137513842469513,1
140,851,32,0.0808715528748133,1
121,887,33,0.0601499291471246,1
122,851,33,0.0579329344676712,1
122,887,33,0.0588517008133904,1
122,888,33,0.0651500008538765,1
123,849,33,0.06472377025987,1
123,850,33,0.0603307410241781,1
123,887,33,0.0578730274864245,1
123,888,33,0.0744784595747997,1
123,889,33,0.0670008547256117,1
124,850,33,0.06768044721048,1
124,888,33,0.074522132288956,1
124,889,33,0.068091062715763,1
125,888,33,0.0684824365161728,1
125,889,33,0.0669381172146871,1
126,850,33,0.0605550369134093,1
126,888,33,0.0612448487898023,1
126,889,33,0.0667966143185363,1
127,849,33,0.0700607516584781,1
127,888,33,0.0626120417997527,1
127,889,33,0.0749825651165711,1
127,890,33,0.059179252066499,1
128,849,33,0.0568632419207484,1
128,889,33,0.0704977618530081,1
128,890,33,0.0581745260726221,1
129,889,33,0.0602988268020591,1
130,847,33,0.069218232705959,1
130,848,33,0.0608968764444547,1
130,889,33,0.0600490384549157,1
131,848,33,0.0582872106384892,1
131,889,33,0.0687956287281024,1
131,890,33,0.0644122291902525,1
132,888,33,0.057215011893414,1
132,889,33,0.0743938031496813,1
132,890,33,0.0685365762932006,1
133,847,33,0.07045946714524,1
133,889,33,0.0696275272973923,1
133,890,33,0.0644550822301894,1
134,847,33,0.0602855704880673,1
134,889,33,0.0639262508322937,1
135,847,33,0.0652736419283719,1
136,846,33,0.0959353605618337,1
136,847,33,0.0708415709609544,1
136,848,33,0.0602748439599752,1
136,849,33,0.0576122177643476,1
137,847,33,0.0838618541592228,1
137,848,33,0.0988258797781582,1
137,849,33,0.0989166395328947,1
137,850,33,0.0807548465980288,1
137,851,33,0.07473890958373,1
137,852,33,0.0813884606664407,1
137,853,33,0.0690473807552098,1
138,848,33,0.159278752261004,1
138,849,33,0.167345360851491,1
138,850,33,0.128014584870272,1
138,851,33,0.0957834672629901,1
138,852,33,0.0922611974102918,1
139,849,33,0.201297576132521,1
139,850,33,0.15405377138359,1
139,851,33,0.0983635658276945,1
112,876,34,0.0577989560629144,1
112,877,34,0.0581933726827279,1
112,878,34,0.0575364303322202,1
121,887,34,0.0586037994860324,1
122,851,34,0.0614153764090259,1
122,888,34,0.0583370515485686,1
123,850,34,0.0630573843660222,1
123,851,34,0.060219507104771,1
123,852,34,0.0589673574354193,1
123,888,34,0.0645206620646657,1
123,889,34,0.0589932567819727,1
124,849,34,0.0831253444400802,1
124,850,34,0.0706077751064916,1
124,851,34,0.0589418590805704,1
124,888,34,0.0672418212552588,1
124,889,34,0.0637193037312137,1
125,850,34,0.0698504550972792,1
125,888,34,0.065194593490178,1
125,889,34,0.0653832364993405,1
126,850,34,0.0635877784521777,1
126,888,34,0.0587407322561407,1
126,889,34,0.0642229787965965,1
127,889,34,0.0684381210359022,1
128,889,34,0.0688135672099365,1
128,890,34,0.059196984155544,1
129,889,34,0.0609677045527088,1
130,849,34,0.0618965251757216,1
130,889,34,0.0598978940670494,1
130,890,34,0.0573237160269214,1
131,848,34,0.0684185549995032,1
131,849,34,0.0569455690558193,1
131,889,34,0.068962016697672,1
131,890,34,0.063855475796471,1
132,848,34,0.0631015111443143,1
132,889,34,0.0749321875852402,1
132,890,34,0.0679701283352721,1
133,847,34,0.0712672177582148,1
133,889,34,0.0692445271472799,1
133,890,34,0.0649265364327382,1
134,846,34,0.0892793169516743,1
134,847,34,0.0646005301770789,1
136,848,34,0.0620483830929443,1
136,849,34,0.0586049611825878,1
136,850,34,0.0569229602000165,1
136,851,34,0.0599902813763507,1
136,852,34,0.0687071333971083,1
136,853,34,0.0582815436821964,1
137,849,34,0.085408673761924,1
137,850,34,0.0766833360490693,1
137,851,34,0.0869698288180567,1
137,852,34,0.112449301675306,1
138,851,34,0.102027987239595,1
113,878,35,0.0584535632264378,1
122,852,35,0.0644729499487816,1
123,851,35,0.0618086077445368,1
123,852,35,0.0612270105558943,1
123,853,35,0.0581371159053784,1
124,850,35,0.0699338731656634,1
124,851,35,0.0609598616267262,1
124,852,35,0.0582646430612443,1
124,888,35,0.0580789131388753,1
124,889,35,0.0575274080188717,1
125,849,35,0.0835221964948041,1
125,850,35,0.0688267822453705,1
125,888,35,0.0594871488291561,1
125,889,35,0.0621157496992798,1
126,850,35,0.0648401050296342,1
126,889,35,0.061267251252816,1
127,889,35,0.0623268246561402,1
128,889,35,0.0650585688483414,1
128,890,35,0.0586713076188518,1
129,851,35,0.063770388894964,1
129,852,35,0.0594439655607567,1
129,889,35,0.0605884253697356,1
130,850,35,0.0620462248140649,1
130,851,35,0.0587680586614067,1
130,889,35,0.0580509262766845,1
131,849,35,0.0684424257997874,1
131,850,35,0.0581372574318623,1
131,889,35,0.0636672868514443,1
131,890,35,0.059651938728845,1
132,848,35,0.0701276524068041,1
132,849,35,0.061058163563667,1
132,889,35,0.068962152327219,1
132,890,35,0.0643837764700521,1
133,848,35,0.0619317711671491,1
133,849,35,0.0571962301496133,1
133,889,35,0.0651819032821218,1
133,890,35,0.063816520631778,1
134,850,35,0.0570198704598658,1
135,851,35,0.0578978241057909,1
136,851,35,0.0676670552669411,1
136,852,35,0.0781757505125853,1
136,853,35,0.0667505828296484,1
137,852,35,0.123102047293811,1
113,878,36,0.0594251248475878,1
123,852,36,0.0638677060434545,1
124,851,36,0.0626670366326207,1
124,852,36,0.0605497355671999,1
124,853,36,0.0583917751223426,1
125,851,36,0.0588122031305092,1
128,889,36,0.0602234285677624,1
129,852,36,0.0672413907788702,1
129,853,36,0.057002126576947,1
129,889,36,0.0583467991851471,1
130,851,36,0.0658412810675399,1
130,852,36,0.062820840538997,1
131,850,36,0.0665823903974092,1
131,851,36,0.061193173932369,1
131,852,36,0.0580658927023567,1
131,889,36,0.0572579062119087,1
132,849,36,0.0704678761771583,1
132,850,36,0.0636966300091058,1
132,851,36,0.0595192163716327,1
132,852,36,0.0588612479541167,1
132,853,36,0.0611425841113123,1
132,889,36,0.0605838965222508,1
133,849,36,0.0699443107438509,1
133,851,36,0.0641740754994729,1
133,852,36,0.0668177430431949,1
133,853,36,0.0735676658876735,1
133,854,36,0.063219556025759,1
133,889,36,0.0598967146796836,1
134,853,36,0.0727872711646488,1
134,854,36,0.0624255806572169,1
124,852,37,0.0644863006137626,1
125,852,37,0.0598754031499833,1
125,853,37,0.057607376379211,1
125,854,37,0.0592119623750899,1
126,853,37,0.0569267224457135,1
128,855,37,0.0575782396143384,1
129,853,37,0.0646583024671935,1
129,854,37,0.0611870175303195,1
129,855,37,0.0584428072136615,1
130,852,37,0.0661949026783698,1
130,854,37,0.0601259109234197,1
130,855,37,0.05770960567608,1
131,851,37,0.0683844942923784,1
131,855,37,0.0577771904690782,1
132,851,37,0.0689873145566688,1
114,868,38,0.0572448268060218,1
125,857,38,0.0581739658636234,1
127,857,38,0.058842814129589,1
128,856,38,0.0633480974547594,1
128,857,38,0.059394891252465,1
129,855,38,0.0662370303950768,1
115,868,39,0.0582907546975235,1
122,860,39,0.057114917287677,1
125,859,39,0.0634981803939965,1
115,874,40,0.0570211972706523,1
116,868,40,0.0576081783626197,1
118,872,40,0.0616443485691625,1
118,873,40,0.0613166852742543,1
119,872,40,0.0658586829281226,1
119,873,40,0.0646479238583743,1
121,865,40,0.0654009096190173,1
122,863,40,0.0584314202286445,1
122,864,40,0.0611199221830781,1
122,865,40,0.0577125482475577,1
123,863,40,0.0580606090469578,1
123,864,40,0.0577055957590363,1
124,863,40,0.0579918625574043,1
124,864,40,0.0576395205818663,1
126,867,40,0.0587213136431625,1
127,866,40,0.0578717832327536,1
134,887,40,0.058224732592785,1
117,872,41,0.0571574283052779,1
118,871,41,0.0570617446082891,1
118,872,41,0.0711951866748475,1
118,873,41,0.0696710997636225,1
119,871,41,0.0606423764447849,1
119,872,41,0.079476756303566,1
119,873,41,0.0765469988695808,1
120,872,41,0.0634286790965289,1
120,873,41,0.0596796543319417,1
121,866,41,0.0600438078719483,1
122,865,41,0.0621419556865483,1
123,864,41,0.0649299271714149,1
123,865,41,0.0589559586565287,1
124,864,41,0.0665959946306739,1
124,865,41,0.0623735048080792,1
124,866,41,0.0577983250906737,1
125,867,41,0.061300580739774,1
127,867,41,0.0617805088405462,1
134,886,41,0.0663242519877159,1
117,872,42,0.0594117918734172,1
118,871,42,0.059025507129491,1
118,872,42,0.0728886807872986,1
118,873,42,0.0703039118486255,1
119,871,42,0.0641255790909905,1
119,872,42,0.0823580998861844,1
119,873,42,0.0780205962076752,1
119,874,42,0.0590664908404531,1
120,871,42,0.0576037556599979,1
120,872,42,0.0661363401987202,1
120,873,42,0.0616702125340949,1
122,866,42,0.0574497807424536,1
124,867,42,0.0581593473572241,1
126,868,42,0.0586935036890765,1
127,867,42,0.0621182382066217,1
117,872,43,0.060007866041975,1
118,871,43,0.0601743483625339,1
118,872,43,0.0688350910293627,1
118,873,43,0.0661190680707478,1
119,871,43,0.0645009486048461,1
119,872,43,0.0758025223887821,1
119,873,43,0.0718271378070735,1
120,872,43,0.0653816207386494,1
117,872,44,0.0601894975932478,1
118,871,44,0.0612313212167164,1
118,872,44,0.0649385897716168,1
118,873,44,0.0634100388792121,1
119,871,44,0.0635705299119526,1
119,872,44,0.0679946477986074,1
120,872,44,0.0630176979811625,1
118,872,45,0.0641761983967314,1
