x,y,z,signal,cytoplasm.p
854,541,38,0.138911569818364,1
854,542,38,0.139614237017044,1
854,543,38,0.145319511605313,1
854,544,38,0.152621629511404,1
854,545,38,0.160246923143477,1
854,546,38,0.166408207856739,1
854,547,38,0.175698183167916,1
855,539,38,0.139172627211788,1
855,540,38,0.137026460640588,1
855,541,38,0.132987424522747,1
855,542,38,0.135209319556705,1
855,543,38,0.14214198257658,1
855,548,38,0.179502863222296,1
855,549,38,0.212554946477986,1
856,538,38,0.138100847149227,1
856,550,38,0.189334082983393,1
857,537,38,0.162363062512342,1
857,551,38,0.172617894627494,1
858,536,38,0.177844715349198,1
859,535,38,0.166806227504955,1
860,534,38,0.165177670460866,1
860,535,38,0.171841456749082,1
864,556,38,0.158979600655664,1
868,531,38,0.132362148723011,1
853,541,39,0.160617073868239,1
853,542,39,0.16140798282963,1
853,543,39,0.164666783441741,1
853,544,39,0.16453917372876,1
853,545,39,0.165611425546266,1
853,546,39,0.173018780187009,1
853,547,39,0.187673906564027,1
854,539,39,0.15610035048562,1
854,540,39,0.15043753384252,1
854,541,39,0.145635068488911,1
854,542,39,0.14668898083288,1
854,543,39,0.153508634955362,1
854,544,39,0.159889238543172,1
854,545,39,0.166062977587017,1
854,546,39,0.172819805744522,1
854,547,39,0.181857109106446,1
854,548,39,0.208092144685732,1
855,538,39,0.160959072616578,1
855,539,39,0.1561451318239,1
855,540,39,0.145212812430328,1
855,541,39,0.136763256762159,1
855,542,39,0.138316616067804,1
855,543,39,0.14569383736135,1
855,544,39,0.155377916754688,1
855,545,39,0.169108497787894,1
855,546,39,0.176650031329246,1
855,547,39,0.174307355235154,1
855,548,39,0.187670167906077,1
855,549,39,0.227687901646264,1
856,537,39,0.177774199778596,1
856,538,39,0.169631992457959,1
856,539,39,0.156594773257118,1
856,540,39,0.143287934310577,1
856,541,39,0.133730002189886,1
856,542,39,0.13465897023632,1
856,543,39,0.14079838910782,1
856,548,39,0.172094447132923,1
856,549,39,0.198865585033216,1
856,550,39,0.220062171640867,1
856,551,39,0.214039464943088,1
857,535,39,0.181596535261842,1
857,536,39,0.211051369113053,1
857,537,39,0.211817310443909,1
857,538,39,0.184262882424609,1
857,540,39,0.137905929799279,1
857,541,39,0.127120656422477,1
857,542,39,0.124888878122393,1
857,543,39,0.127287622291855,1
857,544,39,0.13247382491268,1
857,545,39,0.142782319152977,1
857,550,39,0.204782453508786,1
857,551,39,0.205947688226214,1
858,534,39,0.158162485707005,1
858,535,39,0.189192544705622,1
858,536,39,0.219421646362491,1
858,537,39,0.218285636863988,1
858,540,39,0.129774077499714,1
858,541,39,0.116224225786446,1
858,542,39,0.10877124064852,1
858,543,39,0.105308181938522,1
858,544,39,0.103861191579401,1
858,545,39,0.104886645306232,1
858,546,39,0.109348692290571,1
858,547,39,0.114281185101262,1
858,548,39,0.132826355590197,1
859,534,39,0.165884111699117,1
859,535,39,0.185109175416699,1
859,536,39,0.195067509548084,1
859,539,39,0.137798923983578,1
859,540,39,0.119959664008579,1
859,541,39,0.103461037240052,1
859,542,39,0.0924015032282663,1
859,543,39,0.0852790649873574,1
859,544,39,0.0804721710341897,1
859,545,39,0.0775604110514068,1
859,546,39,0.0793252168209321,1
859,547,39,0.0834171012866361,1
859,548,39,0.0971543517553954,1
859,549,39,0.122638335769319,1
860,533,39,0.161956798946439,1
860,534,39,0.184762706790243,1
860,535,39,0.183982565635502,1
860,536,39,0.172072239268825,1
860,539,39,0.124978617707058,1
860,540,39,0.106322113050789,1
860,541,39,0.0886072076796422,1
860,542,39,0.077171354747171,1
860,543,39,0.0692029714334453,1
860,544,39,0.0641846428102706,1
860,545,39,0.0614694218350645,1
860,546,39,0.0621227788479801,1
860,547,39,0.0631612530113298,1
860,548,39,0.0695109330624076,1
860,549,39,0.0849296419955498,1
860,550,39,0.110145722272391,1
860,551,39,0.136266097811972,1
861,535,39,0.206191844998685,1
861,538,39,0.131220242287679,1
861,539,39,0.112899261543112,1
861,540,39,0.092379637386504,1
861,541,39,0.0760753559650535,1
861,542,39,0.0659794404005086,1
861,543,39,0.0596190043366545,1
861,548,39,0.0578755513753874,1
861,549,39,0.0686005698516699,1
861,550,39,0.0889267862741577,1
861,551,39,0.115916783087925,1
862,537,39,0.135322210515361,1
862,538,39,0.121512009041089,1
862,539,39,0.101383393074807,1
862,540,39,0.0804548694215331,1
862,541,39,0.0652425591743458,1
862,542,39,0.0569463651422912,1
862,549,39,0.0610648035145366,1
862,550,39,0.0783851861210072,1
862,551,39,0.101923646839341,1
863,537,39,0.12290451170391,1
863,538,39,0.107828461976032,1
863,539,39,0.0879944982522894,1
863,540,39,0.0686083597052211,1
863,550,39,0.0715503650770003,1
863,551,39,0.0894379917278714,1
863,556,39,0.159567666784008,1
864,537,39,0.106757000348061,1
864,538,39,0.0911787438920708,1
864,539,39,0.0728146447454094,1
864,550,39,0.0628499537161222,1
864,551,39,0.0761600949472875,1
864,552,39,0.0982679293062004,1
864,555,39,0.169057276994596,1
864,556,39,0.163786358979285,1
864,557,39,0.162950244100162,1
865,536,39,0.111853168537379,1
865,537,39,0.0893342174335531,1
865,538,39,0.0731822361995874,1
865,539,39,0.057933323665502,1
865,551,39,0.0659209250963536,1
865,552,39,0.0849734031637585,1
865,553,39,0.114588639593657,1
865,556,39,0.174027710696845,1
865,557,39,0.177826399463407,1
866,530,39,0.167790237559751,1
866,532,39,0.149223944243094,1
866,535,39,0.121018105200032,1
866,536,39,0.0954477723401206,1
866,537,39,0.0726154580131965,1
866,552,39,0.0736677310087262,1
866,558,39,0.193863036612996,1
867,531,39,0.1343414083942,1
867,532,39,0.132001232601324,1
867,533,39,0.135164903828508,1
867,534,39,0.130581615822963,1
867,535,39,0.109673177136529,1
867,536,39,0.079791351986461,1
867,537,39,0.05689634142717,1
868,530,39,0.137181113705868,1
868,531,39,0.135450280189415,1
868,532,39,0.140519228118331,1
868,533,39,0.14361733720185,1
868,534,39,0.130020144879718,1
868,535,39,0.0985096860253825,1
868,536,39,0.0660605881482137,1
868,559,39,0.181769221159945,1
869,530,39,0.134835512731109,1
869,531,39,0.144662640018047,1
869,534,39,0.125634168380474,1
869,535,39,0.084427034275733,1
870,529,39,0.128457433032262,1
870,530,39,0.14238945342755,1
870,534,39,0.11592772780268,1
870,535,39,0.0692514737388646,1
871,529,39,0.131171757673071,1
871,530,39,0.151827536204126,1
871,534,39,0.10366778384528,1
872,529,39,0.136147309916487,1
872,530,39,0.160348079197843,1
872,534,39,0.093455604274213,1
873,529,39,0.148567355708796,1
873,530,39,0.173465826968022,1
873,534,39,0.0861584810736161,1
874,529,39,0.167724769767075,1
874,533,39,0.147069085587009,1
874,534,39,0.0828397263047633,1
875,528,39,0.156596825391134,1
875,533,39,0.144311701513475,1
875,534,39,0.0814377590583318,1
876,528,39,0.154915561525667,1
876,529,39,0.178090369943624,1
876,533,39,0.139747767254602,1
876,534,39,0.0804949155195395,1
877,528,39,0.149338651458294,1
877,529,39,0.160142405835118,1
877,533,39,0.120659370944971,1
877,534,39,0.0745988219524182,1
878,528,39,0.15212699445018,1
878,529,39,0.151473885108612,1
878,532,39,0.141937712684821,1
878,533,39,0.108849268916642,1
878,534,39,0.0714915549260038,1
879,528,39,0.153649005639642,1
880,528,39,0.150291997441579,1
852,544,40,0.171608173928123,1
853,540,40,0.165805493737312,1
853,541,40,0.167101310223883,1
853,542,40,0.171216770643029,1
853,543,40,0.170335508815543,1
853,544,40,0.166625333070786,1
853,545,40,0.163246565175824,1
853,546,40,0.168724241590237,1
853,547,40,0.184139884116228,1
854,538,40,0.18678100418324,1
854,539,40,0.167328212559192,1
854,540,40,0.153668996255492,1
854,541,40,0.147425803089674,1
854,542,40,0.150545907747565,1
854,543,40,0.1565408752545,1
854,544,40,0.161781860418467,1
854,545,40,0.16606079572039,1
854,546,40,0.175528540089216,1
854,547,40,0.185829085258667,1
854,548,40,0.21537693739142,1
855,538,40,0.214486806570943,1
855,539,40,0.173371499566504,1
855,540,40,0.147779619299419,1
855,541,40,0.137155827640745,1
855,542,40,0.13842212406155,1
855,543,40,0.145019227788102,1
855,544,40,0.154119781694455,1
855,545,40,0.168124051359772,1
855,546,40,0.181727895426647,1
855,547,40,0.18111841162374,1
855,548,40,0.194575504520686,1
855,549,40,0.237337342432669,1
856,539,40,0.17732269491334,1
856,540,40,0.145031422653465,1
856,541,40,0.132584427859847,1
856,542,40,0.132026471490952,1
856,543,40,0.136251272912784,1
856,544,40,0.144657238423912,1
856,545,40,0.161363708627917,1
856,546,40,0.174346864711909,1
856,547,40,0.167958429991991,1
856,548,40,0.17513570974541,1
856,549,40,0.210841815565894,1
857,534,40,0.181994684642669,1
857,539,40,0.168068065841517,1
857,540,40,0.136087668297398,1
857,541,40,0.122455271262396,1
857,542,40,0.117800111390778,1
857,543,40,0.117197798263055,1
857,544,40,0.120125768925181,1
857,545,40,0.130451965769839,1
857,546,40,0.140764953475999,1
857,547,40,0.139283124014091,1
857,548,40,0.151667764597678,1
857,549,40,0.188887213110485,1
857,550,40,0.232273501251047,1
858,533,40,0.158230029221445,1
858,534,40,0.184463425452293,1
858,535,40,0.222856942293897,1
858,537,40,0.255155338053462,1
858,538,40,0.201385181026054,1
858,539,40,0.150129430687074,1
858,540,40,0.12413916516169,1
858,541,40,0.108724218474244,1
858,542,40,0.0999420048056733,1
858,543,40,0.0951374224517425,1
858,544,40,0.0923599062358739,1
858,545,40,0.0939614435154122,1
858,546,40,0.0997936968444217,1
858,547,40,0.103784873422959,1
858,548,40,0.120401226638341,1
858,549,40,0.157529449538402,1
858,550,40,0.198585291831856,1
859,533,40,0.169074625782748,1
859,534,40,0.189710673163173,1
859,535,40,0.204433850191198,1
859,536,40,0.209665258729755,1
859,537,40,0.193976057304262,1
859,538,40,0.160827877566005,1
859,539,40,0.131552841318714,1
859,540,40,0.110945724310372,1
859,541,40,0.094189961611413,1
859,542,40,0.0832698429801402,1
859,543,40,0.0769014519485036,1
859,544,40,0.0724842747564966,1
859,545,40,0.0710333216558259,1
859,546,40,0.0736602124142691,1
859,547,40,0.0764447223972171,1
859,548,40,0.0856586685018563,1
859,549,40,0.109744223431445,1
859,550,40,0.142692355484713,1
859,551,40,0.167128660216896,1
860,532,40,0.167857910806802,1
860,533,40,0.186136398224579,1
860,534,40,0.205989155485996,1
860,535,40,0.198185927682042,1
860,536,40,0.17960179023454,1
860,537,40,0.157049509643756,1
860,538,40,0.134483642510518,1
860,539,40,0.113814159498272,1
860,540,40,0.0954114707970007,1
860,541,40,0.0797128814480763,1
860,542,40,0.0695455480815944,1
860,543,40,0.063254159251072,1
860,544,40,0.0594443252739033,1
860,545,40,0.0578888784526211,1
860,546,40,0.0588913577135661,1
860,547,40,0.0597372379200777,1
860,548,40,0.0634631997647264,1
860,549,40,0.0747840565320935,1
860,550,40,0.0962640970992449,1
860,551,40,0.121913991430854,1
861,535,40,0.213113810975152,1
861,536,40,0.171141278057743,1
861,537,40,0.142724281500705,1
861,538,40,0.120269548038948,1
861,539,40,0.0997631389177734,1
861,540,40,0.0825695050715072,1
861,541,40,0.0693590338666271,1
861,542,40,0.0602684811651366,1
861,549,40,0.0636104521742855,1
861,550,40,0.0783667228117953,1
861,551,40,0.0989444789716648,1
861,552,40,0.128422558547855,1
862,536,40,0.174066595098296,1
862,537,40,0.133907924567894,1
862,538,40,0.110390846142502,1
862,539,40,0.090060053697035,1
862,540,40,0.0738975818124504,1
862,541,40,0.0614791989563271,1
862,549,40,0.0593601700884154,1
862,550,40,0.0718256753667399,1
862,551,40,0.0861854182810514,1
862,552,40,0.111668653383997,1
862,553,40,0.146907969478965,1
863,536,40,0.166268320721279,1
863,537,40,0.122360955654752,1
863,538,40,0.0991497041671907,1
863,539,40,0.0807308873436923,1
863,540,40,0.0656656702887697,1
863,549,40,0.057284188859356,1
863,550,40,0.0684349838655091,1
863,551,40,0.0769885556024061,1
863,552,40,0.0960705478386406,1
863,553,40,0.130437671594965,1
863,554,40,0.162110555677321,1
863,557,40,0.157315131266286,1
864,535,40,0.188036992758467,1
864,536,40,0.135728934042337,1
864,537,40,0.103682408248616,1
864,538,40,0.0851223362003139,1
864,539,40,0.0693379994929578,1
864,550,40,0.0632215845720282,1
864,551,40,0.0707082707039329,1
864,552,40,0.0861305590777304,1
864,553,40,0.116377534350129,1
864,554,40,0.149283338190837,1
864,555,40,0.165090266063185,1
864,556,40,0.16549585737829,1
864,557,40,0.165473048026635,1
865,533,40,0.167874740664512,1
865,534,40,0.159200735786755,1
865,535,40,0.137835567549034,1
865,536,40,0.107771415009148,1
865,537,40,0.0848499743789889,1
865,538,40,0.0692325563655169,1
865,550,40,0.0569496674269155,1
865,551,40,0.065812297623025,1
865,552,40,0.0813710529089212,1
865,553,40,0.105555735346607,1
865,554,40,0.13481423658303,1
865,555,40,0.157905508993867,1
865,556,40,0.173263621004153,1
865,557,40,0.18055685812338,1
865,558,40,0.173401432417849,1
866,530,40,0.165982177758585,1
866,531,40,0.165840934327654,1
866,532,40,0.147491506759824,1
866,533,40,0.139727906371362,1
866,534,40,0.135946118225752,1
866,535,40,0.117916198489195,1
866,536,40,0.0899844136883283,1
866,537,40,0.0677380602833002,1
866,551,40,0.058900297469799,1
866,552,40,0.0749925368367491,1
866,553,40,0.0962238858870073,1
866,554,40,0.127822415492885,1
866,556,40,0.211680124105517,1
867,530,40,0.148111404553171,1
867,531,40,0.140296654134654,1
867,532,40,0.138332809056336,1
867,533,40,0.140572902037349,1
867,534,40,0.133257716519245,1
867,535,40,0.107869339542132,1
867,536,40,0.0760446624088581,1
867,552,40,0.0666478463962121,1
867,553,40,0.0877585971913786,1
868,530,40,0.142251335373139,1
868,531,40,0.139352743250295,1
868,532,40,0.143735641548515,1
868,533,40,0.146028264442801,1
868,534,40,0.130031172151588,1
868,535,40,0.0955887209242095,1
868,536,40,0.0635319344604062,1
868,553,40,0.0786773321653939,1
869,530,40,0.140413389896122,1
869,531,40,0.146908971958226,1
869,532,40,0.155722474773612,1
869,533,40,0.151771385571639,1
869,534,40,0.121578420343658,1
869,535,40,0.0801225416495931,1
869,553,40,0.065106888348719,1
869,559,40,0.18442508356903,1
870,529,40,0.136273221311662,1
870,530,40,0.147003039894523,1
870,531,40,0.161270100652692,1
870,532,40,0.170009054392685,1
870,533,40,0.153605580596832,1
870,534,40,0.108480462693477,1
870,535,40,0.0645693176904425,1
870,554,40,0.0790446936390356,1
870,560,40,0.166453720415186,1
871,529,40,0.139570245868299,1
871,530,40,0.156533291793738,1
871,531,40,0.176313929517735,1
871,532,40,0.182069280893557,1
871,533,40,0.152182732297089,1
871,534,40,0.0943418902918776,1
871,555,40,0.069616464643901,1
872,529,40,0.147153081555202,1
872,530,40,0.168142072398722,1
872,531,40,0.188063198745736,1
872,532,40,0.18811528049181,1
872,533,40,0.149137353622696,1
872,534,40,0.0861407607784447,1
873,529,40,0.162487346352952,1
873,531,40,0.199370669466501,1
873,532,40,0.189408219273209,1
873,533,40,0.1455259633637,1
873,534,40,0.0829874209845847,1
874,532,40,0.194286247975346,1
874,533,40,0.147137549023595,1
874,534,40,0.0851889656895458,1
875,532,40,0.196255459266178,1
875,533,40,0.149422788952971,1
875,534,40,0.0881738299981988,1
876,528,40,0.165053068185667,1
876,531,40,0.205780451097741,1
876,532,40,0.190016759566223,1
876,533,40,0.145071309534177,1
876,534,40,0.08789649116219,1
877,528,40,0.160580866676108,1
877,529,40,0.168745989493263,1
877,530,40,0.171158284823558,1
877,531,40,0.172900098436387,1
877,532,40,0.160684322535838,1
877,533,40,0.125300826335399,1
877,534,40,0.0814847635417965,1
878,528,40,0.166713032315308,1
878,529,40,0.163866462969171,1
878,530,40,0.156322594240834,1
878,531,40,0.156698936749267,1
878,532,40,0.146676396769686,1
878,533,40,0.115453967897831,1
878,534,40,0.0784812354280794,1
879,529,40,0.164245718564397,1
879,530,40,0.153837436359078,1
879,531,40,0.154210382231897,1
879,532,40,0.14552538546389,1
879,533,40,0.113154858373032,1
879,534,40,0.0765422518354334,1
880,529,40,0.160328772626665,1
850,541,41,0.204272109007849,1
851,541,41,0.205192668022365,1
852,541,41,0.198682001595853,1
852,542,41,0.204910487801219,1
852,543,41,0.188571880310486,1
852,544,41,0.170474039655532,1
852,545,41,0.159876100167916,1
852,546,41,0.160375511747972,1
853,538,41,0.189981484090112,1
853,539,41,0.179151771397366,1
853,540,41,0.171198254261386,1
853,541,41,0.173203790683085,1
853,542,41,0.179346169816873,1
853,543,41,0.171990613869237,1
853,544,41,0.162423364588357,1
853,545,41,0.157365597251669,1
853,546,41,0.163869883192532,1
853,547,41,0.181709827212203,1
854,538,41,0.212980799668035,1
854,539,41,0.174636557630575,1
854,540,41,0.156209549961821,1
854,541,41,0.151495397134164,1
854,542,41,0.15498730365913,1
854,543,41,0.156534376830114,1
854,544,41,0.156892957764818,1
854,545,41,0.160207684925816,1
854,546,41,0.175121274044052,1
854,547,41,0.193240154969613,1
854,548,41,0.225154153005037,1
855,539,41,0.18769606725263,1
855,540,41,0.149880662510002,1
855,541,41,0.140510736529297,1
855,542,41,0.139171365267306,1
855,543,41,0.141709607374398,1
855,544,41,0.146628065475435,1
855,545,41,0.159884579963077,1
855,546,41,0.182317695254419,1
855,547,41,0.195638710437097,1
855,548,41,0.208715875488019,1
856,540,41,0.146910281078202,1
856,541,41,0.133560536019292,1
856,542,41,0.12866088914674,1
856,543,41,0.127616895450518,1
856,544,41,0.131493836568802,1
856,545,41,0.147070901843552,1
856,546,41,0.168207504809778,1
856,547,41,0.176939865774396,1
856,548,41,0.186313683733408,1
857,540,41,0.136353891407484,1
857,541,41,0.120779184907465,1
857,542,41,0.112178750213587,1
857,543,41,0.106652565596818,1
857,544,41,0.105158128483969,1
857,545,41,0.1145190439452,1
857,546,41,0.128986836433031,1
857,547,41,0.135894779493718,1
857,548,41,0.149463100413135,1
857,549,41,0.194152776707156,1
858,539,41,0.149512705445741,1
858,540,41,0.120307677632485,1
858,541,41,0.103889296380328,1
858,542,41,0.0935917055762284,1
858,543,41,0.0864487695829016,1
858,544,41,0.0812847099598697,1
858,545,41,0.0834034970533714,1
858,546,41,0.0904743194062153,1
858,547,41,0.0960141495348072,1
858,548,41,0.110282684527183,1
858,549,41,0.151297637460664,1
858,550,41,0.207668084164479,1
859,534,41,0.215472373417062,1
859,535,41,0.220357443061773,1
859,537,41,0.192016422638841,1
859,538,41,0.154476440227752,1
859,539,41,0.123805469300405,1
859,540,41,0.103015983623687,1
859,541,41,0.0870651410080252,1
859,542,41,0.0767726156726617,1
859,543,41,0.070658689259074,1
859,544,41,0.0660735201306799,1
859,545,41,0.065378353835646,1
859,546,41,0.0679082989526191,1
859,547,41,0.0705223284918381,1
859,548,41,0.0771850002589935,1
859,549,41,0.100062196172124,1
859,550,41,0.13608545104915,1
859,551,41,0.166036299844802,1
860,531,41,0.189400612224699,1
860,532,41,0.185487735173379,1
860,533,41,0.20451503921746,1
860,534,41,0.220228842663404,1
860,535,41,0.208382981610143,1
860,536,41,0.183612733345328,1
860,537,41,0.154068089146211,1
860,538,41,0.126278196439326,1
860,539,41,0.103357168594745,1
860,540,41,0.0858432249337963,1
860,541,41,0.072645249338057,1
860,542,41,0.0640963656659392,1
860,543,41,0.0594236859950015,1
860,548,41,0.059584519050078,1
860,549,41,0.0697877647618491,1
860,550,41,0.0896550874572342,1
860,551,41,0.115165749213372,1
861,533,41,0.219611975895587,1
861,534,41,0.229704111523624,1
861,535,41,0.204383584701666,1
861,536,41,0.168471038916669,1
861,537,41,0.13633234400031,1
861,538,41,0.109582623774581,1
861,539,41,0.0894475742502186,1
861,540,41,0.0750943474511033,1
861,541,41,0.06426812574496,1
861,549,41,0.061414957726511,1
861,550,41,0.0744735474264211,1
861,551,41,0.0921921206922759,1
861,552,41,0.118504323586908,1
862,535,41,0.207768544380299,1
862,536,41,0.160822145743407,1
862,537,41,0.12588056598894,1
862,538,41,0.0993621118317744,1
862,539,41,0.0808324620805733,1
862,540,41,0.0683229125810723,1
862,541,41,0.0582542349677409,1
862,549,41,0.0587005859102082,1
862,550,41,0.0690364537312655,1
862,551,41,0.0797197572764191,1
862,552,41,0.0994841784241366,1
862,553,41,0.132034314416935,1
863,535,41,0.199702784948715,1
863,536,41,0.150948031663815,1
863,537,41,0.11664406410093,1
863,538,41,0.0911754416074465,1
863,539,41,0.0744061631292751,1
863,540,41,0.0629028256517318,1
863,549,41,0.0585446473126998,1
863,550,41,0.0670553895974072,1
863,551,41,0.0721689596473084,1
863,552,41,0.0861731998279415,1
863,553,41,0.115704988704771,1
863,554,41,0.148855503630013,1
864,529,41,0.218686345515398,1
864,533,41,0.220460592280787,1
864,534,41,0.196414629385068,1
864,535,41,0.160789240835901,1
864,536,41,0.125707420129765,1
864,537,41,0.0992531010575519,1
864,538,41,0.07911371728462,1
864,539,41,0.0653137587896202,1
864,550,41,0.0641055589904557,1
864,551,41,0.0690002996115664,1
864,552,41,0.0806000873878863,1
864,553,41,0.104791362600947,1
864,554,41,0.134856694528199,1
864,555,41,0.154979059741442,1
864,556,41,0.161941136682221,1
864,557,41,0.162432092054864,1
864,558,41,0.157437622438099,1
865,529,41,0.17848654974755,1
865,530,41,0.225956490230002,1
865,532,41,0.190270469376358,1
865,533,41,0.164852607715099,1
865,534,41,0.151192542252496,1
865,535,41,0.130396062808699,1
865,536,41,0.103511998568129,1
865,537,41,0.0812951947135518,1
865,538,41,0.065531273201498,1
865,550,41,0.059023124767012,1
865,551,41,0.0663797598540881,1
865,552,41,0.0790906130861237,1
865,553,41,0.0974685464465861,1
865,554,41,0.122240092037503,1
865,555,41,0.14748279108719,1
865,556,41,0.168209627707036,1
865,557,41,0.176716737478657,1
865,558,41,0.17057078480115,1
866,529,41,0.152111308598215,1
866,530,41,0.162539911647847,1
866,531,41,0.159145575839655,1
866,532,41,0.148562673540954,1
866,533,41,0.143138411580338,1
866,534,41,0.135566072440991,1
866,535,41,0.114433420422441,1
866,536,41,0.0860601850336121,1
866,537,41,0.0649291074971957,1
866,551,41,0.0612639430712549,1
866,552,41,0.0755241162072072,1
866,553,41,0.0924962611061729,1
866,554,41,0.118314135580296,1
866,555,41,0.156036875857592,1
866,556,41,0.198538187100465,1
867,529,41,0.150595430223056,1
867,530,41,0.148991298291313,1
867,531,41,0.143655289887282,1
867,532,41,0.143509305319141,1
867,533,41,0.146390359951855,1
867,534,41,0.136323345274709,1
867,535,41,0.107377593979954,1
867,536,41,0.0742080201548809,1
867,552,41,0.0670050415507604,1
867,553,41,0.0848912234521083,1
867,554,41,0.12158684116945,1
867,555,41,0.186283526798464,1
868,529,41,0.145294602944147,1
868,530,41,0.143777450830633,1
868,531,41,0.142143621925019,1
868,532,41,0.147287413776169,1
868,533,41,0.150572656253022,1
868,534,41,0.132768577403146,1
868,535,41,0.0957808195383538,1
868,536,41,0.0628451123309855,1
868,553,41,0.0747608992611657,1
868,554,41,0.122958999400211,1
868,555,41,0.215347146066559,1
868,560,41,0.161856657165208,1
869,529,41,0.142247089578622,1
869,530,41,0.144303363244798,1
869,531,41,0.148695272062493,1
869,532,41,0.15604190004777,1
869,533,41,0.152171799376208,1
869,534,41,0.121414167065221,1
869,535,41,0.0796871295249437,1
869,553,41,0.0612049619090904,1
869,554,41,0.0992434772566469,1
869,555,41,0.175122064233587,1
869,556,41,0.245534839433015,1
869,559,41,0.187689781117971,1
869,560,41,0.161560442234409,1
870,529,41,0.143689786967732,1
870,530,41,0.151157054486658,1
870,531,41,0.161186564645571,1
870,532,41,0.166757318310895,1
870,533,41,0.149470672080023,1
870,534,41,0.104771112519876,1
870,535,41,0.062709087689149,1
870,554,41,0.0689507594452652,1
870,555,41,0.105749272813338,1
870,556,41,0.141171488300996,1
870,557,41,0.146714196134761,1
870,559,41,0.147477377699181,1
870,561,41,0.171082733268904,1
871,529,41,0.148714838098892,1
871,530,41,0.161331747230303,1
871,531,41,0.176362591040449,1
871,532,41,0.178153703045169,1
871,533,41,0.146171194397665,1
871,534,41,0.0890931034804853,1
871,555,41,0.0626885191734891,1
871,556,41,0.0768702689465514,1
871,557,41,0.0861129979998534,1
871,558,41,0.099930765244077,1
872,528,41,0.143867803696728,1
872,529,41,0.158374456998263,1
872,531,41,0.1895456296952,1
872,532,41,0.184609315669444,1
872,533,41,0.142857516891422,1
872,534,41,0.080748318688959,1
872,557,41,0.0596459533379635,1
873,528,41,0.154653088867404,1
873,532,41,0.185037869656561,1
873,533,41,0.139525134301557,1
873,534,41,0.079700161755336,1
874,532,41,0.190550668226729,1
874,533,41,0.142599950484601,1
874,534,41,0.084084009460385,1
875,532,41,0.189650689521747,1
875,533,41,0.146055001154384,1
875,534,41,0.0889467179206401,1
876,528,41,0.174382635530714,1
876,531,41,0.197947644258653,1
876,532,41,0.177874919459637,1
876,533,41,0.139398397335226,1
876,534,41,0.0879419152665845,1
877,528,41,0.171603008211461,1
877,529,41,0.17807326882682,1
877,530,41,0.174786151124055,1
877,531,41,0.169323500104682,1
877,532,41,0.154565295271893,1
877,533,41,0.122381594933654,1
877,534,41,0.082809893701345,1
877,535,41,0.0584942815752426,1
878,529,41,0.176801323140533,1
878,530,41,0.164688436993777,1
878,531,41,0.15897546100601,1
878,532,41,0.146555651091174,1
878,533,41,0.114468613341437,1
878,534,41,0.0799228123991919,1
878,535,41,0.05971904586996,1
879,530,41,0.16222091095314,1
879,531,41,0.156512121790521,1
879,532,41,0.145818227346823,1
879,533,41,0.112582761149622,1
879,534,41,0.0785865193382259,1
879,535,41,0.0588192971455146,1
849,541,42,0.199383005858347,1
850,540,42,0.213466471385279,1
850,541,42,0.215784462901804,1
850,542,42,0.207943777755113,1
851,540,42,0.209950080778599,1
851,541,42,0.215520681123566,1
851,542,42,0.211534092361882,1
852,538,42,0.205887327180831,1
852,539,42,0.201099344704074,1
852,540,42,0.197649624865184,1
852,541,42,0.205783894908849,1
852,542,42,0.208973147047998,1
852,543,42,0.187057487963408,1
852,544,42,0.166215790808006,1
852,545,42,0.155014158309449,1
852,546,42,0.153446858645141,1
853,536,42,0.196506881064823,1
853,537,42,0.204187169529763,1
853,538,42,0.197492235621216,1
853,539,42,0.183266854412555,1
853,540,42,0.173227590720127,1
853,541,42,0.178322178530376,1
853,542,42,0.184179075158394,1
853,543,42,0.170737255327835,1
853,544,42,0.155720104205007,1
853,545,42,0.149936860317984,1
853,546,42,0.155299605433598,1
853,547,42,0.175365737457239,1
854,539,42,0.173968646977565,1
854,540,42,0.155805031889219,1
854,541,42,0.155954389505226,1
854,542,42,0.159179518608044,1
854,543,42,0.155010348888258,1
854,544,42,0.149027989032264,1
854,545,42,0.151195832743247,1
854,546,42,0.16802000580636,1
854,547,42,0.193642467587841,1
855,540,42,0.148232586605009,1
855,541,42,0.143677450575885,1
855,542,42,0.141050152928801,1
855,543,42,0.139161965550001,1
855,544,42,0.138483133769983,1
855,545,42,0.149828238741592,1
855,546,42,0.177560070208458,1
855,547,42,0.207109431957039,1
855,548,42,0.221273260939077,1
856,540,42,0.143494409656711,1
856,541,42,0.133749155440707,1
856,542,42,0.126817990242787,1
856,543,42,0.121281320872335,1
856,544,42,0.119752681525878,1
856,545,42,0.133588982842556,1
856,546,42,0.161170489595775,1
856,547,42,0.188064932445163,1
856,548,42,0.198911203736526,1
857,540,42,0.131701927675627,1
857,541,42,0.119319174111825,1
857,542,42,0.109772068767152,1
857,543,42,0.101037207501319,1
857,544,42,0.095569827138609,1
857,545,42,0.103879590022307,1
857,546,42,0.120871283266861,1
857,547,42,0.137184109349777,1
857,548,42,0.149622329501394,1
858,539,42,0.142125683443185,1
858,540,42,0.113284579189399,1
858,541,42,0.100378790916604,1
858,542,42,0.0905512449471507,1
858,543,42,0.0822813748411011,1
858,544,42,0.0754887286892959,1
858,545,42,0.0778359041461882,1
858,546,42,0.0850328914624903,1
858,547,42,0.0925320791004728,1
858,548,42,0.102768371246234,1
858,549,42,0.142607569326984,1
859,538,42,0.141587175171952,1
859,539,42,0.11235530450225,1
859,540,42,0.0940524804261796,1
859,541,42,0.0821006278303528,1
859,542,42,0.0734555651185525,1
859,543,42,0.0678719915125624,1
859,544,42,0.063167940137694,1
859,545,42,0.0627369330248559,1
859,546,42,0.0647980067976114,1
859,547,42,0.0677928310325687,1
859,548,42,0.0720414148006321,1
859,549,42,0.0914233311409308,1
859,550,42,0.128711720742206,1
859,551,42,0.163982090106516,1
860,530,42,0.198390008871824,1
860,531,42,0.196614051994754,1
860,534,42,0.2308069566494,1
860,535,42,0.212957353447203,1
860,536,42,0.180282568003711,1
860,537,42,0.144773750101781,1
860,538,42,0.114284923759211,1
860,539,42,0.0918467665868803,1
860,540,42,0.0770894875731727,1
860,541,42,0.0679118194239061,1
860,542,42,0.0611267803206103,1
860,543,42,0.0573067269519168,1
860,548,42,0.0570259384078629,1
860,549,42,0.0658530926320086,1
860,550,42,0.0851583959690238,1
860,551,42,0.110828611144946,1
861,530,42,0.186212622030031,1
861,533,42,0.212625992772903,1
861,534,42,0.208824827292873,1
861,535,42,0.190097311723309,1
861,536,42,0.158588669125516,1
861,537,42,0.124615047963797,1
861,538,42,0.0969998343196628,1
861,539,42,0.0792026548858763,1
861,540,42,0.0674886139584929,1
861,541,42,0.0598673420373379,1
861,549,42,0.0591805375987277,1
861,550,42,0.0714944326311764,1
861,551,42,0.0882441214852016,1
861,552,42,0.112845115869148,1
862,529,42,0.174794406835616,1
862,534,42,0.201696633641619,1
862,535,42,0.170115965857396,1
862,536,42,0.140834218895993,1
862,537,42,0.111664726024069,1
862,538,42,0.086466077092495,1
862,539,42,0.0711523395318474,1
862,540,42,0.0610713314236064,1
862,549,42,0.057045256772915,1
862,550,42,0.0652650677822224,1
862,551,42,0.073881795712559,1
862,552,42,0.090748385442284,1
862,553,42,0.120408963419461,1
863,529,42,0.184464864304879,1
863,534,42,0.202654862288598,1
863,535,42,0.159195157284514,1
863,536,42,0.129443259343602,1
863,537,42,0.104668435055808,1
863,538,42,0.0814673027118456,1
863,539,42,0.0670599774142602,1
863,540,42,0.0575956355779842,1
863,549,42,0.0591240095622841,1
863,550,42,0.0644837767247998,1
863,551,42,0.0678035398698504,1
863,552,42,0.0795381611067673,1
863,553,42,0.104767798441378,1
863,554,42,0.13589023885236,1
864,529,42,0.197145141919456,1
864,530,42,0.246293492149951,1
864,533,42,0.218758500434439,1
864,534,42,0.176363569931963,1
864,535,42,0.139759195518177,1
864,536,42,0.113631260105581,1
864,537,42,0.0918875498019903,1
864,538,42,0.0722542293538571,1
864,539,42,0.0602128435661541,1
864,549,42,0.0583912797796489,1
864,550,42,0.0632898593066353,1
864,551,42,0.0666450512481551,1
864,552,42,0.0761203790777436,1
864,553,42,0.0955067063267905,1
864,554,42,0.121067450767418,1
864,555,42,0.144651872211398,1
864,556,42,0.158135772583169,1
864,557,42,0.159174600562728,1
864,558,42,0.151667752803805,1
865,529,42,0.173140858573245,1
865,530,42,0.20152408927,1
865,531,42,0.205329807185262,1
865,532,42,0.189927857346588,1
865,533,42,0.171338082427477,1
865,534,42,0.149489919681833,1
865,535,42,0.125099964873127,1
865,536,42,0.0994834236162224,1
865,537,42,0.077837944486331,1
865,538,42,0.0617558065721691,1
865,550,42,0.0595219761380687,1
865,551,42,0.0658788976275727,1
865,552,42,0.0765628380419037,1
865,553,42,0.0913168265648607,1
865,554,42,0.111846387060026,1
865,555,42,0.137472127538384,1
865,556,42,0.160978237661273,1
865,557,42,0.170385833274443,1
865,558,42,0.16389718601005,1
866,529,42,0.15595282092003,1
866,530,42,0.164224442416318,1
866,531,42,0.16216487825939,1
866,532,42,0.155285641487187,1
866,533,42,0.148970942065379,1
866,534,42,0.13582633964488,1
866,535,42,0.111777675952093,1
866,536,42,0.0837721853377997,1
866,537,42,0.0632355662092499,1
866,551,42,0.0619604243832016,1
866,552,42,0.0746259065832742,1
866,553,42,0.0890722813965418,1
866,554,42,0.109411305965822,1
866,555,42,0.140137012260817,1
866,556,42,0.181180400223687,1
866,559,42,0.184027004951446,1
867,529,42,0.149935492228639,1
867,530,42,0.150616612020146,1
867,531,42,0.148427952122157,1
867,532,42,0.148478465283035,1
867,533,42,0.15052222564926,1
867,534,42,0.13676438897403,1
867,535,42,0.10517596082094,1
867,536,42,0.0717688701742653,1
867,552,42,0.0663548570898588,1
867,553,42,0.0816403660139056,1
867,554,42,0.107672594141766,1
867,555,42,0.153331455591395,1
868,529,42,0.146805799151464,1
868,530,42,0.146570546753604,1
868,531,42,0.146268623587955,1
868,532,42,0.150335127637547,1
868,533,42,0.153554996672712,1
868,534,42,0.133474452535461,1
868,535,42,0.0947238879627291,1
868,536,42,0.0608852417880909,1
868,553,42,0.0710377620492582,1
868,554,42,0.10233302398789,1
868,555,42,0.163310629497535,1
868,560,42,0.162087498654319,1
869,528,42,0.143656917441847,1
869,529,42,0.147642126320312,1
869,530,42,0.149478137602049,1
869,531,42,0.152045970538149,1
869,532,42,0.15623530778189,1
869,533,42,0.15133586140519,1
869,534,42,0.119776422593552,1
869,535,42,0.0786506072476845,1
869,553,42,0.0581212767330555,1
869,554,42,0.0828531123513653,1
869,555,42,0.133227925194384,1
869,556,42,0.19485800317642,1
869,559,42,0.182636165224811,1
869,561,42,0.152229530387765,1
870,528,42,0.142660158209626,1
870,529,42,0.150205076592718,1
870,530,42,0.156139659466523,1
870,531,42,0.162420722760657,1
870,532,42,0.163411549674428,1
870,533,42,0.143908091569145,1
870,534,42,0.100261795689915,1
870,535,42,0.0611089067050814,1
870,554,42,0.0602107029780852,1
870,555,42,0.0855136805160395,1
870,556,42,0.113083045476328,1
870,557,42,0.121778857226479,1
870,558,42,0.127591373507922,1
871,528,42,0.14574938650628,1
871,529,42,0.156850558789016,1
871,530,42,0.166705731907514,1
871,531,42,0.176338437187197,1
871,532,42,0.17216900800219,1
871,533,42,0.136804157916006,1
871,534,42,0.0830930881956251,1
871,556,42,0.0676884375598834,1
871,557,42,0.0753141557714076,1
872,528,42,0.153343249465053,1
872,531,42,0.189415083307678,1
872,532,42,0.178286089276982,1
872,533,42,0.132777835593967,1
872,534,42,0.074871679116437,1
873,532,42,0.177743323417359,1
873,533,42,0.129835959954798,1
873,534,42,0.0750549736038955,1
874,532,42,0.183921001615006,1
874,533,42,0.133885940787395,1
874,534,42,0.0805622998166855,1
875,532,42,0.181362061259644,1
875,533,42,0.136821105712452,1
875,534,42,0.085717401992674,1
876,531,42,0.191712966269616,1
876,532,42,0.164930105258907,1
876,533,42,0.128367009402925,1
876,534,42,0.0845593497443041,1
876,535,42,0.0585769979081442,1
877,528,42,0.182254468297737,1
877,529,42,0.189852317585807,1
877,530,42,0.181300450063654,1
877,531,42,0.169314737256554,1
877,532,42,0.147633611143531,1
877,533,42,0.115664818771092,1
877,534,42,0.0815540230648541,1
877,535,42,0.0618263752152028,1
878,527,42,0.167284846485751,1
878,530,42,0.175316356508232,1
878,531,42,0.162293360719022,1
878,532,42,0.142550593123341,1
878,533,42,0.109682034335646,1
878,534,42,0.0793504498136238,1
878,535,42,0.0625646952939519,1
849,541,43,0.200286440168311,1
850,540,43,0.214251424440473,1
850,541,43,0.218019071731566,1
850,542,43,0.205561556802645,1
851,540,43,0.212356738637287,1
851,541,43,0.218759396768837,1
851,542,43,0.2096494785268,1
851,543,43,0.188597944771271,1
852,538,43,0.210972420922785,1
852,539,43,0.202564662742861,1
852,540,43,0.198638741667274,1
852,541,43,0.205566062062382,1
852,542,43,0.204222952142442,1
852,543,43,0.181214012763613,1
852,544,43,0.159988896775583,1
852,545,43,0.148475080441295,1
852,546,43,0.145610879254038,1
852,547,43,0.159826589486299,1
853,535,43,0.200318401565925,1
853,538,43,0.205134618576219,1
853,539,43,0.187472549759061,1
853,540,43,0.177339277099703,1
853,541,43,0.182898873760546,1
853,542,43,0.185952213299659,1
853,543,43,0.168824230051111,1
853,544,43,0.14953420567742,1
853,545,43,0.142153516985018,1
853,546,43,0.146453704847273,1
853,547,43,0.167887194995095,1
854,539,43,0.176059323373203,1
854,540,43,0.160312013532196,1
854,541,43,0.162395224405808,1
854,542,43,0.163622483104804,1
854,543,43,0.154062711139823,1
854,544,43,0.142387012095702,1
854,545,43,0.142069190788362,1
854,546,43,0.158346057350494,1
854,547,43,0.186539748703688,1
855,540,43,0.153731657106238,1
855,541,43,0.148730795209951,1
855,542,43,0.143738920245392,1
855,543,43,0.136862478621245,1
855,544,43,0.131365236170433,1
855,545,43,0.140278267485621,1
855,546,43,0.170311708778501,1
855,547,43,0.209067498037264,1
855,548,43,0.22722421370952,1
856,540,43,0.148105401471479,1
856,541,43,0.136081511895348,1
856,542,43,0.125860103618143,1
856,543,43,0.115693619410565,1
856,544,43,0.110376068418809,1
856,545,43,0.122857123919551,1
856,546,43,0.155361063309231,1
856,547,43,0.193982826987742,1
856,548,43,0.209751542709438,1
857,540,43,0.135679989466656,1
857,541,43,0.120615509528837,1
857,542,43,0.107987549537808,1
857,543,43,0.0955868692860451,1
857,544,43,0.0881947641239421,1
857,545,43,0.0959943594148087,1
857,546,43,0.115622856168616,1
857,547,43,0.13819438436121,1
857,548,43,0.152599834432884,1
858,539,43,0.140544207542739,1
858,540,43,0.112015180979822,1
858,541,43,0.099353502304004,1
858,542,43,0.0885287843167521,1
858,543,43,0.0789624372672066,1
858,544,43,0.0719609157159782,1
858,545,43,0.0738529950730857,1
858,546,43,0.0810038388587002,1
858,547,43,0.0897516497978105,1
858,548,43,0.0990708385340385,1
858,549,43,0.142969853538016,1
859,530,43,0.188868413675874,1
859,538,43,0.133882626708897,1
859,539,43,0.105706732311053,1
859,540,43,0.0892027865055064,1
859,541,43,0.0795515117717484,1
859,542,43,0.0719994109195985,1
859,543,43,0.0667279562830352,1
859,544,43,0.0620615155712627,1
859,545,43,0.0609286727278371,1
859,546,43,0.0621286993725565,1
859,547,43,0.0654086287093266,1
859,548,43,0.0693331522108843,1
859,549,43,0.0870766754164629,1
859,550,43,0.127390335137544,1
860,530,43,0.190936941176781,1
860,531,43,0.203309941207068,1
860,535,43,0.218773620180469,1
860,536,43,0.1789956794795,1
860,537,43,0.13796393206993,1
860,538,43,0.105230814127325,1
860,539,43,0.0843426196250246,1
860,540,43,0.0721669605857234,1
860,541,43,0.0657635889248167,1
860,542,43,0.0603960554964971,1
860,543,43,0.0574476401543846,1
860,549,43,0.0651662528117774,1
860,550,43,0.0853783222280646,1
860,551,43,0.113568056736646,1
861,529,43,0.173372101054061,1
861,530,43,0.185596392131392,1
861,533,43,0.21578274099625,1
861,534,43,0.203938672611785,1
861,535,43,0.185298408119544,1
861,536,43,0.15314995966967,1
861,537,43,0.116307632060957,1
861,538,43,0.0885497833088005,1
861,539,43,0.0732088019000025,1
861,540,43,0.0636026151452397,1
861,541,43,0.0576728146872034,1
861,549,43,0.0584186061849149,1
861,550,43,0.0714396618819079,1
861,551,43,0.0900628429481552,1
861,552,43,0.114953329754915,1
862,529,43,0.170914670569275,1
862,534,43,0.184268425545228,1
862,535,43,0.154936578208526,1
862,536,43,0.128485231192475,1
862,537,43,0.0999342798184272,1
862,538,43,0.0774825066189578,1
862,539,43,0.0652059332997004,1
862,540,43,0.0571618392140261,1
862,550,43,0.0634320403505215,1
862,551,43,0.0725674923290287,1
862,552,43,0.0896091149377147,1
862,553,43,0.120910957857848,1
863,529,43,0.173509193041464,1
863,534,43,0.184677484259189,1
863,535,43,0.14147900176276,1
863,536,43,0.115612418590428,1
863,537,43,0.0936365989563082,1
863,538,43,0.073948625697643,1
863,539,43,0.0618835519146976,1
863,549,43,0.0581582977024685,1
863,550,43,0.0626289247298943,1
863,551,43,0.0664770652087049,1
863,552,43,0.0782264051999472,1
863,553,43,0.102840632310138,1
863,554,43,0.13392425908291,1
863,558,43,0.145295428515303,1
864,529,43,0.178292835372714,1
864,530,43,0.211591905930554,1
864,533,43,0.217665137583084,1
864,534,43,0.168590475475206,1
864,535,43,0.130526113853527,1
864,536,43,0.106130828213927,1
864,537,43,0.0858202091893523,1
864,538,43,0.0676830064810638,1
864,539,43,0.057149249253896,1
864,549,43,0.0593092795235803,1
864,550,43,0.0622984662869291,1
864,551,43,0.0656843458877074,1
864,552,43,0.0740599480711025,1
864,553,43,0.0903781757481538,1
864,554,43,0.112351730958532,1
864,555,43,0.136266475215929,1
864,556,43,0.153523530617792,1
864,557,43,0.156215883271975,1
864,558,43,0.14736101934167,1
865,529,43,0.167619509444676,1
865,530,43,0.187512507403015,1
865,531,43,0.199826785736357,1
865,532,43,0.197439257540743,1
865,533,43,0.180263945477205,1
865,534,43,0.152046324354359,1
865,535,43,0.124055334307727,1
865,536,43,0.0987082358884179,1
865,537,43,0.0766692128853636,1
865,538,43,0.0598782159888507,1
865,549,43,0.0572496976758426,1
865,550,43,0.0597664572420659,1
865,551,43,0.0651725743280582,1
865,552,43,0.0739635036692628,1
865,553,43,0.0861334662675871,1
865,554,43,0.104179968190507,1
865,555,43,0.128928291644191,1
865,556,43,0.15264131348654,1
865,557,43,0.164037898716666,1
865,558,43,0.160111116688303,1
865,559,43,0.144083242386842,1
866,528,43,0.149669021447206,1
866,529,43,0.157205000074066,1
866,530,43,0.167513199467521,1
866,531,43,0.17154561922224,1
866,532,43,0.168580615796828,1
866,533,43,0.159333228163431,1
866,534,43,0.139941434453943,1
866,535,43,0.113133558637206,1
866,536,43,0.0860672554608701,1
866,537,43,0.0648278217102192,1
866,551,43,0.0618082598252639,1
866,552,43,0.0722225156275902,1
866,553,43,0.0846081999689963,1
866,554,43,0.102031879217902,1
866,555,43,0.128312769377971,1
866,556,43,0.165285242382502,1
866,559,43,0.188354778684187,1
867,528,43,0.144498150862137,1
867,529,43,0.149189989680832,1
867,530,43,0.15454149523485,1
867,531,43,0.15593602644394,1
867,532,43,0.156781894856578,1
867,533,43,0.155614879264228,1
867,534,43,0.137794171052494,1
867,535,43,0.104946805855762,1
867,536,43,0.0731233258006649,1
867,552,43,0.0657531690374397,1
867,553,43,0.0784042627116493,1
867,554,43,0.0976701980983936,1
867,555,43,0.132515351141831,1
868,528,43,0.1440093419745,1
868,529,43,0.148064995660326,1
868,530,43,0.150885642072163,1
868,531,43,0.151174992968493,1
868,532,43,0.154868032214824,1
868,533,43,0.156177423449976,1
868,534,43,0.134017666562283,1
868,535,43,0.0948977945267557,1
868,536,43,0.0619060074501428,1
868,553,43,0.068373573165371,1
868,554,43,0.0890035702886093,1
868,555,43,0.131874000292299,1
868,560,43,0.162230169143962,1
869,528,43,0.146464000898976,1
869,529,43,0.152269759290813,1
869,530,43,0.155215420763426,1
869,531,43,0.155958729650732,1
869,532,43,0.158191168407741,1
869,533,43,0.151119125388974,1
869,534,43,0.118850131756439,1
869,535,43,0.0786059556420146,1
869,554,43,0.0730201706847136,1
869,555,43,0.107701512719976,1
869,556,43,0.158212244059968,1
869,559,43,0.174498946712731,1
869,560,43,0.145497811387277,1
869,561,43,0.144763689927551,1
870,528,43,0.147233067606352,1
870,529,43,0.156100244340757,1
870,530,43,0.161995412088796,1
870,531,43,0.164772432961971,1
870,532,43,0.161532290257987,1
870,533,43,0.139191013860821,1
870,534,43,0.0974036034812873,1
870,535,43,0.0613115608361498,1
870,555,43,0.0748957740003206,1
870,556,43,0.0950169775170084,1
870,557,43,0.104424042405863,1
871,528,43,0.152637103073644,1
871,529,43,0.164712885693871,1
871,530,43,0.173353183680713,1
871,531,43,0.177203623964887,1
871,532,43,0.166333057293789,1
871,533,43,0.128143138093146,1
871,534,43,0.0792340678683649,1
871,556,43,0.0624610389383702,1
872,528,43,0.162104411069145,1
872,531,43,0.188120540559462,1
872,532,43,0.170190609283779,1
872,533,43,0.12270675203041,1
872,534,43,0.0710098341564356,1
873,532,43,0.168960331353126,1
873,533,43,0.120604163822377,1
873,534,43,0.0718117468019496,1
874,532,43,0.173881891242936,1
874,533,43,0.124765066036729,1
874,534,43,0.0778539015973906,1
875,532,43,0.17162305779668,1
875,533,43,0.127135823344001,1
875,534,43,0.0831261641142994,1
875,535,43,0.0578385127151639,1
876,531,43,0.184384901841477,1
876,532,43,0.152585162854053,1
876,533,43,0.117437909736862,1
876,534,43,0.082185425781955,1
876,535,43,0.0617845954177687,1
877,530,43,0.189028114519079,1
877,531,43,0.169355756349138,1
877,532,43,0.139538036799339,1
877,533,43,0.108124228739632,1
877,534,43,0.0804526639671591,1
877,535,43,0.0655001963444087,1
850,541,44,0.209455422129628,1
851,539,44,0.200767347160597,1
851,540,44,0.207734601611911,1
851,541,44,0.213654583670127,1
851,542,44,0.199949158969434,1
851,543,44,0.177370766742371,1
851,544,44,0.161348801171613,1
852,538,44,0.211298167713224,1
852,539,44,0.199577675536949,1
852,540,44,0.195203846727573,1
852,541,44,0.199545053682411,1
852,542,44,0.191935115673841,1
852,543,44,0.169203568203452,1
852,544,44,0.148576991303575,1
852,545,44,0.138853072205019,1
852,546,44,0.136660579298091,1
852,547,44,0.15526214809086,1
853,538,44,0.21497964896337,1
853,539,44,0.191874495163238,1
853,540,44,0.181388526712133,1
853,541,44,0.185176424084298,1
853,542,44,0.182251437272207,1
853,543,44,0.162735855064804,1
853,544,44,0.141791492239207,1
853,545,44,0.134941704769527,1
853,546,44,0.138798997294297,1
853,547,44,0.161421769867936,1
854,539,44,0.187077478579259,1
854,540,44,0.168456803711164,1
854,541,44,0.168517211932041,1
854,542,44,0.16537047670743,1
854,543,44,0.151614586021354,1
854,544,44,0.137086668365613,1
854,545,44,0.13584690816054,1
854,546,44,0.149161318773969,1
854,547,44,0.175292886699652,1
855,540,44,0.164014617610065,1
855,541,44,0.154009768440972,1
855,542,44,0.146178648125817,1
855,543,44,0.135514934204809,1
855,544,44,0.127919455485345,1
855,545,44,0.1348971239271,1
855,546,44,0.161960761687988,1
855,547,44,0.199923660614585,1
856,540,44,0.157688525306303,1
856,541,44,0.139047777265242,1
856,542,44,0.126266166688194,1
856,543,44,0.113291325285131,1
856,544,44,0.107309779206419,1
856,545,44,0.118281513725757,1
856,546,44,0.149622636142109,1
856,547,44,0.188786870833401,1
857,540,44,0.141557607930691,1
857,541,44,0.121798411469004,1
857,542,44,0.107218364891695,1
857,543,44,0.0929557209392113,1
857,544,44,0.086391516223228,1
857,545,44,0.0934122617885192,1
857,546,44,0.112409898343414,1
857,547,44,0.135201158196134,1
857,548,44,0.153101475055061,1
858,539,44,0.142076349669672,1
858,540,44,0.111709082782898,1
858,541,44,0.0979576324902538,1
858,542,44,0.0869280254328753,1
858,543,44,0.077142058765004,1
858,544,44,0.0716106789468882,1
858,545,44,0.0728506986171825,1
858,546,44,0.0792734299216991,1
858,547,44,0.0882831356192628,1
858,548,44,0.0973899461755912,1
858,549,44,0.141470816814441,1
859,538,44,0.131000840856016,1
859,539,44,0.101805590164023,1
859,540,44,0.085982315982784,1
859,541,44,0.0771610233138464,1
859,542,44,0.070655823347775,1
859,543,44,0.065854908888552,1
859,544,44,0.062053466252491,1
859,545,44,0.0600142760123083,1
859,546,44,0.0607314496755883,1
859,547,44,0.0644653311063984,1
859,548,44,0.0685006993295324,1
859,549,44,0.0841618313357185,1
859,550,44,0.127277880552214,1
860,529,44,0.165591942066983,1
860,530,44,0.190873608075237,1
860,535,44,0.214370070809474,1
860,536,44,0.170716663224428,1
860,537,44,0.129637940816078,1
860,538,44,0.09840067525116,1
860,539,44,0.0795940935525912,1
860,540,44,0.0691226079783385,1
860,541,44,0.0634141903227398,1
860,542,44,0.0590702648800238,1
860,549,44,0.0636328487403624,1
860,550,44,0.0833438318465347,1
860,551,44,0.114116967204445,1
861,529,44,0.168916552494107,1
861,530,44,0.188960276157798,1
861,534,44,0.199789351981366,1
861,535,44,0.175212004314105,1
861,536,44,0.142068483155942,1
861,537,44,0.107373796352636,1
861,538,44,0.08243950709911,1
861,539,44,0.0684480337867119,1
861,540,44,0.0596081598698258,1
861,549,44,0.0570347425345487,1
861,550,44,0.069430976495942,1
861,551,44,0.0899451990584149,1
861,552,44,0.116040866432683,1
862,529,44,0.168307233805431,1
862,533,44,0.215601728623345,1
862,534,44,0.175555394739536,1
862,535,44,0.143446137331828,1
862,536,44,0.115169440695827,1
862,537,44,0.0889432505217846,1
862,538,44,0.0706661665749732,1
862,539,44,0.0594094979649907,1
862,550,44,0.0607004376848041,1
862,551,44,0.0706534586761065,1
862,552,44,0.0884572485760785,1
862,553,44,0.126489424716544,1
863,529,44,0.16978149160045,1
863,530,44,0.19592684656444,1
863,533,44,0.226453602004694,1
863,534,44,0.170639330794851,1
863,535,44,0.128531427795594,1
863,536,44,0.10223946318816,1
863,537,44,0.0827836641263292,1
863,538,44,0.0671230215659,1
863,550,44,0.060529756745223,1
863,551,44,0.065516436508436,1
863,552,44,0.0768854417650126,1
863,553,44,0.102264206735094,1
863,554,44,0.135631669966278,1
863,557,44,0.153306299258882,1
863,558,44,0.141007423724537,1
864,528,44,0.165729387870595,1
864,529,44,0.172296594127425,1
864,530,44,0.199069831337228,1
864,531,44,0.231271399394059,1
864,532,44,0.239352868265356,1
864,533,44,0.210575675012924,1
864,534,44,0.160495490824697,1
864,535,44,0.120864419232392,1
864,536,44,0.0966610788865791,1
864,537,44,0.0785657739144612,1
864,538,44,0.0630669433006222,1
864,549,44,0.0581925117299509,1
864,550,44,0.0607061400227178,1
864,551,44,0.0648530075274163,1
864,552,44,0.0722004021144811,1
864,553,44,0.0852219177725467,1
864,554,44,0.104459506583954,1
864,555,44,0.127432545411367,1
864,556,44,0.145735634849595,1
864,557,44,0.151432606550808,1
864,558,44,0.144392890539738,1
865,528,44,0.163104401822748,1
865,529,44,0.171153413953738,1
865,530,44,0.192030280440389,1
865,531,44,0.210377467172224,1
865,532,44,0.209823791979468,1
865,533,44,0.18828773051244,1
865,534,44,0.152649356908375,1
865,535,44,0.119045650593944,1
865,536,44,0.0942466606590247,1
865,537,44,0.0735504173474484,1
865,538,44,0.0574711748292695,1
865,549,44,0.0574358167960423,1
865,550,44,0.05924766832759,1
865,551,44,0.0642048752005312,1
865,552,44,0.0713608729089344,1
865,553,44,0.0808042275470356,1
865,554,44,0.0966448623102991,1
865,555,44,0.119056689659688,1
865,556,44,0.140636848420324,1
865,557,44,0.155561441222683,1
865,558,44,0.157771577764604,1
865,559,44,0.145291913940953,1
866,528,44,0.154031221497156,1
866,529,44,0.162616052896184,1
866,530,44,0.1795034882976,1
866,531,44,0.189648106663416,1
866,532,44,0.187017070358382,1
866,533,44,0.171048778706642,1
866,534,44,0.142917936906173,1
866,535,44,0.110815814792027,1
866,536,44,0.0850225305444816,1
866,537,44,0.0642121402267047,1
866,551,44,0.0609663482572382,1
866,552,44,0.069138223067062,1
866,553,44,0.0790579027775327,1
866,554,44,0.0942679486009777,1
866,555,44,0.11626224923512,1
866,556,44,0.148152553378365,1
866,557,44,0.200964517140414,1
866,559,44,0.190508929707853,1
867,528,44,0.145498731309423,1
867,529,44,0.151259519661001,1
867,530,44,0.162118834976629,1
867,531,44,0.166720580394449,1
867,532,44,0.166307252298225,1
867,533,44,0.158688291976307,1
867,534,44,0.135253676315533,1
867,535,44,0.101415720082504,1
867,536,44,0.0727586002577858,1
867,552,44,0.0645391902401827,1
867,553,44,0.0742839196288081,1
867,554,44,0.0886498779145374,1
867,555,44,0.11516638608255,1
867,556,44,0.179350073589054,1
867,560,44,0.166286978629407,1
868,528,44,0.145538512045272,1
868,529,44,0.151212945653925,1
868,530,44,0.157084549242395,1
868,531,44,0.157325533462852,1
868,532,44,0.157946504498702,1
868,533,44,0.153646906330131,1
868,534,44,0.128563400987081,1
868,535,44,0.0916082649768279,1
868,536,44,0.0622160978733004,1
868,553,44,0.065256941803272,1
868,554,44,0.0789741014082546,1
868,555,44,0.109327451524113,1
868,556,44,0.180450359444246,1
868,560,44,0.163638794032073,1
869,528,44,0.150543360270855,1
869,529,44,0.159167960611859,1
869,530,44,0.164141472515132,1
869,531,44,0.162981887063187,1
869,532,44,0.159865721559097,1
869,533,44,0.147047703294067,1
869,534,44,0.113461333973914,1
869,535,44,0.0764643945784789,1
869,554,44,0.0655906376645564,1
869,555,44,0.0878691588599872,1
869,556,44,0.126133733280887,1
869,557,44,0.177043734419703,1
869,559,44,0.162700131421493,1
869,560,44,0.139473736600155,1
869,561,44,0.140340138146831,1
870,528,44,0.152747104533254,1
870,529,44,0.164235599420798,1
870,530,44,0.171375480800847,1
870,531,44,0.170316048924007,1
870,532,44,0.159916222926102,1
870,533,44,0.132464755423837,1
870,534,44,0.0924848328425981,1
870,535,44,0.0606750985472495,1
870,555,44,0.0650949529485769,1
870,556,44,0.0784991503221662,1
870,557,44,0.088344475556159,1
871,528,44,0.158800687592269,1
871,529,44,0.173614571302599,1
871,531,44,0.179848683185701,1
871,532,44,0.160920317947738,1
871,533,44,0.119909268786438,1
871,534,44,0.0763570349465686,1
872,528,44,0.168879165914611,1
872,532,44,0.161623952244058,1
872,533,44,0.113845743491928,1
872,534,44,0.0696293789355567,1
873,532,44,0.160880914615846,1
873,533,44,0.113771182622661,1
873,534,44,0.0716402697758966,1
874,532,44,0.165222156952305,1
874,533,44,0.119446618710575,1
874,534,44,0.0792347637069107,1
875,532,44,0.163979979003131,1
875,533,44,0.122105748022663,1
875,534,44,0.0857039392858932,1
875,535,44,0.0637834506100405,1
876,531,44,0.176860964759622,1
876,532,44,0.145306007619975,1
876,533,44,0.112437979556594,1
876,534,44,0.085716228502245,1
876,535,44,0.0692721719871347,1
876,536,44,0.0569143506722461,1
877,530,44,0.194917361742542,1
877,531,44,0.16727123635555,1
877,532,44,0.134757000914167,1
851,538,45,0.198322595089993,1
851,539,45,0.19797658642461,1
851,540,45,0.203523268793797,1
851,541,45,0.204527587899033,1
851,542,45,0.186515323591342,1
851,543,45,0.163791854924409,1
852,538,45,0.213555420780409,1
852,539,45,0.199340217684715,1
852,540,45,0.195522576163185,1
852,541,45,0.194925299019514,1
852,542,45,0.181228837662801,1
852,543,45,0.158108056980072,1
852,544,45,0.138385256412494,1
852,545,45,0.129658780590832,1
852,547,45,0.14551461765724,1
853,539,45,0.1948601614553,1
853,540,45,0.187108696962832,1
853,541,45,0.189170442986386,1
853,542,45,0.180928459494601,1
853,543,45,0.158328000929923,1
853,544,45,0.135668962194785,1
853,545,45,0.128829848180767,1
853,546,45,0.133192637924399,1
853,547,45,0.152411450888942,1
854,539,45,0.195579941564658,1
854,540,45,0.178311387135979,1
854,541,45,0.17787708953239,1
854,542,45,0.171514471601909,1
854,543,45,0.152742410571538,1
854,544,45,0.134745619826087,1
854,545,45,0.13317971183887,1
854,546,45,0.144372404581193,1
854,547,45,0.164793768079419,1
855,540,45,0.172731788065411,1
855,541,45,0.161755229851747,1
855,542,45,0.151854048832109,1
855,543,45,0.137436274162463,1
855,544,45,0.12772248600138,1
855,545,45,0.134330251389719,1
855,546,45,0.156923503897592,1
855,547,45,0.187299132640791,1
855,548,45,0.212691378008464,1
856,540,45,0.166301567651122,1
856,541,45,0.144477275705762,1
856,542,45,0.1290196234018,1
856,543,45,0.114366289693579,1
856,544,45,0.108994380738132,1
856,545,45,0.120343731504258,1
856,546,45,0.147545970868377,1
856,547,45,0.180282202393628,1
857,540,45,0.144947355922029,1
857,541,45,0.123969333381012,1
857,542,45,0.10757591975939,1
857,543,45,0.0931818094972385,1
857,544,45,0.0882438502261074,1
857,545,45,0.095836327404726,1
857,546,45,0.112800275561499,1
857,547,45,0.13320018600354,1
857,548,45,0.152014905474933,1
858,539,45,0.14079245678937,1
858,540,45,0.111180846975622,1
858,541,45,0.097645478139206,1
858,542,45,0.0869499148623848,1
858,543,45,0.0777200352344334,1
858,544,45,0.0734325611679822,1
858,545,45,0.0751940410651359,1
858,546,45,0.0806182381594462,1
858,547,45,0.0895953337963451,1
858,548,45,0.0981726760856001,1
858,549,45,0.140158901690326,1
859,538,45,0.125708941539467,1
859,539,45,0.0989518265549538,1
859,540,45,0.0839371757333407,1
859,541,45,0.0761420562175273,1
859,542,45,0.0707901850534258,1
859,543,45,0.0666877922462923,1
859,544,45,0.0634884858298495,1
859,545,45,0.0616541021026778,1
859,546,45,0.0616242753961963,1
859,547,45,0.0656837090185299,1
859,548,45,0.0708339875001922,1
859,549,45,0.0853537732800451,1
859,550,45,0.126665224197292,1
860,529,45,0.164866890096099,1
860,530,45,0.202129728270094,1
860,535,45,0.204644347248249,1
860,536,45,0.158674611082863,1
860,537,45,0.120508491919262,1
860,538,45,0.0927491217574042,1
860,539,45,0.0772609351145416,1
860,540,45,0.06758266420398,1
860,541,45,0.0619147349166499,1
860,542,45,0.0579447578260136,1
860,548,45,0.0582817500749854,1
860,549,45,0.0660274414662974,1
860,550,45,0.0837902653461176,1
860,551,45,0.116351635003575,1
860,552,45,0.151600173907743,1
861,529,45,0.169435577286056,1
861,530,45,0.200966875915146,1
861,534,45,0.204494659403779,1
861,535,45,0.16705439419447,1
861,536,45,0.130025133688275,1
861,537,45,0.0983227472309636,1
861,538,45,0.0771040294193933,1
861,539,45,0.0657782546067106,1
861,540,45,0.0574756977798174,1
861,549,45,0.0586126036127183,1
861,550,45,0.0692163397892369,1
861,551,45,0.0902395151755546,1
861,552,45,0.119445191651862,1
862,529,45,0.170173555342469,1
862,530,45,0.200725101505153,1
862,533,45,0.224438854567668,1
862,534,45,0.176744783310216,1
862,535,45,0.137311778032127,1
862,536,45,0.104904159208614,1
862,537,45,0.0809716533774871,1
862,538,45,0.0656816922661343,1
862,550,45,0.0605689831690101,1
862,551,45,0.0706285559118773,1
862,552,45,0.0896873024231315,1
862,553,45,0.129798384673323,1
863,528,45,0.165059283557085,1
863,529,45,0.173141212389455,1
863,530,45,0.199612255174515,1
863,531,45,0.237640845977388,1
863,532,45,0.249274417304802,1
863,533,45,0.218155574025286,1
863,534,45,0.163801065939736,1
863,535,45,0.121592360702322,1
863,536,45,0.0931101911994492,1
863,537,45,0.0751869175654463,1
863,538,45,0.061999951550767,1
863,550,45,0.0605887143196402,1
863,551,45,0.0656549909361722,1
863,552,45,0.075680662189209,1
863,553,45,0.098420789702684,1
863,554,45,0.132430199374019,1
863,558,45,0.137638550889574,1
864,528,45,0.171991498409761,1
864,529,45,0.177945364266997,1
864,530,45,0.199183264814072,1
864,531,45,0.226621853406302,1
864,532,45,0.232065551670706,1
864,533,45,0.205003281999162,1
864,534,45,0.156108653372675,1
864,535,45,0.115245558356417,1
864,536,45,0.0892663908661449,1
864,537,45,0.0728808673460001,1
864,538,45,0.0592146218935998,1
864,549,45,0.0580316786748743,1
864,550,45,0.0611219802140314,1
864,551,45,0.065376148381272,1
864,552,45,0.0709997621883316,1
864,553,45,0.0808338124791071,1
864,554,45,0.0976055145983153,1
864,555,45,0.117271745850892,1
864,556,45,0.133967082638163,1
864,557,45,0.143929214396866,1
864,558,45,0.142182317624491,1
865,530,45,0.203469512317663,1
865,531,45,0.220319443200846,1
865,532,45,0.218640844750825,1
865,533,45,0.197733243429421,1
865,534,45,0.156736122832911,1
865,535,45,0.116804684866281,1
865,536,45,0.0892358270425598,1
865,537,45,0.0701268150417744,1
865,549,45,0.0577482306123106,1
865,550,45,0.0603846803053538,1
865,551,45,0.064819654452711,1
865,552,45,0.0699685943297131,1
865,553,45,0.0773194975941913,1
865,554,45,0.0908010981605992,1
865,555,45,0.10962469252192,1
865,556,45,0.127823158506926,1
865,557,45,0.145703708833602,1
865,559,45,0.145700901891671,1
866,528,45,0.160779911881837,1
866,529,45,0.173595076029442,1
866,530,45,0.194258968745574,1
866,531,45,0.207777106732575,1
866,532,45,0.205263218974588,1
866,533,45,0.187850814668899,1
866,534,45,0.150700183408888,1
866,535,45,0.111098289860014,1
866,536,45,0.0827132429067162,1
866,537,45,0.0627832416697747,1
866,551,45,0.0621235336558942,1
866,552,45,0.0681992891973873,1
866,553,45,0.0759405166075196,1
866,554,45,0.0883128502839446,1
866,555,45,0.105538905488897,1
866,556,45,0.130436338887241,1
866,560,45,0.143113031164226,1
867,528,45,0.148359064106119,1
867,529,45,0.157820805393254,1
867,530,45,0.172543829100921,1
867,531,45,0.180817314029247,1
867,532,45,0.179136628063588,1
867,533,45,0.167337742009108,1
867,534,45,0.136304463282982,1
867,535,45,0.10003784182302,1
867,536,45,0.0723158582406579,1
867,551,45,0.0595815234061688,1
867,552,45,0.066039323794008,1
867,553,45,0.0728019604342901,1
867,554,45,0.0828054827925968,1
867,555,45,0.101003547785898,1
867,556,45,0.149731363863364,1
868,528,45,0.147708926820712,1
868,529,45,0.15727246103139,1
868,530,45,0.167126619876753,1
868,531,45,0.169526673166192,1
868,532,45,0.165089782514365,1
868,533,45,0.15290020080721,1
868,534,45,0.122122023568311,1
868,535,45,0.0877414076205218,1
868,536,45,0.0622076062842665,1
868,552,45,0.059629512678084,1
868,553,45,0.0654434737090497,1
868,554,45,0.0743190653723095,1
868,555,45,0.0932842098052756,1
868,556,45,0.145974342852436,1
868,561,45,0.13399528179008,1
869,528,45,0.154219947063434,1
869,529,45,0.167337447162267,1
869,530,45,0.176836386326919,1
869,531,45,0.176239875785036,1
869,532,45,0.165035176879328,1
869,533,45,0.142910176537305,1
869,534,45,0.106164228464127,1
869,535,45,0.0737477819261811,1
869,554,45,0.0626564457340757,1
869,555,45,0.0749862035265947,1
869,556,45,0.100402579159772,1
869,557,45,0.141819891886975,1
869,558,45,0.166362117398483,1
869,559,45,0.143704175493595,1
869,560,45,0.13080647781813,1
870,528,45,0.15798624985293,1
870,529,45,0.173174270617319,1
870,530,45,0.183024042141681,1
870,531,45,0.180506486488986,1
870,532,45,0.160649660341156,1
870,533,45,0.125729545436747,1
870,534,45,0.085928040576209,1
870,535,45,0.0594680073722089,1
870,555,45,0.0585074907137398,1
870,556,45,0.0666818776186527,1
870,557,45,0.0754101814907324,1
870,558,45,0.083860533245373,1
870,559,45,0.0934348765412588,1
870,560,45,0.111743414749116,1
871,528,45,0.163318779064233,1
871,531,45,0.184672129840548,1
871,532,45,0.156910188614232,1
871,533,45,0.112588669880324,1
871,534,45,0.0723092713622198,1
872,532,45,0.153042092901192,1
872,533,45,0.105718030842017,1
872,534,45,0.0668359468871863,1
873,532,45,0.152104420975999,1
873,533,45,0.107589447332476,1
873,534,45,0.0707348187135375,1
874,532,45,0.156746831670193,1
874,533,45,0.115506686513083,1
874,534,45,0.0810435429343705,1
874,535,45,0.0603422223601843,1
875,532,45,0.154675367494744,1
875,533,45,0.118498403062331,1
875,534,45,0.0898337764370293,1
875,535,45,0.0706986586969015,1
876,531,45,0.17106453532185,1
876,532,45,0.138662259123104,1
876,533,45,0.110543989591954,1
851,538,46,0.194049250084185,1
851,539,46,0.193450569469548,1
851,540,46,0.198405647548294,1
851,541,46,0.193748176077439,1
851,542,46,0.173138193157798,1
851,543,46,0.150383883511249,1
852,538,46,0.213109518005141,1
852,539,46,0.199274714510418,1
852,540,46,0.198976376682361,1
852,541,46,0.192799052300923,1
852,542,46,0.172811290567741,1
852,543,46,0.14754581754802,1
852,544,46,0.129232207974489,1
853,539,46,0.198063224220503,1
853,540,46,0.194379077554909,1
853,541,46,0.193630142989868,1
853,542,46,0.179632902473251,1
853,543,46,0.153296321641768,1
853,544,46,0.130813601317819,1
853,545,46,0.12488006809877,1
853,546,46,0.129446302163006,1
853,547,46,0.144651400456451,1
854,539,46,0.200026762658105,1
854,540,46,0.186176344074659,1
854,541,46,0.18609639340513,1
854,542,46,0.17729786880929,1
854,543,46,0.153782901487283,1
854,544,46,0.133797463147211,1
854,545,46,0.132351510648972,1
854,546,46,0.140609887625141,1
854,547,46,0.15455745234591,1
854,548,46,0.193378107909793,1
855,540,46,0.178870947471691,1
855,541,46,0.169248337747859,1
855,542,46,0.158393091318643,1
855,543,46,0.141392965454423,1
855,544,46,0.130660446074494,1
855,545,46,0.136649764315946,1
855,546,46,0.151846866363051,1
855,547,46,0.171077968543946,1
855,548,46,0.193193970160367,1
856,540,46,0.172850257526308,1
856,541,46,0.150065224838879,1
856,542,46,0.133388604929103,1
856,543,46,0.119696684213749,1
856,544,46,0.116198361821514,1
856,545,46,0.126893600766809,1
856,546,46,0.145183398509424,1
856,547,46,0.16650325468455,1
856,548,46,0.184468296322114,1
857,540,46,0.14696334171579,1
857,541,46,0.126651437158986,1
857,542,46,0.11049000903222,1
857,543,46,0.0986446963940845,1
857,544,46,0.0963337163354491,1
857,545,46,0.103869706756182,1
857,546,46,0.115739014030275,1
857,547,46,0.131016680028339,1
857,548,46,0.146122815927919,1
858,539,46,0.138558248951312,1
858,540,46,0.111581685359642,1
858,541,46,0.099338700992563,1
858,542,46,0.0904509321547511,1
858,543,46,0.0824868123263529,1
858,544,46,0.079450190603151,1
858,545,46,0.0815121135348098,1
858,546,46,0.0849130480153128,1
858,547,46,0.0927146305738908,1
858,548,46,0.0997655920434943,1
858,549,46,0.138619848353429,1
859,529,46,0.164712071916588,1
859,536,46,0.18559051878231,1
859,537,46,0.152400034419241,1
859,538,46,0.121561696630811,1
859,539,46,0.0977163062474602,1
859,540,46,0.0833319436218873,1
859,541,46,0.0769426420522548,1
859,542,46,0.0732931280966584,1
859,543,46,0.0693493275086065,1
859,544,46,0.0667276850239411,1
859,545,46,0.065676320156683,1
859,546,46,0.064976053011292,1
859,547,46,0.0693482365752931,1
859,548,46,0.0754599752253172,1
859,549,46,0.0892607533945363,1
859,550,46,0.126162604683602,1
860,529,46,0.170717488795584,1
860,535,46,0.19326980476799,1
860,536,46,0.144342070738145,1
860,537,46,0.111981367944044,1
860,538,46,0.0900094461851678,1
860,539,46,0.0765019108905856,1
860,540,46,0.0663640740021227,1
860,541,46,0.0604926178370734,1
860,542,46,0.057204350231627,1
860,547,46,0.0568516485429424,1
860,548,46,0.0628840026293734,1
860,549,46,0.0698674854508416,1
860,550,46,0.0850930225273366,1
860,551,46,0.117323379429767,1
861,528,46,0.156066148252011,1
861,529,46,0.176890473031515,1
861,535,46,0.163156235897476,1
861,536,46,0.118440837165006,1
861,537,46,0.0907739191787539,1
861,538,46,0.0739482247059386,1
861,539,46,0.0635961992779696,1
861,549,46,0.0618466665748317,1
861,550,46,0.0701671795743695,1
861,551,46,0.0896416129565798,1
862,528,46,0.158834878032004,1
862,529,46,0.178725753093085,1
862,534,46,0.192329620747707,1
862,535,46,0.135871993729811,1
862,536,46,0.0977720794759897,1
862,537,46,0.0757410881008967,1
862,538,46,0.0626109036909447,1
862,550,46,0.0605146075145091,1
863,528,46,0.170316166862744,1
863,529,46,0.183021188024255,1
863,530,46,0.211939518562755,1
863,533,46,0.224348867311656,1
863,534,46,0.163920573261515,1
863,535,46,0.117797080365248,1
863,536,46,0.0878792013434071,1
863,537,46,0.0703389101687062,1
863,538,46,0.0580144301346492,1
863,550,46,0.05993385948477,1
864,530,46,0.207975007932559,1
864,531,46,0.225045177612435,1
864,532,46,0.225500256021409,1
864,533,46,0.198105257586221,1
864,534,46,0.150746120546787,1
864,535,46,0.109275605655512,1
864,536,46,0.0836215893650584,1
864,537,46,0.0678848822164708,1
864,550,46,0.0601811829123188,1
865,531,46,0.225683697932289,1
865,532,46,0.21783296440524,1
865,533,46,0.197068635061035,1
865,534,46,0.153932931354089,1
865,535,46,0.11066074894117,1
865,536,46,0.082636034312813,1
865,537,46,0.0653118128004666,1
866,530,46,0.212668851709777,1
866,531,46,0.220191597610391,1
866,532,46,0.212866729322014,1
866,533,46,0.193320176402384,1
866,534,46,0.149574092558132,1
866,535,46,0.105650970876397,1
866,536,46,0.0770213248803653,1
866,537,46,0.0591874370148177,1
867,528,46,0.157074382923301,1
867,529,46,0.17079636622261,1
867,530,46,0.184703749215825,1
867,531,46,0.19098252449847,1
867,532,46,0.184753094783211,1
867,533,46,0.167295343033307,1
867,534,46,0.129982510628875,1
867,535,46,0.0939530934528622,1
867,536,46,0.069098855116791,1
868,528,46,0.152803266959614,1
868,529,46,0.166078356798267,1
868,530,46,0.178161652116014,1
868,531,46,0.180812832357257,1
868,532,46,0.169439540027605,1
868,533,46,0.146815434746243,1
868,534,46,0.111348202042831,1
868,535,46,0.0813878827666314,1
868,536,46,0.0609880253970219,1
869,528,46,0.159579142223077,1
869,529,46,0.176502442794288,1
869,530,46,0.18967619967047,1
869,531,46,0.188872777409128,1
869,532,46,0.168768916783654,1
869,533,46,0.135371603258242,1
869,534,46,0.0969395440375223,1
869,535,46,0.070220122273221,1
870,528,46,0.16442240258567,1
870,529,46,0.182610619694467,1
870,530,46,0.19471834012456,1
870,531,46,0.190809414020916,1
870,532,46,0.162285258327819,1
870,533,46,0.119723479894701,1
870,534,46,0.0807374683251935,1
870,535,46,0.059429913160293,1
871,528,46,0.167906725649873,1
871,531,46,0.189412500449347,1
871,532,46,0.154623840060732,1
871,533,46,0.108047403446623,1
871,534,46,0.0710869778840338,1
872,532,46,0.14686472134426,1
872,533,46,0.101334778727588,1
872,534,46,0.0676524898329733,1
873,532,46,0.146908818637868,1
873,533,46,0.104893898538531,1
873,534,46,0.0730038656543812,1
874,532,46,0.153585342309635,1
874,533,46,0.115331865923848,1
874,534,46,0.08569825463879,1
874,535,46,0.0670891613546273,1
875,532,46,0.149498883025814,1
875,533,46,0.119138586318371,1
875,534,46,0.0971568697474215,1
875,535,46,0.0807613804040355,1
875,536,46,0.0652381895441555,1
851,538,47,0.185994942503922,1
851,539,47,0.188572198745075,1
851,540,47,0.19548719454221,1
851,541,47,0.187811623626733,1
852,538,47,0.20648501711008,1
852,539,47,0.196855118772328,1
852,540,47,0.202374852140206,1
852,541,47,0.194155996434665,1
852,542,47,0.169036012640391,1
852,543,47,0.139980165535037,1
853,539,47,0.198860938246994,1
853,540,47,0.19946138794268,1
853,541,47,0.19807098458937,1
853,542,47,0.180391472633071,1
853,543,47,0.149287395283375,1
853,544,47,0.125949583737588,1
853,545,47,0.122009911005316,1
853,546,47,0.127184543836083,1
853,547,47,0.14045300551774,1
854,539,47,0.201956122449846,1
854,540,47,0.191991926763253,1
854,541,47,0.193332041039284,1
854,542,47,0.183168811940835,1
854,543,47,0.154443912724203,1
854,544,47,0.131873846971942,1
854,545,47,0.131211267149826,1
854,546,47,0.138219811952817,1
854,547,47,0.148778631161509,1
854,548,47,0.175934662128636,1
855,540,47,0.183923537297842,1
855,541,47,0.176531219846014,1
855,542,47,0.165242041423292,1
855,543,47,0.145765945104896,1
855,544,47,0.133252550802583,1
855,545,47,0.13841038915726,1
855,546,47,0.148051350148504,1
855,547,47,0.157627810444711,1
855,548,47,0.172520017270005,1
856,540,47,0.173516316541153,1
856,541,47,0.153925961174757,1
856,542,47,0.138930569748827,1
856,543,47,0.127253184180773,1
856,544,47,0.124340132768825,1
856,545,47,0.132789617673752,1
856,546,47,0.142643623198757,1
856,547,47,0.151984111670812,1
856,548,47,0.163697185500555,1
857,539,47,0.181230783651955,1
857,540,47,0.144190295378038,1
857,541,47,0.12938979771431,1
857,542,47,0.117569317077161,1
857,543,47,0.108575792574256,1
857,544,47,0.106306132351982,1
857,545,47,0.112502385900641,1
857,546,47,0.118949683843988,1
857,547,47,0.127089791855113,1
857,548,47,0.138257917958607,1
858,538,47,0.173230503806921,1
858,539,47,0.131219723357238,1
858,540,47,0.109261700678469,1
858,541,47,0.103722247953834,1
858,542,47,0.100754461174238,1
858,543,47,0.093554560771142,1
858,544,47,0.0883308064565892,1
858,545,47,0.0894380919757975,1
858,546,47,0.090802861344711,1
858,547,47,0.0967645583340559,1
858,548,47,0.104633926181484,1
858,549,47,0.135587490115554,1
859,529,47,0.184103370283382,1
859,536,47,0.173553915410375,1
859,537,47,0.143685942164919,1
859,538,47,0.116628154165365,1
859,539,47,0.0953654157203656,1
859,540,47,0.0824260915678238,1
859,541,47,0.0810126842639439,1
859,542,47,0.0816263489950629,1
859,543,47,0.0772517299961514,1
859,544,47,0.0724103684472177,1
859,545,47,0.0713542801335595,1
859,546,47,0.0704468830820468,1
859,547,47,0.0754875021264354,1
859,548,47,0.0842319871931741,1
859,549,47,0.0975115292191333,1
859,550,47,0.125896074932801,1
860,529,47,0.187140646566572,1
860,536,47,0.132412131159575,1
860,537,47,0.104217720380087,1
860,538,47,0.0867240857695781,1
860,539,47,0.0752383860300906,1
860,540,47,0.0654368396551169,1
860,541,47,0.0614675584030265,1
860,542,47,0.059942622332898,1
860,543,47,0.0585519595143679,1
860,544,47,0.0573286458661105,1
860,545,47,0.0574239521591422,1
860,546,47,0.0575319427632933,1
860,547,47,0.0631388269605687,1
860,548,47,0.0719063218748145,1
860,549,47,0.0790897934119044,1
860,550,47,0.0904483669872304,1
861,528,47,0.16732062909843,1
861,535,47,0.162556871238167,1
861,536,47,0.108278610545818,1
861,537,47,0.0832665937679473,1
861,538,47,0.0703232832861091,1
861,539,47,0.0627333005117692,1
861,548,47,0.0626532201096302,1
861,549,47,0.0683009346975103,1
861,550,47,0.0743487682431176,1
862,528,47,0.167448757741852,1
862,535,47,0.135958843815429,1
862,536,47,0.0920488664058868,1
862,537,47,0.0716084204200827,1
862,538,47,0.0603198316910443,1
862,549,47,0.0586805776035471,1
863,528,47,0.178610491565824,1
863,534,47,0.168528475081385,1
863,535,47,0.115942411175384,1
863,536,47,0.0842692617308708,1
863,537,47,0.0671717656457292,1
864,531,47,0.225662445371957,1
864,533,47,0.196558219796857,1
864,534,47,0.149351200139866,1
864,535,47,0.106009268758132,1
864,536,47,0.0796153461129232,1
864,537,47,0.0640795711898499,1
864,549,47,0.0571146283377724,1
865,531,47,0.224810125710428,1
865,532,47,0.214942333147116,1
865,533,47,0.195754313986694,1
865,534,47,0.152105317310397,1
865,535,47,0.106042232635007,1
865,536,47,0.077333756387444,1
865,537,47,0.0608882020503791,1
866,527,47,0.168221291848084,1
866,530,47,0.220874911062399,1
866,531,47,0.219362842108431,1
866,532,47,0.210331848468915,1
866,533,47,0.189718492501408,1
866,534,47,0.144750893574632,1
866,535,47,0.10010200049572,1
866,536,47,0.0724668846897876,1
867,527,47,0.15131384224307,1
867,528,47,0.165309490586743,1
867,529,47,0.181770506692174,1
867,530,47,0.191975450721752,1
867,531,47,0.193829471248565,1
867,532,47,0.183767858165554,1
867,533,47,0.160334775708357,1
867,534,47,0.12101571104368,1
867,535,47,0.0875669408474964,1
867,536,47,0.0658782135829005,1
868,527,47,0.146910870771884,1
868,528,47,0.156553777752282,1
868,529,47,0.172992774695593,1
868,530,47,0.186931859621202,1
868,531,47,0.188228265801456,1
868,532,47,0.170353459091251,1
868,533,47,0.137997957395433,1
868,534,47,0.101119729235305,1
868,535,47,0.0756530291432279,1
868,536,47,0.0594589260894921,1
869,527,47,0.150373670016661,1
869,528,47,0.162247600489229,1
869,529,47,0.182185827953047,1
869,530,47,0.19895116138048,1
869,531,47,0.19719735339814,1
869,532,47,0.168956262466714,1
869,533,47,0.126069138234861,1
869,534,47,0.0883730344212223,1
869,535,47,0.0673346508348223,1
870,527,47,0.15192439928848,1
870,528,47,0.167422693281068,1
870,529,47,0.188731333482345,1
870,530,47,0.204126478255918,1
870,531,47,0.199156209667901,1
870,532,47,0.164010124144201,1
870,533,47,0.115315920606662,1
870,534,47,0.077978580532768,1
870,535,47,0.0610842221275148,1
871,528,47,0.170423208060065,1
871,531,47,0.193595280299334,1
871,532,47,0.154977526537867,1
871,533,47,0.106979739445969,1
871,534,47,0.0724735423314677,1
871,535,47,0.0577137276349236,1
872,532,47,0.144757521731627,1
872,533,47,0.101002946298342,1
872,534,47,0.0709948028644583,1
872,535,47,0.0571993909077537,1
873,532,47,0.146924858306043,1
873,533,47,0.105523962650972,1
873,534,47,0.077104866784423,1
873,535,47,0.0619367953573275,1
874,533,47,0.116470635188786,1
874,534,47,0.0902671953970304,1
874,535,47,0.0738979002470392,1
874,536,47,0.0635208246314202,1
874,537,47,0.0575509132090724,1
875,532,47,0.148887618347984,1
875,533,47,0.120866553923525,1
875,534,47,0.10313008935133,1
875,535,47,0.0892073094560543,1
852,538,48,0.192969615301768,1
852,539,48,0.192320020534549,1
852,540,48,0.202050261149386,1
852,541,48,0.193691742391984,1
852,542,48,0.165427559055935,1
852,543,48,0.135260257297035,1
853,539,48,0.195977182817213,1
853,540,48,0.199265798341932,1
853,541,48,0.197542453935252,1
853,542,48,0.178495631030267,1
853,543,48,0.145683541309646,1
853,544,48,0.123637996294459,1
853,545,48,0.12102506358549,1
854,532,48,0.182858963292087,1
854,539,48,0.200395038156955,1
854,540,48,0.194264676980425,1
854,541,48,0.195171106934298,1
854,542,48,0.184350499112016,1
854,543,48,0.152775799027864,1
854,544,48,0.130271837937457,1
854,545,48,0.129978913497409,1
854,546,48,0.137836558234421,1
854,547,48,0.147157657578182,1
854,548,48,0.162630500391415,1
855,539,48,0.204971839531989,1
855,540,48,0.186705098812376,1
855,541,48,0.179445120416865,1
855,542,48,0.168894698446218,1
855,543,48,0.148222255171684,1
855,544,48,0.134812196242887,1
855,545,48,0.138100741004364,1
855,546,48,0.14393177366745,1
855,547,48,0.147688924410988,1
855,548,48,0.156828185810687,1
855,549,48,0.183830530810174,1
856,539,48,0.199027750796016,1
856,540,48,0.170774924960299,1
856,541,48,0.154693459296936,1
856,542,48,0.144214519994531,1
856,543,48,0.134953321735081,1
856,544,48,0.131538783021313,1
856,545,48,0.13596758307581,1
856,546,48,0.138445192878425,1
856,547,48,0.139304860123243,1
856,548,48,0.147332171526702,1
857,538,48,0.201246272782108,1
857,539,48,0.160357219449928,1
857,540,48,0.138534165861302,1
857,541,48,0.129573098098705,1
857,542,48,0.124960372584509,1
857,543,48,0.119908030429704,1
857,544,48,0.117663986501015,1
857,545,48,0.121203233634845,1
857,546,48,0.121594978942274,1
857,547,48,0.123607261459706,1
857,548,48,0.133255098279293,1
857,549,48,0.170005469055093,1
858,537,48,0.1845457584843,1
858,538,48,0.147441099743809,1
858,539,48,0.119482920253695,1
858,540,48,0.10530495041714,1
858,541,48,0.106574407596085,1
858,542,48,0.110627643537811,1
858,543,48,0.105480006883848,1
858,544,48,0.0998935437788118,1
858,545,48,0.0998292553735011,1
858,546,48,0.0986334804202355,1
858,547,48,0.102653475329056,1
858,548,48,0.113365107758737,1
858,549,48,0.135949691769471,1
859,536,48,0.15699581213699,1
859,537,48,0.129189466976352,1
859,538,48,0.107690579799095,1
859,539,48,0.0905371335773187,1
859,540,48,0.0804323844014038,1
859,541,48,0.0832427583492842,1
859,542,48,0.0880446870816418,1
859,543,48,0.0847020438216944,1
859,544,48,0.080414369259391,1
859,545,48,0.0799975796612479,1
859,546,48,0.0791755230795257,1
859,547,48,0.0850063434528858,1
859,548,48,0.097655968789825,1
859,549,48,0.110520932568952,1
860,528,48,0.191054596860395,1
860,536,48,0.116870600826156,1
860,537,48,0.0934112652061951,1
860,538,48,0.0817850296681968,1
860,539,48,0.0724299108958693,1
860,540,48,0.0634515769022362,1
860,541,48,0.0608552322765677,1
860,542,48,0.0610460689462306,1
860,543,48,0.0607995357082169,1
860,544,48,0.0615046737234288,1
860,545,48,0.0633065417409248,1
860,546,48,0.0646731922326869,1
860,547,48,0.0718082617122836,1
860,548,48,0.0834475058929269,1
860,549,48,0.0911409268361858,1
861,536,48,0.0944197652396425,1
861,537,48,0.0740907713599082,1
861,538,48,0.066322418040362,1
861,539,48,0.0608552086888203,1
861,547,48,0.0613435635123213,1
861,548,48,0.0708972793231788,1
861,549,48,0.0760900806163158,1
862,535,48,0.127415632996541,1
862,536,48,0.0817666607099742,1
862,537,48,0.0650220019430643,1
862,538,48,0.0570677948654758,1
862,548,48,0.059056802173243,1
863,534,48,0.16952624858674,1
863,535,48,0.107402821075709,1
863,536,48,0.0761031718160763,1
863,537,48,0.061911556467699,1
864,533,48,0.194075951414147,1
864,534,48,0.145461427287042,1
864,535,48,0.0983898838567627,1
864,536,48,0.0724863150966395,1
864,537,48,0.0591200645115454,1
865,531,48,0.216126744703112,1
865,532,48,0.210343901807793,1
865,533,48,0.194997442144681,1
865,534,48,0.148857178360072,1
865,535,48,0.099848444005943,1
865,536,48,0.0712445971085384,1
866,527,48,0.176627080451107,1
866,530,48,0.215426023493585,1
866,531,48,0.20697116058227,1
866,532,48,0.199214023236573,1
866,533,48,0.178828265442922,1
866,534,48,0.135496417823166,1
866,535,48,0.0933754354180216,1
866,536,48,0.0682219452286846,1
867,527,48,0.155693921805485,1
867,528,48,0.173056166766506,1
867,529,48,0.187670321226435,1
867,530,48,0.193604243643314,1
867,531,48,0.191157415850947,1
867,532,48,0.177265317717993,1
867,533,48,0.148951611906453,1
867,534,48,0.111375210013508,1
867,535,48,0.0820759668405335,1
867,536,48,0.0631790971421746,1
868,527,48,0.149187972928437,1
868,528,48,0.160384085894121,1
868,529,48,0.177027741927023,1
868,530,48,0.190462072647809,1
868,531,48,0.188356901581445,1
868,532,48,0.165491069065585,1
868,533,48,0.127625080398837,1
868,534,48,0.092665562162536,1
868,535,48,0.0710605537101026,1
868,536,48,0.0576582138716145,1
869,527,48,0.15185553486019,1
869,528,48,0.163368513829449,1
869,529,48,0.183658682277101,1
869,530,48,0.201246131255624,1
869,531,48,0.197076619513502,1
869,532,48,0.164521836734482,1
869,533,48,0.117395428203945,1
869,534,48,0.0817357371732425,1
869,535,48,0.0644935361552519,1
870,527,48,0.152779254632846,1
870,528,48,0.166974337380079,1
870,529,48,0.189044673117695,1
870,530,48,0.206867020677868,1
870,531,48,0.200728757605987,1
870,532,48,0.163652816947853,1
870,533,48,0.111663216408241,1
870,534,48,0.0752652229895998,1
870,535,48,0.0610331428607012,1
871,528,48,0.170067728914134,1
871,529,48,0.191021998593604,1
871,531,48,0.192532439993007,1
871,532,48,0.154542544889606,1
871,533,48,0.105988712036346,1
871,534,48,0.0723258476516463,1
871,535,48,0.0595659260082559,1
872,528,48,0.174782719106821,1
872,532,48,0.142768567496292,1
872,533,48,0.100759650478647,1
872,534,48,0.0723946766983155,1
872,535,48,0.0604798568657752,1
872,536,48,0.0574536196483293,1
873,533,48,0.106414388318291,1
873,534,48,0.0790563636770203,1
873,535,48,0.0658833851964996,1
873,536,48,0.0622085969696538,1
873,537,48,0.061140626328285,1
873,538,48,0.057185715911247,1
874,533,48,0.116977535878615,1
874,534,48,0.0920359933927889,1
874,535,48,0.07791088369797,1
874,536,48,0.0712009184974454,1
874,537,48,0.0662414648915723,1
874,538,48,0.0605915625401287,1
875,532,48,0.148634804872247,1
875,533,48,0.122087703395966,1
875,534,48,0.105996955954033,1
875,535,48,0.0930582097013008,1
852,538,49,0.18869617594497,1
852,539,49,0.192479874698112,1
852,540,49,0.202223324451446,1
852,541,49,0.191147579760316,1
852,542,49,0.163364928491857,1
853,539,49,0.194328021875843,1
853,540,49,0.198982768961883,1
853,541,49,0.194875292995203,1
853,542,49,0.175792439806192,1
853,543,49,0.143625758027642,1
854,532,49,0.185594092326028,1
854,539,49,0.197954862109331,1
854,540,49,0.195650610455618,1
854,541,49,0.194129849416765,1
854,542,49,0.182031788169197,1
854,543,49,0.150092704564503,1
854,544,49,0.128947362337897,1
854,545,49,0.127317083388253,1
854,546,49,0.135898294068068,1
855,539,49,0.197567362596418,1
855,540,49,0.186926210355719,1
855,541,49,0.179834094163986,1
855,542,49,0.169905185747377,1
855,543,49,0.148614649142166,1
855,544,49,0.134244097142646,1
855,545,49,0.133593806536882,1
855,546,49,0.13656263117736,1
855,547,49,0.137104736580058,1
855,548,49,0.143014233884592,1
855,549,49,0.160770630103268,1
855,550,49,0.201034997329395,1
856,538,49,0.213982241068098,1
856,539,49,0.181383561491323,1
856,540,49,0.165870713858641,1
856,541,49,0.155216328891698,1
856,542,49,0.149933864674074,1
856,543,49,0.14122849988626,1
856,544,49,0.135688221590469,1
856,545,49,0.134712986177674,1
856,546,49,0.131837462871706,1
856,547,49,0.128874723870036,1
856,548,49,0.135858560507714,1
856,549,49,0.161691531140119,1
857,538,49,0.170514150619844,1
857,539,49,0.14653058910965,1
857,540,49,0.133807947900893,1
857,541,49,0.13054182329324,1
857,542,49,0.132665782000341,1
857,543,49,0.129880918201183,1
857,544,49,0.127246343734052,1
857,545,49,0.127048312801457,1
857,546,49,0.122008295244625,1
857,547,49,0.120148896711425,1
857,548,49,0.129680033151164,1
857,549,49,0.152977320947061,1
858,537,49,0.163297868526237,1
858,538,49,0.133256690452237,1
858,539,49,0.113371818472848,1
858,540,49,0.104498662244499,1
858,541,49,0.110217193146759,1
858,542,49,0.118973908460482,1
858,543,49,0.115896839647569,1
858,544,49,0.112054643281082,1
858,545,49,0.111187180285776,1
858,546,49,0.107397360512205,1
858,547,49,0.109876704014248,1
858,548,49,0.123440260208706,1
859,528,49,0.225520140492397,1
859,536,49,0.148993975500633,1
859,537,49,0.121427163913992,1
859,538,49,0.103105345804395,1
859,539,49,0.0888507098921257,1
859,540,49,0.0814707524198906,1
859,541,49,0.0868806376485167,1
859,542,49,0.0941302669198921,1
859,543,49,0.0925166527137279,1
859,544,49,0.0907239780207483,1
859,545,49,0.0911642197366607,1
859,546,49,0.0903832294230163,1
859,547,49,0.0975566525797495,1
859,548,49,0.114460829384823,1
860,536,49,0.108427225147784,1
860,537,49,0.0879736643744723,1
860,538,49,0.0789689592793396,1
860,539,49,0.0719579023812586,1
860,540,49,0.0648835831448751,1
860,541,49,0.0641971325224746,1
860,542,49,0.0661073508572684,1
860,543,49,0.0674306352755893,1
860,544,49,0.0701882552265966,1
860,545,49,0.072661224139927,1
860,546,49,0.0744331003367104,1
860,547,49,0.0824386815279539,1
860,548,49,0.096440781120518,1
861,536,49,0.0852895556379764,1
861,537,49,0.0688952103003352,1
861,538,49,0.0641341473402032,1
861,539,49,0.0613390110770892,1
861,544,49,0.0571665744542998,1
861,545,49,0.0599424100431722,1
861,546,49,0.0628212238398909,1
861,547,49,0.0693134151633173,1
861,548,49,0.0779905454175942,1
862,527,49,0.184585279754929,1
862,535,49,0.124859794429952,1
862,536,49,0.074187487020842,1
862,537,49,0.0607124025696303,1
862,547,49,0.0602583384337906,1
863,527,49,0.186875260821516,1
863,535,49,0.102387700386169,1
863,536,49,0.0694369618868235,1
863,537,49,0.0582776811885734,1
864,534,49,0.144363276122982,1
864,535,49,0.0926632033878044,1
864,536,49,0.0667023753710706,1
865,531,49,0.205935776413819,1
865,532,49,0.205833570704697,1
865,533,49,0.191779082725343,1
865,534,49,0.141358149939384,1
865,535,49,0.0926689293134654,1
865,536,49,0.0659101395988932,1
866,527,49,0.185885283066649,1
866,530,49,0.201453514730029,1
866,531,49,0.189940335264918,1
866,532,49,0.182718474669071,1
866,533,49,0.162692831013699,1
866,534,49,0.122285262573614,1
866,535,49,0.086181084032482,1
866,536,49,0.0643826265673704,1
867,527,49,0.162621383727077,1
867,528,49,0.180396485029376,1
867,529,49,0.189639709425371,1
867,530,49,0.190715959366048,1
867,531,49,0.184719553006527,1
867,532,49,0.166055016722298,1
867,533,49,0.135808943681234,1
867,534,49,0.101713704094352,1
867,535,49,0.0768428717780434,1
867,536,49,0.0601389549476857,1
868,527,49,0.154397857647568,1
868,528,49,0.166167836917712,1
868,529,49,0.179742550116651,1
868,530,49,0.189805767166478,1
868,531,49,0.182998508405211,1
868,532,49,0.155241945185283,1
868,533,49,0.117581794995491,1
868,534,49,0.086948941867808,1
868,535,49,0.0682050151230483,1
869,527,49,0.155506965320256,1
869,528,49,0.165910400243501,1
869,529,49,0.183793910832465,1
869,530,49,0.201595961136073,1
869,531,49,0.19530310396828,1
869,532,49,0.159153348002396,1
869,533,49,0.112041375173217,1
869,534,49,0.0795620083193041,1
869,535,49,0.064387125930171,1
870,527,49,0.158134958805886,1
870,528,49,0.168374553236272,1
870,529,49,0.189708715380145,1
870,530,49,0.214090390889544,1
870,531,49,0.209891087822561,1
870,532,49,0.16913775838844,1
870,533,49,0.112922377535482,1
870,534,49,0.0766288247650212,1
870,535,49,0.0640449325829159,1
870,536,49,0.0604181454218588,1
871,528,49,0.172440113775971,1
871,529,49,0.19303248844224,1
871,531,49,0.206838337977132,1
871,532,49,0.166213148980306,1
871,533,49,0.111755326561511,1
871,534,49,0.0761636095216377,1
871,535,49,0.0651225034374424,1
871,536,49,0.0646679675466563,1
871,537,49,0.0614897014008197,1
872,528,49,0.175772402014847,1
872,532,49,0.154553088612656,1
872,533,49,0.108720668518273,1
872,534,49,0.0781146110715414,1
872,535,49,0.0672003304077293,1
872,536,49,0.0676064229624644,1
872,537,49,0.0665242407033376,1
872,538,49,0.0597386119063589,1
873,533,49,0.11470287505391,1
873,534,49,0.085285875949395,1
873,535,49,0.0727933096279618,1
873,536,49,0.0716731098170978,1
873,537,49,0.0704816809062752,1
873,538,49,0.0638564782757319,1
874,533,49,0.123272834378255,1
874,534,49,0.0966003699219236,1
874,535,49,0.0833807230833375,1
874,536,49,0.0788945163488092,1
874,537,49,0.0742782821571995,1
874,538,49,0.0670401401187671,1
874,539,49,0.060763133917171,1
852,538,50,0.193607687454423,1
852,539,50,0.194648095813052,1
852,540,50,0.199161965078246,1
852,541,50,0.185805320603246,1
853,539,50,0.199533590037215,1
853,540,50,0.201163314674796,1
853,541,50,0.191388210164564,1
853,542,50,0.170828256856982,1
853,543,50,0.144312503496884,1
854,539,50,0.20544979805586,1
854,540,50,0.20245743284356,1
854,541,50,0.192629432809972,1
854,542,50,0.175077990527727,1
854,543,50,0.148468499459793,1
854,544,50,0.132131802576593,1
855,539,50,0.201951098259668,1
855,540,50,0.193448033786712,1
855,541,50,0.181024131397717,1
855,542,50,0.16764447707521,1
855,543,50,0.148776555439745,1
855,544,50,0.135445574433826,1
855,545,50,0.132429373802863,1
855,546,50,0.13303837405695,1
855,547,50,0.13225694736998,1
856,538,50,0.199359488874273,1
856,539,50,0.177415276821557,1
856,540,50,0.166850631439278,1
856,541,50,0.157566258218089,1
856,542,50,0.155467432255754,1
856,543,50,0.148493349151591,1
856,544,50,0.139582818137619,1
856,545,50,0.132155083683195,1
856,546,50,0.126419168611162,1
856,547,50,0.123970029219558,1
856,548,50,0.13154351236465,1
856,549,50,0.15029216255581,1
857,537,50,0.192125480588558,1
857,538,50,0.157808752054375,1
857,539,50,0.142014986145029,1
857,540,50,0.133301778431232,1
857,541,50,0.132539422437967,1
857,542,50,0.141602636940318,1
857,543,50,0.144150986397135,1
857,544,50,0.138759593962405,1
857,545,50,0.129480339282383,1
857,546,50,0.120087934178485,1
857,547,50,0.118189698419328,1
857,548,50,0.12822039975948,1
858,536,50,0.197018511097988,1
858,537,50,0.150186171013244,1
858,538,50,0.127308355921746,1
858,539,50,0.113813581598462,1
858,540,50,0.106648992053099,1
858,541,50,0.112075683551688,1
858,542,50,0.12513469783105,1
858,543,50,0.129866223034605,1
858,544,50,0.127440506276086,1
858,545,50,0.119953318904551,1
858,546,50,0.112449384232421,1
858,547,50,0.115222005990722,1
859,536,50,0.144478407917633,1
859,537,50,0.116438202036226,1
859,538,50,0.102427280626166,1
859,539,50,0.0920503937125256,1
859,540,50,0.0849251662204966,1
859,541,50,0.0889588420227607,1
859,542,50,0.0975448587060913,1
859,543,50,0.101350216908207,1
859,544,50,0.102448427041635,1
859,545,50,0.100412674715624,1
859,546,50,0.0985035826957644,1
859,547,50,0.108456049375005,1
860,536,50,0.102383053599948,1
860,537,50,0.0843464054584689,1
860,538,50,0.0784148889918153,1
860,539,50,0.0737108553077574,1
860,540,50,0.066965720775984,1
860,541,50,0.0670083261445742,1
860,542,50,0.0707035590514065,1
860,543,50,0.0746460092409246,1
860,544,50,0.0790571892481764,1
860,545,50,0.0808436308789276,1
860,546,50,0.0812718546375823,1
860,547,50,0.0900040681787797,1
861,536,50,0.078800124080986,1
861,537,50,0.0659845707355499,1
861,538,50,0.0636495665562729,1
861,539,50,0.0627760650976538,1
861,540,50,0.0577789064776955,1
861,543,50,0.0602769609602968,1
861,544,50,0.0651258587944982,1
861,545,50,0.0687183198862731,1
861,546,50,0.0699778820052189,1
861,547,50,0.0748345461052242,1
862,536,50,0.0682514770883247,1
862,537,50,0.0578622066073432,1
862,545,50,0.0586329539417154,1
862,546,50,0.0617018378063093,1
862,547,50,0.0665180666104775,1
863,535,50,0.098698847964986,1
863,536,50,0.0649170128797592,1
863,547,50,0.059701278399294,1
864,534,50,0.13989993181254,1
864,535,50,0.0879301803622946,1
864,536,50,0.0630297100414833,1
865,527,50,0.213856518374902,1
865,530,50,0.212002615786826,1
865,531,50,0.195461967446456,1
865,532,50,0.194442717297169,1
865,533,50,0.180064051112573,1
865,534,50,0.131151401447137,1
865,535,50,0.0864427665012096,1
865,536,50,0.0624996756684744,1
866,527,50,0.192375463534616,1
866,528,50,0.215000524119745,1
866,529,50,0.210980086940663,1
866,530,50,0.191247674366053,1
866,531,50,0.17667996418059,1
866,532,50,0.166581990585092,1
866,533,50,0.14767049058646,1
866,534,50,0.111183158574858,1
866,535,50,0.0798052392726935,1
866,536,50,0.0607596665183155,1
867,527,50,0.1699735430391,1
867,528,50,0.185674467575009,1
867,529,50,0.190829428224513,1
867,530,50,0.188364426072839,1
867,531,50,0.177474246189848,1
867,532,50,0.154223178584816,1
867,533,50,0.12550165241605,1
867,534,50,0.0950351636701893,1
867,535,50,0.0722408138225709,1
867,536,50,0.0570269231963134,1
868,527,50,0.16038550115896,1
868,528,50,0.172265753147808,1
868,529,50,0.182827013688347,1
868,530,50,0.188935933602567,1
868,531,50,0.177210818227819,1
868,532,50,0.146331532110048,1
868,533,50,0.112201901587578,1
868,534,50,0.0847578229471607,1
868,535,50,0.066090043347675,1
869,527,50,0.158529310559395,1
869,528,50,0.167915016743055,1
869,529,50,0.184309137997096,1
869,530,50,0.20080414404641,1
869,531,50,0.193604125704578,1
869,532,50,0.156056430100117,1
869,533,50,0.1119558224137,1
869,534,50,0.0808423217589515,1
869,535,50,0.0644877866418436,1
870,527,50,0.162273511629656,1
870,528,50,0.167511135539631,1
870,529,50,0.190486026005208,1
870,530,50,0.222678194344734,1
870,531,50,0.225463789364058,1
870,532,50,0.179992816115677,1
870,533,50,0.119220553740295,1
870,534,50,0.0802769942190205,1
870,535,50,0.0665870843591252,1
870,536,50,0.0639734970901683,1
870,537,50,0.0580234583449346,1
871,527,50,0.172017173672715,1
871,528,50,0.171151798193046,1
871,529,50,0.195932873233879,1
871,532,50,0.190936551978951,1
871,533,50,0.120772226522006,1
871,534,50,0.0798363397175301,1
871,535,50,0.0700646495337221,1
871,536,50,0.0730182718710547,1
871,537,50,0.0683939411851786,1
871,538,50,0.0578813244765431,1
871,546,50,0.0573361585636307,1
872,528,50,0.175564169381538,1
872,532,50,0.187287916666942,1
872,533,50,0.119939755949844,1
872,534,50,0.0825056530395218,1
872,535,50,0.073098169468152,1
872,536,50,0.0765979071252263,1
872,537,50,0.0730316166390989,1
872,538,50,0.0626619004006426,1
873,533,50,0.123130965872021,1
873,534,50,0.0898421559842634,1
873,535,50,0.0786344260530254,1
873,536,50,0.0787280635129345,1
873,537,50,0.0746243910705092,1
873,538,50,0.0653006145174282,1
873,539,50,0.0580816905961218,1
874,533,50,0.129096873274261,1
874,534,50,0.100223158959811,1
874,535,50,0.087310565621915,1
852,539,51,0.201188765854151,1
852,540,51,0.19477059877874,1
853,539,51,0.217589562440683,1
853,540,51,0.20673735883087,1
853,541,51,0.186238886986668,1
853,542,51,0.162830206054069,1
854,539,51,0.226711416082862,1
854,540,51,0.212036204739005,1
854,541,51,0.188655947041922,1
854,542,51,0.164019972028706,1
854,543,51,0.144248215091573,1
855,531,51,0.186309213855292,1
855,544,51,0.13512393191142,1
855,545,51,0.131805124070136,1
856,530,51,0.202274250397902,1
856,544,51,0.140486500118929,1
856,545,51,0.12902336205975,1
856,546,51,0.12101513314387,1
856,547,51,0.118841392496058,1
856,548,51,0.12675116615464,1
857,539,51,0.138927715631402,1
857,540,51,0.13054836889312,1
857,541,51,0.131861534167843,1
857,542,51,0.145155435234981,1
857,545,51,0.131123013593241,1
857,546,51,0.118495773028505,1
857,547,51,0.117880085648054,1
858,538,51,0.126515595322191,1
858,539,51,0.11634658722565,1
858,540,51,0.108874142196187,1
858,541,51,0.111595460604075,1
858,542,51,0.125377651628408,1
858,543,51,0.140046293784638,1
858,544,51,0.14045265170153,1
858,545,51,0.128559532596521,1
858,546,51,0.117946060577298,1
858,547,51,0.122016680688796,1
859,537,51,0.116744123325046,1
859,538,51,0.105369922867123,1
859,539,51,0.0975502720941004,1
859,540,51,0.0902679914835023,1
859,541,51,0.0907349345293768,1
859,542,51,0.0978369457811097,1
859,543,51,0.10814933789665,1
859,544,51,0.113270049137052,1
859,545,51,0.110609929139577,1
859,546,51,0.109117190344535,1
859,547,51,0.123652998101752,1
860,536,51,0.103059278933887,1
860,537,51,0.0863248631462488,1
860,538,51,0.0809825862983682,1
860,539,51,0.077653081413676,1
860,540,51,0.0718163405157395,1
860,541,51,0.0724273634191591,1
860,542,51,0.0768775339727248,1
860,543,51,0.0835944929403288,1
860,544,51,0.0892486292924157,1
860,545,51,0.0902586566325019,1
860,546,51,0.0902972402901746,1
861,536,51,0.0790836370098549,1
861,537,51,0.0672419215031849,1
861,538,51,0.0645445859373813,1
861,539,51,0.0643950455163325,1
861,540,51,0.0601914140977172,1
861,541,51,0.0597819543920527,1
861,542,51,0.0628665476963593,1
861,543,51,0.0685569914885029,1
861,544,51,0.074705409085604,1
861,545,51,0.0784464317069141,1
861,546,51,0.0789634102617834,1
862,536,51,0.0690948393028104,1
862,537,51,0.0590581997472714,1
862,538,51,0.0576664459954279,1
862,539,51,0.0590054044718406,1
862,544,51,0.059988754069712,1
862,545,51,0.0655669791539981,1
862,546,51,0.0687919490395211,1
863,535,51,0.101658721055357,1
863,536,51,0.0663858985653272,1
863,537,51,0.0582648553509701,1
863,538,51,0.0579183631367666,1
863,539,51,0.0587890635503919,1
863,546,51,0.0591205244726181,1
864,534,51,0.136823334754574,1
864,535,51,0.0887674038655412,1
864,536,51,0.0643250429792344,1
864,537,51,0.0570256022824637,1
864,538,51,0.0572242523934251,1
864,539,51,0.0576340187398048,1
865,527,51,0.223794814714943,1
865,534,51,0.122564624058955,1
865,535,51,0.0837407546645006,1
865,536,51,0.062077962128079,1
866,527,51,0.188883014491463,1
866,528,51,0.212672672924842,1
866,533,51,0.136858268208349,1
866,534,51,0.104432722696876,1
866,535,51,0.0760339889531975,1
866,536,51,0.0588195919923561,1
867,527,51,0.171260148510344,1
867,528,51,0.187524041811452,1
867,532,51,0.144094434772944,1
867,533,51,0.118844907070408,1
867,534,51,0.0913565542282783,1
867,535,51,0.0692872504546067,1
868,527,51,0.160713984128088,1
868,528,51,0.175403053273493,1
868,533,51,0.111531007084533,1
868,534,51,0.0852191167275529,1
868,535,51,0.0653535454224061,1
869,527,51,0.159841803583318,1
869,528,51,0.16759037857674,1
869,533,51,0.116279727755882,1
869,534,51,0.0855062680664454,1
869,535,51,0.0664413415653942,1
870,527,51,0.167892514032115,1
870,528,51,0.163626528403469,1
870,533,51,0.127029371840362,1
870,534,51,0.0865410094687822,1
870,535,51,0.0708852554689843,1
870,536,51,0.068383303111139,1
870,537,51,0.0624964559409657,1
870,546,51,0.0590179059779183,1
871,527,51,0.181173583364713,1
871,528,51,0.166829838840019,1
871,534,51,0.0847343649324546,1
871,535,51,0.0761085498224645,1
871,536,51,0.0813465924149541,1
871,537,51,0.0755728720809101,1
871,538,51,0.062746385814593,1
872,527,51,0.179125624379465,1
872,528,51,0.173296254652565,1
872,534,51,0.0869289512519574,1
872,535,51,0.0789462737633581,1
872,536,51,0.0845840166310602,1
872,537,51,0.0787028364171797,1
872,538,51,0.0653674503994491,1
873,534,51,0.0930802406572943,1
873,535,51,0.0825948265182513,1
873,536,51,0.082776009902325,1
873,537,51,0.0763249850949025,1
873,538,51,0.0655926013445205,1
873,539,51,0.0588436632884924,1
874,534,51,0.102958535665099,1
853,540,52,0.221606131229206,1
