x,y,z,signal,cytoplasm.p
705,639,8,0.0568894714957642,1
703,637,9,0.0575084847485872,1
703,638,9,0.0596842716334789,1
703,639,9,0.0600191409851923,1
703,640,9,0.0576914608014569,1
704,637,9,0.0622225432252546,1
704,638,9,0.064705690251552,1
704,639,9,0.065188867564517,1
704,640,9,0.0630846635957936,1
705,638,9,0.0698614351936549,1
705,639,9,0.0705195923131494,1
705,640,9,0.0679520778116383,1
705,641,9,0.059496159348631,1
706,639,9,0.0718755162768194,1
706,640,9,0.0687490134424685,1
706,641,9,0.0608726577248976,1
702,637,10,0.0583855951325457,1
702,638,10,0.0605946348442166,1
702,639,10,0.060550354745567,1
703,637,10,0.06749709965059,1
703,638,10,0.0700444643189562,1
703,639,10,0.0707503807298294,1
703,640,10,0.0656096906674512,1
703,641,10,0.0568893948355854,1
704,638,10,0.0768150323392733,1
704,639,10,0.0781772188498558,1
704,640,10,0.0732382453055901,1
704,641,10,0.0637523560621407,1
705,639,10,0.0845825836754107,1
705,640,10,0.0783815536079205,1
705,641,10,0.068034169069236,1
705,642,10,0.0574597465656948,1
692,659,11,0.0610489761360873,1
692,660,11,0.0720956371347756,1
693,659,11,0.0738783165198298,1
693,660,11,0.0865554510670767,1
693,661,11,0.0614921250418565,1
694,659,11,0.0636664082078567,1
694,660,11,0.0730296883407558,1
697,658,11,0.0624078485681718,1
697,659,11,0.0568606354746699,1
698,657,11,0.0646292364655629,1
698,658,11,0.0703156467529154,1
698,659,11,0.063618371760447,1
699,657,11,0.0660947314124541,1
699,658,11,0.0709239629623305,1
699,659,11,0.0642640332708006,1
700,657,11,0.0611439463037198,1
700,658,11,0.0646862598447002,1
700,659,11,0.0590554340838986,1
703,641,11,0.0649063040424776,1
690,635,12,0.0579555315296003,1
690,636,12,0.058800651031261,1
692,659,12,0.0715321730268826,1
692,660,12,0.0946102598869694,1
692,661,12,0.0635605169132168,1
693,638,12,0.0570691275731992,1
693,639,12,0.0578761056874493,1
693,659,12,0.0901091280053267,1
693,660,12,0.120171187132639,1
693,661,12,0.082304013181588,1
694,638,12,0.0570623225080984,1
694,639,12,0.059694272838341,1
694,640,12,0.056921356233199,1
694,659,12,0.0675047066990995,1
694,660,12,0.0878531368826226,1
694,661,12,0.0650529726552906,1
697,657,12,0.0664135021266241,1
697,658,12,0.0796588537128482,1
697,659,12,0.0661593441492904,1
698,639,12,0.0575180613739976,1
698,657,12,0.0891938526462103,1
698,658,12,0.106989056606159,1
698,659,12,0.0841006329253062,1
699,639,12,0.0593821420750405,1
699,657,12,0.0893469960956617,1
699,658,12,0.105577884241337,1
699,659,12,0.0834774092595872,1
700,657,12,0.0710273775435022,1
700,658,12,0.0794294628701967,1
700,659,12,0.0668154255470211,1
701,657,12,0.0607927424369898,1
701,658,12,0.0612114839212233,1
702,655,12,0.0619730320341422,1
702,656,12,0.0633833670339342,1
702,657,12,0.0641574284468044,1
702,658,12,0.0613368822828939,1
703,654,12,0.065953069299009,1
703,655,12,0.0713616866862168,1
703,656,12,0.0687423086252938,1
703,657,12,0.0665077292802161,1
703,658,12,0.0614837278038118,1
704,653,12,0.0583742553230234,1
704,654,12,0.0667497041860609,1
704,655,12,0.0710526577116885,1
704,656,12,0.0688279498388627,1
704,657,12,0.0638294113356864,1
689,633,13,0.060486284526919,1
689,634,13,0.0625834888316262,1
689,635,13,0.0653277699115261,1
689,636,13,0.0649736116794448,1
690,633,13,0.056886753007886,1
690,634,13,0.0611179408123035,1
690,635,13,0.0674508204903553,1
690,636,13,0.0687709441505359,1
690,637,13,0.0585446296218894,1
691,636,13,0.0589127223156978,1
691,639,13,0.0570833038093363,1
692,637,13,0.0568738623039776,1
692,638,13,0.0615703125272733,1
692,639,13,0.0631613060837612,1
692,640,13,0.0601578310424756,1
692,660,13,0.0828744651596235,1
692,661,13,0.0654612706643999,1
693,637,13,0.0578635334181297,1
693,638,13,0.0659250942306918,1
693,639,13,0.0679995186684283,1
693,640,13,0.064256361355986,1
693,659,13,0.0727133353706857,1
693,660,13,0.119482177239654,1
693,661,13,0.106008266278872,1
693,662,13,0.0714155316164032,1
694,637,13,0.057399049394913,1
694,638,13,0.0677937981302087,1
694,639,13,0.0717251915631723,1
694,640,13,0.0672614049824682,1
694,660,13,0.0875367721186788,1
694,661,13,0.0876392137052737,1
694,662,13,0.0690671826690819,1
695,638,13,0.0604175144496181,1
695,639,13,0.0641250011911812,1
695,640,13,0.0610382849896162,1
696,638,13,0.0568528161364346,1
696,639,13,0.0584405663776664,1
697,638,13,0.0596657080763409,1
697,639,13,0.0609951488967114,1
697,640,13,0.0591547443970373,1
697,657,13,0.0719198553448373,1
697,658,13,0.0930556563276538,1
697,659,13,0.0686755199187676,1
698,638,13,0.0627085864495185,1
698,639,13,0.0644997692174803,1
698,640,13,0.0629020000805757,1
698,641,13,0.0598735809965031,1
698,657,13,0.107654372606964,1
698,658,13,0.14151714315017,1
698,659,13,0.097879232715111,1
699,639,13,0.0669843256116798,1
699,640,13,0.0643034012210716,1
699,641,13,0.0608990995896392,1
699,657,13,0.102094221634059,1
699,658,13,0.1322431485378,1
699,659,13,0.0923987316679566,1
700,640,13,0.0656179876575697,1
700,641,13,0.0611451433818961,1
700,642,13,0.0576701669625671,1
700,657,13,0.0682449196945707,1
700,658,13,0.0811498882931463,1
700,659,13,0.0627034679083509,1
701,642,13,0.0607134640182596,1
701,656,13,0.0591918538205027,1
701,657,13,0.059696997223156,1
701,658,13,0.0578888902464948,1
702,655,13,0.0737964729335789,1
702,656,13,0.0835457429635627,1
702,657,13,0.0775925021816307,1
702,658,13,0.066290332807075,1
702,659,13,0.0635127812095853,1
702,660,13,0.0576132615221664,1
703,653,13,0.0594688388403018,1
703,654,13,0.0774282783878775,1
703,655,13,0.0950658690202584,1
703,656,13,0.100827335519572,1
703,657,13,0.0881817377904866,1
703,658,13,0.0688517085973471,1
703,659,13,0.0649728391807202,1
703,660,13,0.0579571944657861,1
704,653,13,0.0763433658469987,1
704,654,13,0.0952141533937626,1
704,655,13,0.100612002974321,1
704,656,13,0.0946947217131724,1
704,657,13,0.0797684718715641,1
704,658,13,0.0602232516596575,1
705,653,13,0.0787561742107988,1
705,654,13,0.0942937771842891,1
705,655,13,0.0876908472841492,1
688,633,14,0.07513827963048,1
688,634,14,0.0700747686773208,1
688,635,14,0.0660425848000745,1
688,636,14,0.0635480330979496,1
688,637,14,0.0590189320449265,1
689,633,14,0.0829762521862304,1
689,634,14,0.0772000728295286,1
689,635,14,0.0736065561860613,1
689,636,14,0.0727491415711119,1
689,637,14,0.0682581701116257,1
689,638,14,0.0580833476353708,1
690,633,14,0.0712390127093613,1
690,634,14,0.0702338916207169,1
690,635,14,0.0718701500643049,1
690,636,14,0.0726454321430988,1
690,637,14,0.0689845076147381,1
690,638,14,0.0631020949410604,1
690,639,14,0.0581977482098551,1
691,634,14,0.0573102179385196,1
691,635,14,0.0593540254802395,1
691,636,14,0.0608289024536258,1
691,637,14,0.0624811769776416,1
691,638,14,0.0669773082568532,1
691,639,14,0.0712498630731268,1
691,640,14,0.0655178104947172,1
692,637,14,0.0625730217687546,1
692,638,14,0.0752525799570382,1
692,639,14,0.0839619428680229,1
692,640,14,0.0788373632370617,1
692,641,14,0.0624389254252611,1
693,637,14,0.0638812866889719,1
693,638,14,0.0795324528719167,1
693,639,14,0.0880093408422883,1
693,640,14,0.0819483335398048,1
693,641,14,0.0664091619811179,1
693,660,14,0.078758650924267,1
693,661,14,0.103104083859914,1
693,662,14,0.094214941035821,1
693,663,14,0.0608390510819086,1
694,637,14,0.0618120574525818,1
694,638,14,0.0761671712714824,1
694,639,14,0.0831863482515771,1
694,640,14,0.0780073222028729,1
694,641,14,0.0655934328126134,1
694,660,14,0.0616518494728091,1
694,661,14,0.0929465099238842,1
694,662,14,0.0947927759787665,1
694,663,14,0.0654806656896307,1
695,638,14,0.0630298102894094,1
695,639,14,0.0672555080456391,1
695,640,14,0.065668766180605,1
695,641,14,0.0605683580937062,1
696,638,14,0.0585439042986594,1
696,639,14,0.0601052598506443,1
696,640,14,0.0596808985856126,1
696,641,14,0.0583636349397942,1
697,637,14,0.058560651599254,1
697,638,14,0.0613133770926931,1
697,639,14,0.0624931949348992,1
697,640,14,0.0612994485279028,1
697,641,14,0.0599059080042001,1
697,657,14,0.064538765660731,1
697,658,14,0.0902563332393912,1
697,659,14,0.0596166868404807,1
698,638,14,0.0643657200494814,1
698,639,14,0.0676179927525231,1
698,640,14,0.0674303227379374,1
698,641,14,0.0654376770201467,1
698,642,14,0.0599818664474956,1
698,657,14,0.105961951737016,1
698,658,14,0.151812192374496,1
698,659,14,0.0952880479091679,1
699,639,14,0.0726547139216677,1
699,640,14,0.0722276105810106,1
699,641,14,0.0694582144471556,1
699,642,14,0.0643323669747761,1
699,657,14,0.0937264800674572,1
699,658,14,0.133020364811874,1
699,659,14,0.0838799813430354,1
700,640,14,0.0740737881818404,1
700,641,14,0.0694911960148407,1
700,642,14,0.0664262513040486,1
700,643,14,0.0583893160996848,1
700,658,14,0.0681385271603003,1
701,642,14,0.0682654115500518,1
701,643,14,0.0606419872469542,1
701,656,14,0.0591973025901328,1
702,643,14,0.0608756592657436,1
702,655,14,0.0825279552546094,1
702,656,14,0.108688471243187,1
702,657,14,0.0931053910928703,1
702,658,14,0.0709006877526661,1
702,659,14,0.0857985025648845,1
702,660,14,0.089264592300412,1
702,661,14,0.0610258601437173,1
703,653,14,0.0614361454205379,1
703,654,14,0.0842634709389046,1
703,655,14,0.114787908882985,1
703,656,14,0.140500145630752,1
703,657,14,0.114990834273148,1
703,658,14,0.0796176754029707,1
703,659,14,0.0949385600510552,1
703,660,14,0.0982542543096937,1
703,661,14,0.0644571048795218,1
704,653,14,0.0946545576764295,1
704,654,14,0.131049172150268,1
704,655,14,0.12933621814628,1
704,656,14,0.119527383157386,1
704,657,14,0.0912968890214415,1
704,658,14,0.0615495435157613,1
704,659,14,0.0673897754003006,1
705,653,14,0.102117219687693,1
705,654,14,0.139433955864306,1
705,655,14,0.112494755264384,1
705,656,14,0.0753948671457873,1
687,633,15,0.0676822929517075,1
687,634,15,0.0673457783546188,1
687,635,15,0.0644632082091399,1
687,636,15,0.0615143800814494,1
688,632,15,0.0827224185404223,1
688,633,15,0.0982748228253536,1
688,634,15,0.0880846447255957,1
688,635,15,0.0748555097156516,1
688,636,15,0.0698274747344562,1
688,637,15,0.0656906556101145,1
689,632,15,0.0926905003083862,1
689,633,15,0.108683576785618,1
689,634,15,0.094053677504356,1
689,635,15,0.0788915855712051,1
689,636,15,0.0774399366319886,1
689,637,15,0.0800218337624259,1
689,638,15,0.0690377982328626,1
690,633,15,0.0867202409667655,1
690,634,15,0.0786151961420258,1
690,635,15,0.0724516764897054,1
690,636,15,0.075396878001246,1
690,637,15,0.0808313416625758,1
690,638,15,0.0748960570532884,1
690,639,15,0.0637694984575028,1
691,633,15,0.0620324377757585,1
691,634,15,0.0600947692000253,1
691,635,15,0.0596583604930518,1
691,636,15,0.0627491043024712,1
691,637,15,0.0698680515567772,1
691,638,15,0.0795544484462892,1
691,639,15,0.0861720027497652,1
691,640,15,0.0759847554276114,1
691,641,15,0.0571463302701656,1
692,637,15,0.0671854406422359,1
692,638,15,0.0964092973747875,1
692,639,15,0.12013482662015,1
692,640,15,0.105577188402792,1
692,641,15,0.0713930348024003,1
693,637,15,0.0670523703657507,1
693,638,15,0.10021574061328,1
693,639,15,0.125279904003529,1
693,640,15,0.109594912990933,1
693,641,15,0.075961721992357,1
693,661,15,0.0847424319420368,1
693,662,15,0.095706871950517,1
693,663,15,0.0633704586392153,1
694,637,15,0.0636463586226378,1
694,638,15,0.0849246767747397,1
694,639,15,0.0999723150609748,1
694,640,15,0.0908981735346796,1
694,641,15,0.073303046744405,1
694,642,15,0.0595527227666956,1
694,661,15,0.08361801582134,1
694,662,15,0.0995188170310706,1
694,663,15,0.0691303801410793,1
695,637,15,0.0579418860177778,1
695,638,15,0.0648276860806722,1
695,639,15,0.0698989515057616,1
695,640,15,0.0694777392049967,1
695,641,15,0.0683894477193149,1
695,642,15,0.0625997584803377,1
696,637,15,0.0577592519872441,1
696,638,15,0.0598404873870182,1
696,639,15,0.0616695402832964,1
696,640,15,0.0629865326700207,1
696,641,15,0.06574349806104,1
696,642,15,0.0637077575289023,1
697,637,15,0.0594990134660562,1
697,638,15,0.0616351139660882,1
697,639,15,0.0631687951935342,1
697,640,15,0.0633677224605266,1
697,641,15,0.064997376334866,1
697,642,15,0.0626300569417655,1
697,658,15,0.0726880080270048,1
698,638,15,0.0653503964581393,1
698,639,15,0.0696580616362934,1
698,640,15,0.0707498500055148,1
698,641,15,0.070025287480388,1
698,642,15,0.0652901297637461,1
698,657,15,0.0857541458060561,1
698,658,15,0.127141897188935,1
698,659,15,0.0769408140018378,1
699,639,15,0.0780990903338072,1
699,640,15,0.0793384318563661,1
699,641,15,0.0771486928189368,1
699,642,15,0.0713325735090916,1
699,643,15,0.0590537357660918,1
699,657,15,0.0714618461582589,1
699,658,15,0.106597889198538,1
699,659,15,0.0650102965234585,1
700,640,15,0.0836274037447719,1
700,641,15,0.079102471826087,1
700,642,15,0.0743987447827441,1
700,643,15,0.0634689021026401,1
701,642,15,0.0760890427554338,1
701,643,15,0.064856675422124,1
701,656,15,0.0595621106901275,1
702,643,15,0.0632204700509675,1
702,655,15,0.0820907150795431,1
702,656,15,0.12097228600087,1
702,657,15,0.0997329230134611,1
702,658,15,0.0687255731185729,1
702,659,15,0.088551009871661,1
702,660,15,0.0996188526674393,1
702,661,15,0.061463884611382,1
703,653,15,0.057528398704259,1
703,654,15,0.0810585388447269,1
703,655,15,0.116042081201669,1
703,656,15,0.159905478707199,1
703,657,15,0.128126437968046,1
703,658,15,0.0813492460365272,1
703,659,15,0.101042231691497,1
703,660,15,0.113804948482945,1
704,653,15,0.0944768888667059,1
704,654,15,0.143088264029544,1
704,655,15,0.13035325104732,1
704,656,15,0.120474336861148,1
704,657,15,0.0876214462346077,1
705,653,15,0.103692149988258,1
705,654,15,0.158948559180196,1
705,655,15,0.119145556497703,1
687,632,16,0.059269027032785,1
687,633,16,0.0714113919667492,1
687,634,16,0.0713905286042479,1
687,635,16,0.0636902318326463,1
687,636,16,0.0601030308085229,1
688,632,16,0.0873208203950608,1
688,633,16,0.104364023382817,1
688,634,16,0.0946712695954031,1
688,635,16,0.0724777586413005,1
688,636,16,0.0647361833118952,1
688,637,16,0.0606222855810082,1
689,631,16,0.0643979703969997,1
689,632,16,0.0985059827490538,1
689,633,16,0.115655018062082,1
689,634,16,0.100283130807362,1
689,635,16,0.0746189540947527,1
689,636,16,0.071698218974116,1
689,637,16,0.0783753972058709,1
689,638,16,0.0685800779961888,1
690,632,16,0.0797966120541126,1
690,633,16,0.0913706538042366,1
690,634,16,0.0821318992863574,1
690,635,16,0.0673034147604386,1
690,636,16,0.07079590508215,1
690,637,16,0.0812612401512899,1
690,638,16,0.0741956837630345,1
690,639,16,0.0592528989105574,1
691,632,16,0.0575925986555173,1
691,633,16,0.0627857124863061,1
691,634,16,0.0601615107310569,1
691,636,16,0.0595369720484251,1
691,637,16,0.0684918539242888,1
691,638,16,0.0768229932039926,1
691,639,16,0.0842331488897295,1
691,640,16,0.0710325845387223,1
692,637,16,0.0642156665949285,1
692,638,16,0.0987587490492958,1
692,639,16,0.133815177545446,1
692,640,16,0.109769603847558,1
692,641,16,0.0681211783721492,1
693,637,16,0.0626100368412308,1
693,638,16,0.102471425095269,1
693,639,16,0.14133234494382,1
693,640,16,0.115556303339563,1
693,641,16,0.0721522831099558,1
693,661,16,0.0600728502858316,1
693,662,16,0.0764375281342856,1
694,637,16,0.0576229796740607,1
694,638,16,0.077483845223618,1
694,639,16,0.0978400593637554,1
694,640,16,0.0847055112205499,1
694,641,16,0.0674669250248355,1
694,642,16,0.0576981892063789,1
694,661,16,0.0615694338836858,1
694,662,16,0.0784145646602897,1
695,638,16,0.0576368020939881,1
695,639,16,0.0614051452236274,1
695,640,16,0.0616134604140518,1
695,641,16,0.0653526019125134,1
695,642,16,0.0645707270583447,1
696,640,16,0.05924984429728,1
696,641,16,0.0654652569936963,1
696,642,16,0.0671028304541972,1
697,638,16,0.0578789421140641,1
697,639,16,0.060993922333851,1
697,640,16,0.0634048790594867,1
697,641,16,0.0670361537894707,1
697,642,16,0.0664301137976717,1
698,638,16,0.0640947970807427,1
698,639,16,0.0713425452292696,1
698,640,16,0.0755445255055727,1
698,641,16,0.075702987992044,1
698,642,16,0.070232889141456,1
698,643,16,0.0570711089439737,1
698,657,16,0.0608403660988215,1
698,658,16,0.0887631934526452,1
699,639,16,0.0853374800435864,1
699,640,16,0.0937604935990874,1
699,641,16,0.092827208994895,1
699,642,16,0.0823925438942031,1
699,643,16,0.0648925818704763,1
699,658,16,0.0723747450518331,1
700,640,16,0.108204603988613,1
700,641,16,0.105252951228181,1
700,642,16,0.0905410255556259,1
700,643,16,0.0702219798083222,1
701,641,16,0.110521097683183,1
701,642,16,0.090891156179853,1
701,643,16,0.0697770028521361,1
701,644,16,0.0579576072513642,1
702,643,16,0.0655165957257303,1
702,644,16,0.0579265657758958,1
702,655,16,0.0707721581175393,1
702,656,16,0.113071947441215,1
702,657,16,0.0920509362307138,1
702,658,16,0.0577755629145134,1
702,659,16,0.0749570903494695,1
702,660,16,0.0880101251348865,1
703,654,16,0.0649378526545132,1
703,655,16,0.098150668717354,1
703,656,16,0.148187510419887,1
703,657,16,0.119668555825074,1
703,658,16,0.0697099075048947,1
703,659,16,0.0858391855320683,1
703,660,16,0.101227029897847,1
704,653,16,0.0748108993885395,1
704,654,16,0.12223647131829,1
704,655,16,0.106151325966345,1
704,656,16,0.0974129265384141,1
704,657,16,0.0701952784783601,1
687,633,17,0.070110610259368,1
687,634,17,0.0717657094161249,1
687,635,17,0.0623556488833608,1
688,632,17,0.0792273925358744,1
688,633,17,0.0985207899574317,1
688,634,17,0.0933817510373655,1
688,635,17,0.070750050501367,1
688,636,17,0.0582520825857983,1
689,631,17,0.0595144988221694,1
689,632,17,0.0884467992040173,1
689,633,17,0.106092910910116,1
689,634,17,0.0951829114224421,1
689,635,17,0.0698393393713563,1
689,636,17,0.0634038058169838,1
689,637,17,0.0685676354594794,1
689,638,17,0.0600002589934655,1
690,632,17,0.0736620758463071,1
690,633,17,0.0843914816435905,1
690,634,17,0.0774007691775698,1
690,635,17,0.0622327626167794,1
690,636,17,0.0639236384892784,1
690,637,17,0.0726151749602287,1
690,638,17,0.0635842697747644,1
691,633,17,0.0579921633011826,1
691,637,17,0.0613596385621173,1
691,638,17,0.0614139316595028,1
691,639,17,0.0657615485846738,1
692,638,17,0.077661154320195,1
692,639,17,0.10761393141419,1
692,640,17,0.0837469110665502,1
693,638,17,0.0815043354751322,1
693,639,17,0.116423848891984,1
693,640,17,0.0903745550289407,1
693,641,17,0.0577602190848841,1
694,638,17,0.0595822664202093,1
694,639,17,0.0759807396136308,1
694,640,17,0.0631443995658722,1
695,641,17,0.057507110762306,1
695,642,17,0.0609098320146682,1
696,641,17,0.0614463589151259,1
696,642,17,0.0653057094708485,1
697,639,17,0.0568626994025601,1
697,640,17,0.0600434599526754,1
697,641,17,0.0651384487546283,1
697,642,17,0.0655518240263473,1
698,638,17,0.0608503496128732,1
698,639,17,0.0692149599060189,1
698,640,17,0.0751752888060194,1
698,641,17,0.0763211049104689,1
698,642,17,0.0691456473105298,1
698,643,17,0.0572583366882973,1
698,658,17,0.059665083001037,1
699,638,17,0.0694894092429814,1
699,639,17,0.0882166889350726,1
699,640,17,0.10971038680792,1
699,641,17,0.110875904578316,1
699,642,17,0.0871296711877459,1
699,643,17,0.0646922806172027,1
700,639,17,0.106349439456055,1
700,640,17,0.145195499023797,1
700,641,17,0.14708665845876,1
700,642,17,0.105756950625089,1
700,643,17,0.0696722791509883,1
700,644,17,0.0587705884473063,1
701,641,17,0.148633424989029,1
701,642,17,0.105210186642296,1
701,643,17,0.0684920249354568,1
701,644,17,0.0597549405244387,1
702,643,17,0.0628661172199707,1
702,644,17,0.0575244536535203,1
702,648,17,0.0572025988413887,1
702,655,17,0.0627677209320406,1
702,656,17,0.098568944343578,1
702,657,17,0.0838511571158148,1
702,659,17,0.0579886782115166,1
702,660,17,0.0628399584081969,1
703,655,17,0.0794550968545928,1
703,656,17,0.120150052511043,1
703,657,17,0.101532172791005,1
703,659,17,0.0623308404701208,1
704,655,17,0.080902959960365,1
704,656,17,0.0760501052815514,1
687,633,18,0.0637516071511634,1
687,634,18,0.0658701996457498,1
688,632,18,0.065155431932696,1
688,633,18,0.0826085192055684,1
688,634,18,0.0811027245923872,1
688,635,18,0.0637332499868145,1
689,632,18,0.0699851529283292,1
689,633,18,0.0849193931193409,1
689,634,18,0.079235477236267,1
689,635,18,0.0615447728938666,1
690,630,18,0.0607043296631113,1
690,632,18,0.0606527019811726,1
690,633,18,0.0678772103016562,1
690,634,18,0.0639652767602286,1
690,637,18,0.059841702156005,1
691,630,18,0.0696647074840997,1
691,631,18,0.0578317430316841,1
692,631,18,0.0568592673853256,1
692,638,18,0.064501915702486,1
692,639,18,0.0895830327861196,1
692,640,18,0.070775307081806,1
693,638,18,0.0676411382295773,1
693,639,18,0.097556322351287,1
693,640,18,0.077184569782605,1
694,639,18,0.0608181759255337,1
696,641,18,0.0586382788756721,1
696,642,18,0.0621019390732261,1
697,640,18,0.0579183041673983,1
697,641,18,0.0627780346745547,1
697,642,18,0.0625086036308336,1
698,639,18,0.0648724733158891,1
698,640,18,0.0700775520315042,1
698,641,18,0.0709441894556542,1
698,642,18,0.0634334733061709,1
699,638,18,0.0625812479956312,1
699,639,18,0.08467876861203,1
699,640,18,0.117228143899977,1
699,641,18,0.121938699596168,1
699,642,18,0.0844912165361808,1
699,643,18,0.0609576030999206,1
700,639,18,0.109262160639541,1
700,640,18,0.179217663769494,1
700,641,18,0.191711515623156,1
700,642,18,0.118235918610195,1
700,643,18,0.0666555831773318,1
700,644,18,0.0635517009926573,1
701,640,18,0.174234079898116,1
701,641,18,0.187982705558019,1
701,642,18,0.116439652682686,1
701,643,18,0.0656289205784508,1
701,644,18,0.0631697387034268,1
701,645,18,0.0585009863924173,1
702,643,18,0.0592172401335519,1
702,644,18,0.0581179154790629,1
702,648,18,0.0602368558929222,1
702,655,18,0.061189965998734,1
702,656,18,0.0881712648306782,1
702,657,18,0.0789892034634739,1
703,655,18,0.0692211575866262,1
703,656,18,0.0960123981445689,1
703,657,18,0.084417304329965,1
687,633,19,0.0572348256011597,1
687,634,19,0.0588825889685012,1
687,669,19,0.0593938887732041,1
688,633,19,0.0673223911031546,1
688,634,19,0.0684987179587579,1
688,669,19,0.0591683014548073,1
689,629,19,0.0610626039570994,1
689,633,19,0.0646911543022683,1
689,634,19,0.0634403845161346,1
690,629,19,0.0775555342846492,1
690,630,19,0.068791294479533,1
691,629,19,0.0897363472467391,1
691,630,19,0.0795818986872286,1
691,631,19,0.0600325977950363,1
691,670,19,0.059135019143344,1
692,630,19,0.0776774593505274,1
692,631,19,0.0582012863719525,1
692,638,19,0.0572712686707635,1
692,639,19,0.0764125899884354,1
692,640,19,0.0624240415567045,1
692,670,19,0.057791343117468,1
693,629,19,0.0719469399756933,1
693,630,19,0.06385519864044,1
693,638,19,0.0625254334885438,1
693,639,19,0.0870077991942992,1
693,640,19,0.0719653443155369,1
694,639,19,0.0581812014051127,1
696,642,19,0.0573874855017911,1
697,641,19,0.0579117290828338,1
697,642,19,0.0582376763691248,1
698,639,19,0.0595938597980153,1
698,640,19,0.062086931368996,1
698,641,19,0.0620855043102834,1
698,642,19,0.0570892715094073,1
699,638,19,0.0579317138017476,1
699,639,19,0.0771094133227182,1
699,640,19,0.107603965590949,1
699,641,19,0.11452291233576,1
699,642,19,0.0737314474111645,1
699,643,19,0.0585405666324141,1
699,644,19,0.0614428148560916,1
700,638,19,0.0655438926463122,1
700,639,19,0.104683932205795,1
700,640,19,0.184051760292254,1
700,641,19,0.205720467456315,1
700,642,19,0.116287936291948,1
700,643,19,0.0669360768745442,1
700,644,19,0.0746935031701461,1
700,645,19,0.0673799864851643,1
701,640,19,0.176095577740828,1
701,641,19,0.201367584566556,1
701,642,19,0.115588264737176,1
701,643,19,0.0674764839594355,1
701,644,19,0.0752444244934036,1
701,645,19,0.0700347874456196,1
702,641,19,0.119116755858229,1
702,643,19,0.0596571339301914,1
702,644,19,0.064279825267629,1
702,645,19,0.0610407204245266,1
702,648,19,0.0582410671078016,1
702,655,19,0.0637058881999275,1
702,656,19,0.0808077951938172,1
702,657,19,0.0750292039899524,1
703,655,19,0.0704606996050373,1
686,669,20,0.0575058900963824,1
687,669,20,0.065062378269533,1
687,670,20,0.0623790892072564,1
688,669,20,0.0627657867367606,1
688,670,20,0.0610167257885691,1
689,628,20,0.0709090260213424,1
689,629,20,0.0667537671755361,1
689,630,20,0.057973829724581,1
689,669,20,0.0586212544190465,1
689,670,20,0.0605270500512184,1
690,628,20,0.0896921320143946,1
690,629,20,0.0837209999261232,1
690,630,20,0.0698097072637902,1
690,670,20,0.0623777093240384,1
691,628,20,0.100402590953646,1
691,629,20,0.0950176261800596,1
691,630,20,0.0792858075921033,1
691,631,20,0.0569278192759637,1
691,670,20,0.064887622546603,1
692,628,20,0.0979963635713472,1
692,629,20,0.0928535447147737,1
692,630,20,0.0776510646612804,1
692,639,20,0.0647755335713557,1
692,670,20,0.06259584881122,1
693,628,20,0.0920029646496092,1
693,629,20,0.0847216275489038,1
693,630,20,0.0694284113284214,1
693,638,20,0.0569150052322341,1
693,639,20,0.0744970644104955,1
693,640,20,0.0640149702468873,1
693,670,20,0.0588357613931414,1
694,629,20,0.0779325608377538,1
694,630,20,0.062641496999214,1
695,629,20,0.0702503440744701,1
695,630,20,0.0580857005131656,1
696,630,20,0.0580381299237653,1
698,630,20,0.0601935664796599,1
698,631,20,0.0585983802010865,1
699,639,20,0.0684075395215065,1
699,640,20,0.0886721388510672,1
699,641,20,0.094996774611432,1
699,642,20,0.0605316850435661,1
699,644,20,0.0593094918133062,1
700,637,20,0.058258026698122,1
700,638,20,0.0638402499055783,1
700,639,20,0.0947059023054004,1
700,640,20,0.160869816580733,1
700,641,20,0.183783685544004,1
700,642,20,0.101588146515387,1
700,643,20,0.0639524922011831,1
700,644,20,0.0774591193674936,1
700,645,20,0.071226086623832,1
701,638,20,0.0761149185142399,1
701,639,20,0.0966458765834337,1
701,640,20,0.158501300109457,1
701,641,20,0.185344769836894,1
701,642,20,0.104793674200184,1
701,643,20,0.0670779041022206,1
701,644,20,0.081986174183437,1
701,645,20,0.0781832337254214,1
701,646,20,0.0572619279228262,1
702,640,20,0.099274731021841,1
702,641,20,0.107537082533434,1
702,643,20,0.0576126010652415,1
702,644,20,0.0667572876468231,1
702,645,20,0.0649022115683182,1
702,655,20,0.0619579830513544,1
702,656,20,0.0685223941601266,1
676,648,21,0.0579798740848308,1
686,669,21,0.0618960593177121,1
687,668,21,0.058767875856365,1
687,669,21,0.0701569248012237,1
687,670,21,0.0685641680606239,1
688,669,21,0.0668956651664545,1
688,670,21,0.0666422148215403,1
689,627,21,0.0701194733554222,1
689,628,21,0.0737931824428283,1
689,629,21,0.0683212850265074,1
689,630,21,0.0584325229558316,1
689,669,21,0.061947816732261,1
689,670,21,0.0659059822584287,1
690,627,21,0.0980483391725588,1
690,628,21,0.100849779261143,1
690,629,21,0.0882440566188964,1
690,630,21,0.0688894018175586,1
690,669,21,0.0585195617434289,1
690,670,21,0.0678634409541602,1
691,627,21,0.114198793099886,1
691,628,21,0.114869357374469,1
691,629,21,0.0995857118824598,1
691,630,21,0.0756799427629159,1
691,670,21,0.0702566714876877,1
692,627,21,0.113713380847863,1
692,628,21,0.116572227616478,1
692,629,21,0.103177335609205,1
692,630,21,0.0774747934255853,1
692,670,21,0.0668576888932752,1
693,627,21,0.106925511214889,1
693,628,21,0.116483879708905,1
693,629,21,0.104712367235185,1
693,630,21,0.0763840311233721,1
693,639,21,0.0579577369839744,1
693,670,21,0.0610160771255179,1
694,628,21,0.111817904855142,1
694,629,21,0.0983733075673362,1
694,630,21,0.0702990763604257,1
695,628,21,0.0906777932115029,1
695,629,21,0.0786835239490644,1
695,630,21,0.0597864832395374,1
696,629,21,0.0639860811533616,1
696,630,21,0.0576850036556291,1
697,630,21,0.0620589209190579,1
697,631,21,0.0602763948543612,1
698,630,21,0.0643356043930953,1
698,631,21,0.0643072283330737,1
699,630,21,0.0609257950226645,1
699,631,21,0.0625548297186369,1
699,639,21,0.0648483312565108,1
699,640,21,0.0769027256868587,1
699,641,21,0.0802330797304543,1
700,637,21,0.0603710760720891,1
700,638,21,0.0652660525706729,1
700,639,21,0.0859616177345139,1
700,640,21,0.12732010261991,1
700,641,21,0.14281037677841,1
700,642,21,0.0850489075429181,1
700,643,21,0.0632047841990021,1
700,644,21,0.074834793776571,1
700,645,21,0.0690199658958914,1
701,637,21,0.0774339630349807,1
701,638,21,0.0765488328169346,1
701,639,21,0.0904583151196611,1
701,640,21,0.13162978455046,1
701,641,21,0.150046566930752,1
701,642,21,0.0908972830972184,1
701,643,21,0.0681666319612278,1
701,644,21,0.0829208091861633,1
701,645,21,0.0796798173232756,1
701,646,21,0.0582082034788531,1
702,643,21,0.0571694757472197,1
702,644,21,0.0658902905095265,1
702,645,21,0.0648211581716024,1
675,648,22,0.0592410755522151,1
676,648,22,0.0648725853576888,1
676,649,22,0.0603434194383606,1
684,631,22,0.0572373200054384,1
686,669,22,0.0652419694806629,1
687,668,22,0.0610755595273129,1
687,669,22,0.0711758565159218,1
687,670,22,0.0721081268469796,1
688,668,22,0.0575417965447347,1
688,669,22,0.0684518550017771,1
688,670,22,0.0701642134151444,1
689,626,22,0.0574829392182436,1
689,627,22,0.0669458009233754,1
689,628,22,0.069443430826525,1
689,629,22,0.0623515446153277,1
689,669,22,0.0631942109912675,1
689,670,22,0.0693057078668817,1
690,626,22,0.075659616021666,1
690,627,22,0.096066667654207,1
690,628,22,0.0988497328876318,1
690,629,22,0.0822868707862258,1
690,630,22,0.0601171539722285,1
690,669,22,0.058476673321871,1
690,670,22,0.0714057544951406,1
691,626,22,0.092639373866078,1
691,627,22,0.11411459663584,1
691,628,22,0.115268473852935,1
691,629,22,0.0945732271236827,1
691,630,22,0.0644458122454941,1
691,670,22,0.0725209772913209,1
692,626,22,0.102338425582025,1
692,627,22,0.11620753745522,1
692,628,22,0.123595550143163,1
692,629,22,0.107951719749634,1
692,630,22,0.071405707319646,1
692,670,22,0.0683092434815024,1
693,626,22,0.103972891356817,1
693,627,22,0.115324707042537,1
693,628,22,0.134484963424367,1
693,629,22,0.123370346125661,1
693,630,22,0.079482240454817,1
693,670,22,0.0624413549632347,1
694,627,22,0.109048066451024,1
694,628,22,0.127489804667977,1
694,629,22,0.114498593368277,1
694,630,22,0.0732466484405716,1
695,627,22,0.0874142160805599,1
695,628,22,0.0913085767502368,1
695,629,22,0.0794985926606441,1
696,628,22,0.0626959434169569,1
696,629,22,0.0573704728390392,1
697,630,22,0.0578795494985575,1
697,631,22,0.0579922045797404,1
698,630,22,0.0621063676727847,1
698,631,22,0.0640497326894948,1
699,631,22,0.0594909700442214,1
699,639,22,0.0629876530880183,1
699,640,22,0.0688223772335592,1
699,641,22,0.0681041951940814,1
700,637,22,0.0637397543081369,1
700,638,22,0.072487641907426,1
700,639,22,0.0815788786535887,1
700,640,22,0.0993494805930865,1
700,641,22,0.103464492845034,1
700,642,22,0.0709396370204222,1
700,643,22,0.0588598326892778,1
700,644,22,0.0654122081499818,1
700,645,22,0.0606826879049485,1
701,636,22,0.0682151873390785,1
701,637,22,0.0784537615993927,1
701,638,22,0.0824653179916109,1
701,639,22,0.088639127798698,1
701,640,22,0.108155576855816,1
701,641,22,0.113244751278055,1
701,642,22,0.0774373950522153,1
701,643,22,0.0637964356649381,1
701,644,22,0.0730837632514785,1
701,645,22,0.0704133825839207,1
702,644,22,0.0586200750316807,1
702,645,22,0.0580628852645739,1
675,648,23,0.0658074739286988,1
675,649,23,0.0645140692892908,1
676,648,23,0.0670222606063013,1
676,649,23,0.0646996223035549,1
686,668,23,0.0603095061546566,1
686,669,23,0.0678210891538537,1
687,668,23,0.0626716067586633,1
687,669,23,0.0720651499713692,1
687,670,23,0.0741886487173974,1
688,668,23,0.058385412327504,1
688,669,23,0.0710993968329958,1
688,670,23,0.0741609684959216,1
689,627,23,0.0603904475095726,1
689,628,23,0.0628595244445958,1
689,669,23,0.0653573312558503,1
689,670,23,0.0743603616209236,1
690,626,23,0.0707502333064087,1
690,627,23,0.0839038167616986,1
690,628,23,0.088032675021321,1
690,629,23,0.0720197789394062,1
690,669,23,0.0590868352725135,1
690,670,23,0.0764330877408533,1
691,626,23,0.0893292345219325,1
691,627,23,0.102785130340702,1
691,628,23,0.107183124797204,1
691,629,23,0.085621588563075,1
691,670,23,0.0751842521499996,1
692,625,23,0.10873397200776,1
692,626,23,0.105261336672352,1
692,627,23,0.108809830203129,1
692,628,23,0.118644139959125,1
692,629,23,0.104010796866755,1
692,630,23,0.0659660425600329,1
692,670,23,0.0690154488422803,1
693,626,23,0.119413690215321,1
693,627,23,0.119727560574986,1
693,628,23,0.139171542175411,1
693,629,23,0.131136069411381,1
693,630,23,0.0820401665370441,1
693,670,23,0.0633878192212401,1
694,626,23,0.114873803664838,1
694,627,23,0.116393007912368,1
694,628,23,0.127582079935479,1
694,629,23,0.118042086296623,1
694,630,23,0.0743979310054617,1
695,627,23,0.0926540572387825,1
695,628,23,0.0862291735523232,1
695,629,23,0.0758304797662888,1
696,628,23,0.0578201909324359,1
697,631,23,0.0577845203615568,1
698,630,23,0.0619453400187928,1
698,631,23,0.0655745508208866,1
699,631,23,0.0588446303861324,1
699,639,23,0.0596038138273828,1
699,640,23,0.0632049964887279,1
699,641,23,0.0607192960887835,1
700,637,23,0.0625613340399593,1
700,638,23,0.0730145862855365,1
700,639,23,0.0749436217457518,1
700,640,23,0.0798764683726521,1
700,641,23,0.0771538113601044,1
700,642,23,0.0610755123518182,1
701,636,23,0.0650528311288067,1
701,637,23,0.0747399946201066,1
701,638,23,0.0822136308308086,1
701,639,23,0.0831314005942037,1
701,640,23,0.0884784598578527,1
701,641,23,0.0845447784133994,1
701,642,23,0.065695367262641,1
701,643,23,0.0580569175645028,1
701,644,23,0.0601689998408299,1
701,645,23,0.0590068020458691,1
675,647,24,0.0569879444438731,1
675,648,24,0.0668709570011406,1
675,649,24,0.065557426116335,1
676,648,24,0.065745880423519,1
676,649,24,0.0642766114370571,1
685,668,24,0.0601044106917409,1
685,669,24,0.0666359876562488,1
686,668,24,0.0626513095020976,1
686,669,24,0.0691024876298777,1
686,670,24,0.072399005049948,1
687,668,24,0.0612039712237031,1
687,669,24,0.0706561771639848,1
687,670,24,0.073652593571886,1
688,669,24,0.0694432008459887,1
688,670,24,0.0748393462118031,1
689,669,24,0.0638199408551389,1
689,670,24,0.0767967518351031,1
690,626,24,0.0647421215272821,1
690,627,24,0.0678167902869053,1
690,628,24,0.0699742200074481,1
690,629,24,0.057434136169046,1
690,669,24,0.0570627470875501,1
690,670,24,0.0782867603483929,1
691,626,24,0.0805473569787606,1
691,627,24,0.0833868558976398,1
691,628,24,0.087682125714579,1
691,629,24,0.0699262189416593,1
691,670,24,0.0752326601044296,1
692,625,24,0.107439181588197,1
692,626,24,0.10505576945449,1
692,627,24,0.0944232208446244,1
692,628,24,0.0989667222173841,1
692,629,24,0.086810723565471,1
692,670,24,0.0688106659170166,1
693,625,24,0.135223212739874,1
693,626,24,0.140791607630466,1
693,627,24,0.119805919071571,1
693,628,24,0.12313470452997,1
693,629,24,0.116162083866141,1
693,630,24,0.073053175840146,1
693,670,24,0.065237965460556,1
694,625,24,0.128085171204116,1
694,626,24,0.147030543207894,1
694,627,24,0.121622505843393,1
694,628,24,0.110403182534349,1
694,629,24,0.102415274462782,1
694,630,24,0.0662681544276608,1
695,626,24,0.116401806142117,1
695,627,24,0.0935161540215741,1
695,628,24,0.0733187679779913,1
695,629,24,0.0649612988753456,1
696,627,24,0.0631293682738949,1
698,630,24,0.0580161343493928,1
698,631,24,0.0621355575100887,1
699,631,24,0.0570720406599927,1
700,638,24,0.0628185171458863,1
700,639,24,0.0633332607616974,1
700,640,24,0.0608262724198,1
701,637,24,0.0632638243305349,1
701,638,24,0.0701724455389579,1
701,639,24,0.0696157216298605,1
701,640,24,0.066141140305299,1
701,641,24,0.0592275774638133,1
675,648,25,0.0600713701546875,1
675,649,25,0.0571771535589712,1
676,648,25,0.0576689875752013,1
685,668,25,0.0629126794331732,1
685,669,25,0.0676207937975169,1
686,668,25,0.0638138316285839,1
686,669,25,0.0706215503509244,1
686,670,25,0.0733252546085033,1
687,668,25,0.058508139376791,1
687,669,25,0.0699076494875845,1
687,670,25,0.074508156548671,1
688,669,25,0.0661911227418624,1
688,670,25,0.0754380445172499,1
689,669,25,0.0598743299074804,1
689,670,25,0.0769642071502388,1
690,670,25,0.0766513805483925,1
691,625,25,0.0695619592567897,1
691,626,25,0.0708949736208787,1
691,627,25,0.0696242544974522,1
691,628,25,0.0700818921770104,1
691,670,25,0.0727177875579917,1
692,625,25,0.100972034555484,1
692,626,25,0.103527259840643,1
692,627,25,0.0854963965941935,1
692,628,25,0.0793710831955887,1
692,629,25,0.0673346921133801,1
692,670,25,0.0680376246742178,1
693,625,25,0.134323776553081,1
693,626,25,0.147433952656372,1
693,627,25,0.111112548653267,1
693,628,25,0.0948987026550274,1
693,629,25,0.0866360209149725,1
693,630,25,0.0576938077823149,1
694,625,25,0.125901146298474,1
694,626,25,0.148808776302579,1
694,627,25,0.109135258558979,1
694,628,25,0.0848626763809187,1
694,629,25,0.078372808450603,1
694,669,25,0.0585332013583146,1
695,626,25,0.104860757753552,1
695,627,25,0.0789131388753155,1
695,628,25,0.0602856294574356,1
701,639,25,0.0573092449439428,1
684,668,26,0.0604207990434319,1
684,669,26,0.064443158623921,1
685,668,26,0.0658646801128777,1
685,669,26,0.0701469059055511,1
686,668,26,0.0632419702826463,1
686,669,26,0.0721430661976919,1
686,670,26,0.0755579528307325,1
687,669,26,0.06872329100402,1
687,670,26,0.0757815057059232,1
688,669,26,0.0633660300396567,1
688,670,26,0.0760240820993246,1
689,669,26,0.0580712176363134,1
689,670,26,0.0770304238538926,1
690,670,26,0.0760701135882125,1
691,625,26,0.0614126874058318,1
691,626,26,0.0618506529041282,1
691,627,26,0.0589731364335118,1
691,670,26,0.0723228991832318,1
692,625,26,0.0900821966948282,1
692,626,26,0.094653160102401,1
692,627,26,0.0766657808681291,1
692,628,26,0.0623405999005729,1
692,670,26,0.0693879406509633,1
693,625,26,0.121741022479784,1
693,626,26,0.134654936731529,1
693,627,26,0.0971934366526986,1
693,628,26,0.0693840427757193,1
693,629,26,0.0573719942487411,1
693,669,26,0.0592596214185426,1
693,670,26,0.0689089678539575,1
694,625,26,0.109749566056213,1
694,626,26,0.12637167468194,1
694,627,26,0.0893364995481059,1
694,628,26,0.0624239707934626,1
694,669,26,0.0649286947116176,1
695,625,26,0.0707653825371226,1
695,626,26,0.0800914529986301,1
695,627,26,0.0606094007740366,1
683,668,27,0.0606087933895433,1
684,667,27,0.0587285196999676,1
684,668,27,0.0651610163318732,1
684,669,27,0.0686457462847175,1
685,667,27,0.0572811637307627,1
685,668,27,0.06862126809994,1
685,669,27,0.0734913536281682,1
686,668,27,0.0640640622459894,1
686,669,27,0.074742223662228,1
686,670,27,0.0781848671769231,1
687,669,27,0.0703805071610986,1
687,670,27,0.0781687980240638,1
688,669,27,0.0640290285442878,1
688,670,27,0.0771081572751736,1
689,669,27,0.0585373822865264,1
689,670,27,0.0760323555016958,1
690,670,27,0.074411205010264,1
691,670,27,0.0713845373164295,1
692,624,27,0.0582178921460633,1
692,625,27,0.0749659593424604,1
692,626,27,0.0775682009049581,1
692,627,27,0.0635850658612363,1
692,669,27,0.0580848159726412,1
692,670,27,0.0695288892350522,1
693,625,27,0.0970782576825529,1
693,626,27,0.103921729532888,1
693,627,27,0.0766850874393075,1
693,669,27,0.0618696292468442,1
694,625,27,0.0861007087835016,1
694,626,27,0.0933863093695344,1
694,627,27,0.068814587380008,1
695,626,27,0.060769549784441,1
683,667,28,0.059574099162701,1
683,668,28,0.0658668737733782,1
684,667,28,0.0613527037644063,1
684,668,28,0.0688025399380661,1
684,669,28,0.0727382381349149,1
685,667,28,0.0580128792402632,1
685,668,28,0.0697983143818364,1
685,669,28,0.0753902262565028,1
686,668,28,0.0649440739228679,1
686,669,28,0.0757603062180227,1
686,670,28,0.0797866757155555,1
687,669,28,0.0717156208346987,1
687,670,28,0.0800618857573691,1
688,669,28,0.0661669040223053,1
688,670,28,0.0789920104054045,1
689,669,28,0.0619235803218935,1
689,670,28,0.0773045960348242,1
690,669,28,0.0602351457812418,1
690,670,28,0.0757251840622686,1
691,669,28,0.059788222835902,1
691,670,28,0.0736183854413404,1
692,625,28,0.05761593283455,1
692,626,28,0.0588271459684341,1
692,669,28,0.0608391631237084,1
693,625,28,0.0710058006516445,1
693,626,28,0.0733417129591933,1
693,627,28,0.058256027636537,1
693,669,28,0.064620019553299,1
694,625,28,0.0671632917475058,1
694,626,28,0.0687770003046593,1
694,668,28,0.0608771276030141,1
694,669,28,0.0711305621441376,1
695,667,28,0.0569657188889643,1
695,668,28,0.0712101000280883,1
696,667,28,0.0656237194801676,1
682,667,29,0.0594267288144053,1
683,666,29,0.0586040707451266,1
683,667,29,0.064308737948902,1
683,668,29,0.0702543539915139,1
684,667,29,0.0654949126890098,1
684,668,29,0.0728612482371697,1
684,669,29,0.0772686365140404,1
685,667,29,0.0615265336682542,1
685,668,29,0.0724427249395989,1
685,669,29,0.07793569211121,1
686,668,29,0.0682285262101859,1
686,669,29,0.0777108419099169,1
687,668,29,0.0600120056916291,1
687,669,29,0.0737970980088828,1
687,670,29,0.0811888670455865,1
688,669,29,0.0700755293821718,1
688,670,29,0.081202960724608,1
689,669,29,0.0670073590469342,1
689,670,29,0.0790701330245163,1
690,669,29,0.0657963994813337,1
690,670,29,0.0778686970118947,1
691,669,29,0.0642627300477614,1
692,669,29,0.0650000358533759,1
693,668,29,0.0587964583091755,1
693,669,29,0.0695238827356843,1
694,668,29,0.0671951587941302,1
695,667,29,0.0642361112749149,1
674,651,30,0.0642603476852825,1
674,652,30,0.0645597882405267,1
674,653,30,0.0589224581584027,1
675,650,30,0.0646504241595898,1
675,651,30,0.0836680395364611,1
675,652,30,0.0862032506180226,1
675,653,30,0.0729412401852563,1
676,650,30,0.0622369966174227,1
676,651,30,0.0857351989480242,1
676,652,30,0.0880453947140613,1
676,653,30,0.0694348448865019,1
677,651,30,0.0637948316981206,1
677,652,30,0.0648454535513382,1
682,666,30,0.0591528160986942,1
682,667,30,0.0628526545131899,1
683,666,30,0.0617574459206076,1
683,667,30,0.066656680007582,1
683,668,30,0.0720676502725847,1
684,666,30,0.0591119857080896,1
684,667,30,0.0680923895265496,1
684,668,30,0.0749251761273504,1
685,667,30,0.0652064817148255,1
685,668,30,0.0747167429981895,1
685,669,30,0.0788697551110639,1
686,667,30,0.0584254879101945,1
686,668,30,0.0715226612677773,1
686,669,30,0.0781437183517297,1
687,668,30,0.0652863675180491,1
687,669,30,0.0753429092353862,1
688,668,30,0.0612086769792927,1
688,669,30,0.0734514313658353,1
689,668,30,0.0593519851400966,1
689,669,30,0.0724447416919944,1
690,668,30,0.0583523128210823,1
690,669,30,0.0716330814099019,1
691,668,30,0.056976563355793,1
691,669,30,0.0696835599911423,1
692,668,30,0.0594854210266652,1
692,669,30,0.0700121255173854,1
693,668,30,0.0670450640610194,1
694,667,30,0.0653238484485348,1
694,668,30,0.074007624550618,1
695,666,30,0.0616328672331563,1
695,667,30,0.0723458205766865,1
674,650,31,0.0624462494208029,1
674,651,31,0.0795585527143223,1
674,652,31,0.0795865513703868,1
674,653,31,0.0648345560120781,1
675,650,31,0.0795814859016506,1
675,651,31,0.122489567846994,1
675,652,31,0.128181892761987,1
675,653,31,0.0928749682862737,1
675,654,31,0.0585842334496335,1
676,636,31,0.0570297065504967,1
676,650,31,0.0813121955824301,1
676,651,31,0.135360811863844,1
676,652,31,0.142694100978014,1
676,653,31,0.0974023297429322,1
677,650,31,0.0573288227742153,1
677,651,31,0.0913091133714882,1
677,652,31,0.0958191378338692,1
677,653,31,0.0680487227093302,1
681,665,31,0.0569441125124225,1
681,666,31,0.0625706158185283,1
682,665,31,0.0580446401420247,1
682,666,31,0.0631098671038011,1
682,667,31,0.0663630833167354,1
683,666,31,0.0633792155904065,1
683,667,31,0.0680772697805198,1
683,668,31,0.0730093557025691,1
684,666,31,0.0615444662531514,1
684,667,31,0.0699331950179281,1
684,668,31,0.0761286760678621,1
685,667,31,0.0687170225601707,1
685,668,31,0.0767180808008663,1
685,669,31,0.0797885745292145,1
686,667,31,0.0636496903919463,1
686,668,31,0.0747548725917264,1
686,669,31,0.079150360850076,1
687,667,31,0.0580883246500545,1
687,668,31,0.0711330093729216,1
687,669,31,0.077739406671917,1
688,668,31,0.0695828403101015,1
688,669,31,0.0774709545197096,1
689,668,31,0.0687169812816129,1
689,669,31,0.0773540595409466,1
690,668,31,0.0669498403251033,1
690,669,31,0.0762309879218468,1
691,668,31,0.0650341437359954,1
691,669,31,0.0744822336143703,1
692,668,31,0.0677649680060513,1
693,667,31,0.0661938530236143,1
693,668,31,0.0750749465289356,1
694,666,31,0.0633493358114935,1
694,667,31,0.0753617381546815,1
695,665,31,0.0574792477357885,1
695,666,31,0.070108540434541,1
696,665,31,0.0623705091641701,1
674,650,32,0.0680572319891745,1
674,651,32,0.0977336904172323,1
674,652,32,0.100616166211722,1
674,653,32,0.0738480947185807,1
675,650,32,0.091845534127083,1
675,651,32,0.158684966103935,1
675,652,32,0.171047375235677,1
675,653,32,0.111442057689403,1
675,654,32,0.0621401099453208,1
676,650,32,0.0953100493804773,1
676,651,32,0.174566124617088,1
676,652,32,0.190669868907792,1
676,653,32,0.120768877061888,1
676,654,32,0.0609813677553418,1
677,650,32,0.0599546225993452,1
677,651,32,0.104101267671586,1
677,652,32,0.113615715780099,1
677,653,32,0.0762281750829793,1
680,665,32,0.0606218256199355,1
681,664,32,0.0587024847238672,1
681,665,32,0.0630310073675857,1
681,666,32,0.0686130772546844,1
682,664,32,0.0569485293181075,1
682,665,32,0.0625974763657848,1
682,666,32,0.0683336921815958,1
682,667,32,0.071544580181971,1
683,665,32,0.0593702538503931,1
683,666,32,0.0676433613747618,1
683,667,32,0.0728381853172311,1
683,668,32,0.0780776903500544,1
684,666,32,0.066204868501611,1
684,667,32,0.074386915527465,1
684,668,32,0.0808831993250508,1
685,666,32,0.0622120230899515,1
685,667,32,0.073266473942191,1
685,668,32,0.0810472756953833,1
686,667,32,0.0682749233091571,1
686,668,32,0.0789022118513712,1
686,669,32,0.0827575937686078,1
687,667,32,0.0647539448856244,1
687,668,32,0.0773602690154276,1
687,669,32,0.0822090783955765,1
688,667,32,0.0653669078812608,1
688,668,32,0.0789670781564911,1
688,669,32,0.0829944383394113,1
689,667,32,0.0642779500417173,1
689,668,32,0.0783571461863849,1
689,669,32,0.0827177481664536,1
690,667,32,0.0614795291847895,1
690,668,32,0.0751231834721975,1
690,669,32,0.0805000989270123,1
691,667,32,0.0618376265706727,1
691,668,32,0.0737274257002471,1
692,667,32,0.0673285239174568,1
692,668,32,0.0767774098823037,1
693,666,32,0.0624057433617239,1
693,667,32,0.0762362126078774,1
693,668,32,0.0832406708336467,1
694,666,32,0.0713219708166729,1
694,667,32,0.0843725288886218,1
695,665,32,0.0628744201070261,1
695,666,32,0.0750481449510474,1
673,651,33,0.0581668187761865,1
673,652,33,0.0614454802715384,1
674,650,33,0.0695450350480902,1
674,651,33,0.106521830507317,1
674,652,33,0.116190790154625,1
674,653,33,0.0859110279134571,1
674,654,33,0.0583060395577845,1
675,650,33,0.0930922468206783,1
675,651,33,0.165925649722141,1
675,652,33,0.185413657852932,1
675,653,33,0.122819065089257,1
675,654,33,0.067288566273503,1
676,650,33,0.0929347042563524,1
676,651,33,0.170266915646347,1
676,652,33,0.191623226684951,1
676,653,33,0.125391792482925,1
676,654,33,0.0660832736641952,1
677,651,33,0.0954800344815125,1
677,652,33,0.107571131446685,1
677,653,33,0.0761008248352184,1
679,662,33,0.0585192315149665,1
679,663,33,0.0587388688241027,1
679,664,33,0.0579294847596262,1
680,662,33,0.0581916743649211,1
680,663,33,0.0596646466277117,1
680,664,33,0.0609672386946994,1
680,665,33,0.0650642947740025,1
681,663,33,0.0584319332621487,1
681,664,33,0.0624747729042452,1
681,665,33,0.0667709390555825,1
681,666,33,0.0726677579459337,1
682,664,33,0.0604650260696501,1
682,665,33,0.0666763698796544,1
682,666,33,0.0732069679526486,1
682,667,33,0.0765929301105426,1
683,665,33,0.0638058412791805,1
683,666,33,0.0724967821595111,1
683,667,33,0.0781762281644685,1
684,665,33,0.0603975120398939,1
684,666,33,0.0715138748319019,1
684,667,33,0.0788925644627188,1
684,668,33,0.0842957094925492,1
685,665,33,0.0572876621551483,1
685,666,33,0.0696103731081565,1
685,667,33,0.0779539372337592,1
685,668,33,0.0840005206287588,1
686,666,33,0.0675078143848084,1
686,667,33,0.0764611807479071,1
686,668,33,0.0838275870593089,1
687,665,33,0.056994814375279,1
687,666,33,0.0662271707166986,1
687,667,33,0.0766016752678601,1
687,668,33,0.0851539496786547,1
688,665,33,0.0619646878685291,1
688,666,33,0.0690182262995268,1
688,667,33,0.0792692077149294,1
688,668,33,0.0881165648446516,1
688,669,33,0.087705931648558,1
689,664,33,0.0601024234240295,1
689,665,33,0.0715068633740121,1
689,666,33,0.0737325914169094,1
689,667,33,0.0776136603909735,1
689,668,33,0.0857502892093698,1
690,664,33,0.0600913725644118,1
690,665,33,0.0754365938707899,1
690,666,33,0.0758148175020708,1
690,667,33,0.0761687103719948,1
690,668,33,0.0829456529810242,1
691,665,33,0.0637557291100069,1
691,666,33,0.0700705464705512,1
691,667,33,0.0777179359249223,1
691,668,33,0.0849310690542625,1
692,666,33,0.067352082180089,1
692,667,33,0.0817124088911466,1
692,668,33,0.088497772325968,1
693,665,33,0.0586008333268074,1
693,666,33,0.0737572583036654,1
693,667,33,0.0876647120601227,1
694,665,33,0.0659069611499423,1
694,666,33,0.0803497919041756,1
695,664,33,0.0585481795778605,1
695,665,33,0.0688662917221254,1
696,664,33,0.0591284027802217,1
673,651,34,0.0578908185448379,1
673,652,34,0.0640288634300566,1
674,650,34,0.0642503287896098,1
674,651,34,0.0999282885306088,1
674,652,34,0.113542416855314,1
674,653,34,0.0888536288758561,1
674,654,34,0.0599530658080223,1
675,650,34,0.0833521406305269,1
675,651,34,0.143053955651072,1
675,652,34,0.161654934750158,1
675,653,34,0.114820247684556,1
675,654,34,0.0673207104761583,1
676,650,34,0.0774991831563104,1
676,651,34,0.131429206141155,1
676,652,34,0.147917572239599,1
676,653,34,0.105484535731333,1
676,654,34,0.0637680655018534,1
677,651,34,0.0737614864073719,1
677,652,34,0.0827026520081712,1
677,653,34,0.0657405436956886,1
678,663,34,0.0573676246185507,1
679,662,34,0.0601509611110697,1
679,663,34,0.0625454535890786,1
679,664,34,0.0610216379369477,1
680,662,34,0.057764223104991,1
680,663,34,0.0615362872017695,1
680,664,34,0.062773676838238,1
680,665,34,0.0649154855731205,1
681,663,34,0.0587530214724925,1
681,664,34,0.0630818802416102,1
681,665,34,0.0666805626017399,1
681,666,34,0.0733523038577383,1
682,664,34,0.0615896308923254,1
682,665,34,0.0673911611804554,1
682,666,34,0.0754506167865695,1
683,664,34,0.058240259227456,1
683,665,34,0.0659921188146912,1
683,666,34,0.0756146047028496,1
683,667,34,0.0844018071799782,1
684,665,34,0.0651651913631482,1
684,666,34,0.0748758069722173,1
684,667,34,0.0842634355572836,1
685,665,34,0.0667614744719718,1
685,666,34,0.0783203316097609,1
685,667,34,0.0867241978113778,1
685,668,34,0.0882753162810274,1
686,664,34,0.0597989729517414,1
686,665,34,0.0717992040173142,1
686,666,34,0.0898287935254087,1
686,667,34,0.100697319856364,1
686,668,34,0.0949220309371233,1
687,664,34,0.0606645902058201,1
687,665,34,0.0731942777445924,1
687,666,34,0.0951352111004316,1
687,667,34,0.109059942881798,1
687,668,34,0.100679805953981,1
688,664,34,0.0643470267597332,1
688,665,34,0.083923848656107,1
688,666,34,0.100106317053479,1
688,667,34,0.107483762430625,1
688,668,34,0.0988050635911515,1
689,664,34,0.073935410662209,1
689,665,34,0.109407296048779,1
689,666,34,0.117307280792224,1
689,667,34,0.106629402428953,1
689,668,34,0.0939501508813845,1
690,664,34,0.0764247022966823,1
690,665,34,0.119395716351866,1
690,666,34,0.1265451861512,1
690,667,34,0.110033078985082,1
690,668,34,0.0943236864478862,1
691,664,34,0.0579048473575543,1
691,665,34,0.0888940759655668,1
691,666,34,0.101125696935376,1
691,667,34,0.101763875232894,1
691,668,34,0.0959172392749579,1
692,665,34,0.0666420084287513,1
692,666,34,0.0830295663921021,1
692,667,34,0.0947255744866622,1
693,665,34,0.0694737174940792,1
693,666,34,0.0858728452474888,1
693,667,34,0.0955181168995548,1
694,664,34,0.0586884205295298,1
694,665,34,0.073122146413299,1
694,666,34,0.0862494767058258,1
695,664,34,0.0619205198116792,1
695,665,34,0.0714775084224769,1
696,664,34,0.0605182989969641,1
674,650,35,0.0572459177393352,1
674,651,35,0.0831915316590499,1
674,652,35,0.0947617580910455,1
674,653,35,0.0805804446913086,1
674,654,35,0.0584712304491777,1
675,650,35,0.0690229084673691,1
675,651,35,0.106328528918059,1
675,652,35,0.118225410268765,1
675,653,35,0.093051717173852,1
675,654,35,0.0629390682254834,1
676,650,35,0.0603773504128752,1
676,651,35,0.088971426085954,1
676,652,35,0.097737670849592,1
676,653,35,0.0791933141379391,1
676,654,35,0.0579250325723203,1
677,652,35,0.0576068102732754,1
678,663,35,0.0580881949174443,1
679,662,35,0.057375898020922,1
679,663,35,0.0613905385111018,1
679,664,35,0.06140923180085,1
680,663,35,0.0602791841054814,1
680,664,35,0.0626375755362226,1
680,665,35,0.0639282204091946,1
681,663,35,0.0578092462176811,1
681,664,35,0.0624734814750796,1
681,665,35,0.0658746282453084,1
681,666,35,0.0721817383094171,1
682,664,35,0.0622743714030454,1
682,665,35,0.0677053440777724,1
682,666,35,0.0759203490835641,1
683,664,35,0.0606239072386362,1
683,665,35,0.0668411243977223,1
683,666,35,0.0757408935019813,1
683,667,35,0.0874915131285156,1
684,625,35,0.0636039360590894,1
684,664,35,0.0661089666179595,1
684,665,35,0.0721319091932113,1
684,666,35,0.0776000384668983,1
684,667,35,0.0881132094875958,1
685,663,35,0.0626180861600025,1
685,664,35,0.0809787709802398,1
685,665,35,0.0878291304527913,1
685,666,35,0.0986513953143223,1
685,667,35,0.109416919849684,1
686,663,35,0.0719542580742982,1
686,664,35,0.0900910185123246,1
686,665,35,0.10628752161935,1
686,666,35,0.147765549208145,1
686,667,35,0.173508119798961,1
686,668,35,0.134748226272165,1
687,663,35,0.0680685541078864,1
687,664,35,0.0839604568399419,1
687,665,35,0.10885583810427,1
687,668,35,0.153083442222238,1
688,663,35,0.0572995562767326,1
688,664,35,0.081133370973088,1
688,665,35,0.119841430425156,1
688,668,35,0.133262846854286,1
689,664,35,0.0930089702787779,1
689,665,35,0.161034765697717,1
689,668,35,0.130227540147997,1
690,664,35,0.0916394951542747,1
690,665,35,0.17146102176649,1
690,668,35,0.139716820130123,1
691,664,35,0.0689449332716781,1
691,665,35,0.121551424166855,1
691,667,35,0.158744419021046,1
692,664,35,0.0597774019568206,1
692,665,35,0.0873192105313065,1
692,666,35,0.10657387687177,1
692,667,35,0.110328562695713,1
693,664,35,0.0611949489103546,1
693,665,35,0.0833112925491118,1
693,666,35,0.0977874115117453,1
694,664,35,0.0623781221096164,1
694,665,35,0.076715397694609,1
695,664,35,0.0642882991658523,1
674,651,36,0.0629871931269456,1
674,652,36,0.0689534366545857,1
674,653,36,0.0634638307369671,1
675,651,36,0.072074231254086,1
675,652,36,0.0766248620234721,1
675,653,36,0.0677324463994389,1
676,651,36,0.0580798330610207,1
676,652,36,0.0613462112369575,1
676,653,36,0.057261727426974,1
679,663,36,0.059461137440803,1
680,663,36,0.0583547187713086,1
680,664,36,0.0619814292721868,1
681,663,36,0.0568819823859912,1
681,664,36,0.0619589088704366,1
681,665,36,0.0661732255385861,1
682,664,36,0.0622058195124073,1
682,665,36,0.0678529444066045,1
682,666,36,0.0757136791385151,1
683,664,36,0.0598440609307367,1
683,665,36,0.0653329120404411,1
683,666,36,0.0738283871556979,1
683,667,36,0.0882699854501339,1
684,664,36,0.0765009202051983,1
684,665,36,0.078215336649519,1
684,666,36,0.0780700597137976,1
684,667,36,0.0879826925847576,1
685,663,36,0.0760847438884854,1
685,664,36,0.115361480340603,1
685,665,36,0.115816063406884,1
685,666,36,0.122493589557912,1
685,667,36,0.13444015849834,1
685,668,36,0.111489174214667,1
686,663,36,0.0882639528837578,1
686,664,36,0.132834823591484,1
686,668,36,0.179563943693971,1
687,663,36,0.0732903329486014,1
687,664,36,0.114904491324096,1
688,663,36,0.0585693967565715,1
688,664,36,0.104957054731971,1
689,664,36,0.110937397835569,1
690,664,36,0.0960880204624651,1
691,664,36,0.0728495664053113,1
692,664,36,0.0674364142736818,1
692,665,36,0.113139042788457,1
693,664,36,0.0666884468062803,1
693,665,36,0.0958692146214218,1
694,664,36,0.0652704222008633,1
694,665,36,0.0776669038336033,1
695,663,36,0.0605521945898577,1
695,664,36,0.0676925182401691,1
696,663,36,0.0611778359996766,1
680,664,37,0.0602024118849035,1
681,664,37,0.0605448234188213,1
681,665,37,0.0648268428187056,1
682,664,37,0.0607825466332123,1
682,665,37,0.0659146743433148,1
682,666,37,0.0739096115635818,1
683,664,37,0.0599499227406924,1
683,665,37,0.0647235874548283,1
683,666,37,0.0731396662126183,1
684,663,37,0.0624631146601341,1
684,664,37,0.0949227090848586,1
684,665,37,0.0938352195825856,1
684,666,37,0.085387244293487,1
685,663,37,0.0918238923689203,1
685,664,37,0.157706451994264,1
685,667,37,0.145323710224336,1
686,663,37,0.104506115972651,1
687,663,37,0.0789717780151439,1
688,663,37,0.065093018753297,1
691,664,37,0.0783183679297968,1
692,664,37,0.0773906972094657,1
692,665,37,0.144369916073852,1
693,664,37,0.0730668272489054,1
693,665,37,0.103890239890221,1
694,663,37,0.0598732566649775,1
694,664,37,0.0701989345791941,1
695,663,37,0.0639964715560544,1
681,664,38,0.0588856258909682,1
682,664,38,0.0587129340959283,1
682,665,38,0.0631631400311151,1
683,664,38,0.0600806224485723,1
683,665,38,0.0646399453028445,1
684,663,38,0.0663011477892195,1
684,664,38,0.105219126398529,1
684,665,38,0.105705977503139,1
684,666,38,0.0895670933658706,1
685,663,38,0.102344192786244,1
685,667,38,0.137203663592303,1
688,663,38,0.0754652470868424,1
689,663,38,0.0604859012260251,1
692,663,38,0.059741336291174,1
692,664,38,0.0874667577877071,1
693,663,38,0.0665488368268517,1
693,664,38,0.081213899542426,1
694,663,38,0.0668623769580543,1
694,664,38,0.0746774399142236,1
695,662,38,0.0569995908941105,1
695,663,38,0.0674052371686664,1
696,662,38,0.0591663377748433,1
682,664,39,0.0586398238731213,1
683,630,39,0.059987061648842,1
683,664,39,0.0651647726806333,1
683,665,39,0.0698515401336557,1
684,663,39,0.0667360940558594,1
684,664,39,0.103937026187023,1
684,665,39,0.10912391285252,1
685,663,39,0.0998362963160751,1
688,663,39,0.0955325408070387,1
689,663,39,0.0811330702293097,1
690,662,39,0.0598647827667541,1
690,663,39,0.0812437970121495,1
691,662,39,0.0606070596901155,1
691,663,39,0.0811503718419662,1
692,662,39,0.0604062513002746,1
692,663,39,0.0828728317081218,1
692,664,39,0.103452262598051,1
693,662,39,0.0615202298427839,1
693,663,39,0.0837994350828869,1
693,664,39,0.0931932790393711,1
694,662,39,0.0614081998369049,1
694,663,39,0.0779964718391074,1
695,662,39,0.0636518250830784,1
683,630,40,0.0623895621670648,1
683,664,40,0.0671763770503296,1
684,663,40,0.0655707590905055,1
684,664,40,0.0930083982759055,1
684,665,40,0.10071084742945,1
685,663,40,0.0894052932131541,1
685,664,40,0.159536990918623,1
686,663,40,0.115024222729474,1
689,662,40,0.0756022506201926,1
689,663,40,0.115736301439334,1
690,662,40,0.098187966842798,1
691,662,40,0.102972263734037,1
692,662,40,0.0839331835071074,1
692,663,40,0.133172977537011,1
693,662,40,0.069396438136934,1
693,663,40,0.0984299358517059,1
694,662,40,0.0674969345363588,1
683,663,41,0.0584514698138634,1
683,664,41,0.0674042405863423,1
684,663,41,0.0642845428170922,1
684,664,41,0.0825114379345512,1
685,663,41,0.0784793484082941,1
685,664,41,0.128003168400571,1
686,663,41,0.104949459477335,1
688,662,41,0.0617603766982117,1
689,662,41,0.0942293413555576,1
692,662,41,0.111983195994461,1
693,662,41,0.0829511430292121,1
694,661,41,0.0599697246545645,1
694,662,41,0.0762590278564691,1
695,661,41,0.0611123446192527,1
683,663,42,0.0607897173083965,1
683,664,42,0.0677904014945952,1
684,663,42,0.0643089561355646,1
684,664,42,0.0759676720016176,1
685,663,42,0.0750410568329788,1
685,664,42,0.109320622871265,1
686,663,42,0.0981764560221076,1
686,664,42,0.182996444477321,1
687,663,42,0.121884966707782,1
688,662,42,0.0640697940685873,1
689,662,42,0.101472425027053,1
691,661,42,0.0644053002894783,1
692,661,42,0.073089854787223,1
693,661,42,0.0762191586665677,1
693,662,42,0.119867683587919,1
694,661,42,0.070967730027476,1
695,660,42,0.0575985191800937,1
696,658,42,0.056999024788175,1
696,659,42,0.0569032113585759,1
683,663,43,0.0607303115667803,1
684,663,43,0.0636117671911984,1
684,664,43,0.0730439412370717,1
685,663,43,0.0733350848021974,1
685,664,43,0.0987793529465767,1
686,663,43,0.0919528347896251,1
686,664,43,0.152847694481684,1
687,663,43,0.115701627450779,1
688,662,43,0.0701354363634185,1
690,661,43,0.0582950122859141,1
693,660,43,0.0582531499313644,1
693,661,43,0.0925124010222741,1
694,658,43,0.0576176075646094,1
694,659,43,0.0613078044873897,1
694,660,43,0.0639642330024098,1
694,661,43,0.0785421507855239,1
695,657,43,0.0624759994671056,1
695,658,43,0.0893077696718746,1
695,659,43,0.0812791668392503,1
695,660,43,0.0649419805102936,1
696,657,43,0.0719025006597493,1
696,658,43,0.0996274150197151,1
696,659,43,0.0843334911668132,1
697,657,43,0.0592905154705902,1
697,658,43,0.0767483438806732,1
683,663,44,0.059105516768388,1
684,663,44,0.0625411842068143,1
685,663,44,0.0715057606468251,1
686,663,44,0.0860829354158987,1
686,664,44,0.126450280849872,1
687,662,44,0.057687179625319,1
687,663,44,0.110627242546107,1
688,662,44,0.075571256320219,1
690,661,44,0.0610991177899451,1
693,660,44,0.0636364340779545,1
694,658,44,0.0859366560009163,1
694,659,44,0.079627464318107,1
694,660,44,0.0705191795275714,1
694,661,44,0.0810222137138597,1
695,657,44,0.0997853821634927,1
695,658,44,0.159500441704156,1
695,659,44,0.12524109036532,1
695,660,44,0.0741186992527307,1
696,657,44,0.111067012507073,1
696,658,44,0.170619811933947,1
696,659,44,0.128702108735175,1
697,657,44,0.075291299244258,1
697,658,44,0.104154068843954,1
684,663,45,0.0632393166610732,1
685,663,45,0.0716560263911039,1
686,662,45,0.0582123549223807,1
686,663,45,0.0869205422200391,1
687,662,45,0.0634736550337243,1
687,663,45,0.118208828082402,1
688,662,45,0.0822921721324352,1
690,661,45,0.0658951967609683,1
692,660,45,0.0574670646642997,1
693,660,45,0.0697607508942351,1
694,657,45,0.0653140595333985,1
694,658,45,0.109202141616495,1
694,659,45,0.0927940976945996,1
694,660,45,0.0788315311665377,1
695,657,45,0.128844071592398,1
695,658,45,0.215362879094019,1
695,659,45,0.157453143175834,1
696,656,45,0.0587615307523369,1
696,657,45,0.139797218966851,1
696,658,45,0.222940372156155,1
697,656,45,0.0620144462214929,1
697,657,45,0.0885482501052249,1
698,656,45,0.0587460925717183,1
685,663,46,0.0722772215105537,1
686,662,46,0.0630583632575358,1
686,663,46,0.0928091820590084,1
687,662,46,0.0720141591586081,1
690,661,46,0.0688234917546199,1
692,660,46,0.06186887443893,1
693,659,46,0.05723967878017,1
693,660,46,0.0736109081254411,1
694,657,46,0.0670183863188046,1
694,658,46,0.112995452376668,1
694,659,46,0.0948076716411968,1
694,660,46,0.0838377533784023,1
695,657,46,0.133604727663889,1
695,658,46,0.223033614521297,1
695,659,46,0.16265247237804,1
696,656,46,0.0652757648256304,1
696,657,46,0.141650472891876,1
696,658,46,0.223992196984486,1
697,656,46,0.0715393672898141,1
697,657,46,0.0936735019869847,1
698,656,46,0.068644832259509,1
685,662,47,0.0588600980514351,1
685,663,47,0.0739900693696778,1
686,662,47,0.0686177535255898,1
686,663,47,0.102015037566318,1
687,662,47,0.0834785591622689,1
689,661,47,0.0575954527729425,1
690,661,47,0.0757899972949571,1
692,660,47,0.0658130937094969,1
693,659,47,0.0608334961674156,1
693,660,47,0.0781774429334553,1
694,657,47,0.0651908489352915,1
694,658,47,0.104435682959164,1
694,659,47,0.0947545933127982,1
694,660,47,0.0904807175826748,1
695,657,47,0.119161808455604,1
695,658,47,0.187730375631102,1
695,659,47,0.148651882401304,1
696,656,47,0.0677836377080522,1
696,657,47,0.124807134784068,1
696,658,47,0.183390006041294,1
697,655,47,0.0581410373683698,1
697,656,47,0.0775315042670707,1
697,657,47,0.0946913250775589,1
698,655,47,0.0611505154913474,1
698,656,47,0.0753789572102224,1
685,662,48,0.0599642935757449,1
686,662,48,0.0708681071766853,1
687,662,48,0.0878203676046633,1
689,661,48,0.0636358679720189,1
690,661,48,0.0820464703625144,1
691,660,48,0.0582170665749072,1
692,660,48,0.0670985728658066,1
693,659,48,0.0615443719021622,1
693,660,48,0.0797076272773616,1
693,661,48,0.102268688407085,1
694,658,48,0.0853599827545262,1
694,659,48,0.0898529886572184,1
694,660,48,0.094330043345788,1
695,657,48,0.0898529886572184,1
695,658,48,0.132777493571631,1
695,659,48,0.122978247002021,1
696,656,48,0.0620444793207635,1
696,657,48,0.096611603586583,1
696,658,48,0.128710942346545,1
697,656,48,0.0741416737186169,1
697,657,48,0.0866114896577635,1
698,655,48,0.0623041686248428,1
698,656,48,0.0748058398167402,1
684,662,49,0.0574337351773416,1
685,662,49,0.0610158707327288,1
686,662,49,0.0703486872899688,1
687,662,49,0.0851250369973817,1
688,662,49,0.0947212284442192,1
689,661,49,0.0661273945455504,1
690,661,49,0.0849721530131507,1
691,660,49,0.061834512988027,1
692,660,49,0.0681022727926751,1
692,661,49,0.0997638819318139,1
693,659,49,0.0592445960235021,1
693,660,49,0.0794455143322455,1
694,658,49,0.0666337350263801,1
694,659,49,0.0805556421750054,1
694,660,49,0.0940148992477679,1
695,657,49,0.0635071142532926,1
695,658,49,0.0885126502975877,1
695,659,49,0.0974379000658853,1
696,657,49,0.0721744673863068,1
696,658,49,0.0885730231368439,1
697,656,49,0.0659225408570448,1
697,657,49,0.0746553912674197,1
697,658,49,0.0803083128505198,1
698,655,49,0.0608095722947,1
698,656,49,0.0701573257929281,1
698,657,49,0.071891951039762,1
699,655,49,0.0573071161497475,1
685,662,50,0.0602342494468437,1
686,662,50,0.0671598420394608,1
687,662,50,0.0782348260257391,1
688,662,50,0.0859637701164565,1
689,661,50,0.0676173912649665,1
689,662,50,0.0984372716411213,1
690,661,50,0.0841350533455776,1
690,662,50,0.112294117885711,1
691,660,50,0.0621348262899219,1
691,661,50,0.0978833369831441,1
692,660,50,0.067389209294365,1
692,661,50,0.0934181646222852,1
693,659,50,0.0578467625297878,1
693,660,50,0.0784743537027999,1
693,661,50,0.0929271561772112,1
694,659,50,0.0741153969681064,1
694,660,50,0.0925281753282919,1
695,658,50,0.0664815350868213,1
695,659,50,0.0834642472965847,1
696,657,50,0.0595031590126471,1
696,658,50,0.0711001044654153,1
696,659,50,0.08061244736748,1
697,656,50,0.0591768107346517,1
697,657,50,0.067292499530368,1
697,658,50,0.0732147813939472,1
698,656,50,0.0660258905719114,1
698,657,50,0.0725331544658729,1
699,656,50,0.0640191452781623,1
685,662,51,0.0596642574298809,1
686,662,51,0.0648816725373425,1
687,662,51,0.071635805794717,1
688,662,51,0.0780670758637621,1
689,661,51,0.0663487950387985,1
689,662,51,0.0893467955998095,1
690,661,51,0.0818702698900613,1
690,662,51,0.101883476905661,1
691,660,51,0.0629453130815854,1
691,661,51,0.0920047691122789,1
691,662,51,0.105077717853368,1
692,660,51,0.0686467192792943,1
692,661,51,0.0894178772763474,1
693,659,51,0.0572612969505855,1
693,660,51,0.0785136155082079,1
693,661,51,0.0895106537834794,1
694,659,51,0.069277025166145,1
694,660,51,0.0896104889239958,1
694,661,51,0.0937993662066647,1
695,659,51,0.0754296060006474,1
695,660,51,0.0922553299581469,1
696,658,51,0.0631409439608904,1
696,659,51,0.0745332539118156,1
697,657,51,0.0633448659333771,1
697,658,51,0.0702233361037929,1
698,656,51,0.0668134854548043,1
698,657,51,0.0855344967030462,1
699,656,51,0.0710655307247864,1
680,655,52,0.0607188007460899,1
680,656,52,0.063030653551376,1
681,655,52,0.0584481793231128,1
681,656,52,0.0616127881632533,1
686,662,52,0.0649332648376602,1
687,662,52,0.0687565910062939,1
689,661,52,0.0641329974375215,1
690,661,52,0.0770871111076306,1
690,662,52,0.0927063217898987,1
691,660,52,0.0614245225580478,1
691,661,52,0.0844993484120681,1
691,662,52,0.0932705937781372,1
692,660,52,0.0670648718718283,1
692,661,52,0.0835278752449705,1
692,662,52,0.0855765123779535,1
693,660,52,0.0748588237941495,1
693,661,52,0.0841321697434682,1
694,659,52,0.0631018944452082,1
694,660,52,0.0826768529095439,1
695,659,52,0.0682896125787984,1
695,660,52,0.0836603263430887,1
696,658,52,0.0575776027451609,1
696,659,52,0.068228520313249,1
697,657,52,0.0643411475137146,1
697,658,52,0.0725295927160281,1
698,656,52,0.0706138607452992,1
698,657,52,0.111167873714598,1
699,656,52,0.0839667134899176,1
679,654,53,0.0603674848375601,1
679,655,53,0.0615078934509374,1
680,654,53,0.0583748391197694,1
680,655,53,0.0694262471526051,1
680,656,53,0.0679104100560039,1
681,655,53,0.0596737573951126,1
681,656,53,0.0639262862139146,1
689,661,53,0.0603872395759376,1
690,661,53,0.0709362934572401,1
691,660,53,0.0597945266613723,1
691,661,53,0.0774661956916885,1
691,662,53,0.0835477066435268,1
692,660,53,0.0647299148680459,1
692,661,53,0.0779574871897303,1
693,660,53,0.0693253151818384,1
694,659,53,0.05707968898706,1
694,660,53,0.0739510493386798,1
695,659,53,0.0614148515816481,1
696,659,53,0.0639800073084276,1
697,657,53,0.072686445338745,1
697,658,53,0.0835983023615203,1
698,656,53,0.0776894065445431,1
698,657,53,0.140117917979364,1
699,656,53,0.0998100195655647,1
678,654,54,0.0586720624267659,1
679,653,54,0.0587819282568287,1
679,654,54,0.0771265085425858,1
679,655,54,0.0738880228778505,1
679,656,54,0.0595559719788884,1
680,654,54,0.0705363219229335,1
680,655,54,0.0758695410758447,1
680,656,54,0.0702061052543783,1
680,657,54,0.0573238398625948,1
681,655,54,0.0606370161292073,1
681,656,54,0.0640914358267501,1
689,661,54,0.0589560353167075,1
690,661,54,0.067572037923814,1
691,660,54,0.0594167217126063,1
691,661,54,0.0748636769731599,1
691,662,54,0.0808089038179411,1
692,660,54,0.0633030035788274,1
692,661,54,0.0756577643835017,1
693,660,54,0.0648092758438918,1
697,657,54,0.0800794763199302,1
697,658,54,0.0939495788785121,1
698,656,54,0.0892361336832749,1
698,657,54,0.160006776288049,1
698,658,54,0.189236075893294,1
699,655,54,0.0698417748062668,1
699,656,54,0.127570156329211,1
699,657,54,0.225689028763182,1
700,655,54,0.0777522502003307,1
701,649,54,0.0580015217399304,1
678,654,55,0.05871480932184,1
679,653,55,0.0595027344331954,1
679,654,55,0.0787748616036102,1
679,655,55,0.0746684942610539,1
679,656,55,0.0595060779963775,1
680,654,55,0.0709192690006145,1
680,655,55,0.0727480388439249,1
680,656,55,0.0660530459660093,1
680,657,55,0.0582697321177278,1
681,655,55,0.0577184215966395,1
681,656,55,0.0606635995204328,1
681,657,55,0.0587654875969492,1
689,661,55,0.058662538873787,1
690,661,55,0.0673906186622671,1
691,660,55,0.0614032582038421,1
691,661,55,0.0758155192375534,1
692,660,55,0.0656529446990925,1
693,660,55,0.0649200969777208,1
697,656,55,0.0578264416854748,1
697,657,55,0.0813536510483386,1
697,658,55,0.0971483899522612,1
698,655,55,0.0622133027252434,1
698,656,55,0.10452510410924,1
698,657,55,0.157465184720839,1
699,655,55,0.0981615544627405,1
699,656,55,0.174172067710421,1
700,655,55,0.109908618236367,1
701,649,55,0.0644569338683538,1
701,650,55,0.060500773300708,1
679,654,56,0.0704233012316672,1
679,655,56,0.0689066975332783,1
679,656,56,0.0571626647851821,1
680,654,56,0.0682873304642456,1
680,655,56,0.0695549301080894,1
680,656,56,0.0625581084155138,1
680,657,56,0.0606414624195764,1
680,658,56,0.0578493748728031,1
681,655,56,0.0574770540752881,1
681,656,56,0.0599881643760291,1
681,657,56,0.0648892501011678,1
681,658,56,0.0605095597365834,1
689,661,56,0.0592001095320634,1
690,661,56,0.0674474651332996,1
691,660,56,0.0620068391729834,1
691,661,56,0.0791823694231843,1
692,660,56,0.0666735452469132,1
693,660,56,0.0658987231291921,1
694,660,56,0.0627757879416228,1
697,657,56,0.0715068869617595,1
697,658,56,0.0884960622142875,1
698,655,56,0.0668014674975466,1
698,656,56,0.113616918755212,1
698,657,56,0.136702824953535,1
699,655,56,0.127906269934595,1
699,656,56,0.227792088726161,1
700,655,56,0.146823006413131,1
701,649,56,0.0615767048067961,1
701,650,56,0.0606745088535666,1
679,650,57,0.060818576917238,1
679,651,57,0.0582463448662636,1
679,654,57,0.0650623546817857,1
679,655,57,0.0648716713324803,1
680,654,57,0.0666145994663697,1
680,655,57,0.0671688938374934,1
680,656,57,0.0612863868128264,1
680,657,57,0.061220983886455,1
680,658,57,0.0611788738605585,1
681,655,57,0.0571966606260018,1
681,656,57,0.0593083478075613,1
681,657,57,0.0672038803637004,1
681,658,57,0.0660902438435272,1
682,657,57,0.0581532027490482,1
689,661,57,0.060998993699524,1
690,661,57,0.0693589807941957,1
691,660,57,0.065003344034937,1
691,661,57,0.0937827545356172,1
692,660,57,0.0763938200385084,1
697,657,57,0.0628033325335514,1
697,658,57,0.0781982473265883,1
698,655,57,0.0685847306793469,1
698,656,57,0.113693225117781,1
698,657,57,0.112404414192163,1
699,655,57,0.137308110137419,1
699,656,57,0.245406474912119,1
679,650,58,0.0606625144840562,1
679,654,58,0.0625878643587534,1
679,655,58,0.0630147907913057,1
679,656,58,0.0570907162589304,1
680,654,58,0.0651049659473127,1
680,655,58,0.0650700501843477,1
680,656,58,0.0605170488463563,1
680,657,58,0.0590897129776861,1
680,658,58,0.0583900414229148,1
681,631,58,0.0729553397612146,1
681,632,58,0.0642943612169126,1
681,657,58,0.0634107642024421,1
681,658,58,0.0637695043544397,1
682,631,58,0.0651858365389868,1
682,632,58,0.0586413806644442,1
686,661,58,0.0579928119642338,1
688,661,58,0.057632839352439,1
689,661,58,0.0647752800030721,1
690,660,58,0.0576821259504565,1
690,661,58,0.0719485321486372,1
691,660,58,0.0670620000635926,1
691,661,58,0.110770219676465,1
692,660,58,0.0891546380162969,1
698,655,58,0.0648722197476054,1
698,656,58,0.102970600797851,1
699,654,58,0.0575016384049286,1
699,655,58,0.126155811412375,1
700,654,58,0.0670472341337725,1
701,652,58,0.058797065693669,1
679,654,59,0.0595897850146664,1
679,655,59,0.0613710786195658,1
679,656,59,0.0575394672546872,1
680,631,59,0.060373181278537,1
680,654,59,0.0611624567884263,1
680,655,59,0.0623153374231971,1
680,656,59,0.0591809798689899,1
681,630,59,0.059086646570535,1
681,631,59,0.082520206679616,1
681,632,59,0.0753433809903325,1
682,631,59,0.075242201348219,1
682,632,59,0.0706085240174689,1
689,660,59,0.060504706557573,1
689,661,59,0.0732499271374485,1
690,660,59,0.0637521083907939,1
690,661,59,0.079266530505609,1
691,660,59,0.0745971354284851,1
698,655,59,0.0635641376324299,1
698,656,59,0.0899829925265525,1
699,654,59,0.0618894960270214,1
699,655,59,0.105045827218996,1
700,654,59,0.0686712741242506,1
701,652,59,0.05846017958956,1
679,655,60,0.058070504106957,1
680,631,60,0.0596876623721556,1
680,655,60,0.057640186935728,1
681,630,60,0.0578086919056192,1
681,631,60,0.0808421271600362,1
681,632,60,0.0746449831739163,1
682,631,60,0.0733075166225214,1
682,632,60,0.070200904156095,1
686,660,60,0.05800671104434,1
687,660,60,0.0665945793658349,1
688,660,60,0.0721450357745928,1
689,660,60,0.0733016019948818,1
690,660,60,0.0704519013752883,1
698,655,60,0.059341860099561,1
699,654,60,0.0634234779982456,1
700,653,60,0.0586915046274914,1
700,654,60,0.0655394286651326,1
701,652,60,0.0570688327263577,1
702,652,60,0.058476325402598,1
681,631,61,0.0640033650752077,1
681,632,61,0.0579925053235187,1
682,631,61,0.0575354514407066,1
687,659,61,0.0587936690580554,1
687,660,61,0.0893047268524708,1
688,659,61,0.0651029020194225,1
688,660,61,0.0990069982959268,1
689,659,61,0.0643641868459059,1
689,660,61,0.0892003805552801,1
690,659,61,0.0604640471781365,1
690,660,61,0.0788215712402334,1
691,659,61,0.0604762007649412,1
699,653,61,0.0592853379600542,1
699,654,61,0.0627724089968197,1
700,653,61,0.0572010184623185,1
708,631,61,0.0571751191157652,1
687,659,62,0.0685935642907169,1
688,659,62,0.0777141618853517,1
689,659,62,0.0694281518632009,1
690,659,62,0.0619409468008552,1
696,653,62,0.0639702183932913,1
697,652,62,0.0670598358877763,1
697,653,62,0.0860835545942657,1
697,654,62,0.0690262048550566,1
698,652,62,0.0630696323038162,1
698,653,62,0.0799938763849192,1
698,654,62,0.0687530115656386,1
699,653,62,0.0607949655821744,1
699,654,62,0.0603164291584939,1
681,641,63,0.0590188671786214,1
682,641,63,0.0601508844508909,1
691,658,63,0.0572085665414598,1
696,652,63,0.0728873539765121,1
696,653,63,0.10138798089166,1
696,654,63,0.0720477127291656,1
697,652,63,0.108734196091359,1
697,653,63,0.150707365877946,1
697,654,63,0.106376058228902,1
698,652,63,0.0878125069878701,1
698,653,63,0.121450621928698,1
698,654,63,0.0921079890945353,1
699,653,63,0.0661317052063725,1
699,654,63,0.0627701268822669,1
703,650,63,0.0599885889554808,1
703,651,63,0.0837571894274433,1
704,650,63,0.0768925652647022,1
680,641,64,0.0583358839550765,1
681,640,64,0.0748942702814292,1
681,641,64,0.0891673871937214,1
681,642,64,0.0674318736323234,1
682,640,64,0.0757410939978335,1
682,641,64,0.0926345678625623,1
682,642,64,0.0695558618241084,1
683,641,64,0.0573964488457713,1
688,658,64,0.057254586236474,1
689,658,64,0.0585679696978589,1
696,652,64,0.0941117269505015,1
696,653,64,0.140042460775699,1
696,654,64,0.0914624809045392,1
697,652,64,0.157771094215784,1
697,653,64,0.23430787369384,1
697,654,64,0.15637119679418,1
697,655,64,0.0623046993491574,1
698,652,64,0.11762144599873,1
698,653,64,0.179165924045755,1
698,654,64,0.125842047197573,1
699,652,64,0.0572548515986313,1
699,653,64,0.0790679393640158,1
699,654,64,0.0690478525101562,1
703,650,64,0.0768201037049463,1
703,651,64,0.130639559124245,1
704,650,64,0.10636315573112,1
680,640,65,0.0703510460647004,1
680,641,65,0.079361070196853,1
680,642,65,0.0631051259665905,1
681,639,65,0.0602993221447527,1
681,640,65,0.109816920868674,1
681,641,65,0.127844080838795,1
681,642,65,0.0938114608241012,1
682,639,65,0.0580375166423351,1
682,640,65,0.110637432452947,1
682,641,65,0.135362404036788,1
682,642,65,0.101373556984176,1
683,640,65,0.0673969106938638,1
683,641,65,0.086074331785065,1
683,642,65,0.0692573529848832,1
696,652,65,0.106066763892216,1
696,653,65,0.160892991542472,1
696,654,65,0.106233741555469,1
697,651,65,0.0604165768366623,1
697,652,65,0.188578885871439,1
697,653,65,0.290547219698071,1
697,654,65,0.196799168635693,1
697,655,65,0.0773575918061072,1
698,652,65,0.14166937847135,1
698,653,65,0.227473512610906,1
698,654,65,0.161196318179086,1
699,652,65,0.0677678103296029,1
699,653,65,0.100144835844847,1
703,650,65,0.085823983228923,1
680,640,66,0.0819188842372803,1
680,641,66,0.0965257147016674,1
680,642,66,0.0783019921362225,1
681,639,66,0.0683274355316202,1
681,640,66,0.132322261842299,1
681,641,66,0.157390954080034,1
681,642,66,0.121367310005177,1
681,643,66,0.0672650905679864,1
682,639,66,0.0675535923054126,1
682,640,66,0.134014317102164,1
682,641,66,0.168182572560864,1
682,642,66,0.134821383670467,1
682,643,66,0.0728134594611068,1
683,640,66,0.0857996170859452,1
683,641,66,0.1131887657598,1
683,642,66,0.0968665399595782,1
690,656,66,0.0589267216437301,1
690,657,66,0.0617826081500573,1
691,656,66,0.0680992240763345,1
691,657,66,0.0710407517962305,1
692,656,66,0.0683090311917766,1
692,657,66,0.0706287446138558,1
696,652,66,0.106641927522778,1
696,653,66,0.156678745637564,1
696,654,66,0.111872994038999,1
696,655,66,0.0587327301128636,1
697,651,66,0.0678645908568419,1
697,652,66,0.188823195964269,1
697,653,66,0.29129582403465,1
697,654,66,0.210098872288671,1
697,655,66,0.0903722611205142,1
698,651,66,0.0572234798947005,1
698,652,66,0.153908718531468,1
698,653,66,0.249050805460243,1
698,654,66,0.18962090999076,1
699,652,66,0.0803641981208491,1
699,653,66,0.123048821541991,1
680,640,67,0.0825468313493994,1
680,641,67,0.0994328986614708,1
680,642,67,0.0830556603375708,1
681,639,67,0.0675420932785959,1
681,640,67,0.13240724849588,1
681,641,67,0.160065639511477,1
681,642,67,0.129345122520892,1
681,643,67,0.0721971587992252,1
682,639,67,0.0687077466785385,1
682,640,67,0.137928750944807,1
682,641,67,0.173960096419163,1
682,642,67,0.146626897881943,1
682,643,67,0.0792520004532622,1
683,640,67,0.0956495419306647,1
683,641,67,0.125001026067008,1
683,642,67,0.110944191106797,1
683,643,67,0.0635255303870098,1
690,656,67,0.0673957843789294,1
690,657,67,0.0675248919138655,1
691,655,67,0.0622328746585792,1
691,656,67,0.0945582371102632,1
691,657,67,0.0934059815507963,1
692,655,67,0.0655872764105638,1
692,656,67,0.100925165701566,1
692,657,67,0.0978192844553065,1
693,656,67,0.0731645807707211,1
696,652,67,0.0923213402690116,1
696,653,67,0.127187280014772,1
696,654,67,0.102881922661815,1
696,655,67,0.063969021315115,1
697,651,67,0.0657357848676676,1
697,652,67,0.153476933022969,1
697,653,67,0.23135313093851,1
697,654,67,0.186627046956506,1
697,655,67,0.0959756366403764,1
698,651,67,0.060305348814192,1
698,652,67,0.139576602766201,1
698,653,67,0.222306781675491,1
698,654,67,0.19215037745585,1
699,652,67,0.0851444261256757,1
699,653,67,0.129316958750597,1
680,641,68,0.0897875621430997,1
681,640,68,0.112688788073809,1
681,641,68,0.139523542128613,1
681,642,68,0.115674336427134,1
681,643,68,0.0646247783813201,1
682,639,68,0.0616229662762203,1
682,640,68,0.120320745244498,1
682,641,68,0.151496541139909,1
682,642,68,0.130326018993043,1
682,643,68,0.0724389980755229,1
683,640,68,0.0876473573750347,1
683,641,68,0.111840277833471,1
683,642,68,0.101920026120128,1
683,643,68,0.0630574551292642,1
690,656,68,0.0722467579348946,1
690,657,68,0.0726912572391976,1
691,655,68,0.0703657412312785,1
691,656,68,0.118934540510211,1
691,657,68,0.117249832833635,1
692,655,68,0.0778900262324055,1
692,656,68,0.131287089963574,1
692,657,68,0.125925323739473,1
693,655,68,0.057858243865794,1
693,656,68,0.0855545816698861,1
696,652,68,0.0702751760754574,1
696,653,68,0.0914654234760169,1
696,654,68,0.0855020517566126,1
696,655,68,0.0640782856576212,1
697,651,68,0.057217423740577,1
697,652,68,0.106277874230697,1
697,653,68,0.153452767375843,1
697,654,68,0.142908525394993,1
697,655,68,0.0924007779050363,1
698,652,68,0.106846386116516,1
698,653,68,0.164850343291357,1
698,654,68,0.164724408308435,1
699,652,68,0.0761935187852348,1
699,653,68,0.113692305195635,1
681,640,69,0.0794153515003647,1
681,641,69,0.101368497412377,1
681,642,69,0.0859675087744061,1
682,640,69,0.0852595815080741,1
682,641,69,0.108035798274943,1
682,642,69,0.0930851999811675,1
682,643,69,0.0594147462387686,1
683,640,69,0.0655069070585202,1
683,641,69,0.0820560823695458,1
683,642,69,0.0757551463982972,1
690,656,69,0.071272076834162,1
691,655,69,0.0711579239310245,1
691,656,69,0.117729560438555,1
691,657,69,0.119985964346837,1
692,655,69,0.079545591247172,1
692,656,69,0.130610605164415,1
692,657,69,0.129962991767971,1
693,655,69,0.0602973997433464,1
693,656,69,0.0863517531781895,1
696,653,69,0.0678454199152105,1
696,654,69,0.0718823390327306,1
696,655,69,0.06449056409909,1
697,652,69,0.0723892574133695,1
697,653,69,0.0959884683749165,1
697,654,69,0.102163015299107,1
698,652,69,0.0768953604127592,1
698,653,69,0.108742168749952,1
698,654,69,0.121827931534771,1
699,652,69,0.0658213258333103,1
699,653,69,0.0901520105299478,1
682,640,70,0.0569550218455563,1
682,641,70,0.071098288208872,1
682,642,70,0.0634429909622131,1
691,655,70,0.0636899133980575,1
691,656,70,0.0964358453843921,1
692,655,70,0.0691041151844425,1
692,656,70,0.104309665419126,1
696,654,70,0.0622439314151337,1
697,652,70,0.0571669754460042,1
697,653,70,0.0684571622449233,1
698,652,70,0.0618378152726512,1
698,653,70,0.0769257591221131,1
699,652,70,0.0588503445179198,1
