x,y,z,signal,cytoplasm.p
152,243,28,0.0722764549087659,1
151,242,29,0.0670094288717612,1
151,243,29,0.0645833052246011,1
152,242,29,0.0741969633983264,1
152,243,29,0.0757080770485274,1
152,244,29,0.0638924908689471,1
153,243,29,0.0761367489743812,1
151,241,30,0.0572412532623034,1
151,242,30,0.0686190626455659,1
151,243,30,0.0695965506882291,1
152,241,30,0.0594025041979114,1
152,242,30,0.0725716319786827,1
152,243,30,0.0768042586356866,1
152,244,30,0.0629324282746138,1
153,242,30,0.0666898502772457,1
153,243,30,0.071103601348955,1
150,242,31,0.0591550215530682,1
150,243,31,0.0600353103859776,1
151,242,31,0.0702154577961892,1
151,243,31,0.0746909497964991,1
151,244,31,0.059528244581918,1
152,242,31,0.0688611967687051,1
152,243,31,0.0741671779704027,1
152,244,31,0.0613160660958872,1
153,243,31,0.0644677783351825,1
150,242,32,0.0585901952527677,1
150,243,32,0.0626405181077003,1
151,242,32,0.0654625326088813,1
151,243,32,0.0727562945554856,1
151,244,32,0.0606495766046532,1
152,242,32,0.0599586620010732,1
152,243,32,0.0657208892052373,1
152,244,32,0.0572684794196433,1
148,246,33,0.0568675820662546,1
149,245,33,0.0571258620024318,1
149,246,33,0.0653878655947514,1
150,243,33,0.0621515264150219,1
150,244,33,0.0582449649830456,1
150,245,33,0.0571496207609162,1
150,246,33,0.0584660470417049,1
151,242,33,0.059520655224219,1
151,243,33,0.0672434959853182,1
151,244,33,0.061191139489163,1
152,243,33,0.059589832190161,1
148,245,34,0.0605428066664258,1
150,243,34,0.0588737199755103,1
150,244,34,0.0603269316029865,1
150,247,34,0.0617124463956648,1
151,243,34,0.0612212433516755,1
151,244,34,0.0611067484262019,1
151,244,35,0.0609913158877725,1
153,226,51,0.0612107527010565,1
153,227,51,0.0642989549307025,1
153,228,51,0.06820398905604,1
154,227,51,0.0583090941710619,1
154,228,51,0.061708749016273,1
152,226,52,0.0646747608178834,1
152,227,52,0.0637261677656827,1
152,228,52,0.0602376048038995,1
153,225,52,0.0626323980256867,1
153,226,52,0.0709473914923524,1
153,227,52,0.0753445485838247,1
153,228,52,0.075563525436036,1
153,229,52,0.0657558875253179,1
154,226,52,0.063564579902692,1
154,227,52,0.0701592540912712,1
154,228,52,0.0756183964332307,1
154,229,52,0.0665417958842778,1
155,228,52,0.0613074447742431,1
152,226,53,0.067191196052581,1
152,227,53,0.066205487679978,1
152,228,53,0.062822462196625,1
153,225,53,0.0672345208474644,1
153,226,53,0.0804226308678885,1
153,227,53,0.0845892766987117,1
153,228,53,0.0862592184454674,1
153,229,53,0.0751522494738281,1
154,225,53,0.0697332770655484,1
154,226,53,0.075412923566358,1
154,227,53,0.0829823201342275,1
154,228,53,0.0936488527910391,1
154,229,53,0.0842009987901373,1
155,226,53,0.0601759287416041,1
155,227,53,0.0624711521850321,1
155,228,53,0.072510345114218,1
155,229,53,0.0677472595047535,1
152,225,54,0.0602891322379121,1
152,226,54,0.0677955613143206,1
152,227,54,0.0662747530999725,1
152,228,54,0.0648896451959354,1
153,224,54,0.0615990541973783,1
153,225,54,0.0766451297953537,1
153,226,54,0.0884153626337814,1
153,227,54,0.0915337571799923,1
153,228,54,0.0957135590768812,1
153,229,54,0.0817526849696893,1
154,224,54,0.0738518687581513,1
154,225,54,0.0813627913004236,1
154,226,54,0.0834201735907241,1
154,227,54,0.0896751960118214,1
154,228,54,0.102995450489649,1
154,229,54,0.0915625873041497,1
155,224,54,0.0772355075229346,1
155,225,54,0.0770262429256808,1
155,226,54,0.0667624238788012,1
155,227,54,0.0651020705513296,1
155,228,54,0.0734879628894915,1
155,229,54,0.0681829369915602,1
152,225,55,0.0666564205423616,1
152,226,55,0.0682644916279065,1
152,227,55,0.0666280326884663,1
152,228,55,0.0664565084869187,1
153,224,55,0.0737149241941694,1
153,225,55,0.0869245521370829,1
153,226,55,0.0901787354476572,1
153,227,55,0.0925384301014377,1
153,228,55,0.0973730514515758,1
153,229,55,0.0824155419478365,1
154,223,55,0.0661892121343298,1
154,224,55,0.0869361337210153,1
154,225,55,0.0903921632823124,1
154,226,55,0.0844357145667455,1
154,227,55,0.088131077206188,1
154,228,55,0.0988262925637362,1
154,229,55,0.0866255007796694,1
155,223,55,0.0743305113266947,1
155,224,55,0.0941669281761586,1
155,225,55,0.0880403056575778,1
155,226,55,0.0715654612352828,1
155,227,55,0.0658149276568507,1
155,228,55,0.0693354873978686,1
155,229,55,0.0631195085955167,1
156,224,55,0.0775576984604655,1
156,225,55,0.0735666339237284,1
152,225,56,0.068532631242462,1
152,226,56,0.06577568943919,1
152,227,56,0.0634821053442004,1
152,228,56,0.0624219717318775,1
153,224,56,0.085058401611213,1
153,225,56,0.0910348822211883,1
153,226,56,0.0850859638939521,1
153,227,56,0.0847661435250266,1
153,228,56,0.0860712889656612,1
153,229,56,0.0718974528818236,1
154,223,56,0.0759141396090831,1
154,224,56,0.098720755085306,1
154,225,56,0.0966755794542418,1
154,226,56,0.0822611365539037,1
154,227,56,0.0802331210090121,1
154,228,56,0.083227066600382,1
154,229,56,0.0716212521546228,1
155,223,56,0.0844667088667191,1
155,224,56,0.111074077037394,1
155,225,56,0.104935389386061,1
155,226,56,0.0810668004532244,1
155,227,56,0.0649897280077987,1
155,228,56,0.0604118180086412,1
156,223,56,0.0736761754222655,1
156,224,56,0.0953990518480387,1
156,225,56,0.0953559039612602,1
156,226,56,0.0751183774686818,1
157,224,56,0.0669488201550319,1
157,225,56,0.0670327571538571,1
152,224,57,0.0660823891236708,1
152,225,57,0.0676423176169431,1
152,226,57,0.0620753792697479,1
153,223,57,0.0742205275578954,1
153,224,57,0.0914283022586778,1
153,225,57,0.0895404686960873,1
153,226,57,0.0783218530194628,1
153,227,57,0.0728442768529756,1
153,228,57,0.0696787893692476,1
154,223,57,0.082269132800244,1
154,224,57,0.104859637335554,1
154,225,57,0.1005974611281,1
154,226,57,0.0828517619528315,1
154,227,57,0.0732219520691313,1
154,228,57,0.0676300225036544,1
155,223,57,0.0863332544873566,1
155,224,57,0.115735853272135,1
155,225,57,0.115856280516058,1
155,226,57,0.0896369013040533,1
155,227,57,0.0653988692788744,1
156,223,57,0.0783315534805467,1
156,224,57,0.105059071739114,1
156,225,57,0.113165083661494,1
156,226,57,0.0870253248905552,1
157,224,57,0.0720090052358194,1
157,225,57,0.0760928050011308,1
152,224,58,0.0698742374435109,1
152,225,58,0.0698806768985282,1
153,223,58,0.0757763105045768,1
153,224,58,0.0986782204799578,1
153,225,58,0.0986547683621885,1
153,226,58,0.0817409205807152,1
154,223,58,0.081966472517491,1
154,224,58,0.112865542858324,1
154,225,58,0.118194062152582,1
154,226,58,0.0958134295990187,1
154,227,58,0.0710679071903285,1
155,223,58,0.0812496526704208,1
155,224,58,0.115241100272174,1
155,225,58,0.129489868732299,1
155,226,58,0.102394623390007,1
155,227,58,0.0673941037519331,1
156,223,58,0.0770882138348176,1
156,224,58,0.105602804696377,1
156,225,58,0.123488650472326,1
156,226,58,0.0954757592023115,1
156,227,58,0.0573479347464784,1
157,224,58,0.0708212324258309,1
157,225,58,0.0777736796687676,1
157,226,58,0.0603144065091615,1
158,212,58,0.060899382642607,1
158,213,58,0.0582003841406177,1
166,204,58,0.0945423684532561,1
167,203,58,0.0898391898250384,1
167,204,58,0.0942595218782489,1
153,224,59,0.098962205163773,1
153,225,59,0.109315292040371,1
153,226,59,0.0891087421569561,1
154,223,59,0.0753051098703117,1
154,224,59,0.11850575064562,1
154,225,59,0.143844003659686,1
154,226,59,0.116107572582093,1
154,227,59,0.0739301800792416,1
155,223,59,0.0729777481211652,1
155,224,59,0.115965963541079,1
155,225,59,0.148064429554391,1
155,226,59,0.119632301457449,1
155,227,59,0.0712354037840219,1
156,224,59,0.0993934245663369,1
156,225,59,0.122522248670901,1
156,226,59,0.097584686617435,1
157,212,59,0.0811138992876783,1
157,213,59,0.0723571780770193,1
157,223,59,0.0617174057195381,1
157,224,59,0.0674762657727728,1
157,225,59,0.0730725767623137,1
158,211,59,0.0781188745568688,1
158,212,59,0.0804254201190087,1
158,213,59,0.0700285190017703,1
158,214,59,0.0613888696779791,1
161,218,59,0.0651045354709242,1
166,202,59,0.0574508186033355,1
166,203,59,0.0739985137832171,1
166,204,59,0.0783847084691241,1
166,205,59,0.0631844869424364,1
167,202,59,0.0633541771966302,1
167,203,59,0.0786066455836236,1
167,204,59,0.0810355172033461,1
167,205,59,0.0637319467637752,1
168,203,59,0.0698829118375865,1
168,204,59,0.0637711790844991,1
169,200,59,0.210180297192407,1
169,203,59,0.0737780509029248,1
170,204,59,0.0602577428431708,1
171,204,59,0.0771655993368258,1
172,204,59,0.107894495874645,1
172,205,59,0.0825198469664695,1
173,205,59,0.0962869536263944,1
174,205,59,0.0745996888021321,1
176,198,59,0.0843097442022025,1
176,199,59,0.0830968445443852,1
176,211,59,0.0574052883540781,1
177,198,59,0.085200276014384,1
177,199,59,0.0853185921549228,1
177,200,59,0.0805509835949104,1
153,224,60,0.0954267143787039,1
153,225,60,0.119329470163528,1
153,226,60,0.0964911822395962,1
154,223,60,0.0692440494953968,1
154,224,60,0.130474374129789,1
154,225,60,0.187077466785385,1
154,226,60,0.148685919520682,1
154,227,60,0.0784322023983455,1
155,223,60,0.0701898356056668,1
155,224,60,0.133744213807645,1
155,225,60,0.196207210529042,1
155,226,60,0.157402016733525,1
155,227,60,0.078801091178626,1
156,212,60,0.0683602814697582,1
156,213,60,0.0603852287204789,1
156,223,60,0.0724599675828871,1
156,224,60,0.102614590927605,1
156,225,60,0.13429785361878,1
156,226,60,0.107052979401386,1
156,227,60,0.0600042571166357,1
157,211,60,0.0771520599698662,1
157,212,60,0.0978046305672863,1
157,213,60,0.081815387098993,1
157,214,60,0.0578203855313513,1
157,222,60,0.0576392788074563,1
157,223,60,0.065787730984195,1
157,224,60,0.0682630468783834,1
157,225,60,0.0697468695049394,1
158,209,60,0.0593633662281767,1
158,211,60,0.0768597193265642,1
158,212,60,0.0921563321826601,1
158,213,60,0.0779263572602096,1
158,214,60,0.0584370105247585,1
164,256,60,0.0599784816057557,1
165,257,60,0.0587937398212973,1
166,203,60,0.0604868093542967,1
166,204,60,0.060319012016825,1
166,258,60,0.0575265824477156,1
167,201,60,0.0732681840538714,1
167,202,60,0.0675792439806192,1
167,203,60,0.0681479150837323,1
167,204,60,0.064508885881818,1
168,200,60,0.179395126186428,1
168,202,60,0.0903041102215805,1
168,203,60,0.0739487082547586,1
168,204,60,0.0608794274083774,1
168,258,60,0.059880103008636,1
169,199,60,0.227225676149853,1
169,200,60,0.278400190287075,1
169,201,60,0.193660064047339,1
169,202,60,0.111299446169128,1
169,203,60,0.0795860678215668,1
169,204,60,0.0601594939786614,1
169,259,60,0.11215828784279,1
170,200,60,0.279316810147789,1
170,203,60,0.0850287812975205,1
170,204,60,0.0662757260945493,1
170,260,60,0.0731533824876827,1
171,203,60,0.112087960974166,1
171,204,60,0.114744648954407,1
171,205,60,0.0732956342948108,1
171,260,60,0.0673491455055482,1
172,203,60,0.155183813182022,1
172,204,60,0.186618673306209,1
172,205,60,0.121586852963324,1
172,259,60,0.0802503518584267,1
173,204,60,0.187892329104176,1
173,205,60,0.130407750537494,1
174,204,60,0.104479626932414,1
174,205,60,0.080563349471441,1
175,198,60,0.0842388984031378,1
175,199,60,0.0950269079586286,1
176,197,60,0.0788114933751925,1
176,198,60,0.114789583613045,1
176,199,60,0.116047046422479,1
176,200,60,0.101476045746266,1
177,197,60,0.073236281625626,1
177,198,60,0.105889690673112,1
177,199,60,0.111921655561712,1
177,200,60,0.10877936662747,1
177,201,60,0.0955417459254289,1
178,198,60,0.0652620308597555,1
178,199,60,0.076625829121112,1
178,200,60,0.0913638841207568,1
180,223,60,0.0621090271912947,1
180,224,60,0.0680085114970926,1
181,223,60,0.0888059285538456,1
181,224,60,0.0961713913553548,1
181,225,60,0.0664313049789111,1
182,223,60,0.0756164445471403,1
182,224,60,0.0797690910499312,1
153,225,61,0.123377269129498,1
153,226,61,0.100539529620691,1
153,227,61,0.0663758855665914,1
154,224,61,0.140522778074302,1
154,225,61,0.224311952487106,1
154,226,61,0.17684319139202,1
154,227,61,0.0865351302227636,1
155,223,61,0.0708659017223113,1
155,224,61,0.150435635028862,1
155,225,61,0.242499827573567,1
155,226,61,0.192673341401601,1
155,227,61,0.0899688044965417,1
156,212,61,0.068498470287411,1
156,223,61,0.0718475176207549,1
156,224,61,0.102039568823527,1
156,225,61,0.14321750129709,1
156,226,61,0.11308750356057,1
156,227,61,0.0635846176940373,1
157,211,61,0.0733463420546041,1
157,212,61,0.0949069819543354,1
157,213,61,0.0817446120631703,1
157,223,61,0.0662747236152884,1
157,224,61,0.0673880181131255,1
157,225,61,0.0658403552484578,1
158,210,61,0.0573970031578333,1
158,211,61,0.0682891879993467,1
158,212,61,0.087163065541009,1
158,213,61,0.077758418396254,1
164,256,61,0.0605321803862597,1
164,257,61,0.0587469889061163,1
165,256,61,0.0580961027097321,1
165,257,61,0.0594914948715992,1
165,258,61,0.0572016376406856,1
166,202,61,0.0580591996790557,1
166,257,61,0.0585775993957008,1
166,258,61,0.0573841714232932,1
167,201,61,0.0965859519113765,1
167,202,61,0.0794522663249148,1
167,203,61,0.0654675567990597,1
168,200,61,0.231829226030343,1
168,201,61,0.173556262391233,1
168,202,61,0.109309371515795,1
168,203,61,0.0755937472372851,1
168,204,61,0.0590815811017988,1
168,257,61,0.0623384416216935,1
168,258,61,0.0723899237672312,1
168,259,61,0.0605153741162968,1
169,199,61,0.256406054767164,1
169,200,61,0.31810473771227,1
169,201,61,0.222447694877958,1
169,202,61,0.122491112844444,1
169,203,61,0.0800264864455841,1
169,204,61,0.0626389023470092,1
169,256,61,0.0576599534679791,1
169,257,61,0.125129685434745,1
169,258,61,0.188392118088189,1
169,259,61,0.123835189862024,1
170,200,61,0.265355151747998,1
170,201,61,0.191446979037003,1
170,202,61,0.114079887265664,1
170,203,61,0.0856868027874679,1
170,204,61,0.0732431928355897,1
170,256,61,0.0802411526369733,1
170,259,61,0.222046325769623,1
170,260,61,0.0873297896359778,1
171,202,61,0.116817976561893,1
171,203,61,0.137117851367566,1
171,204,61,0.14862691477077,1
171,205,61,0.0873474391679073,1
171,256,61,0.0662178240718245,1
171,259,61,0.175045521993546,1
171,260,61,0.0797618378176314,1
172,202,61,0.135449820228343,1
172,203,61,0.211968036149261,1
172,204,61,0.252838879740512,1
172,205,61,0.146086785643893,1
172,257,61,0.0778974563728102,1
172,258,61,0.108914300335993,1
172,259,61,0.0890949905002706,1
172,260,61,0.061152945029321,1
173,203,61,0.191167829841387,1
173,204,61,0.236256268797666,1
173,205,61,0.142717676931457,1
173,258,61,0.0583063403015627,1
173,259,61,0.0569572331968672,1
174,204,61,0.116819108773765,1
174,205,61,0.0799464237342555,1
174,257,61,0.05705657299469,1
175,198,61,0.0965744587814966,1
175,199,61,0.116771131295723,1
175,204,61,0.0585728700523639,1
175,257,61,0.058881179600599,1
176,197,61,0.0840259187356816,1
176,198,61,0.135488610278804,1
176,199,61,0.14222222809295,1
176,200,61,0.12227361022644,1
176,256,61,0.0579347625180883,1
176,257,61,0.0581815434274488,1
177,198,61,0.114278236632847,1
177,199,61,0.126482725796306,1
177,200,61,0.126190768453898,1
177,201,61,0.111729450802705,1
177,255,61,0.05702559048859,1
177,256,61,0.0596606602984152,1
178,199,61,0.079398674963012,1
178,200,61,0.096131775733737,1
178,253,61,0.0576657619507558,1
178,254,61,0.113278988893285,1
178,255,61,0.134943391293461,1
178,256,61,0.084689772296153,1
179,253,61,0.0976727160904196,1
179,256,61,0.143866235111532,1
179,257,61,0.0578556138319682,1
180,222,61,0.0581070061459291,1
180,223,61,0.101575668597056,1
180,224,61,0.102380954290437,1
180,225,61,0.0589269516242664,1
180,253,61,0.0926304753884029,1
180,256,61,0.147028408516762,1
180,257,61,0.0612566013849027,1
181,222,61,0.0788022469782445,1
181,223,61,0.147517677365471,1
181,224,61,0.150356769395709,1
181,225,61,0.0846973144783574,1
181,254,61,0.105198628646111,1
181,255,61,0.132518417548982,1
181,256,61,0.0887223748559142,1
181,257,61,0.0572961891258032,1
182,222,61,0.0591507049953093,1
182,223,61,0.112778893268557,1
182,224,61,0.121610110482178,1
182,225,61,0.0738554481988066,1
182,255,61,0.0576097056692585,1
182,256,61,0.0575731977333496,1
183,223,61,0.061738180627987,1
183,224,61,0.0763002887234623,1
183,225,61,0.0586201457949227,1
188,217,61,0.065793456909856,1
193,232,61,0.0672001888812454,1
193,233,61,0.0689701308827488,1
193,234,61,0.057843755092005,1
193,237,61,0.0618372432697788,1
193,238,61,0.0738100594760331,1
193,239,61,0.0616342176316902,1
193,242,61,0.0570722588466554,1
194,232,61,0.0863353184152468,1
194,233,61,0.0924701907484515,1
194,234,61,0.075476752010596,1
153,224,62,0.0822494193404243,1
153,225,62,0.118242853407906,1
153,226,62,0.0970041508774217,1
153,227,62,0.0629526901495586,1
154,223,62,0.0653714072440614,1
154,224,62,0.14141645885075,1
154,225,62,0.238984875819474,1
154,226,62,0.188320529275083,1
154,227,62,0.0883991578513751,1
155,223,62,0.0691175130249182,1
155,224,62,0.157214069562909,1
155,225,62,0.265535503663979,1
155,226,62,0.210283139770706,1
155,227,62,0.0944364535708689,1
156,212,62,0.0606185292322481,1
156,223,62,0.0655421530499476,1
156,224,62,0.0965925210990041,1
156,225,62,0.143354086147926,1
156,226,62,0.113144821786549,1
156,227,62,0.0629461799312993,1
157,211,62,0.0640580532673606,1
157,212,62,0.0785363776843682,1
157,213,62,0.0715244067610787,1
157,223,62,0.0595059305729568,1
157,224,62,0.0613966831192777,1
157,225,62,0.0586339800087237,1
158,211,62,0.0578378286704917,1
158,212,62,0.0723280472090836,1
158,213,62,0.0700366567745944,1
164,256,62,0.0587792156658873,1
164,257,62,0.0587347822468801,1
164,258,62,0.0575747309369251,1
165,256,62,0.056917770895607,1
165,257,62,0.0586093602974622,1
166,200,62,0.059203541549298,1
166,201,62,0.0642336050767626,1
166,202,62,0.0642321308425553,1
166,203,62,0.0576002292917741,1
166,257,62,0.0581022591117817,1
167,200,62,0.134466612156955,1
167,201,62,0.124502770286571,1
167,202,62,0.0940216099618794,1
167,203,62,0.0674701565462179,1
167,257,62,0.0571657193984596,1
168,199,62,0.205912684009196,1
168,200,62,0.27010046398986,1
168,201,62,0.217111651092306,1
168,202,62,0.128098958242422,1
168,203,62,0.0767986270610148,1
168,204,62,0.0591567021800645,1
168,257,62,0.0675638706663057,1
168,258,62,0.0783716526509845,1
168,259,62,0.066822089085638,1
169,199,62,0.260310015649999,1
169,200,62,0.325748936923816,1
169,201,62,0.242643241077251,1
169,202,62,0.13126576664,1
169,203,62,0.080168673386407,1
169,204,62,0.064088227893115,1
169,256,62,0.0591368295029505,1
169,257,62,0.116150514076083,1
169,258,62,0.17253812086607,1
169,259,62,0.12775530835177,1
170,200,62,0.232718531279665,1
170,201,62,0.178043772348801,1
170,202,62,0.113501409556604,1
170,203,62,0.0909205759976933,1
170,204,62,0.0780389415781505,1
170,256,62,0.0755639677062982,1
170,257,62,0.184034824289681,1
170,258,62,0.282231689610154,1
170,259,62,0.209530124525379,1
170,260,62,0.0978544243018711,1
171,202,62,0.130109601411415,1
171,203,62,0.152158177452133,1
171,204,62,0.153979399216302,1
171,205,62,0.0828641396232357,1
171,256,62,0.0628806944478122,1
171,257,62,0.134749735887993,1
171,258,62,0.213128223088763,1
171,259,62,0.165589382796399,1
171,260,62,0.0877764000436656,1
172,202,62,0.162638626370366,1
172,203,62,0.237957181256648,1
172,204,62,0.258875691911186,1
172,205,62,0.135387925979385,1
172,257,62,0.0729946015666227,1
172,258,62,0.100252419560356,1
172,259,62,0.0901483308413665,1
173,200,62,0.166725038478692,1
173,202,62,0.140521634068557,1
173,203,62,0.200143026664627,1
173,204,62,0.225820294576998,1
173,205,62,0.122040575076828,1
173,258,62,0.0589152403077239,1
173,259,62,0.0583296980683428,1
174,200,62,0.175918304025872,1
174,203,62,0.104864130801418,1
174,204,62,0.115140191889155,1
174,205,62,0.0730592614789536,1
175,199,62,0.13353818662871,1
175,200,62,0.139987182889863,1
175,203,62,0.0664221706237629,1
175,204,62,0.0663949267756125,1
175,256,62,0.0568673579826551,1
175,257,62,0.0573982002360096,1
176,198,62,0.137918395923735,1
176,199,62,0.159941072617899,1
176,200,62,0.146809750099139,1
176,201,62,0.116191863397128,1
177,198,62,0.109188944271871,1
177,199,62,0.135574233801563,1
177,200,62,0.145498082646372,1
177,201,62,0.128631369080973,1
177,254,62,0.0586404017729306,1
177,255,62,0.0668937663527955,1
177,256,62,0.0608044537535324,1
178,199,62,0.0800195162662521,1
178,200,62,0.0994906414669012,1
178,253,62,0.0705945423802471,1
178,254,62,0.132855828480469,1
178,255,62,0.143351137679511,1
178,256,62,0.088003656195185,1
179,223,62,0.0771982035005538,1
179,224,62,0.0747767030518677,1
179,253,62,0.113130162001592,1
179,254,62,0.232928556581769,1
179,255,62,0.24982052083067,1
179,256,62,0.136594215171016,1
179,257,62,0.0603646071323876,1
180,222,62,0.0746724746934135,1
180,223,62,0.145686395427072,1
180,224,62,0.146401516956335,1
180,225,62,0.0748829068841595,1
180,253,62,0.0991419202105763,1
180,254,62,0.205437957006707,1
180,255,62,0.22667443049507,1
180,256,62,0.13037882016541,1
180,257,62,0.0636115666953462,1
181,222,62,0.0923941261602931,1
181,223,62,0.188045307439396,1
181,224,62,0.196224842370161,1
181,225,62,0.105091823326263,1
181,253,62,0.0593763807677585,1
181,254,62,0.1017778863548,1
181,255,62,0.117530479851205,1
181,256,62,0.0849467431123542,1
181,257,62,0.0600891435222904,1
182,222,62,0.0602954714450033,1
182,223,62,0.127212070737201,1
182,224,62,0.151024290850888,1
182,225,62,0.0953797275860497,1
182,255,62,0.0591172339818674,1
182,256,62,0.0583131158819794,1
183,223,62,0.073968085589179,1
183,224,62,0.102898764313399,1
183,225,62,0.0794298461710906,1
184,224,62,0.0594212505600911,1
185,210,62,0.117342945466166,1
185,211,62,0.0863920174628585,1
186,212,62,0.0773976850796082,1
188,217,62,0.0643389243685301,1
189,217,62,0.0993896505267663,1
189,218,62,0.0814557034371027,1
192,238,62,0.064919159364765,1
193,232,62,0.06251476592982,1
193,233,62,0.058857202655452,1
193,237,62,0.0707838694340818,1
193,238,62,0.0882281820649525,1
193,239,62,0.0675148140488246,1
194,226,62,0.0772243033429593,1
194,227,62,0.0719263832539071,1
194,228,62,0.0607094953797736,1
194,231,62,0.0695752804370866,1
194,232,62,0.0836446345941865,1
194,233,62,0.0811331409925516,1
194,234,62,0.0642664863965215,1
194,237,62,0.0706728890829584,1
194,238,62,0.0860371457014208,1
195,228,62,0.086718672381569,1
195,230,62,0.0688362409320444,1
195,231,62,0.071417265315831,1
195,232,62,0.0798942299463813,1
195,233,62,0.0841789383494597,1
195,234,62,0.0740627727038437,1
195,235,62,0.0603915443398228,1
196,232,62,0.0660856206450532,1
196,233,62,0.071663232447909,1
152,224,63,0.0569160725778002,1
152,225,63,0.060391019512445,1
152,226,63,0.0575261578682639,1
153,223,63,0.0588897537467485,1
153,224,63,0.0832881470720576,1
153,225,63,0.117078161208666,1
153,226,63,0.0984000030003615,1
153,227,63,0.0660425435215167,1
154,223,63,0.0693516155200962,1
154,224,63,0.14166454298315,1
154,225,63,0.232131125608245,1
154,226,63,0.18563468683916,1
154,227,63,0.0921570457120164,1
155,223,63,0.0728286145887575,1
155,224,63,0.157035651842208,1
155,225,63,0.257319655396221,1
155,226,63,0.20615040132665,1
155,227,63,0.0976536807783353,1
156,223,63,0.0635625867380438,1
156,224,63,0.0953099255448038,1
156,225,63,0.139355172788269,1
156,226,63,0.112477253155875,1
156,227,63,0.065673283234216,1
157,207,63,0.0575815949713942,1
157,211,63,0.0587105576303862,1
157,212,63,0.0650822922252049,1
157,213,63,0.0617231847176306,1
157,224,63,0.0602647248163765,1
157,225,63,0.0597918376581783,1
158,206,63,0.057644361967003,1
158,207,63,0.0572385642591093,1
158,212,63,0.0607064525603698,1
158,213,63,0.0607364856596403,1
163,258,63,0.0578637869864134,1
164,256,63,0.0569356739958201,1
164,257,63,0.0594230432288871,1
164,258,63,0.0598100473991065,1
164,259,63,0.057889816065577,1
165,256,63,0.0569525392351513,1
165,257,63,0.0583435794576384,1
166,199,63,0.0580353701573293,1
166,200,63,0.0677879070903164,1
166,201,63,0.0734090795655288,1
166,202,63,0.0683881150115915,1
166,203,63,0.0591285207189583,1
166,256,63,0.0602655503875325,1
166,257,63,0.0593170339955106,1
167,200,63,0.148802832190255,1
167,201,63,0.144436468902905,1
167,202,63,0.10155643278912,1
167,203,63,0.0706807614936252,1
167,204,63,0.0570025452594619,1
167,256,63,0.0593083772922455,1
167,257,63,0.0600147182825705,1
168,199,63,0.21036994268083,1
168,200,63,0.278123293721328,1
168,201,63,0.237391028145561,1
168,202,63,0.135704674044222,1
168,203,63,0.0795478556709143,1
168,204,63,0.0621354041897312,1
168,256,63,0.057970309253294,1
168,257,63,0.070659962997429,1
168,258,63,0.0802750777145511,1
168,259,63,0.0712960242946249,1
168,260,63,0.0581331826485134,1
169,199,63,0.239829954042577,1
169,200,63,0.298038122139809,1
169,201,63,0.238051414307176,1
169,202,63,0.132903664432026,1
169,203,63,0.0849704134167862,1
169,204,63,0.0687021268977404,1
169,208,63,0.0665300255983669,1
169,209,63,0.0657625392700611,1
169,256,63,0.0592308856453744,1
169,257,63,0.0984626638511073,1
169,258,63,0.142578591779406,1
169,259,63,0.123570606100376,1
169,260,63,0.0804099288659587,1
170,200,63,0.19037667320865,1
170,201,63,0.159701491868407,1
170,202,63,0.117082312652194,1
170,203,63,0.101505766307884,1
170,204,63,0.0851671941987728,1
170,205,63,0.0591832030141744,1
170,208,63,0.0648993043784614,1
170,209,63,0.0635493775995467,1
170,256,63,0.0661525213933792,1
170,257,63,0.132350295879985,1
170,258,63,0.207034729561288,1
170,259,63,0.182431128731263,1
170,260,63,0.107133154154515,1
171,201,63,0.13305581719609,1
171,202,63,0.141958116086249,1
171,203,63,0.161937539550755,1
171,204,63,0.147973793635328,1
171,205,63,0.0812692246037565,1
171,256,63,0.0568587956303792,1
171,257,63,0.0983439821004851,1
171,258,63,0.15614394064266,1
171,259,63,0.145496832495764,1
172,200,63,0.160048255341705,1
172,201,63,0.147410824870128,1
172,202,63,0.177751791418645,1
172,203,63,0.237357132552667,1
172,204,63,0.229772162174632,1
172,205,63,0.119112970024785,1
172,257,63,0.0646539505278136,1
172,258,63,0.0858795854462844,1
172,259,63,0.086218175765137,1
173,199,63,0.163821717012512,1
173,200,63,0.202926923366145,1
173,201,63,0.158971073685009,1
173,202,63,0.152166527514683,1
173,203,63,0.191437992105275,1
173,204,63,0.191832060805816,1
173,205,63,0.101761882068245,1
173,258,63,0.0570374551254901,1
173,259,63,0.0571002103272253,1
174,199,63,0.170974925469795,1
174,200,63,0.206136437380239,1
174,201,63,0.153425724023545,1
174,202,63,0.112451601480669,1
174,203,63,0.109895208602017,1
174,204,63,0.109291515591076,1
174,205,63,0.0689578239755865,1
175,199,63,0.145658550091365,1
175,200,63,0.157947164955627,1
175,201,63,0.118606104716578,1
175,203,63,0.0718743250955799,1
175,204,63,0.0712507653044617,1
176,198,63,0.123705079847827,1
176,199,63,0.167608600111542,1
176,200,63,0.175264298349905,1
176,201,63,0.135687242698955,1
177,198,63,0.0981250642176421,1
177,199,63,0.146606518068262,1
177,200,63,0.177418095557361,1
177,201,63,0.149200899013966,1
177,202,63,0.0808601717867332,1
177,254,63,0.0706325540350474,1
177,255,63,0.0732883987533215,1
177,256,63,0.061210841155109,1
178,199,63,0.0873729788013141,1
178,200,63,0.114869451725458,1
178,201,63,0.104391585665556,1
178,253,63,0.077880420122311,1
178,254,63,0.132898946882563,1
178,255,63,0.132480995587865,1
178,256,63,0.083836485536984,1
179,222,63,0.0653324108008106,1
179,223,63,0.107635620347848,1
179,224,63,0.107640526599289,1
179,225,63,0.056989636864743,1
179,253,63,0.112666474064847,1
179,254,63,0.201156804456537,1
179,255,63,0.198580361992666,1
179,256,63,0.115035226413597,1
179,257,63,0.0598496984023453,1
180,222,63,0.0946698838152483,1
180,223,63,0.19084128106754,1
180,224,63,0.202696541838106,1
180,225,63,0.103668114073743,1
180,253,63,0.0940364820365623,1
180,254,63,0.162524732932449,1
180,255,63,0.163560305802878,1
180,256,63,0.101431653605816,1
180,257,63,0.060546456870323,1
181,222,63,0.0954808069802371,1
181,223,63,0.203683712651043,1
181,224,63,0.230208677026468,1
181,225,63,0.126513307310701,1
181,253,63,0.060891345117709,1
181,254,63,0.0876207680868724,1
181,255,63,0.0921608492362712,1
181,256,63,0.0729236260349478,1
181,257,63,0.0574967321534868,1
182,222,63,0.0609890455670933,1
182,223,63,0.130311005391876,1
182,224,63,0.169295855264828,1
182,225,63,0.113273646268517,1
183,223,63,0.0782198478061933,1
183,224,63,0.110569452565182,1
183,225,63,0.0863278646870949,1
184,224,63,0.062474053477952,1
185,209,63,0.0871253310422397,1
185,210,63,0.132930365761988,1
185,211,63,0.0966470854554836,1
186,210,63,0.259413115146042,1
186,211,63,0.187661605553801,1
186,212,63,0.0807343311548004,1
187,212,63,0.084375660162078,1
188,217,63,0.0590230599007069,1
189,216,63,0.0668716823243706,1
189,217,63,0.0807968681698729,1
189,218,63,0.0698853649633074,1
190,217,63,0.0800782910356276,1
190,218,63,0.0735046983962124,1
191,238,63,0.0579723377995632,1
192,237,63,0.0718657155678094,1
192,238,63,0.0831995868747584,1
192,239,63,0.0621941789591067,1
193,226,63,0.0648995579467451,1
193,227,63,0.0602326985524577,1
193,232,63,0.0573609433891234,1
193,237,63,0.082816138557447,1
193,238,63,0.0999903125121772,1
193,239,63,0.0733376381758444,1
194,225,63,0.0669842194668169,1
194,226,63,0.0914894770813427,1
194,227,63,0.0877417732306052,1
194,228,63,0.0681912752602365,1
194,231,63,0.0691085378870643,1
194,232,63,0.0762460545954451,1
194,233,63,0.0702201517579052,1
194,234,63,0.0599269364809327,1
194,237,63,0.0690788586040035,1
194,238,63,0.0824650290417062,1
194,239,63,0.0652439213667533,1
195,225,63,0.0730014538072181,1
195,226,63,0.101416038517093,1
195,227,63,0.101189560761235,1
195,228,63,0.0852752437722922,1
195,229,63,0.070321561380555,1
195,230,63,0.0661870125768925,1
195,231,63,0.0722144663088185,1
195,232,63,0.0792145666982711,1
195,233,63,0.081974893343283,1
195,234,63,0.0781117392633056,1
195,235,63,0.0650730104466359,1
196,226,63,0.0894791641408121,1
196,227,63,0.0945860116827282,1
196,228,63,0.0920375560810486,1
196,229,63,0.0832130141999182,1
196,230,63,0.0720088990909565,1
196,231,63,0.0658609237641176,1
196,232,63,0.0684218160055697,1
196,233,63,0.0750745691249785,1
196,234,63,0.0757787459394872,1
196,235,63,0.0642104831874557,1
197,228,63,0.0898655019571697,1
197,230,63,0.0747860850783627,1
197,231,63,0.0629031204985733,1
197,232,63,0.0605927419274945,1
197,233,63,0.0626233344337804,1
150,226,64,0.0573883110729472,1
150,227,64,0.0580706987058724,1
152,224,64,0.061652474548113,1
152,225,64,0.0674120776153882,1
152,226,64,0.0639488302034122,1
153,223,64,0.0608679696601185,1
153,224,64,0.0852307631777904,1
153,225,64,0.114293934278686,1
153,226,64,0.0977535041249781,1
153,227,64,0.066703330674837,1
154,223,64,0.0735103830433157,1
154,224,64,0.137229421412372,1
154,225,64,0.210828913068112,1
154,226,64,0.172922872406421,1
154,227,64,0.0917519733273527,1
155,223,64,0.0787845384769467,1
155,224,64,0.153078017040355,1
155,225,64,0.235572224125491,1
155,226,64,0.193360122252464,1
155,227,64,0.097951104581184,1
156,223,64,0.064916777002286,1
156,224,64,0.0972644003904999,1
156,225,64,0.135496323472177,1
156,226,64,0.112532318751985,1
156,227,64,0.0668563738763623,1
157,207,64,0.0579098007844907,1
157,212,64,0.0577532135239311,1
157,224,64,0.0589968303256911,1
157,225,64,0.0617000864160711,1
158,205,64,0.0587171032302665,1
158,206,64,0.0599284284059504,1
158,207,64,0.060632021423713,1
158,211,64,0.0578920981801298,1
159,210,64,0.0587130461377281,1
159,211,64,0.059597114907145,1
163,256,64,0.058039486219236,1
163,257,64,0.0627140529099591,1
163,258,64,0.0648940148261258,1
164,256,64,0.0574475752880795,1
164,257,64,0.0639095919857515,1
164,258,64,0.0653864031544178,1
164,259,64,0.0610891637605776,1
165,256,64,0.0594093741293173,1
165,257,64,0.0604643125402938,1
165,258,64,0.0570041020507848,1
166,200,64,0.0772818869310954,1
166,201,64,0.0823640204107608,1
166,202,64,0.0693559851502865,1
166,255,64,0.0575084670577767,1
166,256,64,0.0653220203981178,1
166,257,64,0.0606574431183832,1
167,200,64,0.157133599962939,1
167,201,64,0.152467978925386,1
167,202,64,0.0998055378935745,1
167,203,64,0.0682621151623644,1
167,208,64,0.0580621363535966,1
167,256,64,0.0629946114734766,1
167,257,64,0.0612321585817461,1
168,199,64,0.203828470656323,1
168,200,64,0.269186792597561,1
168,201,64,0.232293244195551,1
168,202,64,0.131786867153713,1
168,203,64,0.0799538774624075,1
168,204,64,0.0647815897254792,1
168,207,64,0.058600261323935,1
168,208,64,0.0759473865389255,1
168,209,64,0.0712445027575492,1
168,256,64,0.0587244508135556,1
168,257,64,0.0689354038217623,1
168,258,64,0.0783343545255405,1
168,259,64,0.0734825082229246,1
168,260,64,0.0613964708295518,1
169,198,64,0.120813434316568,1
169,199,64,0.2138692793462,1
169,200,64,0.260969316775238,1
169,201,64,0.213272485751349,1
169,202,64,0.127220019808047,1
169,203,64,0.0897701484886434,1
169,204,64,0.073917920347574,1
169,207,64,0.0600245130946436,1
169,208,64,0.0847781025129159,1
169,209,64,0.081875317667987,1
169,257,64,0.0813776456842961,1
169,258,64,0.116524981358603,1
169,259,64,0.116727128353104,1
169,260,64,0.0849904158265104,1
170,199,64,0.134576613616565,1
170,200,64,0.15473499731996,1
170,201,64,0.137749259981603,1
170,202,64,0.116742177335892,1
170,203,64,0.108427626139489,1
170,204,64,0.0896742583988656,1
170,205,64,0.0632208120733035,1
170,208,64,0.0727514767580962,1
170,209,64,0.0707342172259809,1
170,257,64,0.0917319473298812,1
170,258,64,0.149656001010688,1
170,259,64,0.160138785115905,1
170,260,64,0.112685273499458,1
171,200,64,0.123069472614767,1
171,201,64,0.122551238012353,1
171,202,64,0.141824538673197,1
171,203,64,0.16142155757821,1
171,204,64,0.138574795756055,1
171,205,64,0.0817711482789011,1
171,257,64,0.0714389778372357,1
171,258,64,0.115978476841031,1
171,259,64,0.131443158293693,1
171,260,64,0.0982899661591307,1
172,199,64,0.166618162395602,1
172,200,64,0.178103626257616,1
172,201,64,0.148782770811163,1
172,202,64,0.174497731943745,1
172,203,64,0.225454047624417,1
172,204,64,0.205765637992426,1
172,205,64,0.112690380246752,1
172,258,64,0.0740942328618268,1
172,259,64,0.082900565002029,1
173,198,64,0.120912278771697,1
173,199,64,0.222324236608505,1
173,200,64,0.237969093069042,1
173,201,64,0.167706784109746,1
173,202,64,0.15317843008068,1
173,203,64,0.191212151218595,1
173,204,64,0.182608025042262,1
173,205,64,0.101844533534842,1
174,198,64,0.111146196574814,1
174,199,64,0.204212880174338,1
174,200,64,0.225580265660306,1
174,201,64,0.158647662081555,1
174,202,64,0.11653986522716,1
174,203,64,0.120698904009474,1
174,204,64,0.116865458697241,1
174,205,64,0.074121417740609,1
175,199,64,0.152359628608088,1
175,200,64,0.1724699640702,1
175,201,64,0.127623299523914,1
175,202,64,0.0860038692868943,1
175,203,64,0.076024241316619,1
175,204,64,0.0740105907098431,1
175,256,64,0.0570760564739733,1
176,198,64,0.10207949108586,1
176,199,64,0.160879169122544,1
176,200,64,0.193599278422504,1
176,201,64,0.145628263423811,1
176,203,64,0.0592418244631924,1
177,199,64,0.150803179307545,1
177,200,64,0.204290578213998,1
177,201,64,0.162210744634047,1
177,202,64,0.0853263761115372,1
177,254,64,0.0787794258327159,1
177,255,64,0.0763515625891912,1
177,256,64,0.0610195445243734,1
178,200,64,0.130036043021409,1
178,201,64,0.109856182674083,1
178,223,64,0.062880151929624,1
178,253,64,0.0800861044769261,1
178,254,64,0.124387673873541,1
178,255,64,0.11791563238326,1
178,256,64,0.0788361602619485,1
179,222,64,0.080549928043218,1
179,223,64,0.128592012924576,1
179,224,64,0.131047131810125,1
179,225,64,0.0664698296672156,1
179,253,64,0.106107547107326,1
179,254,64,0.167679162857639,1
179,255,64,0.158098279858809,1
179,256,64,0.100041026168907,1
179,257,64,0.0597981061020276,1
180,222,64,0.108643371470318,1
180,223,64,0.226818268578205,1
180,224,64,0.25967883111956,1
180,225,64,0.134890118366147,1
180,253,64,0.0909808721767707,1
180,254,64,0.135899579600297,1
180,255,64,0.12961889371012,1
180,256,64,0.0871857746447379,1
180,257,64,0.058686173796598,1
181,222,64,0.0940192393932741,1
181,223,64,0.218887832052975,1
181,224,64,0.277714282182863,1
181,225,64,0.15711970677977,1
181,253,64,0.0615949735170926,1
181,254,64,0.0803913299271997,1
181,255,64,0.0804366832683522,1
181,256,64,0.0659903674244529,1
182,222,64,0.0610719034264788,1
182,223,64,0.134794352112042,1
182,224,64,0.191469811976405,1
182,225,64,0.127740943413655,1
183,223,64,0.072143614612817,1
183,224,64,0.100576420857494,1
183,225,64,0.0776574038683717,1
185,209,64,0.0885764964326363,1
185,210,64,0.130081060237163,1
185,211,64,0.101015247308567,1
185,212,64,0.0583373404984733,1
186,209,64,0.160717097710734,1
186,210,64,0.244317381443029,1
186,211,64,0.183829056575967,1
186,212,64,0.0863750401817275,1
187,210,64,0.234567763493772,1
187,211,64,0.180379136241225,1
187,212,64,0.089222051798127,1
188,212,64,0.0736693821510384,1
189,217,64,0.0646284875545856,1
189,218,64,0.0588154582396389,1
190,217,64,0.061784377231106,1
190,218,64,0.0582409432721282,1
191,237,64,0.0602921101910107,1
191,238,64,0.0646963554005516,1
192,236,64,0.0574477757839317,1
192,237,64,0.0861992465979156,1
192,238,64,0.0952333892016991,1
192,239,64,0.0681403080352227,1
193,225,64,0.0583441396666372,1
193,226,64,0.0781425271704903,1
193,227,64,0.0711659791467331,1
193,236,64,0.0609597672757369,1
193,237,64,0.0917672699814874,1
193,238,64,0.104196727284976,1
193,239,64,0.0762664049244423,1
194,225,64,0.0727701582539708,1
194,226,64,0.106895778859397,1
194,227,64,0.103266391149198,1
194,228,64,0.0743950179186681,1
194,231,64,0.0657603161248766,1
194,232,64,0.0703575857676439,1
194,233,64,0.0660066547639749,1
194,234,64,0.0603332059437727,1
194,237,64,0.0678674331803935,1
194,238,64,0.0768805237196972,1
194,239,64,0.0642916191412871,1
195,225,64,0.0734398615757766,1
195,226,64,0.108185839935622,1
195,227,64,0.111686898506546,1
195,228,64,0.0897163861155726,1
195,229,64,0.0697907839935056,1
195,230,64,0.066709333756529,1
195,231,64,0.0729694806157308,1
195,232,64,0.0802428450578433,1
195,233,64,0.0837020412742177,1
195,234,64,0.0824720817781538,1
195,235,64,0.0692540978757535,1
196,225,64,0.062812696869236,1
196,226,64,0.0866516654883801,1
196,227,64,0.0949220309371233,1
196,228,64,0.0887739907439793,1
196,229,64,0.0761670002603144,1
196,230,64,0.0685358155883496,1
196,231,64,0.0673346685256328,1
196,232,64,0.0734634729108403,1
196,233,64,0.080182649126692,1
196,234,64,0.0806982419014064,1
196,235,64,0.067224389909992,1
197,226,64,0.0665200951567467,1
197,227,64,0.078973983469518,1
197,228,64,0.0843817222131383,1
197,229,64,0.0770870993137569,1
197,230,64,0.0661196872491148,1
197,231,64,0.0602602372474495,1
197,232,64,0.0613953739993016,1
197,233,64,0.06330322176549,1
197,234,64,0.0617870072649318,1
198,228,64,0.0703663663065824,1
145,222,65,0.0576547995451905,1
149,227,65,0.057882604111835,1
150,226,65,0.0578283228083232,1
150,227,65,0.0602078606545336,1
151,226,65,0.0571666982899732,1
151,227,65,0.0573381399344053,1
152,224,65,0.0608719441955413,1
152,225,65,0.0668731388677674,1
152,226,65,0.0636738619360087,1
152,227,65,0.0572302672689908,1
153,223,65,0.0594341589548099,1
153,224,65,0.0789427297043238,1
153,225,65,0.0995232161459451,1
153,226,65,0.08839909298507,1
153,227,65,0.065636297646424,1
154,223,65,0.0692952054223891,1
154,224,65,0.112670330661533,1
154,225,65,0.161012699360102,1
154,226,65,0.140868633419328,1
154,227,65,0.0855693063211483,1
154,228,65,0.0569605059968074,1
155,223,65,0.076608580580887,1
155,224,65,0.129622585192575,1
155,225,65,0.187053749305459,1
155,226,65,0.164349186218,1
155,227,65,0.0943289936910324,1
156,223,65,0.0651028430500542,1
156,224,65,0.0928526071018178,1
156,225,65,0.1222937305749,1
156,226,65,0.108681489269981,1
156,227,65,0.0684617323709658,1
157,224,65,0.0614905682505336,1
157,225,65,0.0671128965253644,1
157,226,65,0.0616525335174813,1
158,206,65,0.0582193192047759,1
158,207,65,0.0604772209350126,1
158,210,65,0.0603895393813009,1
158,211,65,0.0628108570249454,1
159,207,65,0.0572749306685343,1
159,210,65,0.0643342422006878,1
159,211,65,0.0682864282329107,1
159,212,65,0.058604159199179,1
160,210,65,0.0577562858280191,1
160,211,65,0.0602025593083242,1
160,241,65,0.0598867193717583,1
160,242,65,0.0572821780038973,1
163,256,65,0.0595411765643842,1
163,257,65,0.0660087481765492,1
163,258,65,0.0688681374633529,1
164,205,65,0.057053365061055,1
164,206,65,0.0574913364562882,1
164,256,65,0.0589729890100911,1
164,257,65,0.0657594315843522,1
164,258,65,0.0677345339150764,1
164,259,65,0.0618106598785533,1
165,201,65,0.0638744757269343,1
165,202,65,0.0585528853334501,1
165,256,65,0.0613740270879803,1
165,257,65,0.0613022259851493,1
165,258,65,0.058174980136758,1
166,201,65,0.0866792159772456,1
166,202,65,0.070874640982692,1
166,208,65,0.0633522076197293,1
166,209,65,0.0577669415928693,1
166,255,65,0.0609399063924965,1
166,256,65,0.0663180071316139,1
166,257,65,0.0601681919604843,1
167,200,65,0.14269211960724,1
167,201,65,0.135270777432338,1
167,202,65,0.0916789102800403,1
167,203,65,0.0658479799877778,1
167,204,65,0.0579124072305692,1
167,207,65,0.0738900160424987,1
167,208,65,0.106239202118972,1
167,209,65,0.0981928613003661,1
167,210,65,0.0591615376682644,1
167,256,65,0.0622841426273712,1
167,257,65,0.0598407409553019,1
168,199,65,0.168746779682798,1
168,200,65,0.218326868246297,1
168,201,65,0.186222458120662,1
168,202,65,0.114158575990711,1
168,203,65,0.0777831855309361,1
168,204,65,0.0673480191906138,1
168,207,65,0.0802820184091989,1
168,208,65,0.128245662236856,1
168,209,65,0.121140796867698,1
168,210,65,0.0678604040316933,1
168,256,65,0.0570204896382328,1
168,257,65,0.0637428266122249,1
168,258,65,0.0706382799607085,1
168,259,65,0.0690964078880069,1
168,260,65,0.0605940215627864,1
169,199,65,0.173399993565263,1
169,200,65,0.204214837957365,1
169,201,65,0.166582521309407,1
169,202,65,0.111715557619536,1
169,203,65,0.0888358555082532,1
169,204,65,0.0766477126536848,1
169,205,65,0.060567054870667,1
169,207,65,0.0713360939803786,1
169,208,65,0.110703831961643,1
169,209,65,0.1067177621304,1
169,210,65,0.0628711591009596,1
169,257,65,0.0681695096664004,1
169,258,65,0.090530983072206,1
169,259,65,0.0980287613422862,1
169,260,65,0.0804417428401516,1
170,200,65,0.125262413688894,1
170,201,65,0.115775634007984,1
170,202,65,0.111101804434364,1
170,203,65,0.107588657142941,1
170,204,65,0.0905686821893543,1
170,205,65,0.0671237881676877,1
170,207,65,0.0576917084728037,1
170,208,65,0.0730846654828134,1
170,209,65,0.0709089139795426,1
170,257,65,0.0684937704287583,1
170,258,65,0.105130943605187,1
170,259,65,0.127596374110353,1
170,260,65,0.104830105475914,1
171,200,65,0.111021488154752,1
171,201,65,0.112277995660421,1
171,202,65,0.130311170506107,1
171,203,65,0.144666449439239,1
171,204,65,0.124409669447914,1
171,205,65,0.0815073311190414,1
171,257,65,0.0611195093975,1
171,258,65,0.0917875790319268,1
171,259,65,0.115356597676909,1
172,199,65,0.186781063152608,1
172,200,65,0.177927555517773,1
172,201,65,0.140787456186939,1
172,202,65,0.153341468590131,1
172,203,65,0.193687024842521,1
172,204,65,0.180229377633513,1
172,205,65,0.107559054520059,1
172,258,65,0.0685891592789056,1
172,259,65,0.0795342278499023,1
173,198,65,0.137281786211414,1
173,199,65,0.253374321604593,1
173,200,65,0.243751086805458,1
173,201,65,0.164215160637749,1
173,202,65,0.141429880278973,1
173,203,65,0.1798324312278,1
173,204,65,0.176749949026878,1
173,205,65,0.105507014854525,1
174,198,65,0.113197398875317,1
174,199,65,0.214172311135974,1
174,200,65,0.222742117139961,1
174,201,65,0.156113901646453,1
174,202,65,0.113609936782007,1
174,203,65,0.122834656590233,1
174,204,65,0.12017583391886,1
174,205,65,0.0773669915234128,1
175,199,65,0.148337929484524,1
175,200,65,0.173767879866282,1
175,201,65,0.131677337449049,1
175,202,65,0.0883359014100095,1
175,203,65,0.076274212468804,1
175,204,65,0.071470296468735,1
176,199,65,0.140605842326476,1
176,200,65,0.182350446841568,1
176,201,65,0.138068921133235,1
176,203,65,0.0609460568976093,1
176,254,65,0.0577111329827188,1
176,255,65,0.0573983889379881,1
177,199,65,0.143058272208831,1
177,200,65,0.200785816366745,1
177,201,65,0.156488062288259,1
177,202,65,0.0862785132227722,1
177,203,65,0.0581486149321951,1
177,253,65,0.0625787830760366,1
177,254,65,0.0807669942878968,1
177,255,65,0.0753883864122121,1
177,256,65,0.0607330949209636,1
178,200,65,0.138898136596267,1
178,201,65,0.113832864581893,1
178,221,65,0.0582789431330548,1
178,222,65,0.0788915442926473,1
178,223,65,0.080605512569769,1
178,224,65,0.0618170757458233,1
178,253,65,0.0778646045377353,1
178,254,65,0.105938517310057,1
178,255,65,0.0983952736570245,1
178,256,65,0.0732222881945306,1
179,205,65,0.0586308487352674,1
179,221,65,0.0585348171190058,1
179,222,65,0.0953246678868766,1
179,223,65,0.13492775261699,1
179,224,65,0.131423604051167,1
179,225,65,0.0683210904275921,1
179,252,65,0.0612657652247351,1
179,253,65,0.0943639802172394,1
179,254,65,0.131064728269623,1
179,255,65,0.123769238520527,1
179,256,65,0.0897280502566205,1
179,257,65,0.0609975548469377,1
180,222,65,0.110248753552669,1
180,223,65,0.220399452839743,1
180,224,65,0.261364977648722,1
180,225,65,0.140548866122834,1
180,252,65,0.0598618048136554,1
180,253,65,0.0883929070983363,1
180,254,65,0.118581927275578,1
180,255,65,0.114033596311556,1
180,256,65,0.0848908401512144,1
180,257,65,0.0599830222471141,1
181,222,65,0.0940109070215346,1
181,223,65,0.217643389680059,1
181,224,65,0.292552697150402,1
181,225,65,0.172484234657326,1
181,226,65,0.0599803981102252,1
181,253,65,0.0633022074923554,1
181,254,65,0.0776965772197273,1
181,255,65,0.0782063909963493,1
181,256,65,0.0662763216851691,1
182,222,65,0.0658373949861696,1
182,223,65,0.13760887750345,1
182,224,65,0.199001615571989,1
182,225,65,0.131960744233055,1
182,226,65,0.0568942244268484,1
183,223,65,0.0713515793364918,1
183,224,65,0.0931194965657655,1
183,225,65,0.0711599406834201,1
185,209,65,0.0796256657523741,1
185,210,65,0.10253561914959,1
185,211,65,0.0861478429995765,1
185,212,65,0.0592593796441326,1
186,209,65,0.126210676512633,1
186,210,65,0.178152665184287,1
186,211,65,0.143484184368249,1
186,212,65,0.0801051928614419,1
186,237,65,0.0590894653063393,1
187,210,65,0.194757613723842,1
187,211,65,0.158950658489707,1
187,212,65,0.0870828613031966,1
188,211,65,0.117102727847496,1
188,212,65,0.078446089684578,1
188,213,65,0.0624904292715264,1
189,213,65,0.0807296430900213,1
189,214,65,0.0754818882425741,1
189,215,65,0.0575610559404185,1
191,237,65,0.0624048529242627,1
191,238,65,0.0642916663167818,1
192,236,65,0.0585031210835494,1
192,237,65,0.0822952562303968,1
192,238,65,0.0859499535934659,1
192,239,65,0.0658054158977454,1
193,225,65,0.066806078902147,1
193,226,65,0.0870069677262063,1
193,227,65,0.0756726364581846,1
193,236,65,0.0596728964423356,1
193,237,65,0.0817568187224065,1
193,238,65,0.0875950220606766,1
193,239,65,0.0696164764377746,1
194,225,65,0.0767847987441506,1
194,226,65,0.109516696020832,1
194,227,65,0.103260517800116,1
194,228,65,0.0727647212782144,1
194,231,65,0.0592278900014653,1
194,232,65,0.0632880135654078,1
194,233,65,0.0636089897339519,1
194,234,65,0.0603976712571882,1
194,237,65,0.0629052433958317,1
194,238,65,0.0675985564487344,1
194,239,65,0.060717485729177,1
195,225,65,0.069579856460066,1
195,226,65,0.102566896502531,1
195,227,65,0.107481745678229,1
195,228,65,0.0856677733723204,1
195,229,65,0.0656391635577229,1
195,230,65,0.0631248571172206,1
195,231,65,0.0690229202612428,1
195,232,65,0.0761442793627119,1
195,233,65,0.0806070457733446,1
195,234,65,0.0772922124674831,1
195,235,65,0.0668646708664808,1
196,225,65,0.0580023650018969,1
196,226,65,0.0804306801866602,1
196,227,65,0.0911132643055206,1
196,228,65,0.083533553995137,1
196,229,65,0.0698798454304354,1
196,230,65,0.065624085090251,1
196,231,65,0.0682257900314972,1
196,232,65,0.0742010086969911,1
196,233,65,0.07862115794516,1
196,234,65,0.0746012868720128,1
196,235,65,0.0639485471504444,1
197,226,65,0.0622802388551904,1
197,227,65,0.0749613243501127,1
197,228,65,0.0776863460343288,1
197,229,65,0.0696688589276274,1
197,230,65,0.0629303702436605,1
197,231,65,0.0610093487205959,1
197,232,65,0.0618773424402166,1
197,233,65,0.062067265084671,1
197,234,65,0.0581371748747467,1
198,227,65,0.061430242586772,1
198,228,65,0.0667810523022443,1
198,229,65,0.0621665930886202,1
145,222,66,0.0587580043841131,1
145,223,66,0.05991715935967,1
146,223,66,0.0569553874556397,1
150,227,66,0.0577803925057764,1
152,224,66,0.0574106722574031,1
152,225,66,0.0619958177980498,1
152,226,66,0.05955143133753,1
153,224,66,0.0730027098547627,1
153,225,66,0.0860060334627106,1
153,226,66,0.0783663100262173,1
153,227,66,0.0627186584176226,1
154,223,66,0.0631802824264772,1
154,224,66,0.0903559030177503,1
154,225,66,0.117589071815539,1
154,226,66,0.11226151961892,1
154,227,66,0.0802102349971784,1
154,228,66,0.0595609489935722,1
155,223,66,0.070491764668253,1
155,224,66,0.102955551815063,1
155,225,66,0.138269416985424,1
155,226,66,0.138054662339982,1
155,227,66,0.0962103052414899,1
155,228,66,0.060298484779723,1
156,223,66,0.0659190616643156,1
156,224,66,0.0865139248379262,1
156,225,66,0.106018916146785,1
156,226,66,0.106412041337433,1
156,227,66,0.0782214930515686,1
157,224,66,0.068416803609265,1
157,225,66,0.0724791444214553,1
157,226,66,0.0682601337915898,1
158,210,66,0.0597278382027722,1
158,211,66,0.0627690772275113,1
159,210,66,0.0607363323392828,1
159,211,66,0.0667129957542998,1
159,212,66,0.0596794243514054,1
159,241,66,0.0578542457426239,1
159,242,66,0.0579784293353077,1
160,211,66,0.0600323147420685,1
160,241,66,0.0638563839247426,1
160,242,66,0.0657295046299446,1
162,204,66,0.0618837877921708,1
162,205,66,0.0598065741033141,1
163,203,66,0.0615467660585148,1
163,204,66,0.0766790194913104,1
163,205,66,0.0774900664919727,1
163,206,66,0.0637703004409116,1
163,256,66,0.0580564693973038,1
163,257,66,0.0628166360230379,1
164,203,66,0.0585041471505577,1
164,204,66,0.0733971205776394,1
164,205,66,0.079966107709391,1
164,206,66,0.0704679351465266,1
164,207,66,0.0572770181841718,1
164,256,66,0.0584381781182507,1
164,257,66,0.0626486794682718,1
164,258,66,0.0629472767615495,1
165,202,66,0.0607851589762276,1
165,204,66,0.0596079180954158,1
165,205,66,0.0672571591879512,1
165,206,66,0.0662027515012893,1
165,207,66,0.0598945387099936,1
165,255,66,0.0571406692108096,1
165,256,66,0.0599010371343793,1
165,257,66,0.0588743627416246,1
166,202,66,0.0689657317678743,1
166,206,66,0.0593574398066635,1
166,207,66,0.0708458344462819,1
166,208,66,0.0911102922493587,1
166,209,66,0.0832068695917423,1
166,255,66,0.0601639166812832,1
166,256,66,0.0622808285488733,1
166,257,66,0.0569527928034349,1
167,202,66,0.0809169828761446,1
167,203,66,0.0625326808239068,1
167,204,66,0.0570526338408882,1
167,207,66,0.0993044633773333,1
167,208,66,0.181520582715484,1
167,209,66,0.178597695212904,1
167,210,66,0.0940461412190884,1
167,256,66,0.0581534327295845,1
168,200,66,0.154871157591344,1
168,201,66,0.134334367451626,1
168,202,66,0.0951145364399088,1
168,203,66,0.0732073276657952,1
168,204,66,0.0652616357649879,1
168,207,66,0.108949870658946,1
168,208,66,0.220703097910946,1
168,209,66,0.223838970977919,1
168,210,66,0.115379631112163,1
168,257,66,0.0577072763860325,1
168,258,66,0.0622621647438092,1
168,259,66,0.0622274023012018,1
169,200,66,0.148529320466249,1
169,202,66,0.0968689694975517,1
169,203,66,0.0839645080355435,1
169,204,66,0.0738961842384219,1
169,205,66,0.0595608074670883,1
169,207,66,0.0830968091627642,1
169,208,66,0.154308507260733,1
169,209,66,0.1576876761474,1
169,210,66,0.0869521969769377,1
169,257,66,0.0587158294919114,1
169,258,66,0.072127710574189,1
169,259,66,0.0797860860218726,1
170,201,66,0.101034742581724,1
170,202,66,0.108726695187713,1
170,203,66,0.111321606857732,1
170,204,66,0.093860700246624,1
170,205,66,0.0686932225231285,1
170,207,66,0.0591581469295877,1
170,208,66,0.0744183520977008,1
170,209,66,0.073452958672474,1
170,257,66,0.0569722409010972,1
170,258,66,0.0771459448463744,1
170,259,66,0.0960975322215705,1
171,200,66,0.105825437649422,1
171,202,66,0.130956460509441,1
171,203,66,0.146976515472666,1
171,204,66,0.124865479077055,1
171,205,66,0.0823001742757123,1
171,206,66,0.0599122118296704,1
171,258,66,0.0756993554789572,1
171,259,66,0.095848681487383,1
172,199,66,0.177815360397663,1
172,200,66,0.168572985160571,1
172,201,66,0.136557595193308,1
172,202,66,0.148353933771078,1
172,203,66,0.18015592538837,1
172,204,66,0.165357055279207,1
172,205,66,0.101968439971495,1
172,206,66,0.0608089943948908,1
172,258,66,0.0632528973065906,1
172,259,66,0.0718080730103051,1
173,198,66,0.132845202200303,1
173,199,66,0.240054155580819,1
173,200,66,0.229381383964842,1
173,201,66,0.161558614183992,1
173,202,66,0.141913098870496,1
173,203,66,0.17306465835554,1
173,204,66,0.168060446999134,1
173,205,66,0.104505361164737,1
173,206,66,0.0573130012927029,1
174,198,66,0.106967285115386,1
174,199,66,0.200662782676743,1
174,200,66,0.212526570417964,1
174,201,66,0.156711733102186,1
174,202,66,0.117532390458737,1
174,203,66,0.122459163240704,1
174,204,66,0.116558617486276,1
174,205,66,0.0766232226750336,1
175,199,66,0.144792844383234,1
175,200,66,0.176795874370903,1
175,201,66,0.140428804488994,1
175,203,66,0.0791943991743156,1
175,204,66,0.0701888331264059,1
176,199,66,0.127744068790174,1
176,200,66,0.167900970239528,1
176,201,66,0.13502008685386,1
177,199,66,0.128313465216517,1
177,200,66,0.17324088241574,1
177,201,66,0.141285641204134,1
177,222,66,0.072426779622413,1
177,223,66,0.0646348680402347,1
177,253,66,0.0638205305488218,1
177,254,66,0.0749462930581354,1
177,255,66,0.0684734849660662,1
178,200,66,0.128318430437327,1
178,204,66,0.0612892704149358,1
178,205,66,0.0673107623437276,1
178,221,66,0.0775371653264266,1
178,222,66,0.118691751827083,1
178,223,66,0.119717406049767,1
178,224,66,0.0804621698293276,1
178,253,66,0.071225013381329,1
178,254,66,0.0858266840259907,1
178,255,66,0.0788876169327192,1
178,256,66,0.0649847568900518,1
179,204,66,0.0617958644640491,1
179,205,66,0.0728668444302205,1
179,206,66,0.0605957316744668,1
179,221,66,0.0735574936716433,1
179,222,66,0.128018736313799,1
179,223,66,0.16140630809957,1
179,224,66,0.136164363857797,1
179,225,66,0.068121461425117,1
179,252,66,0.0600568047207197,1
179,253,66,0.0801735442562278,1
179,254,66,0.0995658745869668,1
179,255,66,0.0962399373490561,1
179,256,66,0.0803750661754251,1
180,205,66,0.0603166650359671,1
180,221,66,0.0633019539240718,1
180,222,66,0.119853896549613,1
180,223,66,0.205295439837422,1
180,224,66,0.227889553298072,1
180,225,66,0.128609621177948,1
180,252,66,0.0596075878669534,1
180,253,66,0.0793292090471654,1
180,254,66,0.0993259989906331,1
180,255,66,0.100268588961142,1
180,256,66,0.0843684658991465,1
181,221,66,0.0568852610828682,1
181,222,66,0.103517069933802,1
181,223,66,0.206655933927134,1
181,224,66,0.267373248645143,1
181,225,66,0.169039869237077,1
181,226,66,0.0671247375745172,1
181,253,66,0.061806013092332,1
181,254,66,0.0721387791246172,1
181,255,66,0.074736910522145,1
182,222,66,0.0765003953778205,1
182,223,66,0.140432708261174,1
182,224,66,0.188051970978013,1
182,225,66,0.128703335298035,1
182,226,66,0.0604432427850034,1
183,223,66,0.0794127745389704,1
183,224,66,0.0952227570245963,1
183,225,66,0.0727552743854142,1
185,209,66,0.0633707475891199,1
185,210,66,0.0721258235544037,1
185,211,66,0.0665245473440527,1
186,210,66,0.108061296629792,1
186,211,66,0.0958310083677062,1
186,212,66,0.0664552229546899,1
186,237,66,0.06642085560685,1
186,238,66,0.0641398732658642,1
187,211,66,0.11868039432675,1
187,212,66,0.0746046776106895,1
187,237,66,0.0618564319022207,1
187,238,66,0.0599233865249615,1
188,213,66,0.0609741027291684,1
189,215,66,0.0589738381689945,1
189,237,66,0.0579624486365008,1
191,237,66,0.0610677696737616,1
191,238,66,0.0598537319071364,1
192,237,66,0.0681732424274132,1
192,238,66,0.0682954151646382,1
192,239,66,0.0593271531391093,1
193,225,66,0.0738005005414332,1
193,226,66,0.0842683594995359,1
193,227,66,0.0688257856630464,1
193,237,66,0.0655717143942718,1
193,238,66,0.0678569602205851,1
193,239,66,0.0605326639350797,1
194,225,66,0.075568355027299,1
194,226,66,0.0971442031271126,1
194,227,66,0.0878299088484528,1
194,228,66,0.0644861413964682,1
194,232,66,0.056988498755935,1
194,233,66,0.0609120197782318,1
194,234,66,0.0614075806585378,1
194,235,66,0.0579358593483385,1
194,237,66,0.0568607180317855,1
194,238,66,0.0589262145071628,1
195,225,66,0.0631668609982542,1
195,226,66,0.0877618758882556,1
195,227,66,0.0915429740922562,1
195,228,66,0.0754304020871194,1
195,229,66,0.0596732915371031,1
195,230,66,0.0571658609249435,1
195,231,66,0.0635821999499374,1
195,232,66,0.0693505953500247,1
195,233,66,0.0727518777498006,1
195,234,66,0.0693113040599325,1
195,235,66,0.061875950763125,1
196,226,66,0.0703465231141525,1
196,227,66,0.080962754899812,1
196,228,66,0.074356793974142,1
196,229,66,0.0624505305969408,1
196,230,66,0.0602110096188003,1
196,231,66,0.0663352674657126,1
196,232,66,0.0700039936414981,1
196,233,66,0.0699281826216234,1
196,234,66,0.0633901131296667,1
197,227,66,0.0672180212182166,1
197,228,66,0.0678492116455916,1
197,229,66,0.0614881328156232,1
197,230,66,0.0591093261895796,1
197,231,66,0.0604174672741235,1
197,232,66,0.0592261504051007,1
198,228,66,0.0593572216200008,1
198,229,66,0.0573132548609866,1
152,225,67,0.057778198845276,1
153,224,67,0.0684318054165582,1
153,225,67,0.0767839495852472,1
153,226,67,0.0700347697548091,1
153,227,67,0.0604431071554564,1
154,223,67,0.0594207198357764,1
154,224,67,0.07949735430391,1
154,225,67,0.0954072662810416,1
154,226,67,0.0928092351314399,1
154,227,67,0.0764351988442381,1
154,228,67,0.0606754169818383,1
155,223,67,0.0632906259084231,1
155,224,67,0.0836082976694456,1
155,225,67,0.104329738592093,1
155,226,67,0.112878244860253,1
155,227,67,0.0954159996444855,1
155,228,67,0.0656719800111768,1
156,223,67,0.0658436988116399,1
156,224,67,0.0828949864997887,1
156,225,67,0.0941447026212497,1
156,226,67,0.10231171245819,1
156,227,67,0.0885650681690615,1
156,228,67,0.0601964736695166,1
157,223,67,0.0630278996818768,1
157,224,67,0.0771874887663353,1
157,225,67,0.0767511154409828,1
157,226,67,0.0736149711149164,1
157,227,67,0.0641567090205112,1
158,211,67,0.0584649207267706,1
158,224,67,0.0594004343730844,1
158,225,67,0.0579405651039281,1
159,211,67,0.058523559866599,1
159,242,67,0.0571953161244048,1
160,241,67,0.0606567177951532,1
160,242,67,0.0665492201277456,1
162,204,67,0.0775950673491514,1
162,205,67,0.0795761078952625,1
162,206,67,0.0604045588794046,1
163,204,67,0.105115552600063,1
163,205,67,0.116411736583737,1
163,206,67,0.0844066662559254,1
164,203,67,0.0629425061396548,1
164,204,67,0.0963202890102893,1
164,205,67,0.114418430409022,1
164,206,67,0.0913843582854274,1
164,207,67,0.0646635389470977,1
164,253,67,0.0572744648105248,1
165,204,67,0.069132597389327,1
165,205,67,0.0842689491932188,1
165,206,67,0.0797184599503167,1
165,207,67,0.0704199340807378,1
165,208,67,0.0645307517235803,1
166,205,67,0.0628005314885576,1
166,206,67,0.0660388284513144,1
166,207,67,0.0820749230827148,1
166,208,67,0.114475630696264,1
166,209,67,0.110119068117923,1
166,210,67,0.0643689692616743,1
167,203,67,0.0597981002050907,1
167,206,67,0.0571473327494265,1
167,207,67,0.114178708133046,1
167,208,67,0.239761290110139,1
167,209,67,0.255803977516914,1
167,210,67,0.127972775588153,1
168,203,67,0.0681924959261602,1
168,204,67,0.0625340430163143,1
168,207,67,0.131388033728214,1
168,208,67,0.300200363760804,1
168,209,67,0.327690656695151,2
168,210,67,0.163170518278476,1
168,258,67,0.0577258517370442,1
169,203,67,0.0791611345536627,1
169,204,67,0.0711305385563902,1
169,205,67,0.0602578195033496,1
169,207,67,0.0914989003863956,1
169,208,67,0.18599399899403,1
169,209,67,0.203160135423862,1
169,210,67,0.106022171255915,1
169,258,67,0.0635722989930013,1
170,202,67,0.102986204092701,1
170,203,67,0.109216376822,1
170,204,67,0.092878028796488,1
170,205,67,0.0703943767565206,1
170,206,67,0.0573499986743686,1
170,207,67,0.0619984360380019,1
170,208,67,0.0761765945765353,1
170,209,67,0.0771308015125973,1
170,258,67,0.0633775349634102,1
171,200,67,0.10213526431439,1
171,203,67,0.147257068139247,1
171,204,67,0.123295148387216,1
171,205,67,0.083845596304385,1
171,206,67,0.06215048855414,1
171,258,67,0.0631260836800811,1
172,199,67,0.146354707071786,1
172,200,67,0.150300323916381,1
172,201,67,0.131536801650538,1
172,203,67,0.162225251098646,1
172,204,67,0.141786680338754,1
172,205,67,0.0932175744191069,1
172,206,67,0.0621786169428147,1
172,258,67,0.0569641149221468,1
173,198,67,0.114515800629944,1
173,199,67,0.193483002622108,1
173,200,67,0.197594559269074,1
173,201,67,0.154294354612343,1
173,202,67,0.13830899722542,1
173,203,67,0.1518035946406,1
173,204,67,0.139380859845096,1
173,205,67,0.0942083659512566,1
173,206,67,0.0595068387012284,1
174,199,67,0.169152429967271,1
174,200,67,0.187915551241409,1
174,201,67,0.148133010929713,1
174,202,67,0.116296498644223,1
174,203,67,0.110990611793515,1
174,204,67,0.101481789362737,1
174,205,67,0.0729564071067807,1
175,199,67,0.13453371929807,1
175,200,67,0.16915581480901,1
175,201,67,0.139795331947066,1
175,204,67,0.0703533989424952,1
176,199,67,0.118160426024909,1
176,200,67,0.158445656613537,1
176,201,67,0.135992055363651,1
177,200,67,0.146802296370987,1
177,205,67,0.0602797384175433,1
177,221,67,0.0684395657854253,1
177,222,67,0.0912703704965211,1
177,223,67,0.0803310219542486,1
177,253,67,0.0614545143787605,1
177,254,67,0.0656843812693284,1
177,255,67,0.0608203577921604,1
178,205,67,0.079748982495344,1
178,206,67,0.0659407093194152,1
178,221,67,0.09826501032247,1
178,222,67,0.15802000391934,1
178,223,67,0.161611792760317,1
178,224,67,0.0983966830249267,1
178,253,67,0.06597501180095,1
178,254,67,0.072163074504353,1
178,255,67,0.0668488434880315,1
178,256,67,0.0587224753397178,1
179,205,67,0.0810585624324742,1
179,206,67,0.0657667378890834,1
179,221,67,0.0920998159400901,1
179,222,67,0.165101175396319,1
179,223,67,0.198968521962504,1
179,224,67,0.146891021682518,1
179,225,67,0.0745094597717102,1
179,252,67,0.0583770445741435,1
179,253,67,0.0715876101300128,1
179,254,67,0.0800804611083807,1
179,255,67,0.0780699299811873,1
180,221,67,0.0730226650889923,1
180,222,67,0.127220019808047,1
180,223,67,0.190436279446118,1
180,224,67,0.188881634608245,1
180,225,67,0.118857632660086,1
180,226,67,0.0584862853289024,1
180,252,67,0.060041714459374,1
180,253,67,0.072379580540033,1
180,254,67,0.0821699109411577,1
180,255,67,0.0844743218121655,1
181,221,67,0.0661960938596093,1
181,222,67,0.108367866581663,1
181,223,67,0.181104801493538,1
181,224,67,0.217449262519645,1
181,225,67,0.153643415343528,1
181,226,67,0.0745535334775708,1
181,253,67,0.0631971653566189,1
181,254,67,0.0677890393021876,1
182,222,67,0.0819903786993961,1
182,223,67,0.131618167584906,1
182,224,67,0.160965217224754,1
182,225,67,0.119024799025317,1
182,226,67,0.0649280106669454,1
183,222,67,0.057737451011787,1
183,223,67,0.0826111433424574,1
183,224,67,0.0935457920260771,1
183,225,67,0.0729948551349063,1
186,211,67,0.0695865082048092,1
186,212,67,0.0571933288566934,1
186,237,67,0.0617240869489655,1
186,238,67,0.0641299369273072,1
187,237,67,0.0586886740978135,1
187,238,67,0.0599627957537903,1
189,215,67,0.0568704008020589,1
193,225,67,0.071132478648607,1
193,226,67,0.0714228733027554,1
193,227,67,0.0580191064055547,1
194,225,67,0.0661921311180602,1
194,226,67,0.0752391231471942,1
194,227,67,0.0673896456676903,1
194,233,67,0.0568569027136571,1
194,234,67,0.0598957770667278,1
194,235,67,0.0575433061605629,1
195,226,67,0.069184419670181,1
195,227,67,0.0712206378542019,1
195,228,67,0.0644286993348161,1
195,231,67,0.0591299949531656,1
195,232,67,0.0630984742218473,1
195,233,67,0.0629736655538597,1
195,234,67,0.0607584871309496,1
196,226,67,0.0602794966431333,1
196,227,67,0.0675683051628012,1
196,228,67,0.0647812300123326,1
196,229,67,0.0568776717251692,1
196,231,67,0.0621434888901238,1
196,232,67,0.0640050398052671,1
196,233,67,0.0597912420675585,1
197,227,67,0.0591947138348648,1
197,228,67,0.0598415606295211,1
197,231,67,0.0585045304514516,1
153,230,68,0.0572920023006545,1
154,225,68,0.0770385911114009,1
154,226,68,0.0728257368835849,1
154,227,68,0.0652554262905069,1
155,224,68,0.063722051703776,1
155,225,68,0.0759083783018011,1
155,226,68,0.0820773408268147,1
155,227,68,0.0802933405279108,1
155,228,68,0.0618791645936968,1
156,224,68,0.0708566435314896,1
156,225,68,0.0770131045504256,1
156,226,68,0.0858149609155744,1
156,227,68,0.0853443322841818,1
156,228,68,0.0632258539542924,1
157,223,68,0.0604577787342871,1
157,224,68,0.076511522897617,1
157,225,68,0.0754640500086661,1
157,226,68,0.0741657686025005,1
157,227,68,0.0704461695526905,1
158,224,68,0.0600333054274557,1
158,225,68,0.0596275372042462,1
158,226,68,0.0585568775596834,1
160,242,68,0.0598841718950481,1
162,205,68,0.0984737795770302,1
162,206,68,0.070478514251198,1
163,204,68,0.121545173413816,1
163,205,68,0.153599471370277,1
163,206,68,0.109907332704138,1
163,207,68,0.0619878687272042,1
164,204,68,0.104844564765019,1
164,205,68,0.140623191114628,1
164,206,68,0.11449931279457,1
164,207,68,0.0814993938420695,1
164,208,68,0.0724864802108707,1
164,209,68,0.0593702184687721,1
165,204,68,0.0665480525342534,1
165,205,68,0.0881513862566273,1
165,206,68,0.0886224040858507,1
165,207,68,0.0868101279748513,1
165,208,68,0.086977064359546,1
165,209,68,0.0676141243619632,1
166,206,68,0.0636606645913852,1
166,207,68,0.0889094374860066,1
166,208,68,0.135443522299809,1
166,209,68,0.136566676476025,1
166,210,68,0.0749754828954394,1
167,207,68,0.121464019769174,1
167,208,68,0.272550145899652,1
167,209,68,0.311552226622019,2
167,210,68,0.157695035524563,1
168,207,68,0.143033493280275,1
168,208,68,0.33899730184476,2
168,209,68,0.391796988184331,2
168,210,68,0.198905047334476,2
169,203,68,0.0731002216021685,1
169,204,68,0.0653448769252673,1
169,205,68,0.0572516554588699,1
169,207,68,0.0936279245622326,1
169,208,68,0.194392546158627,1
169,209,68,0.222839015605937,2
169,210,68,0.114887567115397,1
170,203,68,0.0956437157570775,1
170,204,68,0.0830557487916233,1
170,205,68,0.0662738862502586,1
170,207,68,0.058804448658579,1
170,208,68,0.0728327955169694,1
170,209,68,0.0757184143787888,1
171,203,68,0.12641729338525,1
171,204,68,0.107580236317149,1
171,205,68,0.077539877917368,1
171,206,68,0.0595470204287818,1
172,200,68,0.118005242235315,1
172,203,68,0.128635555906122,1
172,204,68,0.109235471103453,1
172,205,68,0.0788562393318516,1
172,206,68,0.0586196799369132,1
173,199,68,0.134007394098327,1
173,200,68,0.151018051891723,1
173,201,68,0.136610809151253,1
173,204,68,0.0997604499145793,1
173,205,68,0.0765551248485313,1
174,199,68,0.131389649488905,1
174,200,68,0.152768168391607,1
174,201,68,0.132364330589638,1
174,205,68,0.0640200357156235,1
175,200,68,0.149464197243385,1
176,200,68,0.143564017099041,1
177,205,68,0.0624032725451925,1
177,221,68,0.075325595828856,1
177,222,68,0.102971143316039,1
177,223,68,0.0935894942249175,1
178,205,68,0.0842091070782773,1
178,206,68,0.0728025855095939,1
178,221,68,0.11326250105791,1
178,222,68,0.179680797394177,1
178,223,68,0.183921131347616,1
178,224,68,0.105459402986567,1
178,253,68,0.059460034713616,1
179,205,68,0.0784841662056835,1
179,206,68,0.066114851760915,1
179,221,68,0.104413192042098,1
179,222,68,0.182061485143069,1
179,223,68,0.213063781363094,1
179,224,68,0.14455828782392,1
179,225,68,0.0757641392269616,1
179,253,68,0.0612257132297919,1
180,221,68,0.0761163750576367,1
180,222,68,0.123617675450146,1
180,223,68,0.166576447464473,1
180,224,68,0.147367612117045,1
180,225,68,0.104768812714513,1
180,226,68,0.0629248153291675,1
181,221,68,0.0686925384784563,1
181,222,68,0.102572899584223,1
181,223,68,0.145664623936299,1
181,224,68,0.158778279232319,1
181,225,68,0.126922637283756,1
181,226,68,0.0781460653325877,1
182,222,68,0.0818522547480484,1
182,223,68,0.115328846692191,1
182,224,68,0.127087645370107,1
182,225,68,0.100530377574732,1
182,226,68,0.064788807576158,1
183,223,68,0.0759332044058515,1
183,224,68,0.0824635430136253,1
183,225,68,0.0653500721266137,1
186,238,68,0.0576762290136274,1
187,238,68,0.0602144829145926,1
154,226,69,0.0595061369657458,1
154,227,69,0.0579176142257893,1
155,225,69,0.0606920935191909,1
155,226,69,0.0648332056135442,1
155,227,69,0.0685965481407524,1
155,228,69,0.0619819364087541,1
156,224,69,0.0632076678011115,1
156,225,69,0.068224174270806,1
156,226,69,0.0747631459940976,1
156,227,69,0.0793692315574244,1
156,228,69,0.067809383734248,1
157,223,69,0.057348465470793,1
157,224,69,0.0736045040520448,1
157,225,69,0.0770595783095756,1
157,226,69,0.077484776939637,1
157,227,69,0.0765739006953951,1
157,228,69,0.0624143469925575,1
158,224,69,0.0624937433500243,1
158,225,69,0.0672715713015615,1
158,226,69,0.0678379249085008,1
158,227,69,0.0643480764144888,1
162,205,69,0.106367436907258,1
162,206,69,0.0820390402221098,1
163,204,69,0.116465493059871,1
163,205,69,0.158890651260534,1
163,206,69,0.124093357756401,1
163,207,69,0.0771348703990094,1
163,208,69,0.0627388849109463,1
164,204,69,0.0986366470753127,1
164,205,69,0.141673848349466,1
164,206,69,0.126446412459312,1
164,207,69,0.0997630445667841,1
164,208,69,0.0905687765403436,1
164,209,69,0.0701123911342904,1
165,205,69,0.0884582215706553,1
165,206,69,0.099112223236705,1
165,207,69,0.108033309767601,1
165,208,69,0.113497423227308,1
165,209,69,0.089487862122635,1
165,210,69,0.061640055599151,1
166,205,69,0.0582554320459172,1
166,206,69,0.0751275766901352,1
166,207,69,0.105789183281797,1
166,208,69,0.149297809273815,1
166,209,69,0.150557595476361,1
166,210,69,0.0923658562451344,1
167,206,69,0.0673586454707798,1
167,207,69,0.129463344310442,1
167,208,69,0.254641997908616,1
167,209,69,0.295191364091693,1
167,210,69,0.166923647311096,1
167,211,69,0.068506372182762,1
168,206,69,0.0661232784836437,1
168,207,69,0.142849048890135,1
168,208,69,0.297793540787886,1
168,209,69,0.348687525846274,2
168,210,69,0.19524816810478,1
168,211,69,0.0737310818010811,1
169,204,69,0.0611128458588832,1
169,205,69,0.0582290432536071,1
169,206,69,0.0624704032740548,1
169,207,69,0.097216299076785,1
169,208,69,0.173281759981839,1
169,209,69,0.198884195765848,1
169,210,69,0.115167954667746,1
170,204,69,0.0735550287520487,1
170,205,69,0.0647159745093819,1
170,206,69,0.0611862627224053,1
170,207,69,0.0651628974547217,1
170,208,69,0.0766868860050404,1
170,209,69,0.0789695489730225,1
170,210,69,0.0591853259114329,1
171,204,69,0.0894263865561917,1
171,205,69,0.0716637572752868,1
171,206,69,0.0602061918214109,1
172,204,69,0.0877442145624525,1
172,205,69,0.0709458582887769,1
172,206,69,0.0586168670980457,1
173,200,69,0.117643642068955,1
173,205,69,0.0669774910618949,1
174,200,69,0.127088671437116,1
174,205,69,0.0598081544823843,1
177,205,69,0.0585116008787096,1
177,221,69,0.0795185302040633,1
177,222,69,0.104889570186899,1
177,223,69,0.101945736764703,1
177,224,69,0.0660691858821105,1
178,205,69,0.0744544944235263,1
178,206,69,0.0689196707943023,1
178,220,69,0.0671985908113647,1
178,221,69,0.114054848871888,1
178,222,69,0.165940910994655,1
178,223,69,0.168907919378589,1
178,224,69,0.105150073268261,1
178,225,69,0.0572688214419794,1
179,206,69,0.0597640512918396,1
179,220,69,0.0626816787267674,1
179,221,69,0.106885471013819,1
179,222,69,0.166050086883108,1
179,223,69,0.18609868141662,1
179,224,69,0.131910396186408,1
179,225,69,0.0797399837697428,1
180,221,69,0.0830466203334119,1
180,222,69,0.118939399586158,1
180,223,69,0.142615695305934,1
180,224,69,0.123275700289554,1
180,225,69,0.0964909876406809,1
180,226,69,0.0698791495918895,1
181,221,69,0.0712112204460858,1
181,222,69,0.0974759883808644,1
181,223,69,0.120823364758188,1
181,224,69,0.122695512468813,1
181,225,69,0.107414909796208,1
181,226,69,0.0817548609393792,1
182,221,69,0.05830878163341,1
182,222,69,0.0817535518194032,1
182,223,69,0.103807765331729,1
182,224,69,0.10699744205033,1
182,225,69,0.0900971631205005,1
182,226,69,0.0683537299729411,1
183,223,69,0.0716960371074893,1
183,224,69,0.075928769909356,1
183,225,69,0.0649757050920191,1
187,238,69,0.0583907844369553,1
155,226,70,0.0573477342506262,1
155,227,70,0.0615707312097882,1
155,228,70,0.0606986862945659,1
156,224,70,0.057518945914522,1
156,225,70,0.0635866108586855,1
156,226,70,0.0687572573601556,1
156,227,70,0.0731127997684249,1
156,228,70,0.0676912621926245,1
157,224,70,0.0674040872659848,1
157,225,70,0.0748068953684326,1
157,226,70,0.0772779182926094,1
157,227,70,0.0763285350508736,1
157,228,70,0.0654440280211116,1
158,224,70,0.061649750163298,1
158,225,70,0.069539592175397,1
158,226,70,0.071007268988915,1
158,227,70,0.0667154429830839,1
163,205,70,0.132765204355279,1
163,206,70,0.114333656045167,1
163,207,70,0.081529220548551,1
163,208,70,0.0667857344700866,1
163,209,70,0.0576965439610036,1
164,205,70,0.120042728260754,1
164,206,70,0.118283271012932,1
164,207,70,0.104245577509668,1
164,208,70,0.0948866080375909,1
164,209,70,0.0747262370664843,1
164,210,70,0.0574881639042741,1
165,206,70,0.0981359676538391,1
165,207,70,0.112580803366594,1
165,208,70,0.117872926766744,1
165,209,70,0.0953547894401995,1
165,210,70,0.068042312738997,1
166,206,70,0.0797378254908634,1
166,207,70,0.111396486161588,1
166,208,70,0.143595860557918,1
166,209,70,0.139882960428346,1
166,210,70,0.0939427974011586,1
166,211,70,0.0592692157347635,1
167,206,70,0.0730062951923548,1
167,207,70,0.123266807708815,1
167,208,70,0.201993249564122,1
167,209,70,0.225795692556547,1
167,210,70,0.143212712984385,1
167,211,70,0.0721716427535657,1
168,206,70,0.0714245362389412,1
168,207,70,0.125974940565953,1
168,208,70,0.217783406548128,1
168,209,70,0.248290973355941,1
168,210,70,0.156413159396656,1
168,211,70,0.0752350660546558,1
169,205,70,0.0580755813695669,1
169,206,70,0.0658857911467259,1
169,207,70,0.0918613143300377,1
169,208,70,0.136224642346064,1
169,209,70,0.151043231811983,1
169,210,70,0.100800905448704,1
169,211,70,0.0590320055538766,1
170,205,70,0.0632800114221308,1
170,206,70,0.0628032853580568,1
170,207,70,0.0662385164231578,1
170,208,70,0.0739995575410358,1
170,209,70,0.0749018301544441,1
170,210,70,0.0605379534874154,1
171,205,70,0.0674040990598584,1
171,206,70,0.0603815549288344,1
172,205,70,0.0666196295534849,1
172,206,70,0.0582424941665142,1
176,222,70,0.0614981694021063,1
176,223,70,0.0607580153760033,1
177,220,70,0.0602302277359263,1
177,221,70,0.0804144518165066,1
177,222,70,0.100178365827657,1
177,223,70,0.0996731162801405,1
177,224,70,0.0712543801267379,1
178,206,70,0.0593277605236027,1
178,220,70,0.072428884828861,1
178,221,70,0.107716844755731,1
178,222,70,0.142887614856997,1
178,223,70,0.143863027177897,1
178,224,70,0.100719515926589,1
178,225,70,0.062304817287894,1
179,220,70,0.0693751442980442,1
179,221,70,0.104386832734472,1
179,222,70,0.143685411440605,1
179,223,70,0.153450149135891,1
179,224,70,0.118454565233944,1
179,225,70,0.0805734980997239,1
180,220,70,0.0626493929976281,1
180,221,70,0.0863194969337344,1
180,222,70,0.113701091631511,1
180,223,70,0.126125843179409,1
180,224,70,0.112076261451498,1
180,225,70,0.0916024741848617,1
180,226,70,0.0715509547706832,1
181,217,70,0.0576335116032375,1
181,218,70,0.0582528255998388,1
181,221,70,0.0730536829767133,1
181,222,70,0.0942926390754811,1
181,223,70,0.108444526760441,1
181,224,70,0.106750796770517,1
181,225,70,0.0960523322007755,1
181,226,70,0.0795119963980566,1
182,221,70,0.0606228634808175,1
182,222,70,0.0798720161853461,1
182,223,70,0.0957504974891786,1
182,224,70,0.0967130191061697,1
182,225,70,0.0846137430896156,1
182,226,70,0.0686793942062643,1
183,222,70,0.0578689939816334,1
183,223,70,0.0699441338357461,1
183,224,70,0.0734265580862902,1
183,225,70,0.0658099801268511,1
