x,y,z,signal,cytoplasm.p
139,813,41,0.0611246220417309,1
128,784,42,0.0765794202282671,1
129,817,42,0.0571654481393655,1
131,816,42,0.0843775059033055,1
132,815,42,0.0634855609491823,1
132,816,42,0.10612113364978,1
133,815,42,0.0658565836186114,1
133,816,42,0.0963456340447807,1
134,815,42,0.0602339840846864,1
138,814,42,0.0608688188190219,1
139,813,42,0.0595454400497116,1
139,814,42,0.061951337203548,1
140,789,42,0.0611076683483473,1
140,790,42,0.0576183682694604,1
140,813,42,0.061515152580174,1
141,788,42,0.0799345237157344,1
141,789,42,0.112293009261587,1
141,790,42,0.109477799825507,1
141,791,42,0.0634796109399217,1
141,813,42,0.0589809380809367,1
142,788,42,0.102376920785646,1
142,789,42,0.147965184107557,1
142,790,42,0.146013121109024,1
142,791,42,0.0851885234192836,1
143,789,42,0.112971935392594,1
143,790,42,0.111075669210338,1
143,791,42,0.0709652120354499,1
144,789,42,0.0785609089415772,1
144,790,42,0.0778432812141614,1
144,791,42,0.0606033564137868,1
145,790,42,0.0748404017634955,1
145,791,42,0.0635753654001524,1
146,791,42,0.0687083481660951,1
149,794,42,0.069964525443301,1
149,795,42,0.0645657382497873,1
128,783,43,0.0668137744047089,1
128,784,43,0.0586984158374551,1
128,818,43,0.0727339628557138,1
129,817,43,0.0668450576545873,1
129,818,43,0.114277352092323,1
130,816,43,0.0573028703552305,1
130,817,43,0.0851460890618615,1
131,816,43,0.115086541557884,1
131,817,43,0.151526415021885,1
132,815,43,0.0770172088184586,1
132,816,43,0.171634887051959,1
132,817,43,0.216685161033079,1
133,815,43,0.0761030479804029,1
133,816,43,0.142926605403311,1
134,815,43,0.0655910150685134,1
134,816,43,0.0802317588166046,1
135,815,43,0.0605488805113597,1
136,815,43,0.0578173014333897,1
137,814,43,0.0583336077374604,1
137,815,43,0.0610862801584681,1
138,814,43,0.0641372904075331,1
139,813,43,0.0584507032120756,1
139,814,43,0.0642161796284326,1
140,813,43,0.0573614505256907,1
140,814,43,0.0619747480427595,1
141,788,43,0.0661721287083359,1
141,789,43,0.0765285591481162,1
141,790,43,0.0696885311088893,1
142,787,43,0.062743242747263,1
142,788,43,0.0848420488958906,1
142,789,43,0.0998508735439166,1
142,790,43,0.0931831422049619,1
142,791,43,0.0638843236114389,1
143,787,43,0.0621225547643806,1
143,788,43,0.077489983934857,1
143,789,43,0.0882196256096135,1
143,790,43,0.0856745725404844,1
143,791,43,0.0642095278836894,1
144,788,43,0.0660704596204656,1
144,789,43,0.0716668295793748,1
144,790,43,0.0715614749059863,1
144,791,43,0.0597536431983363,1
145,789,43,0.0681238909630906,1
145,790,43,0.0717092344521128,1
145,791,43,0.0629579797018943,1
146,790,43,0.0758781447066783,1
146,791,43,0.0668554775419642,1
147,791,43,0.0587008099938077,1
148,793,43,0.0624542220793958,1
148,794,43,0.0672451648184409,1
149,793,43,0.0729606941798554,1
149,794,43,0.0873550874949746,1
149,795,43,0.067185540890162,1
150,794,43,0.0765332118312744,1
150,795,43,0.0632493591444932,1
124,804,44,0.0635784200134299,1
124,805,44,0.059632478837309,1
128,818,44,0.0905682222282816,1
129,817,44,0.0828716051452614,1
129,818,44,0.153029556013493,1
130,816,44,0.0612073088899483,1
130,817,44,0.107951625398645,1
131,816,44,0.132140364928869,1
131,817,44,0.193375831692177,1
131,818,44,0.163710713073641,1
132,815,44,0.0864770866735549,1
132,816,44,0.223440455987009,1
132,817,44,0.297518908645881,1
133,815,44,0.0796148684610401,1
133,816,44,0.173834102466873,1
133,817,44,0.228521657750655,1
134,815,44,0.0688469792540101,1
134,816,44,0.09022542739347,1
135,815,44,0.0642851089230278,1
135,816,44,0.0642762399300369,1
136,815,44,0.0624003771492094,1
137,814,44,0.068802887857339,1
137,815,44,0.0759061256719324,1
138,813,44,0.0627206869638918,1
138,814,44,0.0840329596782556,1
138,815,44,0.0924338302359633,1
139,813,44,0.0618500160349506,1
139,814,44,0.0801778490201131,1
140,814,44,0.0659531636499982,1
142,787,44,0.0580281287189032,1
142,788,44,0.0682307375614968,1
142,789,44,0.0672064278404106,1
142,790,44,0.0580488800396048,1
143,787,44,0.0583781414043937,1
143,788,44,0.0653967640724265,1
143,789,44,0.0667390484212107,1
143,790,44,0.0642023690023789,1
144,787,44,0.0573273013645134,1
144,788,44,0.0603516633560477,1
144,789,44,0.0631147969429902,1
144,790,44,0.0632096904504439,1
145,788,44,0.0594580474459046,1
145,789,44,0.0636120797288504,1
145,790,44,0.0655394994283745,1
145,791,44,0.0592979574048685,1
146,789,44,0.064300836053551,1
146,790,44,0.0677399590969591,1
146,791,44,0.0622091041062211,1
147,790,44,0.062918794556665,1
147,791,44,0.058928001279022,1
147,793,44,0.0646793840163574,1
147,794,44,0.0656838623388874,1
148,792,44,0.0597874739249247,1
148,793,44,0.0917397312864956,1
148,794,44,0.10546505225205,1
148,795,44,0.0659381854304523,1
149,792,44,0.0590414937252346,1
149,793,44,0.0956315503763991,1
149,794,44,0.115149037294399,1
149,795,44,0.0737461720624268,1
150,793,44,0.0616882040883605,1
150,794,44,0.0749961339682148,1
124,804,45,0.0743072361170303,1
124,805,45,0.0630417221018042,1
128,817,45,0.064625126300593,1
128,818,45,0.10672343498363,1
129,782,45,0.0651840969426222,1
129,783,45,0.0571904865331418,1
129,817,45,0.099361816984933,1
130,782,45,0.0595753729010561,1
130,816,45,0.0717114575972973,1
130,817,45,0.129728635704509,1
131,815,45,0.0613114723820974,1
131,816,45,0.137669686716032,1
131,817,45,0.209232588680731,1
132,815,45,0.0964325077181468,1
132,816,45,0.243051309105823,1
132,817,45,0.328140734501694,1
133,815,45,0.0882365439213762,1
133,816,45,0.191665295432289,1
133,817,45,0.252090841509869,1
134,815,45,0.0764416795778133,1
134,816,45,0.105113052298848,1
135,815,45,0.0697139410096858,1
136,814,45,0.0607975720282528,1
136,815,45,0.0704003208688443,1
137,813,45,0.0623153904956286,1
137,814,45,0.100698876647687,1
137,815,45,0.113757124325261,1
138,813,45,0.0803141272302333,1
138,814,45,0.138189997040209,1
138,815,45,0.155100017709681,1
139,813,45,0.072108079671485,1
139,814,45,0.115265796643615,1
139,815,45,0.129158873668082,1
140,814,45,0.0704936575849751,1
144,789,45,0.0573347727834759,1
144,790,45,0.057264693586199,1
145,789,45,0.0588642671857732,1
145,790,45,0.059516550956186,1
146,788,45,0.0572972033989378,1
146,789,45,0.0587882084945517,1
146,790,45,0.0596428810338755,1
147,789,45,0.0577941500593987,1
147,790,45,0.0596859699512856,1
147,791,45,0.0573401330990535,1
147,792,45,0.0574608728806291,1
147,793,45,0.0839630338013363,1
147,794,45,0.0972766837099149,1
147,795,45,0.057601615071929,1
148,792,45,0.0680934155935578,1
148,793,45,0.135930680045134,1
148,794,45,0.166989716591329,1
148,795,45,0.095599258750323,1
149,792,45,0.0640504580127247,1
149,793,45,0.120728412281366,1
149,794,45,0.149083514589446,1
149,795,45,0.0859051604613122,1
150,793,45,0.062274282948993,1
150,794,45,0.0717512206423359,1
124,804,46,0.0642985480420613,1
128,783,46,0.0574426336550167,1
128,817,46,0.0737047637720129,1
129,782,46,0.0714413778905251,1
129,783,46,0.0628044293638017,1
129,816,46,0.0625741834653099,1
129,817,46,0.107422151234635,1
130,782,46,0.062472396438703,1
130,783,46,0.0596001872112329,1
130,816,46,0.0802607363641827,1
130,817,46,0.137878579806265,1
131,815,46,0.0630469232000874,1
131,816,46,0.129250111074702,1
132,815,46,0.0944400153207136,1
132,816,46,0.218054500528035,1
132,817,46,0.29905329160881,1
133,815,46,0.0930416628965584,1
133,816,46,0.1864438409231,1
134,815,46,0.0823163436764976,1
135,814,46,0.0582315848333804,1
135,815,46,0.0739150013638435,1
136,814,46,0.0681586475087612,1
136,815,46,0.080333699163569,1
137,813,46,0.0702277175278569,1
137,814,46,0.143152576022602,1
137,815,46,0.1656724352547,1
137,816,46,0.101359144870566,1
138,813,46,0.0987174704914922,1
138,814,46,0.214897304137489,1
138,815,46,0.243741109188343,1
138,816,46,0.140767017403889,1
139,813,46,0.0786683806152873,1
139,814,46,0.156127794829622,1
139,815,46,0.176400885748217,1
139,816,46,0.107476874808409,1
140,814,46,0.0718293963338791,1
140,815,46,0.0771471065429297,1
147,790,46,0.0576902814140911,1
147,792,46,0.0571591796955161,1
147,793,46,0.099309888559216,1
147,794,46,0.127684356407843,1
147,795,46,0.0693775856298915,1
148,792,46,0.0747979909938207,1
148,793,46,0.173988967821878,1
148,794,46,0.227457661644709,1
148,795,46,0.125094327401518,1
149,792,46,0.0640889060408504,1
149,793,46,0.133379735936112,1
149,794,46,0.175488771147241,1
149,795,46,0.095143684998655,1
150,793,46,0.0601261291100824,1
150,794,46,0.0707965360543907,1
128,783,47,0.0619333161645983,1
129,782,47,0.0815427304308264,1
129,783,47,0.0689368190866013,1
129,816,47,0.073591454130842,1
130,782,47,0.0685143271505445,1
130,783,47,0.0651761183870925,1
130,816,47,0.084452119845004,1
131,783,47,0.0587968828886272,1
131,815,47,0.0633556160492165,1
131,816,47,0.112120771530683,1
132,815,47,0.0829694530180664,1
132,816,47,0.163950152296649,1
133,815,47,0.0871416655572563,1
134,815,47,0.0794233595405786,1
134,816,47,0.105965997035681,1
135,814,47,0.0593646045849108,1
135,815,47,0.0738411245392487,1
135,816,47,0.0800091907298643,1
136,814,47,0.0793469470331473,1
136,815,47,0.0952660405409218,1
136,816,47,0.0782257034644645,1
137,813,47,0.0758384583218186,1
137,814,47,0.177977514366589,1
137,815,47,0.216657775658445,1
137,816,47,0.123756654457334,1
138,813,47,0.111262578520073,1
138,814,47,0.276518005989967,1
138,815,47,0.326498319656057,1
138,816,47,0.179753471243658,1
139,813,47,0.080625697784535,1
139,814,47,0.182855012344412,1
139,815,47,0.216240555583913,1
139,816,47,0.122880275293542,1
140,814,47,0.0752413286015683,1
140,815,47,0.0821493483224347,1
140,816,47,0.0677741613305678,1
147,792,47,0.0613667089893754,1
147,793,47,0.107660529009014,1
147,794,47,0.142240567566489,1
147,795,47,0.0789238595064707,1
148,792,47,0.0823033704154736,1
148,793,47,0.185259688832324,1
148,794,47,0.24801464289613,1
148,795,47,0.14083759194386,1
149,792,47,0.0664113261569342,1
149,793,47,0.13313628679606,1
149,794,47,0.18199049781752,1
149,795,47,0.103490533718072,1
150,793,47,0.0622853632932949,1
150,794,47,0.0759924863117944,1
128,783,48,0.0625274266531921,1
129,782,48,0.0819885093704213,1
129,783,48,0.0691216054990776,1
130,782,48,0.0681780425339921,1
130,783,48,0.0663209084245338,1
130,784,48,0.0572128418206608,1
130,815,48,0.059351006248583,1
131,783,48,0.0585146319042398,1
131,815,48,0.0611258839862123,1
132,815,48,0.0696164528500273,1
132,816,48,0.111275858421812,1
133,815,48,0.0743169188873037,1
133,816,48,0.108095510657274,1
134,814,48,0.0576658032293136,1
134,815,48,0.072298981207453,1
134,816,48,0.0896646581857078,1
135,814,48,0.0599044514608033,1
135,815,48,0.0700867394590839,1
135,816,48,0.0761093518058732,1
135,817,48,0.0771751110959311,1
136,782,48,0.0572813996082358,1
136,814,48,0.0854869555983301,1
136,815,48,0.103814523221335,1
136,816,48,0.080882674497673,1
136,817,48,0.0666948272919294,1
137,813,48,0.0785946689049237,1
137,814,48,0.185200141564224,1
137,815,48,0.238488495264948,1
137,816,48,0.134019541788195,1
137,817,48,0.0704735136487669,1
138,813,48,0.112125099882316,1
138,814,48,0.285047547709285,1
138,815,48,0.356587038834773,1
138,816,48,0.196493954979293,1
138,817,48,0.0809408654703024,1
139,813,48,0.0782981001579152,1
139,814,48,0.180461634387463,1
139,815,48,0.227679669522451,1
139,816,48,0.127110230638163,1
139,817,48,0.0717339190296793,1
140,814,48,0.0730998618890219,1
140,815,48,0.0832247078256503,1
140,816,48,0.0646336414773742,1
140,817,48,0.061900134101061,1
140,818,48,0.0726897299325589,1
147,792,48,0.0647595882541699,1
147,793,48,0.0993988969237143,1
147,794,48,0.122777821913074,1
147,795,48,0.0745476837162364,1
148,792,48,0.0811846920143115,1
148,793,48,0.157710190652213,1
148,794,48,0.210508638635051,1
148,795,48,0.13399769953418,1
149,792,48,0.0635487702150533,1
149,793,48,0.116124072211341,1
149,794,48,0.166317619113171,1
149,795,48,0.114433054812358,1
150,793,48,0.0627409842204575,1
150,794,48,0.0848373608311114,1
150,795,48,0.0697135341210446,1
153,805,48,0.0578771140636471,1
127,783,49,0.059338274761969,1
127,812,49,0.0675132631544385,1
127,813,49,0.0596293121822318,1
128,782,49,0.0756901975360617,1
128,783,49,0.0600352867982303,1
128,812,49,0.0619259980659934,1
128,813,49,0.0587566362947687,1
129,782,49,0.073678746486723,1
129,783,49,0.0619898618918524,1
130,781,49,0.0660510233166769,1
130,782,49,0.0618518381884308,1
130,783,49,0.0594492138345346,1
130,815,49,0.0648457425012428,1
131,815,49,0.0623693061890569,1
131,816,49,0.0823330909770922,1
132,815,49,0.0624957777932304,1
132,816,49,0.081160732759975,1
133,815,49,0.0629481141265792,1
133,816,49,0.0770885912387747,1
133,817,49,0.0920156548576654,1
134,815,49,0.0631259598444077,1
134,816,49,0.0739571054928032,1
134,817,49,0.081368711825,1
135,782,49,0.0580592940300449,1
135,814,49,0.0577529953372685,1
135,815,49,0.0649301748427617,1
135,816,49,0.0697595007436273,1
135,817,49,0.0716530956134998,1
135,818,49,0.0713330157793538,1
136,813,49,0.0581934611367803,1
136,814,49,0.0828641750048567,1
136,815,49,0.100623372268527,1
136,816,49,0.0793890216774228,1
136,817,49,0.066411644591523,1
136,818,49,0.0678743031117994,1
137,813,49,0.076469118024879,1
137,814,49,0.161167187311151,1
137,815,49,0.212564074936198,1
137,816,49,0.127171759277037,1
137,817,49,0.0733368008108147,1
137,818,49,0.0716776150768352,1
138,813,49,0.101702653234734,1
138,814,49,0.239242288905937,1
138,815,49,0.309942504394161,1
138,816,49,0.181226160453481,1
138,817,49,0.0854774792208458,1
138,818,49,0.077949184302675,1
138,819,49,0.0829536610212381,1
139,813,49,0.0744419398450172,1
139,814,49,0.157443519374928,1
139,815,49,0.203832362634631,1
139,816,49,0.120998716071738,1
139,817,49,0.0726923599663846,1
139,818,49,0.0761031246405817,1
139,819,49,0.086199576826378,1
140,814,49,0.0725395290545852,1
140,815,49,0.0839689307381653,1
140,816,49,0.0649131444891993,1
140,817,49,0.0597647471303854,1
140,818,49,0.0698775869036298,1
140,819,49,0.080850170581871,1
141,818,49,0.0623329869551266,1
147,792,49,0.0616735030248455,1
147,793,49,0.076123610599126,1
147,794,49,0.0830597822964144,1
147,795,49,0.0589891819986238,1
148,792,49,0.0694635983504805,1
148,793,49,0.105861585872185,1
148,794,49,0.136216127169283,1
148,795,49,0.103793553713971,1
149,792,49,0.0573200599260873,1
149,793,49,0.0878951879391508,1
149,794,49,0.126958349133193,1
149,795,49,0.108608084200332,1
149,796,49,0.0625664289933797,1
150,793,49,0.0612866934535415,1
150,794,49,0.084084286616416,1
150,795,49,0.0793661592533365,1
153,804,49,0.0591930921772368,1
153,805,49,0.0589160599819431,1
127,783,50,0.059715147994716,1
127,811,50,0.0717721429742055,1
127,812,50,0.0872694167967216,1
127,813,50,0.0681609060355667,1
128,782,50,0.073197603616964,1
128,783,50,0.0582968521302047,1
128,811,50,0.0600911484808123,1
128,812,50,0.0718284882056074,1
128,813,50,0.0616409047580543,1
129,781,50,0.073216237937344,1
129,782,50,0.0648431773337222,1
129,814,50,0.0587217500164878,1
129,815,50,0.0720790667422858,1
130,781,50,0.0604399405003792,1
130,814,50,0.0593959173194733,1
130,815,50,0.0710786808939152,1
131,814,50,0.0571114734765688,1
131,815,50,0.0664776725931983,1
131,816,50,0.0798628582424505,1
132,815,50,0.0618787223234346,1
132,816,50,0.071291501344077,1
132,817,50,0.0878716591612027,1
133,815,50,0.0587945300108324,1
133,816,50,0.0655389687040599,1
133,817,50,0.0754078227160008,1
133,818,50,0.0850579593409508,1
134,782,50,0.0593107183761666,1
134,815,50,0.0589739502107943,1
134,816,50,0.0666389715062843,1
134,817,50,0.073187254492829,1
134,818,50,0.0757178246851059,1
135,782,50,0.0600418029134265,1
135,815,50,0.0626291959889885,1
135,816,50,0.066479370911005,1
135,817,50,0.0680944593513766,1
135,818,50,0.0685234497118191,1
135,819,50,0.0723143840064506,1
136,814,50,0.0742900524431104,1
136,815,50,0.0872637026649343,1
136,816,50,0.0743355355168731,1
136,817,50,0.0661639968324486,1
136,818,50,0.067112289140871,1
136,819,50,0.0728729300690281,1
137,813,50,0.0704989530342476,1
137,814,50,0.121791512052914,1
137,815,50,0.154014368051698,1
137,816,50,0.104046119518361,1
137,817,50,0.0718097536373014,1
137,818,50,0.0711465664306917,1
137,819,50,0.0752901906201341,1
137,820,50,0.0836860723692845,1
138,813,50,0.0880331054977095,1
138,814,50,0.170288981983962,1
138,815,50,0.214769505722529,1
138,816,50,0.13793391666147,1
138,817,50,0.0810899577241522,1
138,818,50,0.076579319980341,1
138,819,50,0.0806259277650713,1
138,820,50,0.0901848918497068,1
139,813,50,0.0687918959670896,1
139,814,50,0.122236707195763,1
139,815,50,0.151585219275945,1
139,816,50,0.0992555188016519,1
139,817,50,0.0682972373181184,1
139,818,50,0.0729298237155552,1
139,819,50,0.082202090525434,1
139,820,50,0.0951482492277607,1
140,814,50,0.0661204007784711,1
140,815,50,0.0746772453153083,1
140,816,50,0.0597025934162068,1
140,818,50,0.0652697853316857,1
140,819,50,0.0761487787255125,1
140,820,50,0.0874535899277677,1
141,818,50,0.0583710709771356,1
141,819,50,0.0652949180764513,1
147,793,50,0.0586409442911188,1
148,792,50,0.0589125925830876,1
148,793,50,0.0693578839639455,1
148,794,50,0.0813531851903291,1
148,795,50,0.0723691193740982,1
149,793,50,0.0671672132104972,1
149,794,50,0.0907331713452649,1
149,795,50,0.0882890148652814,1
149,796,50,0.0575370377167136,1
150,793,50,0.0575696182926943,1
150,794,50,0.0733185910698864,1
150,795,50,0.0727875424237429,1
151,803,50,0.0626576840908098,1
151,804,50,0.057898614295326,1
152,802,50,0.0640898318599326,1
152,803,50,0.0788624664971431,1
152,804,50,0.07544845850769,1
152,805,50,0.0621762994466409,1
152,806,50,0.0623862598824406,1
153,804,50,0.0725827359107319,1
153,805,50,0.0611671861317632,1
153,806,50,0.0575373856359865,1
126,783,51,0.0572911649356248,1
127,782,51,0.0726950253818314,1
127,783,51,0.0608519240950065,1
127,784,51,0.0580567170686506,1
127,811,51,0.0788683221554144,1
127,812,51,0.0939398371388704,1
128,781,51,0.0783954880696476,1
128,782,51,0.0669241886498968,1
128,783,51,0.0577719362983635,1
128,784,51,0.0579535619526994,1
128,811,51,0.062183989052266,1
128,812,51,0.0725800999799693,1
128,813,51,0.0609123382128205,1
128,814,51,0.0577103545870573,1
129,781,51,0.0653247624737433,1
129,782,51,0.058457142667093,1
129,814,51,0.0625768665715672,1
129,815,51,0.0726251230926594,1
130,814,51,0.0649115051407608,1
130,815,51,0.0726720332251348,1
130,816,51,0.0856471340934186,1
131,781,51,0.0568786859983038,1
131,782,51,0.0571823251725703,1
131,814,51,0.0607240490198678,1
131,815,51,0.0679870230592874,1
131,816,51,0.0786274499767566,1
131,817,51,0.0884518410850062,1
132,780,51,0.058653947036827,1
132,781,51,0.0588442176005543,1
132,782,51,0.0589643558945733,1
132,814,51,0.0575767241015734,1
132,815,51,0.0628481079748947,1
132,816,51,0.0687139207713986,1
132,817,51,0.075930462330226,1
132,818,51,0.0885958030038147,1
133,780,51,0.0612977148284751,1
133,781,51,0.0613102870977947,1
133,782,51,0.0596278143602772,1
133,815,51,0.0580410253197484,1
133,816,51,0.0617999451443348,1
133,817,51,0.0684074097888963,1
133,818,51,0.0792069419589511,1
133,819,51,0.089507251250929,1
134,780,51,0.0574722067932146,1
134,781,51,0.0638551219802612,1
134,782,51,0.0633607935597524,1
134,816,51,0.060974149904663,1
134,817,51,0.0660958164488307,1
134,818,51,0.0710329973243003,1
134,819,51,0.075266490831018,1
135,781,51,0.0582887674298121,1
135,782,51,0.0596508183108474,1
135,815,51,0.0602146952043185,1
135,816,51,0.0621357639028777,1
135,817,51,0.0630010450315571,1
135,818,51,0.064417247483494,1
135,819,51,0.0681691204685697,1
135,820,51,0.0773608233274895,1
136,814,51,0.0658502208237728,1
136,815,51,0.0728934219245092,1
136,816,51,0.0672488975794537,1
136,817,51,0.0629368273894883,1
136,818,51,0.0635039181135312,1
136,819,51,0.068155616483231,1
136,820,51,0.0768720321306633,1
137,813,51,0.0635827896436203,1
137,814,51,0.0879742009957237,1
137,815,51,0.0999883783168972,1
137,816,51,0.0787930595506647,1
137,817,51,0.0657964525537652,1
137,818,51,0.0666385115452116,1
137,819,51,0.0714071225844849,1
137,820,51,0.080655229644175,1
137,821,51,0.0937262500869208,1
138,813,51,0.0746238367584472,1
138,814,51,0.112457510211372,1
138,815,51,0.129209799614538,1
138,816,51,0.0946852571295617,1
138,817,51,0.0717177732166413,1
138,818,51,0.0717953886991857,1
138,819,51,0.0777623044776243,1
138,820,51,0.0882909903391192,1
138,821,51,0.0994461313877153,1
139,813,51,0.06152747128121,1
139,814,51,0.0898069689622042,1
139,815,51,0.102695213847932,1
139,816,51,0.0771137475712876,1
139,817,51,0.0632211658895133,1
139,818,51,0.0686507763718327,1
139,819,51,0.0787097771118275,1
139,820,51,0.0925404704415805,1
139,821,51,0.0999677272441218,1
140,814,51,0.0579897160723985,1
140,815,51,0.0648716890232908,1
140,818,51,0.061836305656823,1
140,819,51,0.0721158459372889,1
140,820,51,0.084600616508234,1
141,819,51,0.0629682285781032,1
141,820,51,0.0702351948437562,1
148,794,51,0.0584181521207791,1
149,793,51,0.0577112922000131,1
149,794,51,0.0664286454604012,1
149,795,51,0.064863645601456,1
150,794,51,0.0607119602993681,1
150,795,51,0.0593691393293324,1
150,803,51,0.0572548044231366,1
151,802,51,0.10334161247539,1
151,803,51,0.13352064913858,1
151,804,51,0.0923956711577423,1
152,802,51,0.128852681120169,1
152,803,51,0.168369717748072,1
152,804,51,0.12088891510798,1
152,805,51,0.0707058647537066,1
152,806,51,0.0719809770950708,1
152,807,51,0.0593823012923349,1
153,803,51,0.119960654693966,1
153,804,51,0.0949892088414802,1
153,805,51,0.0674056558511813,1
153,806,51,0.0666234743562975,1
127,781,52,0.072790196045316,1
127,782,52,0.0657944947707379,1
127,783,52,0.064506332508171,1
127,784,52,0.0656874063979217,1
127,811,52,0.0731077342996887,1
127,812,52,0.0819290092778158,1
128,780,52,0.0624913432967349,1
128,781,52,0.0679489229504347,1
128,782,52,0.0593792407821206,1
128,783,52,0.0600552892079546,1
128,784,52,0.0648227031690516,1
128,785,52,0.057058436426728,1
128,811,52,0.0585011515066485,1
128,812,52,0.065120274395321,1
128,813,52,0.0581190064123763,1
128,814,52,0.0589832084016159,1
129,780,52,0.0574344840883189,1
129,781,52,0.0573780562998014,1
129,814,52,0.0642910589322884,1
129,815,52,0.0728638782709955,1
129,816,52,0.0874605306224155,1
130,780,52,0.0572036779808284,1
130,814,52,0.0677281003569958,1
130,815,52,0.0750036997381666,1
130,816,52,0.0879740358814925,1
130,817,52,0.0935361623282352,1
131,779,52,0.0871153534251249,1
131,780,52,0.0754288099141755,1
131,781,52,0.0600248256322955,1
131,782,52,0.0588658062862856,1
131,814,52,0.0632002553515174,1
131,815,52,0.0703713669090135,1
131,816,52,0.0807622708414967,1
131,817,52,0.0846341288002338,1
131,818,52,0.0898282038317258,1
132,779,52,0.110838058037747,1
132,780,52,0.0952582270996232,1
132,781,52,0.0672430831997402,1
132,782,52,0.0628324516076135,1
132,814,52,0.0605718431833722,1
132,815,52,0.065194145322979,1
132,816,52,0.0694305224318062,1
132,817,52,0.0733037425829508,1
132,818,52,0.0835785712108902,1
132,819,52,0.0997510384034001,1
133,779,52,0.0975799395832875,1
133,780,52,0.0880694365255135,1
133,781,52,0.0681937047982101,1
133,782,52,0.0620712042384729,1
133,814,52,0.0572641805526949,1
133,815,52,0.0586699749111284,1
133,816,52,0.0602049062891822,1
133,817,52,0.0658008044931451,1
133,818,52,0.0778114731369053,1
133,819,52,0.0899623119690929,1
133,820,52,0.101708868606152,1
134,780,52,0.065066069751988,1
134,781,52,0.0670958602748652,1
134,782,52,0.0630016288283032,1
134,817,52,0.061343469161332,1
134,818,52,0.0689522454733462,1
134,819,52,0.0758400151131415,1
134,820,52,0.0850993263528068,1
135,781,52,0.0609033630749667,1
135,782,52,0.0594297834276828,1
135,817,52,0.0578477178335541,1
135,818,52,0.061510877300973,1
135,819,52,0.0671537505037163,1
135,820,52,0.0773813387707179,1
135,821,52,0.088123069165974,1
136,814,52,0.0589515890263384,1
136,815,52,0.0617814287626915,1
136,816,52,0.0591675820285142,1
136,817,52,0.0574432351425733,1
136,818,52,0.0593537954997031,1
136,819,52,0.0655748102861071,1
136,820,52,0.0756684024575413,1
136,821,52,0.0875024755340808,1
137,814,52,0.0657112241257744,1
137,815,52,0.0666463780589416,1
137,816,52,0.0597756269788351,1
137,817,52,0.0573387001434041,1
137,818,52,0.0598681970931781,1
137,819,52,0.0675128798535446,1
137,820,52,0.0785293898142257,1
137,821,52,0.0910279474234773,1
138,813,52,0.0616321772915473,1
138,814,52,0.0741986204375754,1
138,815,52,0.0755007112649326,1
138,816,52,0.0645858762890586,1
138,817,52,0.0603446224134738,1
138,818,52,0.0636289921436762,1
138,819,52,0.0732207785787024,1
138,820,52,0.0853853631706386,1
138,821,52,0.0960470308545662,1
139,814,52,0.0625478772301154,1
139,815,52,0.0664111905273871,1
139,816,52,0.0584697562149704,1
139,818,52,0.0619736453155725,1
139,819,52,0.073888659747028,1
139,820,52,0.0876324911972886,1
139,821,52,0.0954906489678049,1
140,819,52,0.0672189647281092,1
140,820,52,0.0792229344516316,1
140,821,52,0.0858334124309127,1
141,819,52,0.0595125705238263,1
141,820,52,0.0673650200594921,1
141,821,52,0.0719411609776008,1
142,820,52,0.0571135491983327,1
148,792,52,0.0587766917769244,1
148,793,52,0.06018945631469,1
149,792,52,0.057983730681517,1
149,793,52,0.059594903555834,1
150,803,52,0.0737165340579238,1
151,801,52,0.0575699956966514,1
151,802,52,0.148987595014984,1
151,803,52,0.201084484423265,1
151,804,52,0.117172158381722,1
152,801,52,0.0756881748867293,1
152,802,52,0.19539979014453,1
152,803,52,0.261099403201688,1
152,804,52,0.159927002526625,1
152,805,52,0.0779551932813038,1
152,806,52,0.073293487809805,1
152,807,52,0.0593152885022092,1
153,801,52,0.0578227325122093,1
153,802,52,0.121348887974523,1
153,803,52,0.162653486651175,1
153,804,52,0.109016234786021,1
153,805,52,0.0724852713388207,1
153,806,52,0.0711000867746048,1
126,783,53,0.0583576790335968,1
127,782,53,0.0590662608599168,1
127,783,53,0.0708881154833464,1
127,784,53,0.0736114329528189,1
127,785,53,0.0589498612238474,1
128,783,53,0.0642763342810261,1
128,784,53,0.0698561043627614,1
128,785,53,0.058870588702054,1
128,814,53,0.0586799584251801,1
129,814,53,0.063937867797847,1
129,815,53,0.0724223451259175,1
129,816,53,0.0855187931602703,1
129,817,53,0.0925390080012469,1
130,779,53,0.0770885381663432,1
130,780,53,0.0631557216845841,1
130,813,53,0.0585289201821767,1
130,814,53,0.0678878955511905,1
130,815,53,0.0782635971805283,1
130,816,53,0.0918091382329739,1
130,817,53,0.0944163096346607,1
130,818,53,0.0920473626869954,1
131,778,53,0.114094558844495,1
131,779,53,0.145698425178203,1
131,780,53,0.102016382067915,1
131,781,53,0.0607576320751094,1
131,814,53,0.0645073113996847,1
131,815,53,0.0736096815625807,1
131,816,53,0.0834827106057966,1
131,817,53,0.0848705900701434,1
131,818,53,0.0866712197309053,1
131,819,53,0.0972365255701088,1
132,778,53,0.140740634508516,1
132,779,53,0.194745607560458,1
132,780,53,0.137072279839751,1
132,781,53,0.0681450904509911,1
132,814,53,0.0615220284085168,1
132,815,53,0.0661615378097909,1
132,816,53,0.0691142815035359,1
132,817,53,0.0721976187602978,1
132,818,53,0.0812960379755184,1
132,819,53,0.0963741752190335,1
132,820,53,0.110022511674284,1
133,779,53,0.144881239466302,1
133,780,53,0.107254465938963,1
133,781,53,0.064377673140434,1
133,815,53,0.0574990496496606,1
133,816,53,0.0577055426866048,1
133,817,53,0.0627538159549976,1
133,818,53,0.0749298877798769,1
133,819,53,0.0883794738762396,1
133,820,53,0.101250358179943,1
133,821,53,0.105909209534017,1
134,779,53,0.069694681614002,1
134,780,53,0.0654570602515039,1
134,781,53,0.0613798473646306,1
134,818,53,0.0656777236276483,1
134,819,53,0.0764333118244528,1
134,820,53,0.0887885561779471,1
134,821,53,0.0969174246274764,1
135,818,53,0.0592488536118927,1
135,819,53,0.0671711582612358,1
135,820,53,0.0790380124096082,1
135,821,53,0.0886201809406661,1
135,822,53,0.0971352044015114,1
136,819,53,0.0630609048373092,1
136,820,53,0.0737786464935446,1
136,821,53,0.0844097385600133,1
136,822,53,0.0962114374533611,1
137,819,53,0.0620934592780659,1
137,820,53,0.0734289227579587,1
137,821,53,0.0845043431175624,1
137,822,53,0.0988926743816213,1
138,819,53,0.0650555673074954,1
138,820,53,0.0776464414628064,1
138,821,53,0.088357896984382,1
138,822,53,0.100708512242465,1
139,819,53,0.0654133285679794,1
139,820,53,0.078739745344793,1
139,821,53,0.0885975072185583,1
139,822,53,0.0975264956448055,1
140,819,53,0.0596141629515178,1
140,820,53,0.0711163033508848,1
140,821,53,0.0800643683677741,1
141,820,53,0.0628649850080996,1
141,821,53,0.0691127718877076,1
148,792,53,0.0629296390234937,1
148,793,53,0.0628832537183961,1
149,792,53,0.0640047036798679,1
149,793,53,0.0624807523981899,1
150,802,53,0.0586621437790194,1
150,803,53,0.0765067168941013,1
151,801,53,0.0625729569024495,1
151,802,53,0.155455237390391,1
151,803,53,0.208996097926137,1
151,804,53,0.112804603913132,1
152,801,53,0.0847759383370997,1
152,802,53,0.211727087310424,1
152,803,53,0.278978042920831,1
152,804,53,0.160373459613955,1
152,805,53,0.077375229544163,1
152,806,53,0.0676589941542958,1
153,801,53,0.0617075932166545,1
153,802,53,0.125783183974145,1
153,803,53,0.165440426172096,1
153,804,53,0.104288153393574,1
153,805,53,0.0736575352049487,1
153,806,53,0.0703200753524741,1
154,803,53,0.0699208232444607,1
126,783,54,0.0600151192742748,1
127,782,54,0.0570918307799911,1
127,783,54,0.0769814910720848,1
127,784,54,0.0769802998908453,1
127,785,54,0.0592443719399026,1
128,783,54,0.0686974211421508,1
128,784,54,0.0709595922546518,1
128,785,54,0.0569008997593389,1
128,814,54,0.0580134512431356,1
128,815,54,0.0628878533291228,1
128,816,54,0.0723750988680429,1
128,817,54,0.0833258992616375,1
129,813,54,0.0586649212362659,1
129,814,54,0.0625529250080411,1
129,815,54,0.070141976066362,1
129,816,54,0.0812565697773213,1
129,817,54,0.0871082947917405,1
129,818,54,0.0929030318086434,1
130,779,54,0.109250767757587,1
130,780,54,0.0725781598877525,1
130,813,54,0.0595108604121459,1
130,814,54,0.0668564564334779,1
130,815,54,0.0789754518067884,1
130,816,54,0.0908546305531336,1
130,817,54,0.0909524430443177,1
130,818,54,0.0902679443080077,1
130,819,54,0.094531848317953,1
131,778,54,0.19031071007328,1
131,779,54,0.22743867350812,1
131,780,54,0.125519838569231,1
131,781,54,0.0595639505344182,1
131,814,54,0.0644353392856856,1
131,815,54,0.075224675651963,1
131,816,54,0.0832799090513074,1
131,817,54,0.0829720653610817,1
131,818,54,0.0867411279170142,1
131,819,54,0.0989441487432024,1
131,820,54,0.108413084293268,1
132,778,54,0.222742400192929,1
132,779,54,0.284455754716865,2
132,780,54,0.162259453332255,1
132,781,54,0.0645361356269052,1
132,814,54,0.060241555751575,1
132,815,54,0.064830935292865,1
132,816,54,0.0670451289273245,1
132,817,54,0.0702135118070356,1
132,818,54,0.0829479409925139,1
132,819,54,0.107105473933039,1
132,820,54,0.123753918278645,1
132,821,54,0.118491833874704,1
133,778,54,0.128670772412865,1
133,779,54,0.177355411118868,1
133,780,54,0.108270508154614,1
133,781,54,0.0582375171518305,1
133,817,54,0.0581333300719341,1
133,818,54,0.0743072656017145,1
133,819,54,0.103016125150171,1
133,820,54,0.124091824552826,1
133,821,54,0.119740522042137,1
134,779,54,0.0693858354445153,1
134,780,54,0.0619866067827228,1
134,818,54,0.0626439560218717,1
134,819,54,0.0863192138807666,1
134,820,54,0.106477709625962,1
134,821,54,0.107799979771148,1
134,822,54,0.102070433390891,1
135,819,54,0.0686025807071286,1
135,820,54,0.0834043462122748,1
135,821,54,0.0903057967455136,1
135,822,54,0.0943081775040257,1
136,819,54,0.0601546702843352,1
136,820,54,0.0715101538647628,1
136,821,54,0.0810346739413795,1
136,822,54,0.0890471309609658,1
137,820,54,0.0675456668223143,1
137,821,54,0.0775277243305632,1
137,822,54,0.0880100248869604,1
138,819,54,0.0572281148870482,1
138,820,54,0.0686759444982193,1
138,821,54,0.0805297841070099,1
138,822,54,0.0929621898789128,1
139,819,54,0.0573759392994798,1
139,820,54,0.0694747907365821,1
139,821,54,0.0837037985613927,1
139,822,54,0.0973151612227247,1
140,820,54,0.0640709262804585,1
140,821,54,0.0774926257625565,1
140,822,54,0.0877619171668134,1
141,820,54,0.0592110365560077,1
141,821,54,0.0682540127711612,1
148,792,54,0.0674620364642042,1
148,793,54,0.0662198703089042,1
149,791,54,0.0588455679990882,1
149,792,54,0.068952941311892,1
149,793,54,0.0647620708645749,1
150,803,54,0.0635257367797988,1
151,801,54,0.0572186738911848,1
151,802,54,0.126233662772392,1
151,803,54,0.159852937000052,1
151,804,54,0.0880105556112751,1
152,801,54,0.0782420733611021,1
152,802,54,0.177363242250977,1
152,803,54,0.221779902163685,1
152,804,54,0.129432208483984,1
152,805,54,0.0679019597455278,1
152,806,54,0.0574596875963265,1
153,801,54,0.0603651909291336,1
153,802,54,0.113290865324058,1
153,803,54,0.138911381116385,1
153,804,54,0.0903586038148181,1
153,805,54,0.0688759509046514,1
126,783,55,0.0613049149883434,1
127,782,55,0.0603910843787502,1
127,783,55,0.079381562052334,1
127,784,55,0.074237964800099,1
127,785,55,0.0570160610386742,1
128,783,55,0.0717385776097743,1
128,784,55,0.0683085476429566,1
128,813,55,0.0584496948358779,1
128,814,55,0.0599889132870064,1
128,815,55,0.0631215489356595,1
128,816,55,0.0711594276499159,1
129,812,55,0.060191974306716,1
129,813,55,0.0640612199224378,1
129,814,55,0.0646211753529175,1
129,815,55,0.0696627968765671,1
129,816,55,0.0772607935880577,1
129,817,55,0.0823993253715566,1
129,818,55,0.0906335779791584,1
130,778,55,0.137379274371073,1
130,779,55,0.14283081556146,1
130,780,55,0.0869063129114706,1
130,812,55,0.0583905308686716,1
130,813,55,0.0622923511634373,1
130,814,55,0.0674418158678173,1
130,815,55,0.0784973045809387,1
130,816,55,0.086053839929584,1
130,817,55,0.0863765203128717,1
130,818,55,0.0906345214890511,1
130,819,55,0.0955306773750007,1
131,778,55,0.279115300022465,1
131,779,55,0.304142961373743,2
131,780,55,0.152930286978912,1
131,781,55,0.0664843656164993,1
131,814,55,0.0645702612003352,1
131,815,55,0.0763941502669708,1
131,816,55,0.081175015140975,1
131,817,55,0.0808157914401575,1
131,818,55,0.0905294616625041,1
131,819,55,0.1098149394979,1
131,820,55,0.121502750850268,1
132,777,55,0.134254192698498,1
132,778,55,0.310714838004541,2
132,779,55,0.352868713523318,2
132,780,55,0.182407788655294,2
132,781,55,0.0699603504120261,1
132,814,55,0.0573114268105695,1
132,815,55,0.0632718913401171,1
132,816,55,0.0650842971837268,1
132,817,55,0.068138574335795,1
132,818,55,0.0927806231939452,1
132,819,55,0.148852213139262,1
132,820,55,0.18150229041744,1
132,821,55,0.146907485930145,1
133,778,55,0.165758955111856,1
133,779,55,0.204112113317803,2
133,780,55,0.117930292168217,1
133,781,55,0.0621409885889083,1
133,818,55,0.0870344533487666,1
133,819,55,0.162329697643763,1
133,820,55,0.20657528741906,1
133,821,55,0.16347916395211,1
133,822,55,0.111422008104184,1
134,779,55,0.0794117484719621,1
134,780,55,0.0691985900093813,1
134,781,55,0.0569001331575512,1
134,818,55,0.0706618441202775,1
134,819,55,0.122934385585886,1
134,820,55,0.157581861512939,1
134,821,55,0.132781503488675,1
134,822,55,0.104796563699231,1
135,819,55,0.0740510908719852,1
135,820,55,0.0910957032276436,1
135,821,55,0.0918417600875124,1
135,822,55,0.0931001664068398,1
136,819,55,0.0575804450687125,1
136,820,55,0.068730780113793,1
136,821,55,0.0777917183985278,1
136,822,55,0.0852454937259894,1
137,820,55,0.0625682688376703,1
137,821,55,0.0723003433998605,1
137,822,55,0.0810795968061435,1
138,820,55,0.0608870639415711,1
138,821,55,0.073313118712509,1
138,822,55,0.0863531979277126,1
139,820,55,0.0608760012880797,1
139,821,55,0.0777277661186164,1
139,822,55,0.0949504069971448,1
140,820,55,0.0571727662379704,1
140,821,55,0.0732533237730621,1
140,822,55,0.0864220269743817,1
141,821,55,0.0659732604107117,1
141,822,55,0.071980935816513,1
142,821,55,0.0583628860288169,1
148,791,55,0.0585126151518442,1
148,792,55,0.0642236392535214,1
148,793,55,0.0629155748291563,1
149,791,55,0.060172927200758,1
149,792,55,0.0644073760112421,1
149,793,55,0.0606572897980257,1
151,802,55,0.089919388165914,1
151,803,55,0.101668604321483,1
151,804,55,0.0646276501895559,1
152,801,55,0.0699401357125759,1
152,802,55,0.127505820748405,1
152,803,55,0.144201994900706,1
152,804,55,0.0927443393416358,1
152,805,55,0.0584441635091322,1
153,801,55,0.0624203736619968,1
153,802,55,0.099262312072879,1
153,803,55,0.108729160107307,1
153,804,55,0.0779571923428889,1
153,805,55,0.0627113226282072,1
126,783,56,0.0595950568761916,1
127,782,56,0.0626030489710883,1
127,783,56,0.075542443886872,1
127,784,56,0.0688179781186847,1
128,782,56,0.0644715346839426,1
128,783,56,0.0734818890445575,1
128,784,56,0.0658131172972442,1
128,813,56,0.0590574154546732,1
128,814,56,0.0610610412688396,1
128,815,56,0.0641809690186261,1
128,816,56,0.0699143660986328,1
129,781,56,0.0581402825604556,1
129,782,56,0.0605537513811805,1
129,783,56,0.0588838980884773,1
129,812,56,0.0620520568845888,1
129,813,56,0.0648713941764494,1
129,814,56,0.0650044762468082,1
129,815,56,0.06911551986027,1
129,816,56,0.0729199699341138,1
129,817,56,0.0753566314073875,1
129,818,56,0.0822910576113745,1
130,778,56,0.150986786332655,1
130,779,56,0.157451385888658,1
130,780,56,0.0969781394890686,1
130,781,56,0.0647035378696094,1
130,812,56,0.0595679958330829,1
130,813,56,0.0612729771784771,1
130,814,56,0.0652629330910903,1
130,815,56,0.0746315794365038,1
130,816,56,0.0775014888586106,1
130,817,56,0.0775739091398086,1
130,818,56,0.0833439674760818,1
130,819,56,0.0889732836210551,1
131,777,56,0.15241173394191,1
131,778,56,0.327680631902541,2
131,779,56,0.338048060129508,2
131,780,56,0.172706254328941,1
131,781,56,0.0774759315343933,1
131,814,56,0.0615275715291361,1
131,815,56,0.0729073092107417,1
131,816,56,0.073974330445281,1
131,817,56,0.0732248120834934,1
131,818,56,0.0864624268885978,1
131,819,56,0.115236878065405,1
131,820,56,0.134220615540193,1
132,777,56,0.162105165877059,2
132,778,56,0.360730344589626,2
132,779,56,0.378680643885117,2
132,780,56,0.197897591058847,2
132,781,56,0.0831547760517942,1
132,815,56,0.0593405038040904,1
132,816,56,0.0595871254961565,1
132,817,56,0.0603478893164771,1
132,818,56,0.0971154732508813,1
132,819,56,0.195231621300038,1
132,820,56,0.2556028212078,1
132,821,56,0.17937485251761,1
133,778,56,0.196606551091108,2
133,779,56,0.223927024038651,2
133,780,56,0.137876091298923,1
133,781,56,0.0726800058837277,1
133,818,56,0.10051189657471,1
133,819,56,0.239861160632276,1
133,820,56,0.320702904491418,3
133,821,56,0.218391781726912,1
133,822,56,0.112616656742515,1
134,779,56,0.0977257118617026,1
134,780,56,0.0850770477254666,1
134,781,56,0.0593299011116717,1
134,818,56,0.0768260714050174,1
134,819,56,0.163791100116495,1
134,820,56,0.218518943272694,1
134,821,56,0.155286502439964,1
134,822,56,0.100711036131428,1
135,780,56,0.0589295993489027,1
135,819,56,0.0777568085324996,1
135,820,56,0.0958674455403731,1
135,821,56,0.0877186395474247,1
135,822,56,0.0865640959764681,1
136,820,56,0.0635984519078383,1
136,821,56,0.071657229366217,1
136,822,56,0.0792037635100002,1
137,820,56,0.0572872552665071,1
137,821,56,0.0671467213550161,1
137,822,56,0.0749400010265388,1
138,821,56,0.0663638735062705,1
138,822,56,0.0790223383515165,1
139,821,56,0.0701281005740031,1
139,822,56,0.0876019214767666,1
140,821,56,0.066653507455568,1
140,822,56,0.0799505221053518,1
141,821,56,0.0616912469077643,1
141,822,56,0.0678021305019482,1
148,792,56,0.0580378822524185,1
148,793,56,0.0610321344845035,1
149,792,56,0.0572351381388116,1
149,793,56,0.0571312341118831,1
151,802,56,0.0647067752879286,1
151,803,56,0.0649815784411009,1
152,801,56,0.0618093684493877,1
152,802,56,0.0895871016725317,1
152,803,56,0.0903682629973441,1
152,804,56,0.0666651067303108,1
153,801,56,0.0621663513142102,1
153,802,56,0.0863159292869528,1
153,803,56,0.086005880142353,1
153,804,56,0.0667315298267537,1
127,782,57,0.0607844513438081,1
127,783,57,0.0648341904019947,1
127,784,57,0.0574024932060211,1
128,781,57,0.0568823892746324,1
128,782,57,0.0703363744858697,1
128,783,57,0.069319152882852,1
128,784,57,0.0582195314945017,1
128,813,57,0.0582088698327148,1
128,814,57,0.0618607484599796,1
128,815,57,0.0647816251071002,1
129,779,57,0.0606364677140822,1
129,780,57,0.0584487395321116,1
129,781,57,0.0671617349561829,1
129,782,57,0.071682485946656,1
129,783,57,0.0627150494922832,1
129,812,57,0.060301969869389,1
129,813,57,0.0628177269563513,1
129,814,57,0.0657652636548762,1
129,815,57,0.0691445740680269,1
129,816,57,0.0699523305779385,1
129,817,57,0.0705126516185016,1
130,778,57,0.135016407165278,1
130,779,57,0.14333910792838,1
130,780,57,0.0994116107195178,1
130,781,57,0.0743384132220457,1
130,782,57,0.0602263534484296,1
130,812,57,0.0585165071301514,1
130,813,57,0.0593303197941865,1
130,814,57,0.0636922603789155,1
130,815,57,0.0700750930088464,1
130,816,57,0.0702757539752666,1
130,817,57,0.0713351858521069,1
130,818,57,0.0797688728632685,1
131,778,57,0.291862448900684,1
131,779,57,0.296927988400112,1
131,780,57,0.169729692907344,1
131,781,57,0.0863437274471651,1
131,814,57,0.0584302703259629,1
131,815,57,0.067029242579507,1
131,816,57,0.0677066119191906,1
131,817,57,0.0696658868714655,1
131,818,57,0.0879209693469676,1
131,819,57,0.12562409641237,1
131,820,57,0.153191651013051,1
132,777,57,0.158010545232666,1
132,778,57,0.327846170713208,2
132,779,57,0.332498358528664,2
132,780,57,0.189770538865861,1
132,781,57,0.089448735946774,1
132,816,57,0.0575873208970552,1
132,817,57,0.059859575771534,1
132,818,57,0.106237480213418,1
132,819,57,0.230719988625045,1
132,820,57,0.314858804216319,3
132,821,57,0.207294548597977,1
133,778,57,0.19401386846321,1
133,779,57,0.210858704392973,1
133,780,57,0.139637152513562,1
133,781,57,0.0734215692777328,1
133,818,57,0.119502108886137,1
133,819,57,0.301629875599164,3
133,820,57,0.412221123242866,3
133,821,57,0.264479904796078,3
134,778,57,0.0839047130960966,1
134,779,57,0.106450642685916,1
134,780,57,0.0890172040065581,1
134,818,57,0.087039271146156,1
134,819,57,0.194385151399843,1
134,820,57,0.263632090394286,3
134,821,57,0.173060754583359,1
134,822,57,0.101664299557598,1
135,779,57,0.058272450605606,1
135,819,57,0.0856679738681726,1
135,820,57,0.104080817094663,1
135,821,57,0.0893055937021847,1
135,822,57,0.0840914454977265,1
136,789,57,0.0569303313710529,1
136,790,57,0.057232018659229,1
136,820,57,0.0625382770169576,1
136,821,57,0.0693927938299737,1
136,822,57,0.0750666318480066,1
137,821,57,0.0651856655278188,1
137,822,57,0.0708568912028364,1
138,821,57,0.0633651985715638,1
138,822,57,0.0724267206530447,1
139,821,57,0.0644120935607054,1
139,822,57,0.0778875436220005,1
140,790,57,0.0572512780549128,1
140,821,57,0.0610104278600356,1
140,822,57,0.0719499768981603,1
141,821,57,0.0581582564239107,1
147,794,57,0.0600649306996701,1
148,793,57,0.0658695922612564,1
148,794,57,0.0738029949457119,1
149,793,57,0.0577796494917359,1
149,794,57,0.0623652549934553,1
152,802,57,0.0667599589592067,1
152,803,57,0.0646182681630608,1
153,802,57,0.0716558258952517,1
128,782,58,0.0638634130734429,1
128,783,58,0.0578693065192854,1
128,814,58,0.0606355949674315,1
129,781,58,0.0661371893576236,1
129,782,58,0.0716385596642161,1
129,783,58,0.059189394797845,1
129,813,58,0.0587880079986995,1
129,814,58,0.0652263897735605,1
129,815,58,0.0690704318812747,1
129,816,58,0.0672667122256144,1
130,779,58,0.110294513782462,1
130,780,58,0.0899001936365353,1
130,781,58,0.0739050591283497,1
130,782,58,0.061977802656037,1
130,814,58,0.0617852853593777,1
130,815,58,0.0660413818249614,1
130,816,58,0.0647050121038167,1
130,817,58,0.0651968756047309,1
130,818,58,0.0749251348487926,1
131,778,58,0.204440808576656,1
131,779,58,0.213948463413941,1
131,780,58,0.147094383446006,1
131,781,58,0.0864485396023653,1
131,815,58,0.0593031997817096,1
131,816,58,0.0614284204332918,1
131,817,58,0.0660517073613491,1
131,818,58,0.0868385512103675,1
131,819,58,0.127640719075307,1
131,820,58,0.161014975577718,1
132,777,58,0.126129581837359,1
132,778,58,0.241921479597117,1
132,779,58,0.24937735423409,1
132,780,58,0.165067881290982,1
132,781,58,0.0869479865640417,1
132,817,58,0.0622287350089251,1
132,818,58,0.110057622036164,1
132,819,58,0.232405993627723,1
132,820,58,0.321814264793976,3
132,821,58,0.213116712268072,1
133,778,58,0.163281734507072,1
133,779,58,0.176707314173604,1
133,780,58,0.127220173128404,1
133,781,58,0.0700176214625102,1
133,818,58,0.126451283329133,1
133,819,58,0.308139881568751,3
133,820,58,0.426337163448842,3
133,821,58,0.276941288115559,3
134,779,58,0.10316213330606,1
134,780,58,0.085032626100333,1
134,818,58,0.0898768063850711,1
134,819,58,0.197357490614671,1
134,820,58,0.270649869800352,3
134,821,58,0.180151490891874,1
135,819,58,0.0894575105887756,1
135,820,58,0.110216450132719,1
135,821,58,0.0932411267848023,1
136,789,58,0.0590248466725661,1
136,790,58,0.0580622542923331,1
136,820,58,0.0616152177012268,1
136,821,58,0.0672834831139563,1
136,822,58,0.0698426121712965,1
137,821,58,0.0620117041458674,1
137,822,58,0.0663114202531758,1
138,821,58,0.0593712209480331,1
138,822,58,0.0661367529842982,1
139,790,58,0.0639764632493934,1
139,821,58,0.0584783421549936,1
139,822,58,0.068740610307487,1
140,789,58,0.0579587276693617,1
140,790,58,0.0750521194864702,1
141,790,58,0.0603122364364084,1
147,794,58,0.0664696940376685,1
148,793,58,0.0724645907813611,1
148,794,58,0.0923559729790089,1
148,795,58,0.0669031719670379,1
149,793,58,0.0608016055330439,1
149,794,58,0.0744582448753496,1
128,814,59,0.0588624391353562,1
129,781,59,0.0593026159849635,1
129,782,59,0.0638954098526775,1
129,814,59,0.0625639640737851,1
129,815,59,0.0684428444823023,1
129,816,59,0.0659548737616786,1
130,780,59,0.0743149434134659,1
130,781,59,0.0667318069827846,1
130,782,59,0.0593987773338354,1
130,814,59,0.060310319931939,1
130,815,59,0.0655205289825954,1
130,816,59,0.0634598503046074,1
130,817,59,0.0642930344061261,1
130,818,59,0.0740696367383127,1
131,779,59,0.134973725136509,1
131,780,59,0.115330804475218,1
131,781,59,0.07896497884698,1
131,816,59,0.0590519077156748,1
131,817,59,0.0673791255323873,1
131,818,59,0.0894389824132586,1
131,819,59,0.128646359094393,1
132,778,59,0.150930222914591,1
132,779,59,0.165252396444364,1
132,780,59,0.131284235846149,1
132,817,59,0.0687228133521369,1
132,818,59,0.112148899919358,1
132,819,59,0.209016878731523,1
132,820,59,0.27890430762272,3
133,780,59,0.104157147044979,1
133,817,59,0.063862652368592,1
133,818,59,0.12410250980236,1
133,819,59,0.263783075564858,3
133,820,59,0.357960553361004,3
133,821,59,0.250202146994501,3
134,780,59,0.0742398813045685,1
134,818,59,0.0894411878676327,1
134,819,59,0.175850076466759,1
134,820,59,0.238018131995713,3
134,821,59,0.17372966771563,1
135,818,59,0.0583319035227168,1
135,819,59,0.0903005012962411,1
135,820,59,0.113094473739902,1
135,821,59,0.100317179720614,1
136,820,59,0.0649985262375477,1
136,821,59,0.0704466884831314,1
137,821,59,0.0621390131150706,1
137,822,59,0.0663511479165933,1
138,821,59,0.0578311710288117,1
138,822,59,0.0636825186392738,1
139,789,59,0.063644076508085,1
139,790,59,0.0827641688531722,1
139,791,59,0.0614307025478447,1
140,789,59,0.0784040504219235,1
140,790,59,0.110194678641946,1
140,791,59,0.0811815194622975,1
141,789,59,0.058360568532643,1
141,790,59,0.0835027012216472,1
141,791,59,0.0645917909166982,1
147,794,59,0.0675075136410302,1
148,793,59,0.0769772216898206,1
148,794,59,0.102129060736845,1
148,795,59,0.071780681738734,1
149,793,59,0.0644081190252826,1
149,794,59,0.0822977506346755,1
149,795,59,0.0579401346275396,1
129,814,60,0.058327239045685,1
129,815,60,0.0650479779497964,1
130,814,60,0.0574584492395924,1
130,815,60,0.0628605387177304,1
130,816,60,0.0613072973508224,1
130,817,60,0.0629001130607904,1
131,817,60,0.0660552219356992,1
131,818,60,0.0858222731172425,1
132,817,60,0.0704707067068363,1
132,818,60,0.104271075864517,1
132,819,60,0.168176274632331,1
133,817,60,0.0665738280451334,1
133,818,60,0.107937508131876,1
133,819,60,0.193293026905222,1
133,820,60,0.253220553079838,3
134,818,60,0.0797586121931859,1
134,819,60,0.137999231133788,1
134,820,60,0.185443236888067,1
134,821,60,0.154315512821686,1
135,819,60,0.0824369832101471,1
135,820,60,0.106842612076945,1
135,821,60,0.101867154184518,1
136,820,60,0.0667029001984484,1
136,821,60,0.0719292255774587,1
137,821,60,0.0617121574457602,1
138,790,60,0.0584919463882583,1
139,789,60,0.0728874188428172,1
139,790,60,0.0996923992635717,1
139,791,60,0.0734103650977575,1
140,789,60,0.0999607924464108,1
140,790,60,0.146797189623693,1
140,791,60,0.105807499167588,1
141,789,60,0.0745169783661673,1
141,790,60,0.111796864584535,1
141,791,60,0.0826179248198108,1
142,790,60,0.0576568221945229,1
147,794,60,0.0644071755153899,1
148,793,60,0.0749686365517808,1
148,794,60,0.0973254749652387,1
148,795,60,0.06812701633961,1
149,793,60,0.0644907645949422,1
149,794,60,0.0799605233102139,1
129,815,61,0.059422494813762,1
130,815,61,0.0576986845490726,1
130,816,61,0.0581486090352583,1
130,817,61,0.0602561801549111,1
131,817,61,0.0612344819748568,1
131,818,61,0.075633875892407,1
132,817,61,0.0640768762897191,1
132,818,61,0.0865674926120817,1
132,819,61,0.122205830834526,1
133,817,61,0.0603672312692765,1
133,818,61,0.0846404974920092,1
133,819,61,0.127233818640227,1
134,818,61,0.0665484004535263,1
134,819,61,0.100007555155465,1
134,820,61,0.13223067061947,1
135,819,61,0.070035259200566,1
135,820,61,0.0912487051506111,1
136,820,61,0.0646462609221885,1
136,821,61,0.0694092816653478,1
137,821,61,0.0601236523966142,1
138,790,61,0.0606390800570974,1
139,789,61,0.0717081965912308,1
139,790,61,0.0965915540013641,1
139,791,61,0.0735833753273861,1
140,789,61,0.100504832044389,1
140,790,61,0.144374279807105,1
140,791,61,0.105976540758731,1
141,789,61,0.0794779592786791,1
141,790,61,0.114821202988322,1
141,791,61,0.0857627199522056,1
142,790,61,0.0631956203591697,1
147,794,61,0.0587142432159044,1
148,793,61,0.0674823985870751,1
148,794,61,0.0806612209319934,1
148,795,61,0.0583382486267449,1
149,793,61,0.0604841262480395,1
149,794,61,0.068490709918544,1
132,818,62,0.0690757804029787,1
133,818,62,0.065187245906889,1
133,819,62,0.0838960328050842,1
134,819,62,0.0711864592083405,1
134,820,62,0.0916294939494126,1
135,819,62,0.0574209388244225,1
135,820,62,0.0734064672225135,1
136,820,62,0.0591837573262364,1
138,790,62,0.058226183239245,1
139,789,62,0.0630699920169628,1
139,790,62,0.0784872385097714,1
139,791,62,0.0642033596877662,1
140,789,62,0.0809076952006388,1
140,790,62,0.105559297096452,1
140,791,62,0.0824913116891535,1
141,789,62,0.0703478971004337,1
141,790,62,0.0899421208573901,1
141,791,62,0.0724372997577161,1
148,793,62,0.0582412086342855,1
148,794,62,0.0623515505122645,1
134,819,63,0.059053075309167,1
136,820,63,0.0573269121666827,1
139,790,63,0.0589801419944648,1
140,789,63,0.0587932503755405,1
140,790,63,0.0649049536439437,1
141,789,63,0.0577245544109418,1
141,790,63,0.0618435942707437,1
148,804,64,0.0607436917164455,1
148,805,64,0.0773814861941387,1
148,806,64,0.0612563949921137,1
149,804,64,0.0730093851872532,1
149,805,64,0.0925883535686328,1
149,806,64,0.076008437525917,1
150,804,64,0.0619928811235089,1
150,805,64,0.073435639369007,1
150,806,64,0.064850530813948,1
148,804,65,0.0891416470644624,1
148,805,65,0.137508039883673,1
148,806,65,0.0982774115806215,1
149,804,65,0.114354047652722,1
149,805,65,0.171925417335655,1
149,806,65,0.125166564877674,1
150,804,65,0.0851878983439797,1
150,805,65,0.117699946021799,1
150,806,65,0.0894775306893104,1
147,805,66,0.0598943794926993,1
148,804,66,0.102425499751244,1
148,805,66,0.180370951292906,1
148,806,66,0.122839503872306,1
149,804,66,0.150538949362107,1
149,805,66,0.252147735156396,1
149,806,66,0.175688005054949,1
149,807,66,0.0650181925218727,1
150,803,66,0.058552130525536,1
150,804,66,0.108943773226265,1
150,805,66,0.17060115402582,1
150,806,66,0.11988296844818,1
151,805,66,0.0664896138902772,1
147,805,67,0.0591633598217446,1
148,804,67,0.099896539422721,1
148,805,67,0.18463093383986,1
148,806,67,0.128392495963901,1
149,803,67,0.0580371569291885,1
149,804,67,0.163045916003277,1
149,805,67,0.284732839984591,1
149,806,67,0.200896702366879,1
149,807,67,0.0770594839585863,1
150,803,67,0.0624322677835811,1
150,804,67,0.120449298467372,1
150,805,67,0.199103090060944,1
150,806,67,0.138498312485381,1
150,807,67,0.0638715685370775,1
151,804,67,0.0650176500036844,1
151,805,67,0.0805825322069461,1
148,804,68,0.08553826484568,1
148,805,68,0.151437630740986,1
148,806,68,0.112258889585094,1
149,803,68,0.0578945572027875,1
149,804,68,0.146710929231757,1
149,805,68,0.250971154732509,1
149,806,68,0.185057730539802,1
149,807,68,0.0801502926343108,1
150,803,68,0.06154417140631,1
150,804,68,0.113634409069847,1
150,805,68,0.18532924909916,1
150,806,68,0.132822970748457,1
150,807,68,0.0655278058026424,1
151,804,68,0.0647627195276261,1
151,805,68,0.0826659081947891,1
148,804,69,0.0683286444036701,1
148,805,69,0.10411327383497,1
148,806,69,0.0875627009499163,1
148,807,69,0.0581703333505367,1
149,803,69,0.0571617271722263,1
149,804,69,0.110271928514407,1
149,805,69,0.170522052515195,1
149,806,69,0.137050237089883,1
149,807,69,0.0771332782260655,1
150,803,69,0.0601665231273617,1
150,804,69,0.0937870946811234,1
150,805,69,0.137240566622979,1
150,806,69,0.1067581915293,1
150,807,69,0.0652305883925828,1
151,804,69,0.06246066743135,1
148,804,70,0.0578688819398337,1
148,805,70,0.0736566034889297,1
148,806,70,0.0697252808192081,1
149,804,70,0.0823282201072714,1
149,805,70,0.108132850061276,1
149,806,70,0.0959934984620317,1
149,807,70,0.0688279144572417,1
150,804,70,0.0780681726940123,1
