x,y,z,signal,cytoplasm.p
48,747,55,0.0649163406289607,1
48,748,55,0.0749870644793717,1
48,749,55,0.073529553984947,1
49,747,55,0.0692807815149051,1
49,748,55,0.0995226854216305,1
49,749,55,0.10690475399725,1
49,750,55,0.0876520277490034,1
50,732,55,0.061416201980182,1
50,733,55,0.0596151005644737,1
50,734,55,0.057030284450306,1
50,747,55,0.0633936277040168,1
50,748,55,0.0967337173544398,1
50,749,55,0.107131986561022,1
50,750,55,0.0900874095869851,1
50,751,55,0.0703123975407226,1
51,732,55,0.0635838157106285,1
51,733,55,0.0627762655935059,1
51,734,55,0.0603454833662508,1
51,748,55,0.0692473576769579,1
51,749,55,0.0766411080844362,1
51,750,55,0.0721551549181916,1
51,751,55,0.063841535437807,1
52,731,55,0.0677540527759806,1
52,732,55,0.0658239971456939,1
52,733,55,0.0650706103933464,1
52,734,55,0.0630485625485259,1
52,735,55,0.0586541298418687,1
53,731,55,0.0721696495889175,1
53,732,55,0.0690336526862717,1
53,733,55,0.0663739926498692,1
53,734,55,0.0636961346664122,1
53,735,55,0.0590546379974267,1
54,731,55,0.0769900180427397,1
54,732,55,0.072259648638803,1
54,733,55,0.0675533151493817,1
54,734,55,0.0626581676396298,1
54,735,55,0.0571134253626593,1
55,732,55,0.074441049407556,1
55,733,55,0.0683108415513831,1
55,734,55,0.0614567905963766,1
56,732,55,0.0729813924281255,1
56,733,55,0.0661429506649056,1
56,734,55,0.0591083767827501,1
56,742,55,0.064028332705742,1
56,743,55,0.067366506087573,1
56,744,55,0.0635173218509437,1
57,733,55,0.0621966438787012,1
57,734,55,0.0572152713586344,1
57,742,55,0.0608415336923137,1
57,743,55,0.0671883537290294,1
57,744,55,0.0653569774396406,1
58,742,55,0.0595604949294363,1
58,743,55,0.0646669591704586,1
58,744,55,0.0629534744421568,1
59,741,55,0.0594303554305552,1
59,742,55,0.0659496903542059,1
59,743,55,0.06929862564575,1
59,744,55,0.065800220696399,1
59,745,55,0.060049787365893,1
59,746,55,0.0576694298454635,1
60,741,55,0.0658522139884211,1
60,742,55,0.074408168087797,1
60,743,55,0.0778030228264292,1
60,744,55,0.0738329277970563,1
60,745,55,0.0676523659972999,1
60,746,55,0.0643114859214643,1
60,747,55,0.0584497655991198,1
61,740,55,0.0614315693975586,1
61,741,55,0.0705117611810404,1
61,742,55,0.078428599369943,1
61,743,55,0.0798949434757376,1
61,744,55,0.0768163178715021,1
61,745,55,0.0749701756522932,1
61,746,55,0.0744952068753943,1
61,747,55,0.0662255962345652,1
62,739,55,0.0602578136064128,1
62,740,55,0.0721666244603241,1
62,741,55,0.0789549422604969,1
62,742,55,0.0807739821580392,1
62,743,55,0.0761107434829649,1
62,744,55,0.0743045117322153,1
62,745,55,0.0791626913449856,1
62,746,55,0.0818409562170839,1
62,747,55,0.071883017180466,1
63,739,55,0.0645164988272644,1
63,740,55,0.0768507029101525,1
63,741,55,0.0811608860803325,1
63,742,55,0.0789974178964768,1
64,739,55,0.0615364700068112,1
64,740,55,0.072275623440673,1
64,741,55,0.0775651286008701,1
64,742,55,0.0764231926808541,1
65,740,55,0.0624427761250105,1
65,741,55,0.0682686902469288,1
65,742,55,0.069256739703453,1
65,743,55,0.0643847671554394,1
44,744,56,0.0593327434352233,1
44,745,56,0.0756291701368174,1
44,746,56,0.0776645096772507,1
44,747,56,0.0623582553294392,1
45,745,56,0.0626675142845039,1
45,746,56,0.0681072085288011,1
45,747,56,0.0619254201661842,1
46,747,56,0.0575682089247922,1
47,731,56,0.059742368255119,1
47,732,56,0.057837681247071,1
48,731,56,0.0643298843643711,1
48,732,56,0.0595723772571469,1
48,747,56,0.0592452623773638,1
48,748,56,0.0668300027748626,1
48,749,56,0.0638979396385772,1
49,730,56,0.0626568172410959,1
49,731,56,0.0622776795846066,1
49,732,56,0.0580909605808171,1
49,747,56,0.062476919389251,1
49,748,56,0.0876225253740474,1
49,749,56,0.0904704156340344,1
49,750,56,0.0739749732113954,1
49,751,56,0.0585791502900868,1
50,730,56,0.0620513846337903,1
50,731,56,0.0611932270048005,1
50,732,56,0.0591661195881806,1
50,747,56,0.0594653360598253,1
50,748,56,0.0890135125241031,1
50,749,56,0.0944890778351316,1
50,750,56,0.0785585029913509,1
50,751,56,0.0642240579360362,1
51,730,56,0.0640071273209046,1
51,731,56,0.0626488858610608,1
51,732,56,0.0618589616881203,1
51,733,56,0.0598298964884732,1
51,734,56,0.0574927340303167,1
51,748,56,0.0635791394397231,1
51,749,56,0.0681587182720031,1
51,750,56,0.0643898385211124,1
51,751,56,0.0592985529954882,1
52,729,56,0.0688032239827383,1
52,730,56,0.0670541630345467,1
52,731,56,0.0665347313539565,1
52,732,56,0.0655790089051294,1
52,733,56,0.0629103324523152,1
52,734,56,0.0601942800090162,1
53,729,56,0.0737273549370051,1
53,730,56,0.0736785872694286,1
53,731,56,0.0743752101078592,1
53,732,56,0.0713581308333089,1
53,733,56,0.0657062648019011,1
53,734,56,0.0616154123001422,1
54,730,56,0.0795520012175052,1
54,731,56,0.0807386064340015,1
54,732,56,0.0760130666213279,1
54,733,56,0.067749140627602,1
54,734,56,0.0608203283074763,1
55,730,56,0.0856457247255165,1
55,731,56,0.0839859257101068,1
55,732,56,0.0779135550103536,1
55,733,56,0.0681723637838257,1
55,734,56,0.0590110537373229,1
56,730,56,0.0863721329918708,1
56,731,56,0.0823012298274047,1
56,732,56,0.0742323391223641,1
56,733,56,0.063987307716222,1
56,742,56,0.0580672077192696,1
56,743,56,0.059831246887007,1
57,731,56,0.0742941272264593,1
57,732,56,0.0667176189527738,1
57,733,56,0.0586933975442136,1
57,743,56,0.0586348055798798,1
58,731,56,0.0671438082682225,1
58,732,56,0.0602271259471542,1
58,743,56,0.0590103225171561,1
59,742,56,0.0593001451684321,1
59,743,56,0.0606620368321731,1
59,753,56,0.057056295838659,1
60,741,56,0.060774691913356,1
60,742,56,0.0660052807776937,1
60,743,56,0.0639473618661418,1
60,744,56,0.0595296185681992,1
61,740,56,0.0601095587175927,1
61,741,56,0.0684837692238961,1
61,742,56,0.0721784596125401,1
61,743,56,0.0660908689188311,1
61,744,56,0.0615611604813146,1
61,745,56,0.0619662210721046,1
61,746,56,0.0623200962512182,1
62,739,56,0.0595046037621702,1
62,740,56,0.074749642008759,1
62,741,56,0.0816910678767621,1
62,742,56,0.0802208199987866,1
62,743,56,0.067674237735999,1
62,744,56,0.0628859309277165,1
62,745,56,0.066807458785365,1
62,746,56,0.0679776410327923,1
62,747,56,0.0584132281785268,1
63,739,56,0.0636020549362409,1
63,740,56,0.0798294815799979,1
63,741,56,0.0843629463662745,1
63,742,56,0.0791840028746859,1
63,743,56,0.0656121850717299,1
63,744,56,0.0629770621894732,1
63,745,56,0.0659495075491642,1
63,746,56,0.06466628691966,1
64,739,56,0.0595685147635239,1
64,740,56,0.0729083470716236,1
64,741,56,0.0781790233125255,1
64,742,56,0.075032288087914,1
64,743,56,0.0655090240588418,1
64,744,56,0.064038098033131,1
64,745,56,0.0636527096236028,1
64,746,56,0.0605217369111354,1
65,740,56,0.0611973725513913,1
65,741,56,0.0667699778548793,1
65,742,56,0.0668936896926167,1
65,743,56,0.0618592683288355,1
65,744,56,0.0609309961209478,1
65,745,56,0.0594205311337979,1
66,741,56,0.057553378128667,1
66,742,56,0.0586851300387792,1
44,745,57,0.0589565542471485,1
44,746,57,0.0659396950462806,1
44,747,57,0.0618360579854762,1
45,746,57,0.0622004886815138,1
45,747,57,0.0651299158870366,1
45,748,57,0.0572789995549464,1
46,729,57,0.065985567317874,1
46,730,57,0.0581124313278119,1
47,729,57,0.0678323817878814,1
47,730,57,0.0615551338118753,1
47,731,57,0.0586806424698523,1
48,728,57,0.0735388062788319,1
48,729,57,0.0665734034656817,1
48,730,57,0.064351726618386,1
48,731,57,0.0629097309647587,1
48,732,57,0.0572729551946966,1
49,728,57,0.0676049251405099,1
49,729,57,0.0616737742839397,1
49,730,57,0.0611034225538303,1
49,731,57,0.060064971978228,1
49,748,57,0.067803722674892,1
49,749,57,0.0677522601071846,1
49,750,57,0.060601003535992,1
50,728,57,0.0650491691310359,1
50,729,57,0.061517776717063,1
50,730,57,0.0607564349969331,1
50,731,57,0.0589843995828554,1
50,748,57,0.0707567907001627,1
50,749,57,0.0722833897064769,1
50,750,57,0.0649748382423052,1
51,728,57,0.0647808644022492,1
51,729,57,0.063159519311902,1
51,730,57,0.0621326208355478,1
51,731,57,0.0608419464778917,1
51,732,57,0.0584630690886062,1
52,728,57,0.0686057827438268,1
52,729,57,0.0662090494298228,1
52,730,57,0.0645450871770118,1
52,731,57,0.0655512461265381,1
52,732,57,0.062628317345401,1
52,733,57,0.0583680517454791,1
53,728,57,0.0749960160294783,1
53,729,57,0.0713214813709161,1
53,730,57,0.0713587618055496,1
53,731,57,0.0750790684877791,1
53,732,57,0.0705621564031818,1
53,733,57,0.0630968702550298,1
54,728,57,0.0854068221237596,1
54,729,57,0.0763310589398364,1
54,730,57,0.0773454677039866,1
54,731,57,0.0814396932536118,1
54,732,57,0.0757908759385447,1
54,733,57,0.0659707483156226,1
55,729,57,0.0865730652173852,1
55,730,57,0.082926340512909,1
55,731,57,0.0836097719036529,1
55,732,57,0.0771388626252427,1
55,733,57,0.0657423481583583,1
56,729,57,0.0966694348460659,1
56,730,57,0.0842962520107375,1
56,731,57,0.0803357218129014,1
56,732,57,0.0717395270166038,1
56,733,57,0.0602074006934609,1
57,730,57,0.0783618755297218,1
57,731,57,0.0717933247712956,1
57,732,57,0.0634914519890745,1
58,730,57,0.0718817847206687,1
58,731,57,0.0638385633816451,1
59,731,57,0.0581228335243784,1
61,740,57,0.0574929581139162,1
61,741,57,0.0654219439926867,1
61,742,57,0.0635645916965657,1
62,739,57,0.0572765700169728,1
62,740,57,0.0713968913990865,1
62,741,57,0.0797153404707341,1
62,742,57,0.073049484357691,1
62,743,57,0.0590091726144744,1
63,739,57,0.0613707130094824,1
63,740,57,0.0769087464593612,1
63,741,57,0.0845793049785337,1
63,742,57,0.0743536627006857,1
63,743,57,0.0596115859901235,1
64,739,57,0.0573231027454911,1
64,740,57,0.0690554005892974,1
64,741,57,0.0755248592212477,1
64,742,57,0.0686943193533787,1
64,743,57,0.0603654857759751,1
64,744,57,0.0586630813919752,1
65,740,57,0.0591151759509141,1
65,741,57,0.0641353974908109,1
65,742,57,0.0620824320061955,1
65,743,57,0.0587966705989014,1
65,744,57,0.0571768646090666,1
40,732,58,0.0628653270304357,1
40,733,58,0.0610076268150418,1
41,731,58,0.0569218633697663,1
41,732,58,0.0590366464431611,1
42,730,58,0.0582145662736916,1
43,729,58,0.0576423511115443,1
43,730,58,0.0580291194042905,1
43,752,58,0.0641183199617539,1
43,753,58,0.0908959268017477,1
44,728,58,0.0620312230067717,1
44,729,58,0.0593029639042364,1
44,730,58,0.0583548013284242,1
44,753,58,0.0608727992513815,1
44,754,58,0.0787991510864092,1
45,727,58,0.0682530692612685,1
45,728,58,0.0653222444817173,1
45,729,58,0.0615030166841798,1
45,730,58,0.0574299257561501,1
45,747,58,0.0598487902740736,1
45,755,58,0.0831235340804737,1
46,726,58,0.081199340005395,1
46,727,58,0.0740867968244854,1
46,728,58,0.0727422126703377,1
46,729,58,0.0665857339605913,1
46,730,58,0.059444301686156,1
47,726,58,0.0842853013990459,1
47,727,58,0.0775875487546943,1
47,728,58,0.0750141962857223,1
47,729,58,0.06745583288666,1
47,730,58,0.0613237557015123,1
47,731,58,0.0575353276050332,1
48,726,58,0.0812954129002145,1
48,727,58,0.0779720880053191,1
48,728,58,0.0725857138638306,1
48,729,58,0.0649447756583505,1
48,730,58,0.0616956460226388,1
48,731,58,0.058895845282493,1
49,726,58,0.0796869526168388,1
49,727,58,0.0745568770407529,1
49,728,58,0.0662119448258059,1
49,729,58,0.0595570688091386,1
49,730,58,0.0575580249148883,1
50,726,58,0.0801357272003429,1
50,727,58,0.0706612544265946,1
50,728,58,0.0630924298615975,1
50,729,58,0.0591191740740842,1
50,730,58,0.0571702482459443,1
51,726,58,0.0886287904684366,1
51,727,58,0.0690250431585013,1
51,728,58,0.0613475203569336,1
51,729,58,0.0598064561645776,1
51,730,58,0.0586111352754478,1
51,731,58,0.0568851903196262,1
52,725,58,0.134374619942421,1
52,726,58,0.112047484399772,1
52,727,58,0.0768562873093296,1
52,728,58,0.0638233492846261,1
52,729,58,0.0620734863530257,1
52,730,58,0.0611537647035402,1
52,731,58,0.0619237572299984,1
52,732,58,0.0582973179882142,1
53,726,58,0.130122716198923,1
53,727,58,0.0886660178306387,1
53,728,58,0.0701492705772195,1
53,729,58,0.0674940745219967,1
53,730,58,0.0678526082812052,1
53,731,58,0.0716131320726091,1
53,732,58,0.0672094942475617,1
53,733,58,0.0579321206903888,1
54,726,58,0.142664356828648,1
54,727,58,0.108164634550785,1
54,728,58,0.0820337683605846,1
54,729,58,0.0744683109465169,1
54,730,58,0.0750147682885948,1
54,731,58,0.0790120835783707,1
54,732,58,0.0732878208535123,1
54,733,58,0.0613785146569073,1
55,727,58,0.175553059552552,1
55,728,58,0.115561929017298,1
55,729,58,0.0850918018614129,1
55,730,58,0.0801940655963931,1
55,731,58,0.0810752507637005,1
55,732,58,0.0736894730148151,1
55,733,58,0.0603101194360868,1
56,728,58,0.168193894679576,1
56,729,58,0.0982911042679387,1
56,730,58,0.0824809861527658,1
56,731,58,0.0778434404314557,1
56,732,58,0.0682362688882425,1
57,728,58,0.173080662642094,1
57,729,58,0.0993661807181865,1
57,730,58,0.0776191799238455,1
57,731,58,0.0699245677993472,1
57,732,58,0.0604182161851008,1
58,729,58,0.0883235886059104,1
58,730,58,0.0712148942377303,1
58,731,58,0.0622161332549214,1
59,730,58,0.0647051890119215,1
61,741,58,0.0570117975533468,1
62,740,58,0.062433995586072,1
62,741,58,0.0700585756887882,1
62,742,58,0.061402639025475,1
63,740,58,0.0692035375393809,1
63,741,58,0.0771538467417254,1
63,742,58,0.0648066399131292,1
64,740,58,0.0626645245375315,1
64,741,58,0.0677451955768634,1
64,742,58,0.0593294706352831,1
65,741,58,0.0580476947553021,1
39,732,59,0.0597772663272736,1
39,733,59,0.05703321522791,1
40,731,59,0.0577161453790235,1
40,732,59,0.0610508808466831,1
40,733,59,0.0586354719337415,1
41,729,59,0.0596007886987895,1
41,730,59,0.0600307225691246,1
41,731,59,0.0605982968419875,1
41,732,59,0.0588718447495986,1
41,752,59,0.0682106938732147,1
42,728,59,0.0635458158497019,1
42,729,59,0.0622429996991147,1
42,730,59,0.0649038450198198,1
42,731,59,0.0644868844105087,1
42,732,59,0.057083521995999,1
42,752,59,0.0754997382703558,1
42,753,59,0.0999466515918946,1
43,728,59,0.0635467062871631,1
43,729,59,0.06160927948584,1
43,730,59,0.0633100799030223,1
43,731,59,0.0622238995207253,1
43,752,59,0.0687983531129175,1
43,753,59,0.0946379577992556,1
43,754,59,0.108100086680254,1
44,727,59,0.0683383330708803,1
44,728,59,0.0633178697565735,1
44,729,59,0.0609043950389118,1
44,730,59,0.0599343194458427,1
44,731,59,0.0577190348780697,1
44,753,59,0.0648368676113151,1
44,754,59,0.0836372752170238,1
44,755,59,0.111553474413852,1
45,726,59,0.0757803911848626,1
45,727,59,0.0691737756992045,1
45,728,59,0.0640255965270533,1
45,729,59,0.060269949502407,1
45,755,59,0.0820479622875322,1
45,756,59,0.103664764613624,1
46,725,59,0.0928588401640462,1
46,726,59,0.0801030876549939,1
46,727,59,0.0728931093868573,1
46,728,59,0.0683607414308309,1
46,729,59,0.0630969410182717,1
46,730,59,0.0572672882384038,1
46,756,59,0.0597018268144191,1
47,725,59,0.0937532049851666,1
47,726,59,0.08136205418332,1
47,727,59,0.075856007605822,1
47,728,59,0.0708124106083346,1
47,729,59,0.0641307742923369,1
47,730,59,0.0576730151830555,1
48,725,59,0.0850409584720725,1
48,726,59,0.0795191022069357,1
48,727,59,0.076084861827222,1
48,728,59,0.0690415074061281,1
48,729,59,0.0616874021049517,1
49,725,59,0.0796781013146584,1
49,726,59,0.0770456969202799,1
49,727,59,0.0721599668186441,1
49,728,59,0.0637029751131339,1
49,729,59,0.0572617333239108,1
50,725,59,0.0837312134207112,1
50,726,59,0.0769738368480807,1
50,727,59,0.0683000678477964,1
50,728,59,0.0603395510478008,1
51,725,59,0.107011099356026,1
51,726,59,0.0865759783041787,1
51,727,59,0.0665291056762216,1
51,728,59,0.0583868393862166,1
52,725,59,0.150514123258057,1
52,726,59,0.113458149628026,1
52,727,59,0.0735919258857883,1
52,728,59,0.0604997000582051,1
52,729,59,0.0582994349885359,1
53,725,59,0.170747162181708,1
53,726,59,0.132805645548053,1
53,727,59,0.0843863748962965,1
53,728,59,0.0666917078123468,1
53,729,59,0.0630108339466934,1
53,730,59,0.061432624949251,1
53,731,59,0.0618607838416005,1
53,732,59,0.0589028921220038,1
54,725,59,0.169892082753743,1
54,726,59,0.146050165666185,1
54,727,59,0.10328039047723,1
54,728,59,0.0799248232546506,1
54,729,59,0.0715773140783093,1
54,730,59,0.0686514545195681,1
54,731,59,0.0690300496578692,1
54,732,59,0.0650300984373306,1
55,726,59,0.18253786328787,1
55,727,59,0.154665095030788,1
55,728,59,0.106340806340537,1
55,729,59,0.0812971171149581,1
55,730,59,0.0728982633096459,1
55,731,59,0.0712492085131388,1
55,732,59,0.0649888139825902,1
56,726,59,0.24777029742168,1
56,727,59,0.23453780705468,1
56,728,59,0.151843847131395,1
56,729,59,0.0956207943636229,1
56,730,59,0.076929143963853,1
56,731,59,0.0707765395416033,1
56,732,59,0.0619518148554312,1
57,727,59,0.234746322740957,1
57,728,59,0.155949801688373,1
57,729,59,0.0975417097418246,1
57,730,59,0.0739268483099332,1
57,731,59,0.065269225122687,1
58,728,59,0.123557125702785,1
58,729,59,0.0885164479249057,1
58,730,59,0.0696947995527386,1
58,731,59,0.0599494273979988,1
59,729,59,0.0772611533012043,1
59,730,59,0.0632740555159334,1
59,758,59,0.0595173824242788,1
60,730,59,0.0610212310483065,1
60,757,59,0.061209944820711,1
61,757,59,0.0600506542156069,1
63,741,59,0.0611118197918749,1
39,731,60,0.0568942008391011,1
39,732,60,0.0580231752919668,1
40,729,60,0.0602881120678406,1
40,730,60,0.0569768699965081,1
40,731,60,0.0577655145341566,1
40,732,60,0.0576764118186691,1
41,728,60,0.0636612365942576,1
41,729,60,0.0608417754667237,1
41,730,60,0.0599016975913042,1
41,731,60,0.061663100828279,1
41,732,60,0.0574063674935179,1
41,752,60,0.0651023712951079,1
41,753,60,0.0748953612147426,1
42,727,60,0.0715077243267892,1
42,728,60,0.0649689236146656,1
42,729,60,0.0631203754452305,1
42,730,60,0.0647016390559504,1
42,731,60,0.0672700734796069,1
42,732,60,0.0575345256216244,1
42,752,60,0.0732822836298297,1
42,753,60,0.0920951868446793,1
42,754,60,0.0979267384382062,1
43,727,60,0.0698645487763007,1
43,728,60,0.0644023813057479,1
43,729,60,0.0619002697306081,1
43,730,60,0.0622831342511735,1
43,731,60,0.0633586116931257,1
43,752,60,0.0683039303414194,1
43,753,60,0.0916531406660972,1
43,754,60,0.106667697136721,1
43,755,60,0.102988421340948,1
44,726,60,0.0707604998734282,1
44,727,60,0.0686481935135016,1
44,728,60,0.0632252996422305,1
44,729,60,0.060159541154156,1
44,730,60,0.0576320491629039,1
44,753,60,0.0666744592721217,1
44,754,60,0.0861852826515043,1
44,755,60,0.108564729920765,1
44,756,60,0.125763665113241,1
45,725,60,0.0829371437011799,1
45,726,60,0.0755270646756218,1
45,727,60,0.0688209147932256,1
45,728,60,0.0628989100856773,1
45,729,60,0.0586889394599708,1
45,754,60,0.058307608142981,1
45,755,60,0.0797978916894045,1
45,756,60,0.0964141741415452,1
45,757,60,0.0713831161546537,1
46,724,60,0.0933777470172586,1
46,725,60,0.0879573357563925,1
46,726,60,0.0784803155059341,1
46,727,60,0.0711097990295623,1
46,728,60,0.0653169903110026,1
46,729,60,0.0597045570961709,1
46,756,60,0.0570204011841804,1
47,724,60,0.0894057885558477,1
47,725,60,0.0856221369782001,1
47,726,60,0.0785051534038582,1
47,727,60,0.073174452242973,1
47,728,60,0.067062778459254,1
47,729,60,0.060008797757994,1
48,724,60,0.0811640527354097,1
48,725,60,0.0814871400073386,1
48,726,60,0.0775389285105385,1
48,727,60,0.0728957099359989,1
48,728,60,0.0650612637484723,1
48,729,60,0.0572349907153909,1
49,724,60,0.0757930813929188,1
49,725,60,0.0771899654798036,1
49,726,60,0.0735524399967807,1
49,727,60,0.0680107523330877,1
49,728,60,0.0598169409182597,1
50,724,60,0.080659304427524,1
50,725,60,0.0818164485476222,1
50,726,60,0.0727225463860127,1
50,727,60,0.0637883981400401,1
51,724,60,0.113177549785951,1
51,725,60,0.114905788650199,1
51,726,60,0.0844180119623845,1
51,727,60,0.0617039607035678,1
52,724,60,0.164998757397471,1
52,725,60,0.17141527333057,1
52,726,60,0.113767868544163,1
52,727,60,0.0686934996791595,1
53,724,60,0.179779311620843,1
53,725,60,0.192647253353069,1
53,726,60,0.13263392674759,1
53,727,60,0.0790646960487598,1
53,728,60,0.0623740119446465,1
53,729,60,0.0583681401995316,1
54,724,60,0.168990205235102,1
54,725,60,0.188512993499311,1
54,726,60,0.146411258695977,1
54,727,60,0.0972814897134306,1
54,728,60,0.0745898055360066,1
54,729,60,0.0663298540777035,1
54,730,60,0.0607567357407114,1
54,731,60,0.0586758836418312,1
55,725,60,0.18315980142136,1
55,726,60,0.171611747471842,1
55,727,60,0.133095798427792,1
55,728,60,0.0925821853727095,1
55,729,60,0.073486152529885,1
55,730,60,0.0643121050998314,1
55,731,60,0.0606002487280779,1
56,725,60,0.187050505990203,1
56,726,60,0.209939136063845,1
56,727,60,0.188358305052411,1
56,728,60,0.125739181031526,1
56,729,60,0.0853455116715476,1
56,730,60,0.0687882221754451,1
56,731,60,0.0615699764018741,1
57,726,60,0.187238347015957,1
57,727,60,0.183873201045069,1
57,728,60,0.128086727995439,1
57,729,60,0.0873931876038274,1
57,730,60,0.0679357727813058,1
57,731,60,0.0588148449582086,1
58,727,60,0.145332555629579,1
58,728,60,0.108903355621239,1
58,729,60,0.08233289048124,1
58,730,60,0.0658886747488353,1
59,728,60,0.0968821432544279,1
59,729,60,0.0743168835056827,1
59,730,60,0.0611866755079834,1
59,758,60,0.0670994397155204,1
59,759,60,0.0606549958895992,1
60,729,60,0.0762275853892964,1
60,730,60,0.0600998346687615,1
60,757,60,0.063023819001591,1
60,758,60,0.0844055458379278,1
61,730,60,0.0607207526321803,1
61,757,60,0.0574520569600696,1
61,758,60,0.0735292591381056,1
69,742,60,0.0582917335890371,1
69,743,60,0.0605625260231822,1
40,728,61,0.065533065870294,1
40,729,61,0.0602222255926492,1
40,753,61,0.0597652719577632,1
41,727,61,0.0705447486456623,1
41,728,61,0.064038269044299,1
41,729,61,0.0596816651874004,1
41,730,61,0.0576778270835081,1
41,731,61,0.0585638064604576,1
41,752,61,0.0607903423837004,1
41,753,61,0.0675884078204516,1
41,754,61,0.069886621010852,1
42,727,61,0.0704719686513177,1
42,728,61,0.0640308742855153,1
42,729,61,0.0603538982951059,1
42,730,61,0.0606107570695073,1
42,731,61,0.0640362758796508,1
42,752,61,0.0657519719592634,1
42,753,61,0.0781512133584395,1
42,754,61,0.0851459593292513,1
42,755,61,0.078101272200434,1
43,726,61,0.0709856920970574,1
43,727,61,0.0678726814541714,1
43,728,61,0.0624986437045293,1
43,729,61,0.0588779952547113,1
43,730,61,0.0579939736607891,1
43,731,61,0.0592515190273394,1
43,752,61,0.061516326070603,1
43,753,61,0.0790763366020605,1
43,754,61,0.0931213717916772,1
43,755,61,0.0936003976611145,1
43,756,61,0.0917233024204897,1
44,725,61,0.0791442516235211,1
44,726,61,0.0702420117027306,1
44,727,61,0.0659139313292743,1
44,728,61,0.0606483146601718,1
44,729,61,0.0569149875414236,1
44,753,61,0.0629631572124302,1
44,754,61,0.0802884755550268,1
44,755,61,0.0971076598095827,1
44,756,61,0.105540096670137,1
44,757,61,0.0777995200459527,1
45,724,61,0.090131335869425,1
45,725,61,0.0817590890430857,1
45,726,61,0.0730414881113508,1
45,727,61,0.0657236725594206,1
45,728,61,0.0596492674164614,1
45,754,61,0.059549809679902,1
45,755,61,0.0752239444317962,1
45,756,61,0.0835510089281511,1
45,757,61,0.0643420969205441,1
46,724,61,0.0880398633873156,1
46,725,61,0.08340985984821,1
46,726,61,0.0756432638158389,1
46,727,61,0.0678352535961172,1
46,728,61,0.0610243387340154,1
47,724,61,0.0808255921491674,1
47,725,61,0.0793736542600462,1
47,726,61,0.075164638938106,1
47,727,61,0.0690444735653531,1
47,728,61,0.0624026592637622,1
48,724,61,0.0767222145535835,1
48,725,61,0.0778704719898803,1
48,726,61,0.0745892925025024,1
48,727,61,0.0679499018419483,1
48,728,61,0.0606354357501371,1
49,723,61,0.0720001303458917,1
49,724,61,0.0736897088922882,1
49,725,61,0.0744262245083677,1
49,726,61,0.0703424424338668,1
49,727,61,0.0630574315415168,1
50,723,61,0.0759574879917137,1
50,724,61,0.082929029516103,1
50,725,61,0.0811290013428976,1
50,726,61,0.0703321286913527,1
50,727,61,0.0598761107824027,1
51,724,61,0.129815580141117,1
51,725,61,0.12329251835339,1
51,726,61,0.0836025009805427,1
51,727,61,0.0584273100636747,1
52,724,61,0.197980997333358,1
52,725,61,0.191651130990026,1
52,726,61,0.114657020473127,1
52,727,61,0.0656139010803471,1
53,724,61,0.207316343676498,1
53,725,61,0.208789752312614,1
53,726,61,0.129797948299998,1
53,727,61,0.0749203170514033,1
53,728,61,0.0583848167368842,1
54,724,61,0.182587598053086,1
54,725,61,0.198349367183197,1
54,726,61,0.142284004403172,1
54,727,61,0.0926047588468913,1
54,728,61,0.0697131626140244,1
54,729,61,0.0611380493668907,1
55,724,61,0.162442671159535,1
55,725,61,0.188780395996763,1
55,726,61,0.15984983521128,1
55,727,61,0.117013613338135,1
55,728,61,0.0824075457014963,1
55,729,61,0.0670266125456812,1
56,725,61,0.174022427041446,1
56,726,61,0.175870373723325,1
56,727,61,0.15186362545752,1
56,728,61,0.105928645837805,1
56,729,61,0.0770940694930889,1
56,730,61,0.061493174696612,1
57,726,61,0.151987720596151,1
57,727,61,0.146603251165258,1
57,728,61,0.107276815329545,1
57,729,61,0.0785520989179545,1
57,730,61,0.061817258550865,1
58,727,61,0.125602242364481,1
58,728,61,0.097279301949867,1
58,729,61,0.0759273369537066,1
58,730,61,0.0607013281222653,1
59,727,61,0.116981628352774,1
59,728,61,0.0881109037852956,1
59,729,61,0.0703741679540073,1
59,730,61,0.0572462656586081,1
59,758,61,0.0694725793852712,1
59,759,61,0.0627819738283565,1
60,728,61,0.0996469220867457,1
60,729,61,0.073780356605225,1
60,730,61,0.057530297517918,1
60,757,61,0.0627337486789682,1
60,758,61,0.0882106327809492,1
60,759,61,0.0759074112041611,1
61,729,61,0.0809723020405383,1
61,730,61,0.0608112352308858,1
61,758,61,0.0700654338263204,1
62,730,61,0.070569775245565,1
63,731,61,0.0679422299271337,1
69,742,61,0.0678193259697418,1
69,743,61,0.0715473340514702,1
70,742,61,0.0757269059678227,1
70,744,61,0.0583654158147165,1
39,728,62,0.0659976147598159,1
39,729,62,0.0592713150442747,1
40,727,62,0.0704688609656088,1
40,728,62,0.0645980711544211,1
40,729,62,0.0592440947838716,1
41,727,62,0.069551185553203,1
41,728,62,0.0632962515861581,1
41,729,62,0.0578447516743291,1
41,753,62,0.0610309963756955,1
41,754,62,0.0634194326995809,1
42,726,62,0.0744948707499951,1
42,727,62,0.0680642257562538,1
42,728,62,0.0616910169272279,1
42,731,62,0.0585649858478234,1
42,752,62,0.057421269052885,1
42,753,62,0.0650445636233724,1
42,754,62,0.0699120898810168,1
42,755,62,0.0694811063559261,1
43,725,62,0.081454453286495,1
43,726,62,0.0706362337236288,1
43,727,62,0.0650095181277971,1
43,728,62,0.058797236704837,1
43,753,62,0.0658046669867681,1
43,754,62,0.0761270662041078,1
43,755,62,0.080037012477824,1
43,756,62,0.0745000069819732,1
44,724,62,0.092104480417122,1
44,725,62,0.0781246476580245,1
44,726,62,0.0694058614419869,1
44,727,62,0.0626366379232668,1
44,754,62,0.0689501874423928,1
44,755,62,0.0792972240618044,1
44,756,62,0.0796751410523702,1
44,757,62,0.0663963361435146,1
45,724,62,0.084494041168922,1
45,725,62,0.0784952406530485,1
45,726,62,0.0705091016625305,1
45,727,62,0.0624907830877361,1
45,754,62,0.0571809334954787,1
45,755,62,0.0675540050909907,1
45,756,62,0.0701692965746911,1
45,757,62,0.0604151792626338,1
46,724,62,0.0809762294004664,1
46,725,62,0.0783201723924665,1
46,726,62,0.0724111586367528,1
46,727,62,0.0642004583948462,1
47,723,62,0.0745676566412765,1
47,724,62,0.0751367759115886,1
47,725,62,0.074750502961536,1
47,726,62,0.0713789882988734,1
47,727,62,0.0640156483946226,1
48,723,62,0.0718312597659171,1
48,724,62,0.0732276013346136,1
48,725,62,0.0733330798436755,1
48,726,62,0.0697335070460847,1
48,727,62,0.0615731017783935,1
49,723,62,0.0710829738639268,1
49,724,62,0.0728679235696602,1
49,725,62,0.0714631906598559,1
49,726,62,0.0661383274664316,1
49,727,62,0.0574386414287835,1
50,723,62,0.078241660575524,1
50,724,62,0.0853529123272681,1
50,725,62,0.0798840105548565,1
50,726,62,0.0669875217514412,1
51,723,62,0.105833540040626,1
51,724,62,0.140514534156615,1
51,725,62,0.125783467027113,1
51,726,62,0.0800902264357697,1
52,723,62,0.147190432753078,1
52,724,62,0.221188274285496,1
52,725,62,0.199120191177748,1
52,726,62,0.110021933774475,1
52,727,62,0.0609208121110439,1
53,723,62,0.147368319749464,1
53,724,62,0.223281993500538,1
53,725,62,0.206650107753547,1
53,726,62,0.117416409505183,1
53,727,62,0.0676674975372033,1
54,724,62,0.185550714458714,1
54,725,62,0.188871138060689,1
54,726,62,0.126556354949554,1
54,727,62,0.082924028913672,1
54,728,62,0.0645308578684432,1
55,724,62,0.162041066173727,1
55,725,62,0.180104669213451,1
55,726,62,0.140667736575435,1
55,727,62,0.0979365273533425,1
55,728,62,0.0714025111798846,1
55,729,62,0.0595919845721036,1
56,725,62,0.155026471113548,1
56,726,62,0.141834233237344,1
56,727,62,0.116020993755568,1
56,728,62,0.0851757742418591,1
56,729,62,0.0663412705474046,1
57,726,62,0.124221840216034,1
57,727,62,0.113959601548224,1
57,728,62,0.0874268473192478,1
57,729,62,0.0680450960931803,1
58,727,62,0.105705210901351,1
58,728,62,0.0841695209413436,1
58,729,62,0.0676581626862029,1
59,727,62,0.0991183678448809,1
59,728,62,0.0795173685075079,1
59,729,62,0.0652814258849863,1
59,758,62,0.0700169904902694,1
59,759,62,0.0725689901509833,1
60,728,62,0.087007044386385,1
60,729,62,0.0696834361554689,1
60,757,62,0.0605614115021215,1
60,758,62,0.0854554541617891,1
60,759,62,0.0766539103342922,1
61,729,62,0.0807126245303326,1
61,730,62,0.0605809362599626,1
61,758,62,0.0647584383514882,1
62,730,62,0.0705555990094278,1
63,730,62,0.0825208258579831,1
63,731,62,0.0639818117710973,1
64,731,62,0.0723811904037873,1
69,742,62,0.0728844290958448,1
38,728,63,0.063917717964702,1
39,727,63,0.0716822618630565,1
39,728,63,0.0656264143802985,1
39,729,63,0.058424332110576,1
40,726,63,0.0795598913189825,1
40,727,63,0.0696400347004068,1
40,728,63,0.0632225103911103,1
40,729,63,0.0575039617980393,1
41,726,63,0.0774937992529855,1
41,727,63,0.0680989410233667,1
41,728,63,0.0617864647467435,1
41,754,63,0.0576933183365581,1
42,725,63,0.0821522849969756,1
42,726,63,0.0720061157367732,1
42,727,63,0.0649066283740032,1
42,728,63,0.0590219984520777,1
42,754,63,0.0590001561980627,1
42,755,63,0.0611057990193724,1
43,724,63,0.0926116405721708,1
43,725,63,0.0779177005569445,1
43,726,63,0.0682431624073957,1
43,727,63,0.0614849248819881,1
43,754,63,0.0633100622122118,1
43,755,63,0.0674676503480655,1
43,756,63,0.0613412637069579,1
44,724,63,0.0858171899576958,1
44,725,63,0.0756325372877468,1
44,726,63,0.0665873084427247,1
44,727,63,0.0588532281200292,1
44,754,63,0.0599307341082506,1
44,755,63,0.0651119479205183,1
44,756,63,0.0617793707317382,1
44,757,63,0.0576818075158677,1
45,724,63,0.0793829655232994,1
45,725,63,0.0740904529253194,1
45,726,63,0.0667808518063921,1
45,727,63,0.0585090416081258,1
45,755,63,0.0607827825106855,1
45,756,63,0.0600612569080256,1
46,723,63,0.0758914835777857,1
46,724,63,0.074194215425764,1
46,725,63,0.0727005508116402,1
46,726,63,0.0680845230128196,1
46,727,63,0.0596383875680117,1
47,723,63,0.0714152072848776,1
47,724,63,0.0704144853111078,1
47,725,63,0.070494972601888,1
47,726,63,0.0670811415205398,1
47,727,63,0.0590019134852378,1
48,723,63,0.0690390483834703,1
48,724,63,0.0690988020443595,1
48,725,63,0.0689117983836355,1
48,726,63,0.0645876984425388,1
49,723,63,0.0698345038831565,1
49,724,63,0.0708299539954011,1
49,725,63,0.0689558249140014,1
49,726,63,0.0623910776798299,1
50,723,63,0.0792858901492189,1
50,724,63,0.0852594163938429,1
50,725,63,0.0789902531182294,1
50,726,63,0.0645463845031142,1
51,723,63,0.10903302926211,1
51,724,63,0.139841504962437,1
51,725,63,0.121479705621139,1
51,726,63,0.0760146470003981,1
52,723,63,0.160539104569484,1
52,724,63,0.228975745474243,1
52,725,63,0.193276397543364,1
52,726,63,0.10322255332081,1
52,727,63,0.0583440924911426,1
53,723,63,0.164024170647728,1
53,724,63,0.232290107025158,1
53,725,63,0.196567878979383,1
53,726,63,0.106503373095042,1
53,727,63,0.0641032473912187,1
54,724,63,0.183908523696676,1
54,725,63,0.173605678721861,1
54,726,63,0.114086114430956,1
54,727,63,0.0772105339954634,1
54,728,63,0.0618315645196124,1
55,724,63,0.155199286744262,1
55,725,63,0.167897278757073,1
55,726,63,0.128911202321261,1
55,727,63,0.0879536796555585,1
55,728,63,0.0662156422051977,1
56,725,63,0.140759292416643,1
56,726,63,0.121173760744573,1
56,727,63,0.0942352264985131,1
56,728,63,0.0736281507687294,1
56,729,63,0.0598946920303512,1
57,726,63,0.108881536954971,1
57,727,63,0.0947926108645353,1
57,728,63,0.0769543769565447,1
57,729,63,0.0623135270635906,1
58,726,63,0.109557125419732,1
58,727,63,0.0938619209125477,1
58,728,63,0.0769584104613358,1
58,729,63,0.0630135878161926,1
58,759,63,0.0724943172399165,1
59,727,63,0.0905351050310495,1
59,728,63,0.0746313022804728,1
59,729,63,0.0621500167991936,1
59,758,63,0.0770928724149126,1
59,759,63,0.0919580358879084,1
60,728,63,0.0802053523334839,1
60,729,63,0.0671624838671602,1
60,758,63,0.0802780379768393,1
60,759,63,0.080482201723736,1
61,729,63,0.0786152433175204,1
61,730,63,0.05947845674427,1
61,758,63,0.0590878436487113,1
62,729,63,0.0906358777845218,1
62,730,63,0.0698082153387724,1
63,730,63,0.0776761148489304,1
63,731,63,0.0616124697286645,1
64,731,63,0.0691866664031129,1
69,742,63,0.0751005451317107,1
69,743,63,0.0811994048717001,1
70,742,63,0.080272459474599,1
70,744,63,0.0594430987110428,1
37,728,64,0.0604953422218884,1
38,727,64,0.0689828033999945,1
38,728,64,0.0648243720021742,1
38,729,64,0.0584008799928067,1
39,727,64,0.0709862523060561,1
39,728,64,0.0650323864488203,1
39,729,64,0.0592723588020934,1
40,726,64,0.0794089356330947,1
40,727,64,0.0686795652174323,1
40,728,64,0.0614967128587095,1
41,725,64,0.0879528599813393,1
41,726,64,0.0763679855582602,1
41,727,64,0.0659315513765196,1
41,728,64,0.0590206008780492,1
42,725,64,0.0803902095092022,1
42,726,64,0.0698506437992577,1
42,727,64,0.0613466299194724,1
43,724,64,0.0871012597461034,1
43,725,64,0.076311475212627,1
43,726,64,0.0662844889426773,1
43,727,64,0.0575921740760656,1
43,755,64,0.0588323706544647,1
44,724,64,0.0836390737827567,1
44,725,64,0.0743551605226403,1
44,726,64,0.0645525998745321,1
44,755,64,0.058050147881023,1
45,724,64,0.0761929880609202,1
45,725,64,0.0703409564057859,1
45,726,64,0.0631626505853582,1
46,724,64,0.0691813414691562,1
46,725,64,0.0673188175594362,1
46,726,64,0.0630844100275099,1
47,723,64,0.0681974611469703,1
47,724,64,0.0665231084914664,1
47,725,64,0.0660387753788829,1
47,726,64,0.0617768527397121,1
48,723,64,0.066520189507736,1
48,724,64,0.0663739336805009,1
48,725,64,0.0652922998364992,1
48,726,64,0.0593212031298488,1
49,723,64,0.0690751789154222,1
49,724,64,0.0698649556649419,1
49,725,64,0.0669094168231399,1
49,726,64,0.0582372517896732,1
50,723,64,0.0787595295678545,1
50,724,64,0.0831927936035313,1
50,725,64,0.0762825389436067,1
50,726,64,0.0603872277820639,1
51,723,64,0.107402078061668,1
51,724,64,0.131781076361747,1
51,725,64,0.111738933077126,1
51,726,64,0.0697071477384587,1
52,723,64,0.17121496618036,1
52,724,64,0.230600115693183,1
52,725,64,0.182484873413523,1
52,726,64,0.0945132493791941,1
53,723,64,0.192116788503672,1
53,724,64,0.254106886272997,1
53,725,64,0.194733896243915,1
53,726,64,0.098815224013308,1
53,727,64,0.0599375037917304,1
54,723,64,0.151071289437416,1
54,724,64,0.194804470783886,1
54,725,64,0.166331712792192,1
54,726,64,0.104915245449853,1
54,727,64,0.0721747209545905,1
54,728,64,0.0590011291926395,1
55,724,64,0.152112405428465,1
55,725,64,0.159261615762578,1
55,726,64,0.122910526579476,1
55,727,64,0.0831100418890087,1
55,728,64,0.0622625126630821,1
56,725,64,0.134066516786975,1
56,726,64,0.112699320002985,1
56,727,64,0.0831770782668818,1
56,728,64,0.0658228354491385,1
57,726,64,0.102399010711007,1
57,727,64,0.0849923795064745,1
57,728,64,0.0704091898618352,1
57,729,64,0.0586632052276487,1
58,726,64,0.104866642896507,1
58,727,64,0.089045880810358,1
58,728,64,0.0728454503434046,1
58,729,64,0.0601777449981474,1
58,758,64,0.0704768749027595,1
58,759,64,0.0926042104317662,1
58,760,64,0.0790582153151847,1
59,727,64,0.0884050076127096,1
59,728,64,0.0720647018041702,1
59,729,64,0.0598966380195048,1
59,758,64,0.0910017414362089,1
59,759,64,0.116321855472589,1
60,728,64,0.0768136583529921,1
60,729,64,0.0647486966118465,1
60,758,64,0.0769786074699754,1
60,759,64,0.0854195713011841,1
61,728,64,0.0880232399223944,1
61,729,64,0.0757683496398576,1
62,729,64,0.0877402400270297,1
62,730,64,0.0666267943317322,1
63,730,64,0.0723663419168517,1
63,731,64,0.0575644938545898,1
64,731,64,0.0649356118185181,1
69,741,64,0.0571551756754092,1
69,742,64,0.0757910646405232,1
69,743,64,0.0814560985318703,1
70,742,64,0.0732638615991757,1
70,743,64,0.0806795309208477,1
37,728,65,0.0598190402277708,1
38,727,65,0.0664154304249672,1
38,728,65,0.0625364489665406,1
38,729,65,0.0573228432802707,1
39,726,65,0.07418862512965,1
39,727,65,0.0677050197462468,1
39,728,65,0.0620476105942197,1
39,729,65,0.0575774848064243,1
40,725,65,0.0834954244016001,1
40,726,65,0.076590087786991,1
40,727,65,0.0665656254060041,1
40,728,65,0.0590643679431947,1
41,725,65,0.0834838899931624,1
41,726,65,0.0732494907641232,1
41,727,65,0.0629713598515595,1
42,724,65,0.0883974182550105,1
42,725,65,0.0789521353185662,1
42,726,65,0.0680237020063643,1
42,727,65,0.058505344228734,1
43,724,65,0.0855320848558831,1
43,725,65,0.0760908708058508,1
43,726,65,0.0646182563691871,1
44,724,65,0.083777244909599,1
44,725,65,0.0738877516187563,1
44,726,65,0.0626488327886293,1
45,724,65,0.0756494673933831,1
45,725,65,0.0676924769616113,1
45,726,65,0.0593811631835269,1
46,723,65,0.0721426946906717,1
46,724,65,0.0662972027384809,1
46,725,65,0.0632980796365751,1
46,726,65,0.0584750988397376,1
47,723,65,0.0638251655411694,1
47,724,65,0.0618559542503375,1
47,725,65,0.0618606482120535,1
47,726,65,0.0572371313034599,1
48,723,65,0.0624606969160341,1
48,724,65,0.0622816128414716,1
48,725,65,0.0618009771082799,1
49,723,65,0.0663234794889913,1
49,724,65,0.0665656725814987,1
49,725,65,0.0634152163897481,1
50,723,65,0.074790802627826,1
50,724,65,0.0762476290775785,1
50,725,65,0.0703993124926465,1
51,723,65,0.0988370190918283,1
51,724,65,0.112176320675613,1
51,725,65,0.0952873815553062,1
51,726,65,0.0643708857661437,1
52,723,65,0.16337325496666,1
52,724,65,0.203455218142789,1
52,725,65,0.154945565140253,1
52,726,65,0.0851067270085274,1
53,723,65,0.205906787072367,1
53,724,65,0.25410492848997,1
53,725,65,0.18321425373604,1
53,726,65,0.0948573769217292,1
53,727,65,0.0606661057185852,1
54,723,65,0.163059879949688,1
54,724,65,0.196804346146229,1
54,725,65,0.155235942103591,1
54,726,65,0.0983804015823416,1
54,727,65,0.0698656868851087,1
54,728,65,0.0573442786456444,1
55,724,65,0.142161878841442,1
55,725,65,0.143556634134131,1
55,726,65,0.114382883673816,1
55,727,65,0.0799667622693791,1
55,728,65,0.0602580023083913,1
56,725,65,0.124185680199398,1
56,726,65,0.106694044650473,1
56,727,65,0.0791752223357474,1
56,728,65,0.0630009624744415,1
57,726,65,0.0975281880656755,1
57,727,65,0.0802932461769215,1
57,728,65,0.0673153265728333,1
57,729,65,0.0568872955260742,1
57,758,65,0.0588143967910096,1
57,759,65,0.0723973774953832,1
58,726,65,0.100171560762556,1
58,727,65,0.085121369102674,1
58,728,65,0.0699314436276899,1
58,729,65,0.0583938213594223,1
58,758,65,0.083020084117681,1
58,759,65,0.104709619262622,1
58,760,65,0.0794514584445692,1
59,727,65,0.0848917659702966,1
59,728,65,0.0693217652258673,1
59,729,65,0.0579708753592296,1
59,758,65,0.0954581863305608,1
59,759,65,0.119857045513879,1
60,727,65,0.0877364895752064,1
60,728,65,0.0734000572521803,1
60,729,65,0.0619098522529554,1
60,758,65,0.0715201963481827,1
61,728,65,0.0815896169755545,1
61,729,65,0.0704560469218792,1
62,729,65,0.0793246389211229,1
62,730,65,0.0610679112002455,1
63,730,65,0.0660249116803977,1
64,730,65,0.0738148300979278,1
64,731,65,0.0608537049699289,1
65,731,65,0.0632842867013318,1
69,742,65,0.0677520419205219,1
69,743,65,0.0710557418096501,1
70,742,65,0.0607733651025694,1
70,743,65,0.065220852549878,1
37,727,66,0.0622273787134544,1
37,728,66,0.0590450672689531,1
38,726,66,0.066885640373845,1
38,727,66,0.0627449823436276,1
38,728,66,0.0595952455781701,1
39,725,66,0.074585648195542,1
39,726,66,0.069579891841687,1
39,727,66,0.0638562070166378,1
39,728,66,0.0591934224056993,1
40,725,66,0.0778622280721932,1
40,726,66,0.0713809873604584,1
40,727,66,0.063878385396052,1
40,728,66,0.0569561835421116,1
41,724,66,0.0865795636417708,1
41,725,66,0.0771377186194978,1
41,726,66,0.067747518969974,1
41,727,66,0.0594727603032931,1
42,724,66,0.0858912672781428,1
42,725,66,0.0761798732734123,1
42,726,66,0.0641932759257884,1
43,724,66,0.0842977852143131,1
43,725,66,0.0749403784304958,1
43,726,66,0.061649991937708,1
44,724,66,0.0820112302680238,1
44,725,66,0.0707828433670736,1
44,726,66,0.0582335131317235,1
45,724,66,0.0752407212170749,1
45,725,66,0.0630565057224347,1
46,724,66,0.0645170708301368,1
46,725,66,0.0576406292059902,1
47,723,66,0.0605167598964517,1
47,724,66,0.0583687416870882,1
48,723,66,0.0578766423087008,1
48,724,66,0.0583752224206633,1
48,725,66,0.0575418791018503,1
49,723,66,0.0615591083472981,1
49,724,66,0.0624271610362871,1
49,725,66,0.0591893181376662,1
50,723,66,0.0684866410321319,1
50,724,66,0.0686900971466091,1
50,725,66,0.0637315575659445,1
51,723,66,0.0870933578507524,1
51,724,66,0.0919277669111647,1
51,725,66,0.0793321870002641,1
51,726,66,0.0593911172128944,1
52,723,66,0.138204196864094,1
52,724,66,0.157962013442563,1
52,725,66,0.119670973569174,1
52,726,66,0.0744849226175644,1
53,723,66,0.190011971253518,1
53,724,66,0.221548883766469,1
53,725,66,0.158221785303758,1
53,726,66,0.0893764807798072,1
53,727,66,0.0617671110000705,1
54,724,66,0.186561272523114,1
54,725,66,0.142939319199115,1
54,726,66,0.0927715949836598,1
54,727,66,0.0677274693847551,1
55,725,66,0.126386358054645,1
55,726,66,0.101745311675756,1
55,727,66,0.0744777342515697,1
55,728,66,0.056891099050329,1
55,759,66,0.0576842252599676,1
56,725,66,0.112586759272792,1
56,726,66,0.0987453630026938,1
56,727,66,0.0754060536349521,1
56,728,66,0.0594591914516494,1
56,758,66,0.0685023268840973,1
56,759,66,0.0772286257976551,1
56,760,66,0.0572939600836818,1
57,726,66,0.0935601274795086,1
57,727,66,0.0772873828762201,1
57,728,66,0.0639531939366658,1
57,758,66,0.0759517561691158,1
57,759,66,0.0864045130719993,1
58,726,66,0.0946209274456932,1
58,727,66,0.0807155788956839,1
58,728,66,0.0667311642166702,1
58,758,66,0.0832909009415568,1
58,759,66,0.095690242588659,1
59,727,66,0.0817694735488417,1
59,728,66,0.0678322166736502,1
59,758,66,0.0809637161005151,1
60,727,66,0.0833733637061748,1
60,728,66,0.0706583118551169,1
60,729,66,0.0590401963991322,1
61,728,66,0.0757361700555812,1
61,729,66,0.0653416336100113,1
62,729,66,0.0710215041944204,1
63,730,66,0.0620979704347401,1
64,730,66,0.0712652599751876,1
64,731,66,0.0591722229177987,1
65,731,66,0.0616485648789953,1
36,727,67,0.0576106079005933,1
37,726,67,0.0624266892813408,1
37,727,67,0.0595433525340742,1
37,728,67,0.0569564194195848,1
38,726,67,0.0620952755346092,1
38,727,67,0.0591651230058565,1
38,728,67,0.0573137384098065,1
38,729,67,0.0569851492958161,1
38,753,67,0.0635991359525105,1
38,754,67,0.0638201118663069,1
39,725,67,0.0692207153163641,1
39,726,67,0.0638933518217242,1
39,727,67,0.0606866034710031,1
39,728,67,0.0570945315770589,1
39,755,67,0.0581926709472452,1
40,725,67,0.0716977472191697,1
40,726,67,0.0652116179468036,1
40,727,67,0.0612980568508112,1
41,724,67,0.080394184044625,1
41,725,67,0.0714614864451123,1
41,726,67,0.0624518161291695,1
42,724,67,0.0826985713278854,1
42,725,67,0.0745083157659654,1
42,726,67,0.062265001170424,1
43,724,67,0.0817113887210752,1
43,725,67,0.0747734302519275,1
43,726,67,0.0616588668276357,1
44,724,67,0.0776455451284084,1
44,725,67,0.0682793637025895,1
45,724,67,0.0733757500785708,1
45,725,67,0.0601954417055715,1
46,724,67,0.0641923383128326,1
49,724,67,0.0577316779106313,1
50,723,67,0.0621187571370626,1
50,724,67,0.06257104039798,1
50,725,67,0.058937076664802,1
51,724,67,0.0769881369198912,1
51,725,67,0.0684486234803948,1
52,724,67,0.11559930380292,1
52,725,67,0.0900564742563797,1
52,726,67,0.0654431434805872,1
53,723,67,0.154835540092896,1
53,724,67,0.168746991972523,1
53,725,67,0.125153308563683,1
53,726,67,0.0811158747615161,1
53,727,67,0.059456272467919,1
54,724,67,0.161592568746254,1
54,725,67,0.128578721228963,1
54,726,67,0.0897648766271182,1
54,727,67,0.0653053556546388,1
55,725,67,0.112563254082591,1
55,726,67,0.0924089274717341,1
55,727,67,0.0700021479002706,1
56,725,67,0.102023128163648,1
56,726,67,0.0917287217054356,1
56,727,67,0.0735181787938037,1
56,728,67,0.0582159461569097,1
56,758,67,0.0803600584711951,1
56,759,67,0.081253438503865,1
57,726,67,0.0901698664546663,1
57,727,67,0.0760565506335056,1
57,728,67,0.0630259065172285,1
57,757,67,0.0623545520531106,1
57,758,67,0.0900694180327196,1
57,759,67,0.0849576052699934,1
58,726,67,0.0892168271120964,1
58,727,67,0.0767910082186316,1
58,728,67,0.0653052907883337,1
58,757,67,0.0623612273856011,1
58,758,67,0.0838109812851982,1
58,759,67,0.0763719070212515,1
59,727,67,0.0790581563458164,1
59,728,67,0.0675277755159749,1
59,758,67,0.0682121504166115,1
60,728,67,0.0701526259342753,1
60,729,67,0.0589703648732022,1
61,728,67,0.0728237142342526,1
61,729,67,0.0625969810230912,1
62,729,67,0.0655339150291974,1
63,730,67,0.0576454587972532,1
64,730,67,0.0678428252630057,1
64,731,67,0.0581023888443919,1
65,731,67,0.0603717424259507,1
37,753,68,0.0675683641321695,1
37,754,68,0.0667773254381683,1
38,753,68,0.0615388405754165,1
38,754,68,0.0620995508138103,1
38,755,68,0.0579810711630071,1
39,725,68,0.0636738265543877,1
39,726,68,0.0591633244401236,1
39,727,68,0.0584970708263628,1
39,755,68,0.0572249600258446,1
40,724,68,0.0690445384316582,1
40,725,68,0.0634043129535511,1
40,726,68,0.0595978284365013,1
40,727,68,0.0595762338538331,1
41,724,68,0.067804070594165,1
41,725,68,0.062537262743823,1
42,724,68,0.0706745874007652,1
42,725,68,0.0678277821771547,1
42,726,68,0.0576292068393522,1
43,724,68,0.0716696836968001,1
43,725,68,0.0709084009460385,1
43,726,68,0.0599256096701461,1
44,723,68,0.0730829553711329,1
44,724,68,0.0658633415082175,1
44,725,68,0.061355787862368,1
45,723,68,0.0716193297532165,1
45,724,68,0.06229281112451,1
51,724,68,0.059579483066026,1
52,724,68,0.0773797937732687,1
52,725,68,0.0637340460732864,1
53,724,68,0.110100929140237,1
53,725,68,0.0888026321661581,1
53,726,68,0.0681061588740455,1
54,725,68,0.104801127928336,1
54,726,68,0.0819685128576339,1
54,727,68,0.0617457935734333,1
55,725,68,0.0930580799686906,1
55,726,68,0.0797558229420658,1
55,727,68,0.0644423448466386,1
55,728,68,0.0570024921870305,1
56,726,68,0.0774257132203568,1
56,727,68,0.0660298769012078,1
56,728,68,0.0585298636920693,1
56,757,68,0.0582273036572425,1
56,758,68,0.0740758580066674,1
56,759,68,0.0661302132813547,1
57,726,68,0.0802813874369582,1
57,727,68,0.0697603675933412,1
57,728,68,0.060536933317344,1
57,757,68,0.0840872822603251,1
57,758,68,0.0929348693705836,1
57,759,68,0.0690115509670363,1
58,727,68,0.0718610687815881,1
58,728,68,0.063167350444011,1
58,729,68,0.057050363520209,1
58,757,68,0.0837563166807926,1
58,758,68,0.0857080789355472,1
59,727,68,0.0739565688715518,1
59,728,68,0.0649908779104803,1
59,729,68,0.057942463917587,1
59,757,68,0.0597094987292337,1
59,758,68,0.061145904086747,1
60,728,68,0.066267216814705,1
60,729,68,0.0594714747710644,1
61,729,68,0.0594639856612915,1
64,730,68,0.0626210228345434,1
64,731,68,0.0572801081790703,1
64,732,68,0.0570537660527594,1
65,731,68,0.0580180508538623,1
37,753,69,0.0609093248781009,1
37,754,69,0.0619314055570657,1
38,753,69,0.0588890107327081,1
38,754,69,0.0600810883065818,1
38,755,69,0.0597484185123057,1
39,725,69,0.057931666626253,1
39,755,69,0.0569241926598138,1
40,724,69,0.0610885740668947,1
40,725,69,0.0575666167518483,1
40,727,69,0.0572861525393201,1
41,724,69,0.0604809831807096,1
41,725,69,0.0575610323526712,1
42,724,69,0.0632158232647461,1
42,725,69,0.06268479820635,1
43,723,69,0.0697877824526596,1
43,724,69,0.0652077023807491,1
43,725,69,0.0666234094899923,1
43,726,69,0.0587366397819813,1
44,723,69,0.0671586036827267,1
44,724,69,0.0599387362515277,1
44,725,69,0.0575014614968237,1
45,723,69,0.0643391720398769,1
46,723,69,0.0577715294097223,1
52,724,69,0.063060633578215,1
53,724,69,0.0802319357247095,1
53,725,69,0.071129648118929,1
53,726,69,0.0634679880774316,1
54,725,69,0.0887956737806998,1
54,726,69,0.0780849671701015,1
54,727,69,0.0632179107803836,1
54,728,69,0.0589445893623222,1
55,725,69,0.0838324697230034,1
55,726,69,0.0751727295354355,1
55,727,69,0.0651256170200882,1
55,728,69,0.0643607607256082,1
55,729,69,0.0630153804849886,1
56,726,69,0.0726643554133833,1
56,727,69,0.064908533084599,1
56,728,69,0.062208313916686,1
56,729,69,0.0596740168603331,1
56,757,69,0.0583672320712599,1
56,758,69,0.0609035753646925,1
57,726,69,0.0750494599679603,1
57,727,69,0.0673805349002894,1
57,728,69,0.061061890427743,1
57,729,69,0.0580570590909867,1
57,756,69,0.0612634595224349,1
57,757,69,0.0897173355224021,1
57,758,69,0.0828570632990408,1
58,727,69,0.0703960455896432,1
58,728,69,0.0632497601361975,1
58,729,69,0.0599288883670231,1
58,730,69,0.0581723147213112,1
58,756,69,0.0625923814123645,1
58,757,69,0.0922466968426291,1
58,758,69,0.0818439164793721,1
59,727,69,0.0697331768176223,1
59,728,69,0.0634916171033058,1
59,729,69,0.0599923924797355,1
59,757,69,0.0613244397461845,1
59,758,69,0.0569755490826584,1
60,728,69,0.0634900780027934,1
60,729,69,0.0599040445721621,1
63,732,69,0.0596545038963656,1
64,732,69,0.0583266788366863,1
38,754,70,0.0568813867953715,1
42,725,70,0.0589645681842992,1
43,724,70,0.0606809777932681,1
43,725,70,0.0614717452281751,1
53,725,70,0.0639363581820187,1
53,726,70,0.0605632985219068,1
54,726,70,0.0728112127281749,1
54,727,70,0.0632401068506083,1
54,728,70,0.0597353803849766,1
54,729,70,0.0580840434739166,1
55,726,70,0.071165289205124,1
55,727,70,0.0645881643005483,1
55,728,70,0.0648524414214807,1
55,729,70,0.0649349336707828,1
56,727,70,0.0626419333725393,1
56,728,70,0.0617116149275719,1
56,729,70,0.0611688962434437,1
57,727,70,0.0645847086955664,1
57,728,70,0.0602263711392401,1
57,729,70,0.0589050209161991,1
57,757,70,0.0742565578419211,1
57,758,70,0.0637610422500899,1
58,728,70,0.0629475303298331,1
58,729,70,0.0608438452915507,1
58,730,70,0.0595375440512975,1
58,757,70,0.0780418133863863,1
59,728,70,0.0631575320441906,1
59,729,70,0.0612265859764426,1
59,730,70,0.0594468255751188,1
60,729,70,0.0593797538156248,1
63,732,70,0.0569164558786941,1
