x,y,z,signal,cytoplasm.p
11,320,1,0.0786525945153959,1
11,321,1,0.0687799487730739,1
11,322,1,0.0575421503609444,1
12,319,1,0.0854163456767386,1
12,320,1,0.0787447164625399,1
12,321,1,0.0683691976382438,1
13,318,1,0.0900520810384421,1
13,319,1,0.0859949590153455,1
13,320,1,0.0795826417012691,1
13,321,1,0.0687625999849227,1
14,317,1,0.0987743641380193,1
14,318,1,0.090186714003187,1
14,319,1,0.085026658400262,1
14,320,1,0.0776770170802652,1
14,321,1,0.0671572414903192,1
15,316,1,0.103558466430343,1
15,317,1,0.0961969132979511,1
15,318,1,0.0889681591829506,1
15,319,1,0.0826779851214151,1
15,320,1,0.0747465461169237,1
15,321,1,0.0642327382270487,1
16,315,1,0.103669706246687,1
16,316,1,0.101022854357077,1
16,317,1,0.0942935236160054,1
16,318,1,0.086857374232726,1
16,319,1,0.0792770388470385,1
16,320,1,0.0697876881016704,1
16,321,1,0.058686863738207,1
17,314,1,0.101009657012453,1
17,315,1,0.102495614330141,1
17,316,1,0.0992117871181274,1
17,317,1,0.0929883427937498,1
17,318,1,0.0846797239157963,1
17,319,1,0.074989676822387,1
17,320,1,0.0636859034810137,1
18,313,1,0.113711081042499,1
18,314,1,0.110430968900687,1
18,315,1,0.103481086825271,1
18,316,1,0.0975124255535313,1
18,317,1,0.0909000192759071,1
18,318,1,0.0813732465694216,1
18,319,1,0.0699452129751858,1
19,311,1,0.113105548187267,1
19,312,1,0.135178985713656,1
19,313,1,0.145393553544139,1
19,314,1,0.13140907399882,1
19,315,1,0.111677486995367,1
19,316,1,0.0977423058419396,1
19,317,1,0.0867860095032203,1
19,318,1,0.0759620640146931,1
19,319,1,0.0639550927503247,1
20,310,1,0.11293645942063,1
20,311,1,0.129066846071928,1
20,312,1,0.161743943114656,1
20,313,1,0.174622782386142,1
20,314,1,0.153295401719622,1
20,315,1,0.122507482741081,1
20,316,1,0.098132966112993,1
20,317,1,0.0793051495449027,1
20,318,1,0.0653140654303353,1
21,309,1,0.120513079736115,1
21,310,1,0.125511052133356,1
21,311,1,0.144702007968318,1
21,314,1,0.174887201033558,1
21,315,1,0.132636863422131,1
21,316,1,0.0983335091406767,1
21,317,1,0.0738591042996406,1
21,318,1,0.0578664582987969,1
22,308,1,0.131558325469965,1
22,309,1,0.133674523808198,1
22,310,1,0.138319776825944,1
22,311,1,0.152571635280967,1
22,312,1,0.185828530946606,1
22,314,1,0.171517644153923,1
22,315,1,0.124810967793007,1
22,316,1,0.0890890051093891,1
22,317,1,0.0665256972467343,1
23,308,1,0.138073615094951,1
23,309,1,0.142554449720028,1
23,310,1,0.143430675563462,1
23,311,1,0.143108679224846,1
23,312,1,0.152161739201977,1
23,313,1,0.152093028094045,1
23,314,1,0.12827859073211,1
23,315,1,0.095970647831819,1
23,316,1,0.0721947115704411,1
23,317,1,0.0576363303390418,1
24,307,1,0.12690682169918,1
24,308,1,0.13817175191766,1
24,309,1,0.144484139740231,1
24,310,1,0.139814060618435,1
24,311,1,0.125702313382471,1
24,312,1,0.114032334367074,1
24,313,1,0.10180803149587,1
24,314,1,0.0850076407789882,1
24,315,1,0.0687920139058262,1
24,342,1,0.057872632391657,1
25,306,1,0.113781219209144,1
25,307,1,0.129777757188295,1
25,308,1,0.143524354301929,1
25,309,1,0.145690075115653,1
25,310,1,0.132009500106758,1
25,311,1,0.110389006298212,1
25,312,1,0.0912809201165084,1
25,313,1,0.0763656090927181,1
25,314,1,0.0631191547793069,1
26,306,1,0.114443881588376,1
26,307,1,0.130602927352663,1
26,308,1,0.141160366678137,1
26,309,1,0.137529669847962,1
26,310,1,0.118933514443202,1
26,311,1,0.094646638090268,1
26,312,1,0.0737871852580731,1
26,313,1,0.0593974092444911,1
26,341,1,0.0627184048493389,1
27,305,1,0.108729112931813,1
27,306,1,0.116599329938144,1
27,307,1,0.124949298137144,1
27,308,1,0.127491679893889,1
27,309,1,0.121676816631589,1
27,310,1,0.10415005892691,1
27,311,1,0.0817644198739792,1
27,312,1,0.0614453977144228,1
27,340,1,0.0572812698756256,1
27,341,1,0.0860627443041959,1
28,304,1,0.112764056575495,1
28,305,1,0.119438893723329,1
28,306,1,0.123191326917403,1
28,307,1,0.120984716743706,1
28,308,1,0.11451649646849,1
28,309,1,0.104470793321044,1
28,310,1,0.0875926986675659,1
28,311,1,0.0681579693610258,1
28,340,1,0.0788043109061346,1
28,341,1,0.125293089554279,1
29,303,1,0.108741638025638,1
29,304,1,0.115736065561861,1
29,305,1,0.122091548198778,1
29,306,1,0.121136232638592,1
29,307,1,0.113149279870792,1
29,308,1,0.101813692555226,1
29,309,1,0.0889578513373734,1
29,310,1,0.072033170882945,1
29,339,1,0.0591355616615322,1
29,340,1,0.114195573372377,1
30,303,1,0.110897605305847,1
30,304,1,0.115549934647787,1
30,305,1,0.117073526216319,1
30,306,1,0.110964818591825,1
30,307,1,0.101119434388464,1
30,308,1,0.0894828556232671,1
30,309,1,0.0761228086157172,1
30,310,1,0.0602633095515375,1
30,339,1,0.0789971407404458,1
30,340,1,0.148116086721013,1
31,302,1,0.105232606796121,1
31,303,1,0.111635960766217,1
31,304,1,0.114105928138701,1
31,305,1,0.111275068232277,1
31,306,1,0.100590880146599,1
31,307,1,0.0885423295806485,1
31,308,1,0.076546509423824,1
31,309,1,0.0650826283506041,1
31,338,1,0.06475378566833,1
31,339,1,0.0982961284581171,1
32,301,1,0.100608511987718,1
32,302,1,0.104448149083621,1
32,303,1,0.110148623565311,1
32,304,1,0.112474351862956,1
32,305,1,0.106830110570868,1
32,306,1,0.0917761684591625,1
32,307,1,0.0763156266561547,1
32,308,1,0.0638643153047777,1
32,338,1,0.0871369421108562,1
33,301,1,0.0999390327495114,1
33,302,1,0.102526325577147,1
33,303,1,0.107543333286472,1
33,304,1,0.109230918668221,1
33,305,1,0.101364098297502,1
33,306,1,0.0827933940720972,1
33,307,1,0.0650087102474515,1
33,337,1,0.072628619976199,1
33,338,1,0.11087652965362,1
34,301,1,0.099477090306068,1
34,302,1,0.101627089886206,1
34,303,1,0.104983225337619,1
34,304,1,0.104174094841426,1
34,305,1,0.0930947294310834,1
34,306,1,0.0734742053358692,1
34,336,1,0.064579790650251,1
34,337,1,0.0916673581807922,1
35,300,1,0.100002424820424,1
35,301,1,0.0998494464852039,1
35,302,1,0.100362987125902,1
35,303,1,0.101542291934604,1
35,304,1,0.0959862393327951,1
35,305,1,0.0812495524224947,1
35,306,1,0.0626294613511458,1
35,336,1,0.0774711373247513,1
36,300,1,0.100677152332408,1
36,301,1,0.0994044046627127,1
36,302,1,0.0980743387670382,1
36,303,1,0.0963467131842204,1
36,304,1,0.0866093962451892,1
36,305,1,0.0698519175376128,1
36,335,1,0.061837756303283,1
36,336,1,0.0863636119181528,1
37,302,1,0.0959483809983523,1
37,303,1,0.0911969064575044,1
37,304,1,0.0777669335730352,1
37,305,1,0.0605730520554221,1
37,335,1,0.0674328466269002,1
38,303,1,0.0885938334269138,1
38,304,1,0.072193437832086,1
38,334,1,0.0622156791907855,1
39,304,1,0.0690533956307755,1
39,333,1,0.0573062787847177,1
39,334,1,0.0671974703933672,1
40,304,1,0.0641839705594721,1
40,333,1,0.0617474977881769,1
41,304,1,0.060844765213696,1
41,332,1,0.0600335943773604,1
44,304,1,0.0640158665812853,1
44,329,1,0.0626497704015852,1
44,330,1,0.071867248771385,1
45,302,1,0.0793077441971075,1
45,303,1,0.0715600950227683,1
45,304,1,0.0602039981609105,1
45,328,1,0.0637079698186282,1
45,329,1,0.0756259975848034,1
46,301,1,0.0912450077712192,1
46,302,1,0.0788633805223516,1
46,303,1,0.0699210768127443,1
46,304,1,0.0589723639347872,1
46,327,1,0.0655800113843904,1
46,328,1,0.0751177995688726,1
47,301,1,0.088433318806426,1
47,302,1,0.0775182243653316,1
47,303,1,0.0690251846849852,1
47,304,1,0.0590867409215242,1
47,325,1,0.0591237736848109,1
47,326,1,0.0729637075145751,1
47,327,1,0.0803040021896978,1
48,301,1,0.0819497488046437,1
48,302,1,0.0738835765874813,1
48,303,1,0.0681609355202509,1
48,304,1,0.0618259506357511,1
48,324,1,0.0662331443137065,1
48,325,1,0.0834359419998051,1
49,301,1,0.0759120344026351,1
49,302,1,0.071350741971462,1
49,303,1,0.0693201730529235,1
49,304,1,0.0675814789196774,1
49,305,1,0.0614198521840792,1
49,323,1,0.0738909654493282,1
49,324,1,0.0990881283528214,1
50,302,1,0.0712876624382013,1
50,303,1,0.072421914649529,1
50,304,1,0.0747208118846016,1
50,306,1,0.061890162380883,1
50,322,1,0.0732431515570319,1
50,323,1,0.0975554731923837,1
51,302,1,0.0720068292661295,1
51,303,1,0.0765114639282487,1
51,307,1,0.0676034627001762,1
51,321,1,0.0700215665132488,1
51,322,1,0.0896579356777227,1
52,303,1,0.0825130242105582,1
52,308,1,0.0805688807981867,1
52,309,1,0.0643927575048428,1
52,319,1,0.0596198122170001,1
52,320,1,0.0689461657314754,1
52,321,1,0.0821672632165215,1
53,309,1,0.0971802628958224,1
53,310,1,0.0743553551215557,1
53,311,1,0.0596300787840195,1
53,318,1,0.0628913089341046,1
53,319,1,0.0721692603910867,1
54,310,1,0.115037066257888,1
54,311,1,0.0885263429849049,1
54,312,1,0.072009087792935,1
54,313,1,0.0656779595051215,1
54,314,1,0.063305120579149,1
54,315,1,0.0642551465869992,1
54,316,1,0.0660037593679918,1
54,317,1,0.0677280177998802,1
54,318,1,0.0736235157763817,1
55,311,1,0.121754172648913,1
55,312,1,0.0946015854928938,1
11,320,2,0.0870938001210146,1
11,321,2,0.0760010073855124,1
11,322,2,0.060414241649678,1
12,319,2,0.0935510933722865,1
12,320,2,0.0948719246648865,1
12,321,2,0.0836188178047487,1
12,322,2,0.0629134283441505,1
13,318,2,0.092831242499686,1
13,319,2,0.0955354362030218,1
13,320,2,0.0994550947316955,1
13,321,2,0.0889898540135448,1
13,322,2,0.0659729950485544,1
14,317,2,0.0996487619310364,1
14,318,2,0.0941910761324737,1
14,319,2,0.093365829307927,1
14,320,2,0.0932832368106988,1
14,321,2,0.0832886777963723,1
14,322,2,0.0625974940565953,1
15,316,2,0.101574017454744,1
15,317,2,0.0977772392957151,1
15,318,2,0.0943317062819738,1
15,319,2,0.0905566760259703,1
15,320,2,0.0850230258871753,1
15,321,2,0.0736640690109554,1
16,315,2,0.100396257643492,1
16,316,2,0.101163166071988,1
16,317,2,0.0972150784108614,1
16,318,2,0.0928869744496578,1
16,319,2,0.0863830364280678,1
16,320,2,0.0759970505409001,1
16,321,2,0.062845236166659,1
17,314,2,0.0978939514694365,1
17,315,2,0.100615411403808,1
17,316,2,0.0993453763250535,1
17,317,2,0.0964061307197103,1
17,318,2,0.0910469296631302,1
17,319,2,0.0811048828712667,1
17,320,2,0.0672453535204194,1
18,313,2,0.111102512066784,1
18,314,2,0.108865520874543,1
18,315,2,0.102551210650566,1
18,316,2,0.0975655392635509,1
18,317,2,0.0935422007915482,1
18,318,2,0.0858964860672366,1
18,319,2,0.0728919535872388,1
19,312,2,0.131358702364426,1
19,313,2,0.148675859346451,1
19,314,2,0.134783301252424,1
19,315,2,0.112135690780861,1
19,316,2,0.0972418446071286,1
19,317,2,0.0865439048647653,1
19,318,2,0.0759251314993325,1
19,319,2,0.0624431771167149,1
20,311,2,0.118945603163702,1
20,314,2,0.163668939173144,1
20,315,2,0.123863624891414,1
20,316,2,0.0967175125720334,1
20,317,2,0.0769088113256663,1
20,318,2,0.0620466375996429,1
21,310,2,0.11673265967985,1
21,315,2,0.133700305216015,1
21,316,2,0.0956336968614049,1
21,317,2,0.0705200404803484,1
22,309,2,0.128501553913618,1
22,310,2,0.129951044573955,1
22,311,2,0.140726281364274,1
22,315,2,0.124345675889444,1
22,316,2,0.0853927284447381,1
22,317,2,0.0622927521551417,1
23,308,2,0.131650730470076,1
23,309,2,0.135219863279755,1
23,310,2,0.135776522322548,1
23,311,2,0.130913625160314,1
23,312,2,0.140263124151844,1
23,314,2,0.124408159832085,1
23,315,2,0.0911363861948274,1
23,316,2,0.0672158511454635,1
24,307,2,0.115591272174959,1
24,308,2,0.125419048124949,1
24,309,2,0.136568976281388,1
24,310,2,0.134486767887037,1
24,311,2,0.11925109987307,1
24,312,2,0.108777668309663,1
24,313,2,0.0993828926371602,1
24,314,2,0.083122625952202,1
24,315,2,0.0660105939177767,1
25,307,2,0.11710309345758,1
25,308,2,0.132977470493379,1
25,309,2,0.14062497198955,1
25,310,2,0.128316107044217,1
25,311,2,0.106660160851454,1
25,312,2,0.0900721836960924,1
25,313,2,0.0759350029715844,1
25,314,2,0.0616264454689494,1
25,342,2,0.0613935282580741,1
26,306,2,0.106978902080939,1
26,307,2,0.118817769367121,1
26,308,2,0.131409522166019,1
26,309,2,0.131454810640867,1
26,310,2,0.11504974467207,1
26,311,2,0.0917412762839448,1
26,312,2,0.0724433323240923,1
26,313,2,0.0572838527339567,1
27,305,2,0.104203072389004,1
27,306,2,0.108279695582194,1
27,307,2,0.115863227107643,1
27,308,2,0.120080893235912,1
27,309,2,0.116401593852391,1
27,310,2,0.100099028439558,1
27,311,2,0.0782726666693714,1
27,312,2,0.0584883787414767,1
27,341,2,0.0762594229512367,1
28,305,2,0.1126855683463,1
28,306,2,0.114216424941005,1
28,307,2,0.113979226553991,1
28,308,2,0.108975840768742,1
28,309,2,0.100772340686703,1
28,310,2,0.0839840622780688,1
28,311,2,0.0647305930157812,1
28,340,2,0.0644785343479587,1
28,341,2,0.108362689071127,1
29,304,2,0.109901695232529,1
29,305,2,0.114635036692628,1
29,306,2,0.112384859949637,1
29,307,2,0.107214991843829,1
29,308,2,0.0975379710838749,1
29,309,2,0.0867216503346677,1
29,310,2,0.0688459531870019,1
29,340,2,0.0903412137481091,1
30,303,2,0.106607737083043,1
30,304,2,0.110454238213415,1
30,305,2,0.111597111746387,1
30,306,2,0.104311847285753,1
30,307,2,0.0968682382773849,1
30,308,2,0.0867449373382057,1
30,309,2,0.0744494525425374,1
30,310,2,0.0571428510774364,1
30,339,2,0.0657565538791796,1
30,340,2,0.122238464482938,1
31,302,2,0.101960066321197,1
31,303,2,0.109305220072267,1
31,304,2,0.111904613414276,1
31,305,2,0.108706291786284,1
31,306,2,0.0969409769931717,1
31,307,2,0.0870666624177271,1
31,308,2,0.0760945740821795,1
31,309,2,0.063937797034605,1
31,339,2,0.0828981590518028,1
32,302,2,0.103064928199369,1
32,303,2,0.110656161124317,1
32,304,2,0.114243090889346,1
32,305,2,0.1075663785156,1
32,306,2,0.0909706999607406,1
32,307,2,0.0769857840420964,1
32,308,2,0.0647542456294027,1
33,301,2,0.0994995104598922,1
33,302,2,0.101728069032467,1
33,303,2,0.108437886809571,1
33,304,2,0.111859702343386,1
33,305,2,0.102735100728644,1
33,306,2,0.0825359161193287,1
33,307,2,0.0653193667765447,1
33,337,2,0.063624581234928,1
34,301,2,0.0991804743835649,1
34,302,2,0.100421543708615,1
34,303,2,0.10454141503651,1
34,304,2,0.105110339707906,1
34,305,2,0.093266253632631,1
34,306,2,0.0724577149530184,1
34,336,2,0.057822567397978,1
34,337,2,0.0777796119872177,1
35,300,2,0.0996174374026003,1
35,301,2,0.100005974776395,1
35,302,2,0.0993607673301774,1
35,303,2,0.101246371850647,1
35,304,2,0.0965416364311059,1
35,305,2,0.0801170457044684,1
35,306,2,0.0599428169318134,1
35,336,2,0.0699749217429307,1
36,300,2,0.0998542583856565,1
36,302,2,0.0979574143035911,1
36,303,2,0.0984224408449961,1
36,304,2,0.0892511236966944,1
36,305,2,0.0696399049677966,1
36,335,2,0.0600184923221411,1
37,303,2,0.0926628436746578,1
37,304,2,0.0790821568787108,1
37,305,2,0.059611845455344,1
38,304,2,0.0733207198640817,1
39,333,2,0.0571197114973191,1
43,330,2,0.0580225089381051,1
43,331,2,0.0655521778425571,1
44,329,2,0.0654166603372878,1
44,330,2,0.0731421842046443,1
45,304,2,0.0572372256544491,1
45,328,2,0.0691319015507812,1
45,329,2,0.0809668650647819,1
46,302,2,0.0775359623513135,1
46,303,2,0.0670680326299687,1
46,326,2,0.0568715742924879,1
46,327,2,0.0682024558524645,1
46,328,2,0.0800539779650813,1
47,302,2,0.0755238803297341,1
47,303,2,0.067265756921848,1
47,304,2,0.0582323514351682,1
47,325,2,0.0595502106716064,1
47,326,2,0.0757289875865234,1
48,301,2,0.080387491021324,1
48,302,2,0.072131402056644,1
48,303,2,0.0662159370520392,1
48,304,2,0.0604511269895439,1
48,324,2,0.0633773993338631,1
49,301,2,0.0744441983718227,1
49,302,2,0.0691106430935123,1
49,303,2,0.0660959638722514,1
49,304,2,0.0653551965647182,1
49,323,2,0.0719087632066618,1
50,302,2,0.0678756181287123,1
50,303,2,0.0678456675865574,1
50,322,2,0.072307402033245,1
51,321,2,0.069770551603245,1
51,322,2,0.0873084427246565,1
52,309,2,0.0603126020464918,1
52,319,2,0.0596774311867571,1
52,320,2,0.0695109389593444,1
52,321,2,0.0799020139029957,1
53,309,2,0.0869169509855102,1
53,310,2,0.0707458282945974,1
53,311,2,0.0603283468678255,1
53,317,2,0.0582580384919957,1
53,318,2,0.0653873525612472,1
53,319,2,0.0751243038901951,1
54,311,2,0.0843789565497655,1
54,312,2,0.0717701439126204,1
54,316,2,0.0684093616749867,1
54,317,2,0.0744001069751516,1
54,318,2,0.0818044777658592,1
11,320,3,0.105394560269195,1
11,321,3,0.0894685791392038,1
11,322,3,0.0647465324360303,1
12,319,3,0.113526837148211,1
12,320,3,0.132065379480151,1
12,321,3,0.114691104767999,1
12,322,3,0.0749084406206295,1
13,318,3,0.0997335127071441,1
13,319,3,0.114497472950279,1
13,320,3,0.137604997319017,1
13,321,3,0.12523080610749,1
13,322,3,0.0822306434935605,1
14,317,3,0.104124737480166,1
14,318,3,0.100797591370206,1
14,319,3,0.108770084848901,1
14,320,3,0.120667390779059,1
14,321,3,0.111025462690175,1
14,322,3,0.0773658887962257,1
15,316,3,0.103150469165012,1
15,317,3,0.100708465066971,1
15,318,3,0.100495019541505,1
15,319,3,0.101853720962422,1
15,320,3,0.0988975393545053,1
15,321,3,0.086499441961074,1
15,322,3,0.0632953729425705,1
16,315,3,0.0978847286602358,1
16,316,3,0.101947930425203,1
16,317,3,0.0991477227964161,1
16,318,3,0.0965575994391022,1
16,319,3,0.0923346968309295,1
16,320,3,0.081610061655541,1
16,321,3,0.0669419443266892,1
17,314,3,0.0985668627248773,1
17,315,3,0.101377401786989,1
17,316,3,0.10061535243444,1
17,317,3,0.0984996376450257,1
17,318,3,0.09520292562604,1
17,319,3,0.085519736670163,1
17,320,3,0.0696498059247326,1
18,313,3,0.114685620616748,1
18,314,3,0.11421914932582,1
18,315,3,0.106325238427309,1
18,316,3,0.0990582072953506,1
18,317,3,0.0956349411150758,1
18,318,3,0.0907784067476808,1
18,319,3,0.0769018411463343,1
18,320,3,0.0579682335315302,1
19,312,3,0.137155438442914,1
19,314,3,0.148838449688703,1
19,315,3,0.115839085048265,1
19,316,3,0.0960987941660519,1
19,317,3,0.0855881942098119,1
19,318,3,0.076090210348926,1
19,319,3,0.061889059653696,1
20,311,3,0.120653851412099,1
20,315,3,0.131898366435277,1
20,316,3,0.0948919329715476,1
20,317,3,0.0751479918854375,1
20,318,3,0.0603056849395913,1
21,310,3,0.112745799659072,1
21,315,3,0.14008292555622,1
21,316,3,0.0919611317797437,1
21,317,3,0.0674958200152981,1
22,310,3,0.124706981208963,1
22,311,3,0.138772071880735,1
22,315,3,0.122919690419308,1
22,316,3,0.0806636622638407,1
22,317,3,0.0579759172402185,1
23,309,3,0.134132444540724,1
23,310,3,0.130675660171513,1
23,311,3,0.125948828929674,1
23,312,3,0.136081169873012,1
23,314,3,0.122013767602003,1
23,315,3,0.0857072120858334,1
23,316,3,0.0625161517099749,1
24,308,3,0.121379905862244,1
24,309,3,0.133526569663157,1
24,310,3,0.129791143234897,1
24,311,3,0.116462745087309,1
24,312,3,0.108050894433226,1
24,313,3,0.100655829008834,1
24,314,3,0.0828000222290931,1
24,315,3,0.0632429078956021,1
25,307,3,0.109751429488251,1
25,308,3,0.126249207097874,1
25,309,3,0.137012791541019,1
25,310,3,0.124826240859394,1
25,311,3,0.104514501416822,1
25,312,3,0.0903784882858057,1
25,313,3,0.0764863488742936,1
25,314,3,0.0605626793435398,1
26,306,3,0.105644130429675,1
26,307,3,0.112499696897447,1
26,308,3,0.125058179178756,1
26,309,3,0.126497161497663,1
26,310,3,0.111591049695327,1
26,311,3,0.0905273859407402,1
26,312,3,0.0727857969304415,1
27,306,3,0.108106820982113,1
27,307,3,0.114433750650904,1
27,308,3,0.119671952460688,1
27,309,3,0.114727512455982,1
27,310,3,0.0992600240613893,1
27,311,3,0.0776268400447865,1
27,312,3,0.0586689842257412,1
27,341,3,0.0725550792770035,1
28,305,3,0.109750580329347,1
28,306,3,0.110537090175864,1
28,307,3,0.112505935856612,1
28,308,3,0.110503737101158,1
28,309,3,0.102765469953314,1
28,310,3,0.0863069954276567,1
28,311,3,0.0653308658033614,1
28,340,3,0.06256269033543,1
28,341,3,0.104053526071018,1
29,304,3,0.1082864534718,1
29,305,3,0.111761506551308,1
29,306,3,0.110356325474305,1
29,307,3,0.10745647140698,1
29,308,3,0.100794135765224,1
29,309,3,0.09106870705084,1
29,310,3,0.0731124282614047,1
29,340,3,0.0851913362581511,1
30,303,3,0.105281928775759,1
30,304,3,0.108893684644839,1
30,305,3,0.111307112187006,1
30,306,3,0.105910388921382,1
30,307,3,0.0988711033867005,1
30,308,3,0.0907233175638235,1
30,309,3,0.0784027471988842,1
30,310,3,0.0597998692861395,1
30,339,3,0.0658617965107683,1
31,303,3,0.109938444942848,1
31,304,3,0.112886984120634,1
31,305,3,0.110030095135046,1
31,306,3,0.0999867743500797,1
31,307,3,0.0908165540320282,1
31,308,3,0.0826432344726813,1
31,309,3,0.0680600566219157,1
32,302,3,0.105334317162549,1
32,303,3,0.113886797966132,1
32,304,3,0.118618004735099,1
32,305,3,0.110913102455834,1
32,306,3,0.094233192055307,1
32,307,3,0.0803752371865931,1
32,308,3,0.0699926715227863,1
32,309,3,0.0570213505910099,1
33,302,3,0.105078472661282,1
33,303,3,0.113448431476132,1
33,304,3,0.118946322589995,1
33,305,3,0.107753405764072,1
33,306,3,0.0863613533913472,1
33,307,3,0.0680412512903677,1
33,337,3,0.0624184984360852,1
34,301,3,0.101654015299768,1
34,302,3,0.102485778239511,1
34,303,3,0.107249630450763,1
34,304,3,0.109730353836023,1
34,305,3,0.0974192834363159,1
34,306,3,0.0752419477799354,1
34,307,3,0.0573245298042038,1
34,336,3,0.0570748829835443,1
34,337,3,0.07625240559641,1
35,301,3,0.102087369393464,1
35,302,3,0.100995763829284,1
35,303,3,0.10327916391437,1
35,304,3,0.102022833316806,1
35,305,3,0.0861139827883038,1
35,306,3,0.0636495193807782,1
35,336,3,0.0691065093407951,1
36,302,3,0.0988880806678314,1
36,303,3,0.100104123392979,1
36,304,3,0.0941365412606783,1
36,305,3,0.0743136460873635,1
37,303,3,0.0937440352483974,1
37,304,3,0.0833349274719228,1
37,305,3,0.062759665716332,1
38,304,3,0.0773943061348051,1
38,305,3,0.0570746942815658,1
39,333,3,0.058066122682893,1
42,331,3,0.0589078809305612,1
43,330,3,0.0605458848674505,1
43,331,3,0.0704478089011289,1
44,328,3,0.0627828642658177,1
44,329,3,0.0753458223221798,1
44,330,3,0.0777673227708659,1
45,327,3,0.0601611805025945,1
45,328,3,0.0850665040024161,1
46,303,3,0.0656918703791013,1
46,326,3,0.0629216840557112,1
47,302,3,0.0747802824925229,1
47,303,3,0.0669555662507644,1
47,304,3,0.0586211187894995,1
47,325,3,0.064283168830811,1
48,302,3,0.0723617540999986,1
48,303,3,0.0666733565449347,1
48,304,3,0.0611030687376206,1
48,324,3,0.0685462708573476,1
49,301,3,0.07403226195269,1
49,302,3,0.0687462536760325,1
49,303,3,0.06558423359116,1
49,323,3,0.0749327713819863,1
50,302,3,0.0660140554196954,1
50,321,3,0.0579021819421076,1
50,322,3,0.0763949640442532,1
51,320,3,0.059639791038977,1
51,321,3,0.0761535257596599,1
51,322,3,0.0909315443001954,1
52,309,3,0.0604409665673874,1
52,319,3,0.0673832356973571,1
52,320,3,0.0778057649020547,1
53,310,3,0.0726487462215967,1
53,311,3,0.0640968256270119,1
53,317,3,0.0648117466604232,1
53,318,3,0.0729420303747914,1
53,319,3,0.0814430839922885,1
54,311,3,0.0873781091363554,1
12,320,4,0.175138292603741,1
12,321,4,0.153065503740403,1
12,322,4,0.0922412539699358,1
13,319,4,0.141315951459435,1
13,321,4,0.16980325129735,1
13,322,4,0.103640103623804,1
14,318,4,0.112259526454272,1
14,319,4,0.133707829707409,1
14,320,4,0.154460577467682,1
14,321,4,0.144644666154592,1
14,322,4,0.0939356797984059,1
15,317,4,0.104466736228506,1
15,318,4,0.110346630910158,1
15,319,4,0.120274312763906,1
15,320,4,0.115914400725446,1
15,321,4,0.101246194942542,1
15,322,4,0.0691605311790864,1
16,316,4,0.0988237745717102,1
16,317,4,0.100715506009545,1
16,318,4,0.100777400258503,1
16,319,4,0.101277271799631,1
16,320,4,0.0877624184064439,1
16,321,4,0.071147763508868,1
17,315,4,0.0968374090916425,1
17,316,4,0.0967184973604839,1
17,317,4,0.0985546383748306,1
17,318,4,0.0978624618267691,1
17,319,4,0.091299460085899,1
17,320,4,0.0725621379103879,1
18,314,4,0.112627436343039,1
18,315,4,0.104499240144308,1
18,316,4,0.0950696135751449,1
18,317,4,0.0948352398208728,1
18,318,4,0.0930525191572607,1
18,319,4,0.0811356648815145,1
18,320,4,0.0590259317089427,1
19,315,4,0.114475253292307,1
19,316,4,0.0884148554972141,1
19,317,4,0.081276418866688,1
19,318,4,0.0741089162345313,1
19,319,4,0.0613345058173518,1
20,316,4,0.0848320712787757,1
20,317,4,0.0698859664508639,1
20,318,4,0.0572804207167222,1
21,316,4,0.079875365645465,1
21,317,4,0.0616754843956201,1
22,310,4,0.116935372780287,1
22,311,4,0.130548864235814,1
22,315,4,0.11897229269979,1
22,316,4,0.0687423263161043,1
23,309,4,0.141042203857955,1
23,310,4,0.124645771004677,1
23,311,4,0.12090500195165,1
23,312,4,0.128148787358628,1
23,314,4,0.114420435367544,1
23,315,4,0.0770761369081917,1
24,308,4,0.120523151704219,1
24,309,4,0.13218421455113,1
24,310,4,0.126242685085741,1
24,311,4,0.116471908927142,1
24,312,4,0.105289925022099,1
24,313,4,0.096522312169117,1
24,314,4,0.0771649034982799,1
24,315,4,0.0579411312098637,1
25,308,4,0.119903265704746,1
25,309,4,0.134303833112725,1
25,310,4,0.124313030447159,1
25,311,4,0.107094316928558,1
25,312,4,0.0910440755457049,1
25,313,4,0.0764599364942361,1
25,314,4,0.0590135717293489,1
26,307,4,0.105932667548723,1
26,308,4,0.11936426209082,1
26,309,4,0.124864228926447,1
26,310,4,0.112043391925612,1
26,311,4,0.093757226696084,1
26,312,4,0.0747112293622543,1
26,313,4,0.0582154331234055,1
27,306,4,0.105555074889682,1
27,307,4,0.110703218680213,1
27,308,4,0.11911411403053,1
27,309,4,0.116744323820898,1
27,310,4,0.102705120701805,1
27,311,4,0.0820668147945748,1
27,312,4,0.0619978876228768,1
28,306,4,0.107728178668317,1
28,307,4,0.110865832610212,1
28,308,4,0.113160802485356,1
28,309,4,0.107951873069992,1
28,310,4,0.0927122600052855,1
28,311,4,0.0708624107357084,1
28,340,4,0.0599761051402136,1
29,305,4,0.108855814516522,1
29,306,4,0.109936439984326,1
29,307,4,0.109347465727711,1
29,308,4,0.10636012470559,1
29,309,4,0.0990297840598344,1
29,310,4,0.0813093768466258,1
29,311,4,0.0598622470839176,1
30,304,4,0.107390213424768,1
30,305,4,0.111261163255234,1
30,306,4,0.110311756425751,1
30,307,4,0.105231356645513,1
30,308,4,0.0987487655352442,1
30,309,4,0.0870319176659301,1
30,310,4,0.0659460047686877,1
31,303,4,0.109456488295807,1
31,304,4,0.112830857075895,1
31,305,4,0.110465973117705,1
31,306,4,0.103459185601888,1
31,307,4,0.0970982070198457,1
31,308,4,0.0915205952169898,1
31,309,4,0.0764899047272016,1
32,302,4,0.105361584598446,1
32,303,4,0.114947267703855,1
32,304,4,0.120271611966838,1
32,305,4,0.112251317918206,1
32,306,4,0.0965226482945162,1
32,307,4,0.0847961884181708,1
32,308,4,0.075905931073017,1
32,309,4,0.0618238218415558,1
33,302,4,0.106054627996222,1
33,303,4,0.115984314808492,1
33,304,4,0.123212520508367,1
33,305,4,0.112039889145136,1
33,306,4,0.0893788572453493,1
33,307,4,0.0712247480191717,1
33,308,4,0.0590210018697536,1
34,301,4,0.100788816728204,1
34,302,4,0.102728460777775,1
34,303,4,0.108186748063894,1
34,304,4,0.11277355064379,1
34,305,4,0.102316288481169,1
34,306,4,0.0782859406741737,1
34,307,4,0.0591970490218491,1
35,301,4,0.101836525494628,1
35,302,4,0.101265784566688,1
35,303,4,0.104427203164004,1
35,304,4,0.106368757821107,1
35,305,4,0.0938381503601896,1
35,306,4,0.0677280885631222,1
36,301,4,0.101289030291668,1
36,304,4,0.0967123763400553,1
36,305,4,0.0794945650527898,1
37,304,4,0.0860982733485911,1
37,305,4,0.0660748174567823,1
38,305,4,0.0584666367353878,1
40,332,4,0.0576309877142746,1
43,330,4,0.0627828642658177,1
44,328,4,0.0741348450657688,1
47,303,4,0.0672120299303982,1
47,304,4,0.0585549315705298,1
48,302,4,0.0715444681401712,1
48,303,4,0.066255552673657,1
48,304,4,0.0605123902662613,1
49,302,4,0.0667495744534507,1
49,303,4,0.0632567185216559,1
50,302,4,0.0628257349965652,1
50,321,4,0.0623138808798003,1
50,322,4,0.082311637920908,1
51,320,4,0.065476997794923,1
51,321,4,0.0822710669955239,1
51,322,4,0.095772392815625,1
52,309,4,0.0594962772873675,1
52,318,4,0.0591701354021612,1
52,319,4,0.0727414519654868,1
52,320,4,0.0843423778506146,1
53,310,4,0.0701432439077802,1
53,311,4,0.0644407526736947,1
53,312,4,0.0580890086947267,1
53,316,4,0.0610213018115484,1
53,317,4,0.0718513742174411,1
53,318,4,0.0781859816979838,1
53,319,4,0.0836695845339104,1
54,311,4,0.0868747701963718,1
13,322,5,0.139433330789002,1
14,322,5,0.124906203322797,1
14,323,5,0.0667890190639004,1
15,317,5,0.106896521873437,1
15,318,5,0.118662420463295,1
15,319,5,0.135095544057525,1
15,320,5,0.135288656944804,1
15,321,5,0.120552306159902,1
15,322,5,0.0845458929344601,1
16,316,5,0.0972485199396191,1
16,317,5,0.102820842190139,1
16,318,5,0.106586685018563,1
16,319,5,0.109158799130801,1
16,320,5,0.0961856560455444,1
16,321,5,0.0785801211617664,1
16,322,5,0.0570118801104624,1
17,315,5,0.0944762166159074,1
17,316,5,0.0956240435758157,1
17,317,5,0.100039705255058,1
17,318,5,0.101909741862298,1
17,319,5,0.0961545909823287,1
17,320,5,0.0767970820635656,1
17,321,5,0.0581921048413097,1
18,314,5,0.110698100139045,1
18,315,5,0.104080274576475,1
18,316,5,0.0936691500476048,1
18,317,5,0.0938530342287462,1
18,318,5,0.0943372022270985,1
18,319,5,0.0842852719143618,1
18,320,5,0.0617411585810857,1
19,315,5,0.117027199880589,1
19,316,5,0.0861543709086463,1
19,317,5,0.0786736170951916,1
19,318,5,0.0733000746882431,1
19,319,5,0.0621829393975104,1
20,316,5,0.0810438318842751,1
20,317,5,0.0672957723303081,1
20,318,5,0.0569694103714193,1
21,316,5,0.0751577336250792,1
21,317,5,0.0595014960764613,1
22,310,5,0.117060611924663,1
22,311,5,0.124374500116665,1
22,315,5,0.125947000879257,1
22,316,5,0.0632477492807388,1
23,310,5,0.12211860334495,1
23,311,5,0.118018321641201,1
23,312,5,0.126867583481519,1
23,314,5,0.113320302832709,1
23,315,5,0.0750210485263177,1
24,309,5,0.125859537512208,1
24,310,5,0.122981749782497,1
24,311,5,0.117897292909721,1
24,312,5,0.105406495669337,1
24,313,5,0.0926213351363178,1
24,314,5,0.0731112960495335,1
25,308,5,0.110054968414591,1
25,309,5,0.124202085477656,1
25,310,5,0.122962112982857,1
25,311,5,0.110643010955188,1
25,312,5,0.0932726282213433,1
25,313,5,0.0762640520466475,1
25,314,5,0.0583908139216394,1
26,307,5,0.101219033651507,1
26,308,5,0.110928186820242,1
26,309,5,0.1190324178677,1
26,310,5,0.111649960094249,1
26,311,5,0.0969518037691899,1
26,312,5,0.078176971178509,1
26,313,5,0.0614661903136821,1
27,307,5,0.106704458640914,1
27,308,5,0.114774711538362,1
27,309,5,0.115818551914226,1
27,310,5,0.104575463949761,1
27,311,5,0.0863912803457549,1
27,312,5,0.0673679449401593,1
28,306,5,0.104916648920818,1
28,307,5,0.108474778046374,1
28,308,5,0.11366959019497,1
28,309,5,0.111580954139475,1
28,310,5,0.0976202864250722,1
28,311,5,0.0764887017520884,1
28,312,5,0.0571691632095678,1
29,305,5,0.103839148829534,1
29,306,5,0.106840158951225,1
29,307,5,0.108782763263084,1
29,308,5,0.109675913315217,1
29,309,5,0.104886609924611,1
29,310,5,0.0886882905610421,1
29,311,5,0.0660693274085944,1
30,304,5,0.105060369065217,1
30,305,5,0.10819518068356,1
30,306,5,0.110851915839295,1
30,307,5,0.109013463225711,1
30,308,5,0.103565637105527,1
30,309,5,0.0935727174396387,1
30,310,5,0.0726998195914734,1
31,304,5,0.110670927054137,1
31,305,5,0.109448055676141,1
31,306,5,0.106381188563943,1
31,307,5,0.102728425396154,1
31,308,5,0.0966979465356345,1
31,309,5,0.0837949887925177,1
31,310,5,0.0604602849324395,1
32,303,5,0.11285041131842,1
32,306,5,0.0991834464397267,1
32,307,5,0.0908702397449202,1
32,308,5,0.0821091489040708,1
32,309,5,0.0691572053067148,1
33,302,5,0.106008348835987,1
33,303,5,0.114841287955162,1
33,306,5,0.0927592409010029,1
33,307,5,0.0774912222915912,1
33,308,5,0.0663201300288723,1
34,302,5,0.103995771471714,1
34,303,5,0.109210751144265,1
34,305,5,0.106134531490256,1
34,306,5,0.0834350928409017,1
34,307,5,0.0653200862028378,1
35,301,5,0.101560643202016,1
35,302,5,0.102546174666514,1
35,305,5,0.10125785908359,1
35,306,5,0.0753934223962641,1
36,301,5,0.100859049245838,1
36,305,5,0.0885346340780866,1
36,306,5,0.0614488297316573,1
37,305,5,0.075060546209199,1
38,305,5,0.0653645137249082,1
39,305,5,0.0584459738687387,1
43,329,5,0.0626491630170918,1
43,330,5,0.0699216959911114,1
47,303,5,0.065860322276561,1
47,304,5,0.0578834355799279,1
48,303,5,0.0643551704294942,1
48,304,5,0.0594332626204119,1
49,303,5,0.0614393946327308,1
49,304,5,0.0640024628438728,1
50,303,5,0.0633560760102892,1
50,321,5,0.0726156938906697,1
51,319,5,0.0572239575465837,1
51,320,5,0.0720681102336574,1
51,321,5,0.0894332387967871,1
52,309,5,0.0617794827735379,1
52,317,5,0.0574559489383768,1
52,318,5,0.0656380785213464,1
52,319,5,0.0783395556238237,1
52,320,5,0.0885645492386205,1
53,310,5,0.0727483572785136,1
53,311,5,0.0668702847503421,1
53,312,5,0.0609901482942804,1
53,313,5,0.0586897001648217,1
53,314,5,0.0580555494751585,1
53,315,5,0.0601739709585768,1
53,316,5,0.0684420424988935,1
53,317,5,0.0806140985097922,1
53,318,5,0.0841102095507166,1
54,311,5,0.0894314166433069,1
13,323,6,0.100425942823489,1
14,323,6,0.0990157257624338,1
15,318,6,0.132728006477762,1
15,322,6,0.12547282818883,1
15,323,6,0.0734609372280038,1
16,317,6,0.111820688209325,1
16,319,6,0.131562476913492,1
16,320,6,0.11333255666744,1
16,321,6,0.0957686069821808,1
16,322,6,0.0752127638395682,1
17,316,6,0.0941170341936477,1
17,317,6,0.112166873782813,1
17,319,6,0.119594761557595,1
17,320,6,0.0898764938474192,1
17,321,6,0.0647714469941332,1
18,315,6,0.0991015143994234,1
18,316,6,0.0936085826094332,1
18,317,6,0.100837643365149,1
18,318,6,0.109486975459213,1
18,319,6,0.09695676899,1
18,320,6,0.0692641993285417,1
19,315,6,0.114625070869387,1
19,316,6,0.0874162800084501,1
19,317,6,0.0819264205225479,1
19,318,6,0.0785241415404478,1
19,319,6,0.0658618849648208,1
20,316,6,0.0799865818740616,1
20,317,6,0.0688231910108416,1
20,318,6,0.0597605779960473,1
21,316,6,0.0720493756653514,1
21,317,6,0.060360314162376,1
22,311,6,0.11316313767234,1
22,316,6,0.0590114547290273,1
23,310,6,0.119564239012568,1
23,311,6,0.113651510186652,1
23,312,6,0.126119769334475,1
23,315,6,0.0718580200652475,1
24,309,6,0.113156202874629,1
24,310,6,0.120629732940468,1
24,311,6,0.122206998428018,1
24,312,6,0.108656238586479,1
24,313,6,0.0889858617873115,1
24,314,6,0.0692882765216149,1
25,308,6,0.10132421141679,1
25,309,6,0.113421046101497,1
25,310,6,0.122815845361748,1
25,311,6,0.116741599436083,1
25,312,6,0.0988178599440706,1
25,313,6,0.0776663023460468,1
25,314,6,0.059253223242083,1
26,308,6,0.103356095352242,1
26,309,6,0.112462298524077,1
26,310,6,0.111708398738225,1
26,311,6,0.100239104276996,1
26,312,6,0.0833576306787148,1
26,313,6,0.0660432393600625,1
26,341,6,0.0570944667107537,1
27,307,6,0.101796497087432,1
27,308,6,0.108364670441901,1
27,309,6,0.112656060074407,1
27,310,6,0.104524762086904,1
27,311,6,0.088728454597785,1
27,312,6,0.0729128228466769,1
27,313,6,0.0571351260901903,1
28,306,6,0.0999092060430299,1
28,307,6,0.104081984688155,1
28,308,6,0.111101556763018,1
28,309,6,0.11185281472117,1
28,310,6,0.0986283441882574,1
28,311,6,0.0790432429925756,1
28,312,6,0.0617888412122857,1
29,305,6,0.0969938135471604,1
29,306,6,0.100417121005993,1
29,307,6,0.104938915754285,1
29,308,6,0.108755083041608,1
29,309,6,0.105239907203915,1
29,310,6,0.0911527384006545,1
29,311,6,0.0707515719110689,1
29,339,6,0.0576996752344598,1
30,305,6,0.101278404011502,1
30,306,6,0.105754568262611,1
30,307,6,0.106913245586284,1
30,308,6,0.103237519746483,1
30,309,6,0.0941844833570988,1
30,310,6,0.0779593506217683,1
30,311,6,0.0598678019984106,1
31,306,6,0.106149037954856,1
31,307,6,0.104237227447118,1
31,308,6,0.0975634399540398,1
31,309,6,0.0854786468143379,1
31,310,6,0.066658649584483,1
31,338,6,0.0613573151690067,1
32,307,6,0.0936030512826875,1
32,308,6,0.0853730975420341,1
32,309,6,0.0730243693037359,1
33,307,6,0.0816554267905671,1
33,308,6,0.0730459402986567,1
33,309,6,0.0649792019755588,1
34,302,6,0.10188876056106,1
34,306,6,0.0875257035682506,1
34,307,6,0.0709255551352743,1
34,308,6,0.0624191294083259,1
34,309,6,0.0585859671490613,1
35,306,6,0.0809728799403475,1
35,307,6,0.0602756990158154,1
36,305,6,0.0948030838243437,1
36,306,6,0.068845605267729,1
37,305,6,0.0824326784462619,1
37,334,6,0.0616386875098066,1
38,305,6,0.0719045645876395,1
43,329,6,0.066234919291692,1
43,330,6,0.0739880408234086,1
44,328,6,0.0898297901077328,1
46,304,6,0.0597019211654083,1
47,304,6,0.0602743722050288,1
47,323,6,0.0578729272384984,1
48,303,6,0.0641558303769237,1
48,304,6,0.0605088049286692,1
48,305,6,0.0571034831271654,1
49,303,6,0.0605232170422795,1
49,304,6,0.0633472070172982,1
50,303,6,0.0621839418767714,1
50,320,6,0.0591001859374945,1
50,321,6,0.0817703757801765,1
51,319,6,0.0642432701562254,1
51,320,6,0.076685382286149,1
52,317,6,0.0671298561156849,1
52,318,6,0.0739909008377707,1
52,319,6,0.0826885937107706,1
53,311,6,0.0703462223703742,1
53,312,6,0.0652276929965997,1
53,313,6,0.0628540933657762,1
53,314,6,0.0621936305439816,1
53,315,6,0.0647765183598062,1
53,316,6,0.0757227781120424,1
53,317,6,0.089495693254744,1
12,323,7,0.118878307320608,1
12,324,7,0.0658163488186266,1
13,324,7,0.074118516447689,1
14,324,7,0.0722334308576609,1
15,323,7,0.118341072787731,1
16,320,7,0.147275961924847,1
16,321,7,0.119351949286721,1
16,322,7,0.106875811831293,1
16,323,7,0.0682816163324582,1
17,316,7,0.0923899570259549,1
17,320,7,0.122769707727997,1
17,321,7,0.0737439784019263,1
17,322,7,0.0574851918481123,1
18,315,7,0.095904643417891,1
18,316,7,0.0947147064320862,1
18,317,7,0.11464903602066,1
18,319,7,0.133851797523154,1
18,320,7,0.0879970398320628,1
19,315,7,0.115892452326568,1
19,316,7,0.0938651111553722,1
19,317,7,0.0883872519359172,1
19,318,7,0.0881250977122433,1
19,319,7,0.0753868296208892,1
20,316,7,0.0878190054122558,1
20,317,7,0.0763389726290611,1
20,318,7,0.0674625848793293,1
21,316,7,0.079201905974899,1
21,317,7,0.0659309321981525,1
22,316,7,0.0652468875259784,1
23,311,7,0.115955632107755,1
23,312,7,0.130213965399417,1
23,315,7,0.0787487204826468,1
24,310,7,0.120674726568474,1
24,311,7,0.128317958682381,1
24,312,7,0.115673782115072,1
24,313,7,0.0919161086670536,1
24,314,7,0.072240843307255,1
24,315,7,0.0583590648137516,1
25,309,7,0.103814652953945,1
25,310,7,0.120052929961468,1
25,311,7,0.120506593105603,1
25,312,7,0.104556287111193,1
25,313,7,0.0809099950060021,1
25,314,7,0.062757253869169,1
26,308,7,0.0954623731557094,1
26,309,7,0.105228125124131,1
26,310,7,0.110053564943626,1
26,311,7,0.102098160787861,1
26,312,7,0.0881892976635015,1
26,313,7,0.0714344902683087,1
26,341,7,0.0626814546431679,1
27,308,7,0.0999446112517517,1
27,309,7,0.106276175912891,1
27,310,7,0.101546207500658,1
27,311,7,0.0892466007461465,1
27,312,7,0.0783888009432834,1
27,313,7,0.0653481143435865,1
28,307,7,0.0982073323833447,1
28,308,7,0.10520413638511,1
28,309,7,0.107859019902681,1
28,310,7,0.0959733132472657,1
28,311,7,0.080536748389405,1
28,312,7,0.0685721643069642,1
28,313,7,0.0568845947290065,1
29,306,7,0.0948406591058187,1
29,307,7,0.0999795682932746,1
29,308,7,0.10451188317687,1
29,309,7,0.101657199645655,1
29,310,7,0.0892311448747174,1
29,311,7,0.0743917863972858,1
29,312,7,0.060708858510596,1
29,339,7,0.063137093261141,1
30,305,7,0.0963706901293675,1
30,306,7,0.0991217998621155,1
30,307,7,0.101504056196204,1
30,308,7,0.099577043385321,1
30,309,7,0.0919345071099603,1
30,310,7,0.0806681262450203,1
30,311,7,0.0670519575801726,1
31,307,7,0.102458829238202,1
31,308,7,0.0955009921950031,1
31,309,7,0.0842702642101317,1
31,310,7,0.0718114342642977,1
31,311,7,0.0583065879729096,1
32,308,7,0.0870369359591717,1
32,309,7,0.0758334459255139,1
32,310,7,0.0611600331473895,1
32,337,7,0.060091260522612,1
33,308,7,0.0800809033786429,1
33,309,7,0.0748129751103034,1
33,310,7,0.0604894393881225,1
34,307,7,0.0781294713523507,1
34,308,7,0.0731486059688512,1
34,309,7,0.0742836837513349,1
34,310,7,0.062174259106498,1
35,307,7,0.0672187465414466,1
35,308,7,0.0591703653826975,1
35,309,7,0.0592796827976351,1
35,335,7,0.0581785418866028,1
36,306,7,0.0765911728233675,1
36,334,7,0.058435819343519,1
36,335,7,0.0754713622103342,1
37,306,7,0.0657350772352481,1
37,334,7,0.067433648610309,1
38,333,7,0.0590908864681151,1
39,332,7,0.0620294421318493,1
39,333,7,0.0806363712401956,1
40,332,7,0.0802118861394906,1
43,329,7,0.0712800435958181,1
43,330,7,0.0811973940162414,1
44,327,7,0.0585969236576897,1
44,328,7,0.0913768337940335,1
45,326,7,0.0626138403654855,1
46,324,7,0.0594809747362961,1
47,323,7,0.0679653813011247,1
48,304,7,0.0644841541287568,1
48,322,7,0.0673646131708509,1
49,303,7,0.0624733576394062,1
49,304,7,0.0673704098597539,1
49,321,7,0.064555224011421,1
50,320,7,0.0671717243671714,1
50,321,7,0.0870846185903717,1
51,318,7,0.0605133750547118,1
51,319,7,0.0708655479061015,1
51,320,7,0.0805902748850027,1
52,310,7,0.0599948515023933,1
52,311,7,0.0578381471050805,1
52,316,7,0.0598530832440852,1
52,317,7,0.0707878911449993,1
52,318,7,0.0783196003895941,1
53,311,7,0.0750314389290106,1
53,312,7,0.0712631606656764,1
53,313,7,0.0691158854703534,1
53,316,7,0.0781363176960092,1
11,323,8,0.103403636456958,1
12,324,8,0.0867246518755137,1
13,324,8,0.10607319155336,1
14,324,8,0.10586202224551,1
15,324,8,0.0759398325628474,1
16,323,8,0.0865150983283552,1
17,321,8,0.0826561664551475,1
17,322,8,0.0666244709386216,1
18,316,8,0.0879044461299724,1
18,317,8,0.122762808311907,1
18,320,8,0.105978734419231,1
18,321,8,0.0593248828184301,1
19,315,8,0.107809556396558,1
19,316,8,0.0922798965969768,1
19,317,8,0.088114306317846,1
19,318,8,0.0901355050037632,1
19,319,8,0.0805467849758881,1
19,320,8,0.0606716488392045,1
20,316,8,0.0907665067291597,1
20,317,8,0.0792887737513283,1
20,318,8,0.069899146104677,1
20,319,8,0.0578938731581154,1
21,316,8,0.0845157301025793,1
21,317,8,0.0702795280148373,1
21,318,8,0.0600877990206933,1
22,316,8,0.072090377067124,1
22,317,8,0.0607855717618056,1
23,312,8,0.126428202718384,1
23,315,8,0.0842234248408983,1
23,316,8,0.0614133891413145,1
24,311,8,0.126774612375472,1
24,312,8,0.116167308552172,1
24,313,8,0.0938471196011067,1
24,314,8,0.0762340366381875,1
24,315,8,0.0639982760187241,1
25,310,8,0.113594062228063,1
25,311,8,0.118878448847092,1
25,312,8,0.104993898793279,1
25,313,8,0.0828409351768133,1
25,314,8,0.0671499469794616,1
26,309,8,0.0993269307066521,1
26,310,8,0.106802241647414,1
26,311,8,0.102835266097623,1
26,312,8,0.0908714722047175,1
26,313,8,0.0766614171348756,1
26,314,8,0.0627618239952115,1
27,309,8,0.100376833133577,1
27,310,8,0.0994803572090713,1
27,311,8,0.0916262978096512,1
27,312,8,0.0843066836919882,1
27,313,8,0.075996985674595,1
27,314,8,0.0610365807748726,1
27,340,8,0.0603901349719207,1
28,308,8,0.0997432662406594,1
28,309,8,0.103495298443029,1
28,310,8,0.0950863195971817,1
28,311,8,0.0852474338182062,1
28,312,8,0.0799269697396564,1
28,313,8,0.0736924273801665,1
28,314,8,0.0577927760731175,1
29,307,8,0.0970157501521646,1
29,308,8,0.1016510904191,1
29,309,8,0.100293061248983,1
29,310,8,0.0893896604336202,1
29,311,8,0.0797639607148899,1
29,312,8,0.0724137532889575,1
29,313,8,0.0638058884546751,1
29,339,8,0.0684808148585448,1
30,306,8,0.0951594652016097,1
30,307,8,0.0988002339998885,1
30,308,8,0.0987143922904674,1
30,309,8,0.0931190248108192,1
30,310,8,0.0834739123760476,1
30,311,8,0.0737728321138311,1
30,312,8,0.0621808931604307,1
30,338,8,0.0590674815258404,1
30,339,8,0.0813522416804364,1
31,308,8,0.096060010012527,1
31,309,8,0.0863238488731142,1
31,310,8,0.0767720908452839,1
31,311,8,0.0668061083868311,1
31,338,8,0.0699584751861144,1
32,309,8,0.0800515779117918,1
32,310,8,0.0690468382370216,1
32,311,8,0.0569119801036408,1
33,309,8,0.0822212496731918,1
33,310,8,0.0724893461221696,1
34,308,8,0.0798414995372556,1
34,309,8,0.0852201192068139,1
34,310,8,0.0781045803819951,1
35,307,8,0.0737400510419982,1
35,308,8,0.0664031353116786,1
35,309,8,0.0695547296122372,1
35,310,8,0.0640658431209118,1
36,307,8,0.0647591990563391,1
36,334,8,0.0626178149009083,1
37,306,8,0.076492340162112,1
38,306,8,0.068744166160395,1
38,333,8,0.0682458867922107,1
39,306,8,0.0609391515845824,1
39,332,8,0.0655942112082748,1
39,333,8,0.0893359511329808,1
40,332,8,0.0810230510788894,1
41,331,8,0.0591501742709947,1
42,330,8,0.0580066284872244,1
42,331,8,0.0705739384829663,1
43,329,8,0.0719266250283171,1
43,330,8,0.08339485214398,1
44,327,8,0.0598365423362796,1
44,328,8,0.0867315512916037,1
44,329,8,0.110723704638757,1
45,326,8,0.0668545871045031,1
45,327,8,0.0951339963314448,1
49,307,8,0.0645975463270434,1
49,321,8,0.0782143282733212,1
50,308,8,0.0606440806595285,1
50,319,8,0.0607448770007481,1
50,320,8,0.0738319842871637,1
51,309,8,0.0602897985917737,1
51,318,8,0.0640659197810906,1
51,319,8,0.0739300562435682,1
52,310,8,0.0630322634151303,1
52,311,8,0.061922147366244,1
52,312,8,0.0624355995528895,1
52,313,8,0.0622723487537131,1
52,314,8,0.0593109424597661,1
52,316,8,0.0608186240927327,1
53,311,8,0.0768747624124152,1
53,312,8,0.0748829186780332,1
53,313,8,0.0742317022531865,1
11,323,9,0.118735872708439,1
12,324,9,0.109893144674127,1
12,325,9,0.063001257321283,1
13,325,9,0.0650449999966977,1
14,325,9,0.0609594783258323,1
15,324,9,0.102528814084489,1
16,323,9,0.105841878309302,1
16,324,9,0.0579289363445011,1
17,321,9,0.096283309319434,1
17,322,9,0.0757477339487031,1
18,317,9,0.125803646344942,1
18,320,9,0.127246862664493,1
18,321,9,0.0671064157917893,1
19,316,9,0.091375365456763,1
19,317,9,0.0903264714060364,1
19,318,9,0.0937412754819614,1
19,319,9,0.0885659409157122,1
19,320,9,0.0671302453135156,1
20,316,9,0.0937117731070054,1
20,317,9,0.0835356179230271,1
20,318,9,0.0735073048422909,1
20,319,9,0.0640331858847523,1
21,316,9,0.0907043471180443,1
21,317,9,0.0754831796717397,1
21,318,9,0.0648403173193601,1
22,316,9,0.079834134263156,1
22,317,9,0.0663938181514886,1
23,312,9,0.11649156931453,1
23,315,9,0.0920717111391627,1
23,316,9,0.0698834484588379,1
23,317,9,0.0599973871852298,1
24,312,9,0.108739503334505,1
24,313,9,0.0951044113993733,1
24,314,9,0.0824331207165241,1
24,315,9,0.071814978323332,1
24,316,9,0.0614425789786185,1
25,311,9,0.107777252976609,1
25,312,9,0.0990652128563035,1
25,313,9,0.0837291141112,1
25,314,9,0.0721401884925193,1
25,315,9,0.063996005698045,1
25,341,9,0.0599855048575192,1
26,310,9,0.0979611411676671,1
26,311,9,0.0983838218057024,1
26,312,9,0.0909742086381539,1
26,313,9,0.0815868159305607,1
26,314,9,0.0714253795009078,1
26,315,9,0.06007642382955,1
27,310,9,0.0953481966648246,1
27,311,9,0.0926258757776762,1
27,312,9,0.0886911210907201,1
27,313,9,0.0848600699348403,1
27,314,9,0.0738335646662339,1
27,315,9,0.0571875439616641,1
27,340,9,0.0648319849476206,1
28,309,9,0.0939593501028379,1
28,310,9,0.0922737696796114,1
28,311,9,0.0885570483349739,1
28,312,9,0.0884242257298356,1
28,313,9,0.0873452690951542,1
28,314,9,0.0739109560651788,1
28,339,9,0.058829357319745,1
28,340,9,0.075683286326098,1
29,308,9,0.0938598628815943,1
29,309,9,0.0946964023401687,1
29,310,9,0.0894031644189588,1
29,311,9,0.0843588538921151,1
29,312,9,0.082547774859292,1
29,313,9,0.0788532436879424,1
29,314,9,0.0649895510996938,1
29,339,9,0.0692085263479383,1
30,307,9,0.0918365707831028,1
30,308,9,0.093381078786567,1
30,309,9,0.0912732953771884,1
30,310,9,0.0845959638250759,1
30,311,9,0.0776099924962658,1
30,312,9,0.0707084594059114,1
30,313,9,0.0628516992094236,1
30,338,9,0.0624328044048325,1
31,308,9,0.0929966751654893,1
31,309,9,0.0873982589695004,1
31,310,9,0.0798004922385461,1
31,311,9,0.0721457846855701,1
31,312,9,0.0628945817340447,1
32,309,9,0.083473481899659,1
32,310,9,0.0757302672218153,1
32,311,9,0.0662423612259703,1
32,312,9,0.0568918774459904,1
33,309,9,0.0845123924363341,1
33,310,9,0.0802919842324401,1
33,311,9,0.0665996979070026,1
34,309,9,0.086937796657201,1
34,310,9,0.0872060954890509,1
34,311,9,0.0696350989642809,1
35,308,9,0.07116925784361,1
35,309,9,0.0741395154397374,1
35,310,9,0.0741961791057281,1
35,311,9,0.0603305759099469,1
36,307,9,0.0712033657262295,1
36,308,9,0.0621509662060231,1
36,309,9,0.0603792964020288,1
36,310,9,0.0570516077738799,1
36,334,9,0.0660379498077268,1
37,307,9,0.0645128368294935,1
37,333,9,0.063119461420022,1
37,334,9,0.0778044911636996,1
38,306,9,0.0760437483836496,1
38,307,9,0.0584438391776066,1
38,333,9,0.0806822612025996,1
39,332,9,0.069301662568217,1
39,333,9,0.0944091802380343,1
40,332,9,0.077597980435945,1
41,331,9,0.0616883338209707,1
42,330,9,0.0596409527355324,1
42,331,9,0.0699544829598811,1
43,329,9,0.0694450171025321,1
43,330,9,0.0789019346953402,1
44,327,9,0.0586934683074555,1
44,328,9,0.0766794912462567,1
44,329,9,0.0954530324077721,1
45,326,9,0.0672986913140385,1
45,327,9,0.0846510765966806,1
46,324,9,0.0671173310218599,1
47,322,9,0.0622143700708095,1
48,321,9,0.0705568904385934,1
49,308,9,0.0582496294600774,1
49,320,9,0.0690254205624583,1
50,309,9,0.0582224858598531,1
50,319,9,0.0660364342949618,1
50,320,9,0.0826647464982338,1
51,309,9,0.0658694625286461,1
51,310,9,0.0573461184899351,1
51,317,9,0.0578592404481181,1
52,311,9,0.0649450528143815,1
52,312,9,0.0656064355583215,1
52,313,9,0.0650667184150392,1
12,324,10,0.12777210282786,1
13,325,10,0.0840287433684228,1
14,325,10,0.0817049138844368,1
15,325,10,0.0622621057744409,1
16,324,10,0.0738281158966038,1
17,322,10,0.0855794844341153,1
17,323,10,0.0692148242764718,1
18,321,10,0.0797483397292297,1
18,322,10,0.0594316350658471,1
19,317,10,0.0942606717809306,1
19,320,10,0.0826649941695806,1
19,321,10,0.0618621932095027,1
20,316,10,0.0979887329350904,1
20,317,10,0.0892805081329137,1
20,318,10,0.0817842276847881,1
20,319,10,0.0735351855596188,1
20,320,10,0.0640569859217945,1
21,316,10,0.0964408813684441,1
21,317,10,0.0823908750610805,1
21,318,10,0.0745598962724094,1
21,319,10,0.0634213197193662,1
22,316,10,0.0866585943891542,1
22,317,10,0.0744228691513119,1
22,318,10,0.0657172331044032,1
23,315,10,0.0959142259402383,1
23,316,10,0.0776984288578917,1
23,317,10,0.0716143468415959,1
23,318,10,0.0625868500856188,1
24,312,10,0.0995912785908265,1
24,313,10,0.0959256601007499,1
24,314,10,0.0877489615965999,1
24,315,10,0.077878485927031,1
24,316,10,0.0700084635196146,1
24,317,10,0.0666975870583654,1
25,312,10,0.092249285597897,1
25,313,10,0.084956343325512,1
25,314,10,0.076539574626113,1
25,315,10,0.0704391993733585,1
25,316,10,0.0635546494610719,1
25,317,10,0.0578653437777362,1
26,311,10,0.0927484907851635,1
26,312,10,0.0904854823076327,1
26,313,10,0.0858227448721888,1
26,314,10,0.0791231582804834,1
26,315,10,0.0698020471428492,1
26,316,10,0.0576056426797832,1
27,311,10,0.0915118087811145,1
27,312,10,0.0908505498728479,1
27,313,10,0.0898492735870161,1
27,314,10,0.0840219795818798,1
27,315,10,0.0693394973149124,1
28,310,10,0.0889547318577908,1
28,311,10,0.0898322609242642,1
28,312,10,0.0918417718813861,1
28,313,10,0.0928208520969932,1
28,314,10,0.0855142466219751,1
28,315,10,0.0665106010884519,1
28,339,10,0.061359202188792,1
29,309,10,0.0885630750044133,1
29,310,10,0.0891356616735809,1
29,311,10,0.0876450398788609,1
29,312,10,0.0879024647591979,1
29,313,10,0.0870000447223689,1
29,314,10,0.0773988113945425,1
29,315,10,0.0597040912381614,1
30,308,10,0.0897437537993964,1
30,309,10,0.0895708968901253,1
30,310,10,0.0863187657135676,1
30,311,10,0.0801497265283752,1
30,312,10,0.0757287340182397,1
30,313,10,0.0714531363825623,1
30,314,10,0.0633557929573214,1
31,309,10,0.0880153793056012,1
31,310,10,0.0820592254368757,1
31,311,10,0.0745755880213116,1
31,312,10,0.0681744807841473,1
31,313,10,0.0632946888978984,1
31,314,10,0.0569986237964706,1
31,337,10,0.0584601677956863,1
32,310,10,0.0801255903659337,1
32,311,10,0.072594081617191,1
32,312,10,0.0650127850308004,1
32,313,10,0.0588274408152756,1
33,310,10,0.0822457455487798,1
33,311,10,0.0749424246675755,1
33,312,10,0.0621507421224236,1
34,309,10,0.0841926782122714,1
34,310,10,0.0883086693557328,1
34,311,10,0.0787640289306551,1
34,312,10,0.0585205288410689,1
34,335,10,0.0590334856850207,1
35,308,10,0.0742340846156655,1
35,309,10,0.0764707101978229,1
35,310,10,0.0804773131631046,1
35,311,10,0.0697158221325343,1
35,334,10,0.0606657577993122,1
35,335,10,0.0660753953565915,1
36,307,10,0.0756660259919992,1
36,308,10,0.0678508863756511,1
36,309,10,0.0678910209277099,1
36,310,10,0.066503801920288,1
36,333,10,0.0571455282867568,1
36,334,10,0.0683647926264325,1
37,307,10,0.0697741192500266,1
37,308,10,0.0622164693803206,1
37,309,10,0.0596514433861513,1
37,333,10,0.0701936096452375,1
38,307,10,0.0655117366497832,1
38,332,10,0.0633704173606575,1
38,333,10,0.088698645582114,1
39,307,10,0.0620167990992877,1
39,332,10,0.0712849911258177,1
40,307,10,0.0580704274467783,1
42,330,10,0.0602379055476778,1
43,329,10,0.0669931415322393,1
43,330,10,0.0736529886666535,1
44,327,10,0.0570252425693171,1
44,328,10,0.0695475766278636,1
44,329,10,0.0831041213644323,1
45,326,10,0.0658071849787941,1
45,327,10,0.0763825568891649,1
46,324,10,0.0678612296028493,1
47,322,10,0.0681146209783952,1
48,321,10,0.0828846432725905,1
49,319,10,0.058408941105452,1
49,320,10,0.0829987725879806,1
50,309,10,0.0637475677494355,1
50,318,10,0.0570504106957036,1
50,319,10,0.0722530617603649,1
51,310,10,0.0605807947334787,1
15,325,11,0.0745943933528596,1
16,324,11,0.0901119585350046,1
17,323,11,0.0806518448024352,1
17,324,11,0.0603324865174795,1
18,322,11,0.0680786024882432,1
18,323,11,0.0575016678896127,1
19,317,11,0.0995482073642268,1
19,321,11,0.0741783526656938,1
19,322,11,0.0586532865799021,1
20,316,11,0.0995805697535448,1
20,317,11,0.0929257880878668,1
20,318,11,0.0887425541737434,1
20,319,11,0.0811384364418242,1
20,320,11,0.074759336572906,1
20,321,11,0.0651371573254627,1
21,317,11,0.0860084571037473,1
21,318,11,0.080245616618153,1
21,319,11,0.0702895999829413,1
21,320,11,0.0631676452908525,1
22,316,11,0.0905600431768997,1
22,317,11,0.0805851799315823,1
22,318,11,0.0736328329365717,1
22,319,11,0.0608759777003324,1
23,316,11,0.0843031337360171,1
23,317,11,0.0804877507412921,1
23,318,11,0.0727009989788392,1
24,313,11,0.0931184587048836,1
24,315,11,0.082942557089189,1
24,316,11,0.0777977037894094,1
24,317,11,0.0775462348152697,1
24,318,11,0.0683810445843334,1
25,313,11,0.0838558628714044,1
25,314,11,0.0792842154191595,1
25,315,11,0.0755639677062982,1
25,316,11,0.0715448396471915,1
25,317,11,0.0686312634078653,1
25,318,11,0.0585679461101116,1
26,312,11,0.0867803543408013,1
26,313,11,0.0853655730506402,1
26,314,11,0.0813340968058133,1
26,315,11,0.0767332772070748,1
26,316,11,0.0677643665184947,1
26,317,11,0.0584354950119934,1
27,311,11,0.0882971998136002,1
27,312,11,0.0892030105891059,1
27,313,11,0.0886391690772558,1
27,314,11,0.0862607339582325,1
27,315,11,0.0783419497801763,1
27,316,11,0.0649430183711755,1
28,311,11,0.0898815829039027,1
28,312,11,0.0913112834442413,1
28,313,11,0.0907586814939875,1
28,314,11,0.0882749624648177,1
28,315,11,0.0756489897415,1
28,316,11,0.0595618571218438,1
29,310,11,0.0873919374532196,1
29,311,11,0.0898435063827972,1
29,312,11,0.0903326926743911,1
29,313,11,0.0899645469081511,1
29,314,11,0.087400688507474,1
29,315,11,0.0726368049245178,1
30,309,11,0.086785502366653,1
30,310,11,0.0856067105914552,1
30,311,11,0.0822577752999111,1
30,312,11,0.0802146871844844,1
30,313,11,0.0802418779602033,1
30,314,11,0.0785850863825765,1
30,315,11,0.0663773303161145,1
31,309,11,0.0882634516441273,1
31,310,11,0.0850392719481394,1
31,311,11,0.077660257985797,1
31,312,11,0.0731850136568339,1
31,313,11,0.0726069015578575,1
31,314,11,0.0699702454720253,1
31,315,11,0.0615585422413625,1
32,310,11,0.0896133961138526,1
32,311,11,0.0801968902291342,1
32,312,11,0.0715827982295603,1
32,313,11,0.0660681539181654,1
32,314,11,0.0596804268306663,1
33,310,11,0.0906733999935653,1
33,311,11,0.0840574909354646,1
33,312,11,0.071222807926955,1
33,313,11,0.0599566865272354,1
34,309,11,0.0837443871775873,1
34,310,11,0.0886062641697495,1
34,311,11,0.0850772659121292,1
34,312,11,0.0679272870892088,1
35,308,11,0.0776032699882807,1
35,309,11,0.0781407875741257,1
35,310,11,0.083700443204337,1
35,311,11,0.0789518817502826,1
35,312,11,0.0601834650268716,1
35,334,11,0.0653984623902332,1
36,307,11,0.0787257106351397,1
36,308,11,0.0718352343013399,1
36,309,11,0.073177282772651,1
36,310,11,0.0739410540307545,1
36,311,11,0.0658768808751771,1
36,333,11,0.0610283840326802,1
36,334,11,0.0699811665990327,1
37,307,11,0.0738816954646329,1
37,308,11,0.0679500079868112,1
37,309,11,0.0685051161352174,1
37,310,11,0.0639993728489743,1
37,333,11,0.0719824690200885,1
38,307,11,0.0703960043110854,1
38,308,11,0.0640965425740441,1
38,309,11,0.0625719603201254,1
38,332,11,0.0658330489437265,1
38,333,11,0.0872902211898547,1
39,308,11,0.058654807989604,1
39,332,11,0.0693321025561287,1
40,331,11,0.057536955159598,1
40,332,11,0.0699855303322863,1
41,331,11,0.0629050841785374,1
42,307,11,0.0595754967367295,1
43,307,11,0.0584924889064466,1
43,329,11,0.0634954206275605,1
44,307,11,0.0592793466722359,1
45,326,11,0.0637104347382227,1
46,324,11,0.0670828870138412,1
47,308,11,0.0574220533454832,1
47,322,11,0.0683778661353825,1
47,323,11,0.0821338334816374,1
48,320,11,0.0631690487618178,1
48,321,11,0.0862186357262097,1
49,309,11,0.0626338486721466,1
49,310,11,0.0568602580707129,1
49,319,11,0.0648282698774183,1
49,320,11,0.09050910543657,1
50,310,11,0.0620242646213133,1
51,312,11,0.0607916161220555,1
51,313,11,0.0624248671278606,1
15,325,12,0.0861293384118068,1
16,325,12,0.0687723712092485,1
17,324,12,0.0752639492512447,1
18,322,12,0.0772823586860417,1
18,323,12,0.0674091586316578,1
19,321,12,0.0844472843568041,1
19,322,12,0.0665794478259315,1
20,317,12,0.0946277619954781,1
20,318,12,0.092395405795585,1
20,320,12,0.0825253311177205,1
20,321,12,0.0735515318685091,1
20,322,12,0.0596655134774255,1
21,317,12,0.0867066367335008,1
21,318,12,0.0819828895896232,1
21,319,12,0.0752912343779529,1
21,320,12,0.072238325315229,1
21,321,12,0.0644378336899643,1
22,317,12,0.0834632271265133,1
22,318,12,0.0777822420210435,1
22,319,12,0.0678282185504801,1
22,320,12,0.0596693995587959,1
23,316,12,0.087711280170262,1
23,317,12,0.084027805755467,1
23,318,12,0.0778734322521685,1
23,319,12,0.0624917619792498,1
24,315,12,0.0870863935683572,1
24,316,12,0.083374631547593,1
24,317,12,0.0834590049197436,1
24,318,12,0.0776172575224393,1
24,319,12,0.0605146487930669,1
25,313,12,0.083176930843461,1
25,314,12,0.0827611967970104,1
25,315,12,0.0801768406439153,1
25,316,12,0.0785174308263363,1
25,317,12,0.0768148790189158,1
25,318,12,0.0702747632898794,1
25,319,12,0.0570190802703307,1
26,313,12,0.0827200243840697,1
26,314,12,0.0807326859094251,1
26,315,12,0.0801045736830748,1
26,316,12,0.0771969356591355,1
26,317,12,0.0691585969838064,1
26,318,12,0.0586675512700917,1
27,311,12,0.0845543786265572,1
27,312,12,0.0859596304668025,1
27,313,12,0.082964670602298,1
27,314,12,0.0816564764453227,1
27,315,12,0.0806857698800129,1
27,316,12,0.0738969626340834,1
27,317,12,0.0613449905710339,1
28,310,12,0.0823551985932645,1
28,311,12,0.0893726182861841,1
28,312,12,0.0895685027337727,1
28,313,12,0.0852273311605558,1
28,314,12,0.0851557069658297,1
28,315,12,0.0806650421470587,1
28,316,12,0.0678954495272685,1
29,311,12,0.0899752852301169,1
29,312,12,0.0895002869685338,1
29,313,12,0.0870988420020034,1
29,314,12,0.0905454600521214,1
29,315,12,0.0828078946397599,1
29,316,12,0.0637976209492408,1
30,310,12,0.0844800359439529,1
30,311,12,0.083877304133715,1
30,312,12,0.0828059368567326,1
30,313,12,0.0847028281142926,1
30,314,12,0.0905176324072249,1
30,315,12,0.0810452294583036,1
30,316,12,0.0600224314759429,1
31,309,12,0.0883803820045113,1
31,310,12,0.0875427869942445,1
31,311,12,0.0801106357341351,1
31,312,12,0.0759644935526667,1
31,313,12,0.0770248748363364,1
31,314,12,0.079005968454879,1
31,315,12,0.0711804561266485,1
31,316,12,0.0579227032822728,1
32,309,12,0.098668278244464,1
32,310,12,0.0985999504374253,1
32,311,12,0.0848964422412021,1
32,312,12,0.0752199581024997,1
32,313,12,0.0700453429625437,1
32,314,12,0.0654716610670927,1
32,315,12,0.0607833545135579,1
32,316,12,0.0573283805039532,1
33,310,12,0.0995342080361945,1
33,311,12,0.0880629145133805,1
33,312,12,0.0764108150104498,1
33,313,12,0.0652638294254883,1
33,335,12,0.0582076904453489,1
34,309,12,0.0868000795944945,1
34,310,12,0.0889674456535943,1
34,311,12,0.0861453250075504,1
34,312,12,0.074427144430513,1
34,313,12,0.0590216505328048,1
34,334,12,0.0607039522591542,1
34,335,12,0.0664974332285125,1
35,308,12,0.0785427227883963,1
35,309,12,0.0774900429042253,1
35,310,12,0.0828754735358213,1
35,311,12,0.0839961038230738,1
35,312,12,0.0691783694129944,1
35,333,12,0.0572325198988595,1
35,334,12,0.0672307821895147,1
36,306,12,0.0857875991286875,1
36,307,12,0.0791763722384291,1
36,308,12,0.0725991706736746,1
36,309,12,0.0740491743675158,1
36,310,12,0.077583385517293,1
36,311,12,0.074966560830017,1
36,312,12,0.0597482180164535,1
36,333,12,0.0629560631974248,1
37,307,12,0.0752940531137572,1
37,308,12,0.0699670080537061,1
37,309,12,0.0728811503989679,1
37,310,12,0.0717012382057725,1
37,311,12,0.0633892875585106,1
37,332,12,0.056926740136524,1
37,333,12,0.0714886536330839,1
38,307,12,0.071201519985002,1
38,308,12,0.0676986038789767,1
38,309,12,0.0697155095948823,1
38,310,12,0.0651826875747201,1
38,332,12,0.0644824027385186,1
39,308,12,0.0636771524267593,1
39,309,12,0.062081759755397,1
40,308,12,0.0607516938597225,1
40,331,12,0.0576566570802917,1
41,308,12,0.0590791456668884,1
42,308,12,0.0589624983594722,1
42,330,12,0.0593587253388922,1
43,308,12,0.0583114647396672,1
43,329,12,0.061238509582711,1
44,308,12,0.0577044458563546,1
44,327,12,0.0583750691003058,1
44,328,12,0.062944534685924,1
45,308,12,0.0575086085842606,1
45,326,12,0.0635557462913221,1
45,327,12,0.0673410902898396,1
46,324,12,0.0643968145973812,1
47,322,12,0.0656096022133987,1
47,323,12,0.0748145790771209,1
48,309,12,0.0594800312264034,1
48,320,12,0.0677330773716796,1
49,310,12,0.0624751974836969,1
49,311,12,0.0595818949131891,1
49,312,12,0.0572234268222691,1
50,310,12,0.0669639516949353,1
50,311,12,0.0642778379999175,1
50,312,12,0.0646184450711657,1
50,313,12,0.0667828449710404,1
50,314,12,0.0702140602221607,1
50,315,12,0.0673745023339132,1
51,311,12,0.0698779702045237,1
51,312,12,0.0691626776640922,1
51,313,12,0.0734809868132227,1
16,325,13,0.0848381333298361,1
17,324,13,0.0848328732621845,1
17,325,13,0.060966766939753,1
18,323,13,0.0740048411964347,1
18,324,13,0.0623067396893003,1
19,322,13,0.0752141319289126,1
19,323,13,0.0650803639268618,1
20,318,13,0.0894137022450723,1
20,320,13,0.0865177696407388,1
20,321,13,0.0782869195656873,1
20,322,13,0.0686409520750755,1
20,323,13,0.0589422836600221,1
21,317,13,0.0853226846290822,1
21,318,13,0.0796047670082518,1
21,319,13,0.07788849302883,1
21,320,13,0.078586825978941,1
21,321,13,0.0727065303055849,1
21,322,13,0.061455292774422,1
22,317,13,0.0840526908288857,1
22,318,13,0.0780268351668404,1
22,319,13,0.0731191153877689,1
22,320,13,0.0692685217832375,1
22,321,13,0.0625304871634064,1
23,317,13,0.0850199358922768,1
23,318,13,0.0799514243366866,1
23,319,13,0.0697887849319206,1
23,320,13,0.0599187869142349,1
24,316,13,0.0855930179041381,1
24,317,13,0.0849524159655838,1
24,318,13,0.0833084856071812,1
24,319,13,0.071828193358766,1
24,320,13,0.0594525043252852,1
25,314,13,0.0849158431633698,1
25,315,13,0.0832804220848115,1
25,316,13,0.0821857619073543,1
25,317,13,0.080598200368101,1
25,318,13,0.0789630328578264,1
25,319,13,0.0694120591225943,1
25,320,13,0.0593315994294784,1
26,312,13,0.0807397445428095,1
26,313,13,0.0797400958115426,1
26,314,13,0.0792121371602975,1
26,315,13,0.080243888815662,1
26,316,13,0.0820955741554902,1
26,317,13,0.0769772865561257,1
26,318,13,0.0693564038328014,1
26,319,13,0.0590629880599767,1
27,311,13,0.0805833341903548,1
27,312,13,0.0830995984138844,1
27,313,13,0.0792893575480744,1
27,314,13,0.0779966605410859,1
27,315,13,0.0798107823933129,1
27,316,13,0.0786216650817273,1
27,317,13,0.0704834794720081,1
27,318,13,0.0604440211806649,1
28,310,13,0.0796162483442581,1
28,311,13,0.0858520821329136,1
28,312,13,0.0865445830125007,1
28,313,13,0.0821015064739403,1
28,314,13,0.0822234964061236,1
28,315,13,0.0833663227636009,1
28,316,13,0.0743503486221878,1
28,317,13,0.0620617514487359,1
29,311,13,0.0863868045707016,1
29,312,13,0.0857550421404541,1
29,313,13,0.0837292261529998,1
29,314,13,0.0881140173679414,1
29,315,13,0.0882717899128036,1
29,316,13,0.071176676190141,1
30,311,13,0.0844947252135941,1
30,312,13,0.0834276921851812,1
30,313,13,0.0853872678812344,1
30,314,13,0.0920917784151921,1
30,315,13,0.0889559112451566,1
30,316,13,0.0680556044346097,1
31,310,13,0.0872782916866494,1
31,311,13,0.0826359399618237,1
31,312,13,0.0781430991733627,1
31,313,13,0.0789841910671691,1
31,314,13,0.0821481040687638,1
31,315,13,0.0779381688246782,1
31,316,13,0.0635634005153262,1
32,309,13,0.100008074085906,1
32,310,13,0.0986011239278543,1
32,311,13,0.0860713951105242,1
32,312,13,0.0759802737556213,1
32,313,13,0.0723668431564821,1
32,314,13,0.0699239368271064,1
32,315,13,0.0664081182232992,1
32,316,13,0.0607851884609118,1
33,309,13,0.105062786809317,1
33,310,13,0.100120788136458,1
33,311,13,0.0863082455782645,1
33,312,13,0.0750942943786718,1
33,313,13,0.0679897887226603,1
33,314,13,0.0607593539806635,1
34,308,13,0.0905146308663789,1
34,309,13,0.0915297177782644,1
34,310,13,0.0873350909821872,1
34,311,13,0.0826900561511042,1
34,312,13,0.0745263721865361,1
34,313,13,0.0629838731515108,1
34,334,13,0.0632492294118829,1
35,307,13,0.0819072377870428,1
35,308,13,0.0783641989228325,1
35,309,13,0.0779204898080646,1
35,310,13,0.0799071265472265,1
35,311,13,0.0842852542235513,1
35,312,13,0.0749470950415442,1
35,313,13,0.0581947820506301,1
35,333,13,0.0615712147586082,1
36,307,13,0.077626928498839,1
36,308,13,0.0724094780097565,1
36,309,13,0.0729765392491152,1
36,310,13,0.0775473080577726,1
36,311,13,0.0804048575002856,1
36,312,13,0.0684015600275618,1
37,307,13,0.0751571793130172,1
37,308,13,0.0707979808039138,1
37,309,13,0.0734135258558979,1
37,310,13,0.0757725836405008,1
37,311,13,0.0718761118674391,1
37,312,13,0.0588682122365119,1
37,332,13,0.0575683740390234,1
38,308,13,0.0690448096907524,1
38,309,13,0.0725172917058027,1
38,310,13,0.0717422396075452,1
38,311,13,0.0635186191770461,1
39,308,13,0.0667229379897937,1
39,309,13,0.0681146740508267,1
39,310,13,0.0646266889888527,1
40,308,13,0.0664042911112971,1
40,309,13,0.0646949696203967,1
40,310,13,0.059322641982435,1
40,331,13,0.0573229494251336,1
41,308,13,0.0669402813905034,1
41,309,13,0.06213451375227,1
41,330,13,0.057155216953967,1
42,309,13,0.0609220976432727,1
42,329,13,0.0580139465858293,1
43,308,13,0.065947720777305,1
43,309,13,0.0603568054849627,1
43,327,13,0.0659666145629054,1
43,328,13,0.0670763178262136,1
44,308,13,0.0636441944468216,1
44,309,13,0.0580919099876466,1
44,326,13,0.0648835831448751,1
44,327,13,0.0743097776968037,1
44,328,13,0.0725797697515069,1
45,326,13,0.0678162300779066,1
45,327,13,0.0731379561009378,1
46,324,13,0.0604153856554228,1
47,309,13,0.0590041779089802,1
47,321,13,0.0571689214351578,1
47,322,13,0.0629068473626493,1
48,309,13,0.0657269748440449,1
48,310,13,0.0624292898304824,1
48,311,13,0.0606348047778964,1
48,312,13,0.0604158868950533,1
48,313,13,0.0580333651988074,1
48,319,13,0.0573442137793393,1
48,320,13,0.0714980946289473,1
48,321,13,0.0840522485586235,1
49,310,13,0.0677115948308112,1
49,311,13,0.0687845955592952,1
49,312,13,0.0793526611649347,1
49,313,13,0.0877234927264351,1
49,314,13,0.0827762280889877,1
49,315,13,0.068954356576731,1
49,316,13,0.0617322247217896,1
49,317,13,0.0593192689345688,1
49,318,13,0.0597740701875122,1
50,311,13,0.0756581594782692,1
50,312,13,0.0912634298018733,1
17,325,14,0.0686840409924856,1
18,323,14,0.0802647403842897,1
18,324,14,0.0695491746977442,1
19,322,14,0.0834359891752997,1
19,323,14,0.081485264781427,1
19,324,14,0.0700667960187279,1
20,321,14,0.0812800395859011,1
20,322,14,0.0786649191133687,1
20,323,14,0.0805615155240872,1
20,324,14,0.0687410112991914,1
21,318,14,0.0822250767851938,1
21,319,14,0.0869998324326431,1
21,320,14,0.0904990039837818,1
21,321,14,0.0825863290322806,1
21,322,14,0.0712919259235287,1
21,323,14,0.0654455730185608,1
22,317,14,0.0865886979969191,1
22,318,14,0.0851390068407298,1
22,319,14,0.0915494371350209,1
22,320,14,0.0939276894490025,1
22,321,14,0.0836011034065142,1
22,322,14,0.0643641750520322,1
23,317,14,0.0879796969408484,1
23,318,14,0.0885403069313162,1
23,319,14,0.0926170244754958,1
23,320,14,0.089966139081095,1
23,321,14,0.0785779864706342,1
23,322,14,0.0595734387057762,1
24,317,14,0.0870934816864258,1
24,318,14,0.0927560565551152,1
24,319,14,0.0951562513710378,1
24,320,14,0.0871084658029085,1
24,321,14,0.0723375176896311,1
25,316,14,0.0811514450844691,1
25,317,14,0.0822130116524415,1
25,318,14,0.0875170468649855,1
25,319,14,0.0886548136506634,1
25,320,14,0.0800216686481947,1
25,321,14,0.064497398648875,1
26,314,14,0.0756062605372364,1
26,315,14,0.0775349657689893,1
26,316,14,0.0792909025455237,1
26,317,14,0.078293176215663,1
26,318,14,0.0760233626730315,1
26,319,14,0.0716033313635992,1
26,320,14,0.0635851837999729,1
27,312,14,0.0793822402000694,1
27,313,14,0.0765862665719257,1
27,314,14,0.074842418515891,1
27,315,14,0.0789081618606317,1
27,316,14,0.0801048331482953,1
27,317,14,0.076196650058691,1
27,318,14,0.0668090686491193,1
27,319,14,0.0580905301044286,1
28,311,14,0.0810139344145516,1
28,312,14,0.0827418076687163,1
28,313,14,0.0801526514090424,1
28,314,14,0.0797626751826612,1
28,315,14,0.0864576857513872,1
28,316,14,0.0827988487386641,1
28,317,14,0.0722592948225932,1
28,318,14,0.058433991293102,1
29,312,14,0.0810843202525436,1
29,313,14,0.0808050000457602,1
29,314,14,0.0828951869956409,1
29,315,14,0.0898879574926149,1
29,316,14,0.0801115556562805,1
29,317,14,0.064101442928549,1
30,311,14,0.0815039462773015,1
30,312,14,0.0805220709136374,1
30,313,14,0.0819615957507334,1
30,314,14,0.0847791875492925,1
30,315,14,0.0875331337086553,1
30,316,14,0.0728751591111495,1
31,311,14,0.081835295157728,1
31,312,14,0.0773844877349847,1
31,313,14,0.0778269172144607,1
31,314,14,0.0791835075319923,1
31,315,14,0.0788434017003747,1
31,316,14,0.0658079633744556,1
32,310,14,0.0902013737881441,1
32,311,14,0.083083741550751,1
32,312,14,0.0746400002622958,1
32,313,14,0.0728881028874894,1
32,314,14,0.0719579790414373,1
32,315,14,0.0696482963089044,1
32,316,14,0.0608119605541158,1
33,309,14,0.098325111902632,1
33,310,14,0.0914129112535538,1
33,311,14,0.0812460791267023,1
33,312,14,0.0727046079041786,1
33,313,14,0.0700905547772123,1
33,314,14,0.0661476151419374,1
33,315,14,0.0611090482315653,1
34,309,14,0.0904793907718883,1
34,310,14,0.0834170069356469,1
34,311,14,0.0783333461493427,1
34,312,14,0.0733359988274059,1
34,313,14,0.0662864880042624,1
34,314,14,0.0572065792737484,1
34,333,14,0.0607393102923815,1
35,308,14,0.0771418405783414,1
35,309,14,0.0772327123748776,1
35,310,14,0.0763222784008979,1
35,311,14,0.0808323559357104,1
35,312,14,0.0769049606259169,1
35,313,14,0.063212344072017,1
35,332,14,0.0604388613609394,1
35,333,14,0.0667122586371962,1
36,308,14,0.0716971752162973,1
36,309,14,0.0713574821702577,1
36,310,14,0.0751798412412514,1
36,311,14,0.0806583609176313,1
36,312,14,0.0737788234016494,1
36,313,14,0.0576431943735108,1
36,332,14,0.0600291421900544,1
37,307,14,0.0738664459859928,1
37,308,14,0.0698842091636889,1
37,309,14,0.0709466071997542,1
37,310,14,0.0749019245054333,1
37,311,14,0.0759041325072841,1
37,312,14,0.0652502310891605,1
38,308,14,0.0677706172715336,1
38,309,14,0.0706834328060088,1
38,310,14,0.073269611112584,1
38,311,14,0.0697331650237486,1
38,312,14,0.0581058739340579,1
39,308,14,0.066815154287927,1
39,309,14,0.0688882872964979,1
39,310,14,0.0685068970101398,1
39,311,14,0.0620210920692993,1
40,309,14,0.0677077264402513,1
40,310,14,0.0642919198850654,1
41,309,14,0.0673030668411657,1
41,310,14,0.0627992872348867,1
42,309,14,0.0672467157128269,1
42,310,14,0.0629574253898323,1
42,327,14,0.0693294607284293,1
42,328,14,0.0721548600713501,1
42,329,14,0.0680799057112824,1
43,308,14,0.0692046520604416,1
43,309,14,0.0652514576520209,1
43,310,14,0.0608982150491149,1
43,326,14,0.0738488259387475,1
43,327,14,0.104689310212183,1
43,328,14,0.0999915980444059,1
43,329,14,0.0779718108492882,1
44,308,14,0.0655211422640256,1
44,309,14,0.0617104473340798,1
44,310,14,0.0569273121393964,1
44,326,14,0.0787878702462551,1
44,327,14,0.106615674360015,1
44,328,14,0.100315115792723,1
44,329,14,0.0766970346333233,1
45,309,14,0.0585919525399428,1
45,327,14,0.0834134805674231,1
45,328,14,0.0804976752859755,1
46,309,14,0.0579903470446392,1
47,309,14,0.0620685742046471,1
47,310,14,0.0609681763076552,1
47,311,14,0.0604848456743327,1
47,312,14,0.0575395026363082,1
47,317,14,0.0568949851316994,1
47,321,14,0.058403285943033,1
48,309,14,0.0699166541101225,1
48,310,14,0.0686821421788266,1
48,311,14,0.0684548742334336,1
48,312,14,0.0703466705375732,1
48,313,14,0.0748148975117097,1
48,314,14,0.07083499587639,1
48,315,14,0.062199102901359,1
48,316,14,0.0630518117607187,1
48,317,14,0.0672890203376388,1
48,318,14,0.0638912230275289,1
49,310,14,0.0719960732533533,1
49,311,14,0.0744169958022301,1
49,312,14,0.0926068168778446,1
49,315,14,0.0831045754285681,1
49,316,14,0.069592865102711,1
49,317,14,0.0689657907372426,1
18,324,15,0.0750740266067903,1
19,322,15,0.0858530256428062,1
19,323,15,0.0932107634570693,1
19,324,15,0.0831352100153953,1
19,325,15,0.0624131617082549,1
20,321,15,0.0848721232737189,1
20,322,15,0.0836052371592313,1
20,323,15,0.097328848013105,1
20,324,15,0.0873011659046095,1
20,325,15,0.0605679099265072,1
21,319,15,0.106643036146902,1
21,320,15,0.116029827366938,1
21,321,15,0.0986390353347285,1
21,322,15,0.0771500903929653,1
21,323,15,0.0759666872131671,1
21,324,15,0.0660610540062232,1
22,318,15,0.104305950348924,1
22,321,15,0.141183635990864,1
22,322,15,0.0832649603164457,1
22,323,15,0.0611440170669617,1
23,322,15,0.086093172498234,1
24,317,15,0.0895260801702243,1
24,318,15,0.112281616379634,1
24,321,15,0.138957919741841,1
24,322,15,0.0718355350451182,1
25,316,15,0.0783556719521776,1
25,317,15,0.0814018879916005,1
25,318,15,0.0945349619005988,1
25,319,15,0.120128882507827,1
25,320,15,0.123489417074114,1
25,321,15,0.0918677773728024,1
26,315,15,0.0738209982938511,1
26,316,15,0.075538268855597,1
26,317,15,0.076709394612917,1
26,318,15,0.0793817389604389,1
26,319,15,0.0833314305883831,1
26,320,15,0.0775473611302041,1
26,321,15,0.0609097553544894,1
27,314,15,0.0720691363006657,1
27,315,15,0.076005435985071,1
27,316,15,0.0813823101613279,1
27,317,15,0.0796430794068304,1
27,318,15,0.0732608246767087,1
27,319,15,0.06720192847761,1
27,320,15,0.0593353557782386,1
28,312,15,0.0797434157869774,1
28,314,15,0.0759681968289953,1
28,315,15,0.0820415464202621,1
28,316,15,0.0882891740825758,1
28,317,15,0.0803782151396918,1
28,318,15,0.0659076687823618,1
29,313,15,0.0772233421422562,1
29,314,15,0.0758467199303161,1
29,315,15,0.0796894765058017,1
29,316,15,0.0819512466265983,1
29,317,15,0.0703908857699178,1
30,312,15,0.0767355711155014,1
30,313,15,0.0762266949518352,1
30,314,15,0.0749211721072435,1
30,315,15,0.0750208480304656,1
30,316,15,0.0704061942179261,1
30,317,15,0.0573858284625421,1
31,312,15,0.0746068653742531,1
31,313,15,0.0719914205701951,1
31,314,15,0.0713466259095553,1
31,315,15,0.0706565663618155,1
31,316,15,0.0627471877980017,1
32,311,15,0.0788304461301612,1
32,312,15,0.0717064864795504,1
32,313,15,0.067844747664412,1
32,314,15,0.0675611993539222,1
32,315,15,0.0659915173271346,1
32,316,15,0.0574134320238391,1
33,310,15,0.0813469521281007,1
33,311,15,0.0755044617167559,1
33,312,15,0.0688871904662477,1
33,313,15,0.0657631466545545,1
33,314,15,0.0646856878418277,1
33,315,15,0.0606819684786554,1
34,310,15,0.0774821763904953,1
34,311,15,0.0724835435363298,1
34,312,15,0.0682389166128787,1
34,313,15,0.0633460158360587,1
34,314,15,0.0581173021976327,1
35,309,15,0.0733145870497795,1
35,310,15,0.0717821677668149,1
35,311,15,0.072828667661189,1
35,312,15,0.0710774425371811,1
35,313,15,0.0627106267896614,1
35,332,15,0.0649602433236532,1
36,309,15,0.0688146817309972,1
36,310,15,0.0701238193978652,1
36,311,15,0.0737858230656656,1
36,312,15,0.071594539030787,1
36,313,15,0.0610711014430701,1
37,308,15,0.0682981808280111,1
37,309,15,0.067397282200884,1
37,310,15,0.0697110043351449,1
37,311,15,0.0728166497039313,1
37,312,15,0.0673287833826773,1
38,308,15,0.0671058437889168,1
38,309,15,0.0674643952389359,1
38,310,15,0.0707291340664342,1
38,311,15,0.0715910126625632,1
38,312,15,0.0636008814458119,1
39,309,15,0.0678537169053291,1
39,310,15,0.0694608032024235,1
39,311,15,0.0668266120361859,1
39,312,15,0.0575780037368653,1
40,309,15,0.0688541499291943,1
40,310,15,0.0680761021870276,1
40,311,15,0.0621692644010038,1
41,309,15,0.0705427731718246,1
41,310,15,0.0697037393089715,1
41,311,15,0.062975033643204,1
41,329,15,0.0601283345644565,1
42,309,15,0.0720636639432883,1
42,310,15,0.0729132592200023,1
42,311,15,0.0664456463292795,1
42,327,15,0.086782948993006,1
42,328,15,0.0886899534972279,1
42,329,15,0.078362836730425,1
42,330,15,0.0685085009769573,1
43,308,15,0.0687172407468334,1
43,309,15,0.067653156186835,1
43,310,15,0.0668335350400232,1
43,311,15,0.0600664403154984,1
43,326,15,0.0869368531473084,1
43,327,15,0.139803457926016,1
43,328,15,0.133858272359793,1
43,329,15,0.0935820758783865,1
43,330,15,0.0647021049139599,1
44,307,15,0.0679329186638805,1
44,308,15,0.0657165254719837,1
44,309,15,0.0634641196868717,1
44,310,15,0.0607688716367057,1
44,326,15,0.0856849039738089,1
44,327,15,0.133247679932762,1
44,328,15,0.127824137398439,1
44,329,15,0.0877431590107601,1
45,308,15,0.0648027656256324,1
45,309,15,0.0612486759018044,1
45,310,15,0.0595426154169705,1
45,326,15,0.0704408800003548,1
45,327,15,0.0924601364711579,1
45,328,15,0.0902630793351237,1
46,310,15,0.0615007876420584,1
46,311,15,0.0600926168180827,1
46,312,15,0.0576094285132275,1
46,327,15,0.0677159762548752,1
47,309,15,0.064250977452661,1
47,310,15,0.0662674703829886,1
47,311,15,0.0671321028486168,1
47,312,15,0.0663924146805233,1
47,313,15,0.0638399019863053,1
47,314,15,0.0597355926747024,1
47,316,15,0.0613631413425938,1
47,317,15,0.0685963299540897,1
47,318,15,0.0631480025942748,1
48,311,15,0.0729681538049442,1
48,312,15,0.0774290921651599,1
48,314,15,0.0849742228379777,1
48,315,15,0.0727134768971696,1
48,316,15,0.0728325124640016,1
48,317,15,0.080928770852866,1
19,324,16,0.0946144761968022,1
20,322,16,0.0827312226671081,1
20,323,16,0.102485530568164,1
20,324,16,0.0995438082493523,1
20,325,16,0.0736451575345445,1
21,321,16,0.10779183020445,1
21,322,16,0.0772095256192656,1
21,323,16,0.0782240110435946,1
21,324,16,0.0722629686142378,1
22,322,16,0.0980687956464189,1
22,323,16,0.0666975929553023,1
23,323,16,0.0634435747589592,1
24,322,16,0.0949910074072131,1
25,317,16,0.0759000695178089,1
25,318,16,0.0988666453024577,1
25,321,16,0.127109192777281,1
25,322,16,0.0626376168147804,1
26,316,16,0.0732207667848287,1
26,317,16,0.0717490918481406,1
26,318,16,0.0768619306778751,1
26,319,16,0.0878469627897625,1
26,320,16,0.0876139984033926,1
26,321,16,0.0662037127019925,1
27,315,16,0.0735371728273302,1
27,316,16,0.0795588062826059,1
27,317,16,0.0764977181685001,1
27,318,16,0.0735475927147072,1
27,319,16,0.071783270494002,1
27,320,16,0.065487971994362,1
28,315,16,0.0776896306281427,1
28,316,16,0.0877502530257655,1
28,317,16,0.0812242132849401,1
28,318,16,0.068480944591155,1
28,319,16,0.0576763056738062,1
29,314,16,0.0722011274377111,1
29,315,16,0.0733922968833132,1
29,316,16,0.081049321932463,1
29,317,16,0.0733891066404887,1
29,318,16,0.0595427392526439,1
30,313,16,0.0728846472825075,1
30,314,16,0.07011116457143,1
30,315,16,0.0683475971586388,1
30,316,16,0.0690260043592044,1
30,317,16,0.059697687164765,1
31,313,16,0.0681687135799284,1
31,314,16,0.0663582301377251,1
31,315,16,0.0647780692541922,1
31,316,16,0.0603035797331433,1
32,312,16,0.070692879698809,1
32,313,16,0.0649852817174295,1
32,314,16,0.0644919675700554,1
32,315,16,0.0631737309296601,1
33,311,16,0.0730776304371763,1
33,312,16,0.0684609185936834,1
33,313,16,0.0641738042403788,1
33,314,16,0.0640386287574456,1
33,315,16,0.0609697448928517,1
34,311,16,0.0696515160364131,1
34,312,16,0.0661745582463095,1
34,313,16,0.0630422410322451,1
34,314,16,0.0605261773045677,1
35,310,16,0.0698686825290179,1
35,311,16,0.068614917098975,1
35,312,16,0.0667477876815915,1
35,313,16,0.06344772030555,1
36,310,16,0.068083715132474,1
36,311,16,0.0692826213591958,1
36,312,16,0.0686536127984475,1
36,313,16,0.0643476046595425,1
37,309,16,0.0657932800017512,1
37,310,16,0.0669566159055199,1
37,311,16,0.0700243734551795,1
37,312,16,0.0679490408891713,1
37,313,16,0.0607291616640986,1
38,309,16,0.0658073441960885,1
38,310,16,0.0689527820945976,1
38,311,16,0.0726144201523146,1
38,312,16,0.0683286267128596,1
38,313,16,0.0575212752045695,1
39,309,16,0.0669654200322058,1
39,310,16,0.0698981141407319,1
39,311,16,0.0712127182680404,1
39,312,16,0.0649134098513566,1
40,309,16,0.0697156157397452,1
40,310,16,0.0709746058558187,1
40,311,16,0.0684653177085579,1
40,312,16,0.0610060110543506,1
41,309,16,0.0741422339276156,1
41,310,16,0.0753452915978651,1
41,311,16,0.0695961143149038,1
41,312,16,0.0585742853172028,1
41,329,16,0.0646135918921553,1
42,309,16,0.0783273548615244,1
42,310,16,0.0816398175987805,1
42,311,16,0.0738679202202001,1
42,312,16,0.0592501037625004,1
42,327,16,0.0929692131306762,1
42,328,16,0.0989698240061562,1
42,329,16,0.0844060352836846,1
42,330,16,0.0710010064420025,1
43,308,16,0.06898554547562,1
43,309,16,0.0713710746096487,1
43,310,16,0.0722326878436204,1
43,311,16,0.0649391381867419,1
43,326,16,0.0882151793192444,1
43,327,16,0.151763011921342,1
43,328,16,0.15220056463406,1
43,329,16,0.101140085461239,1
43,330,16,0.0653938509856329,1
44,326,16,0.0847878501494944,1
44,327,16,0.140479235092756,1
44,328,16,0.140428509642152,1
44,329,16,0.0906632926438402,1
45,326,16,0.0700849880688457,1
45,327,16,0.0935405378553624,1
45,328,16,0.0927995877427875,1
46,311,16,0.0633108936803047,1
46,327,16,0.0645669707095845,1
47,313,16,0.073129151974252,1
21,322,17,0.0782705555659866,1
21,323,17,0.0761604900420551,1
21,324,17,0.0732033767181197,1
36,311,17,0.0646228441860402,1
37,311,17,0.0663245409376205,1
38,311,17,0.0706403733732828,1
38,312,17,0.0692645944233093,1
39,310,17,0.0695136279625385,1
39,311,17,0.0726389985850182,1
39,312,17,0.0699971472978396,1
40,310,17,0.07344288670437,1
40,311,17,0.0733721293593577,1
41,309,17,0.0756044442806931,1
41,310,17,0.0793632461665429,1
41,311,17,0.0747488872008449,1
41,328,17,0.0583868924586481,1
42,309,17,0.079902933825141,1
42,310,17,0.0847098867476771,1
42,311,17,0.075720926473878,1
42,312,17,0.0639364348421975,1
42,327,17,0.0850247006172347,1
42,328,17,0.0929198321816694,1
42,329,17,0.0800872720704183,1
43,309,17,0.0726931678467302,1
43,310,17,0.0750705651048716,1
43,326,17,0.0794273399729382,1
43,327,17,0.128715742453124,1
43,328,17,0.133720661441949,1
43,329,17,0.0927321798578942,1
44,326,17,0.0785916850548882,1
44,327,17,0.121377535293639,1
44,328,17,0.123754366445844,1
44,329,17,0.0834642178119005,1
45,327,17,0.0857124485657376,1
45,328,17,0.0839856662448863,1
40,310,18,0.0735214456968071,1
41,309,18,0.075931187653456,1
41,310,18,0.0803104593355256,1
41,311,18,0.0742583976862118,1
42,308,18,0.0674676975235601,1
42,309,18,0.0785556252861783,1
42,310,18,0.082918473999179,1
42,311,18,0.0718515924041038,1
42,328,18,0.0774835208920924,1
43,309,18,0.0727888043682244,1
43,310,18,0.0743890502185971,1
43,327,18,0.0949972345725046,1
43,328,18,0.0984612721740157,1
44,326,18,0.0722659524642733,1
44,327,18,0.093988156639248,1
44,328,18,0.093603310747908,1
45,327,18,0.0740901403876675,1
41,310,19,0.0757245530900279,1
42,309,19,0.0727428200548311,1
42,310,19,0.0770325998235825,1
42,311,19,0.0684578698773428,1
43,310,19,0.0724146909019134,1
44,327,19,0.0704637306305675,1
42,310,20,0.0697079438249306,1
