x,y,z,signal,cytoplasm.p
439,521,6,0.0583894458322951,1
438,521,7,0.0702292271436851,1
439,520,7,0.0621185920228314,1
439,521,7,0.0768077142406684,1
444,525,7,0.0569665149754362,1
438,520,8,0.058721018796321,1
438,521,8,0.0717864194582687,1
439,520,8,0.0685976272801922,1
439,521,8,0.0818189960243324,1
444,525,8,0.0644686039063385,1
445,525,8,0.0623308640578681,1
438,521,9,0.0588929204018258,1
439,520,9,0.0611986580836201,1
439,521,9,0.0693903524981264,1
444,525,9,0.0587421534179165,1
445,525,9,0.058239256748195,1
453,522,9,0.0644936835786726,1
453,523,9,0.0615494904433298,1
454,522,9,0.0586952255946306,1
458,510,9,0.0634948073461303,1
459,509,9,0.0638960290310446,1
459,510,9,0.0715028062814737,1
459,511,9,0.0609706942996812,1
460,510,9,0.0594929808996801,1
464,534,9,0.0588092959406525,1
465,533,9,0.0853962076374673,1
465,534,9,0.0939915473779247,1
465,535,9,0.0617722177473645,1
466,521,9,0.108862584200002,1
466,522,9,0.107048804370111,1
466,533,9,0.0836575488858422,1
466,534,9,0.092757996647332,1
466,535,9,0.0620599941615608,1
467,520,9,0.0768381306408329,1
467,521,9,0.107218978173125,1
467,522,9,0.0980336381090439,1
467,534,9,0.0591532937505773,1
447,509,10,0.0624295846773239,1
447,510,10,0.0636319936845222,1
453,522,10,0.0702200102314213,1
453,523,10,0.0653090294462833,1
454,521,10,0.0574763405459318,1
454,522,10,0.0650739126779707,1
458,509,10,0.0683946841992191,1
458,510,10,0.0829181378737797,1
458,511,10,0.0682615549533656,1
459,509,10,0.0747894758170395,1
459,510,10,0.0914240092886662,1
459,511,10,0.0791947883721463,1
460,509,10,0.0593201888567142,1
460,510,10,0.0693504597204777,1
460,511,10,0.0660807851568533,1
461,507,10,0.056902727809756,1
464,533,10,0.0599252381631259,1
464,534,10,0.0645160919386232,1
465,521,10,0.0734136555885082,1
465,522,10,0.0721894573997264,1
465,533,10,0.0965011303720269,1
465,534,10,0.107947603687727,1
465,535,10,0.064304214998354,1
466,520,10,0.0623677022222394,1
466,521,10,0.112853088527741,1
466,522,10,0.11302031386234,1
466,523,10,0.0602140347473936,1
466,533,10,0.0897968852002265,1
466,534,10,0.103463679067752,1
466,535,10,0.0636046672792562,1
467,520,10,0.0711150944788349,1
467,521,10,0.101305128929212,1
467,522,10,0.0959292159536578,1
467,534,10,0.0605474593495839,1
468,520,10,0.102042340383837,1
468,521,10,0.0747674035824882,1
447,509,11,0.0623076596114456,1
447,510,11,0.0658428437557996,1
453,522,11,0.0606292203787192,1
454,521,11,0.0645147710247735,1
454,522,11,0.0605819033576026,1
458,509,11,0.0682736731585494,1
458,510,11,0.0897684324800261,1
458,511,11,0.0783536846844662,1
459,509,11,0.074890826470321,1
459,510,11,0.101423692741097,1
459,511,11,0.0962440887925838,1
459,512,11,0.0647027005045797,1
460,506,11,0.0770890040243527,1
460,507,11,0.0781589796242434,1
460,508,11,0.0603395451508639,1
460,509,11,0.0579191887079226,1
460,510,11,0.0745803940248273,1
460,511,11,0.0788266661936537,1
460,512,11,0.0586650745566235,1
461,505,11,0.0601897098829736,1
461,506,11,0.0928729633277518,1
461,507,11,0.0933089179705895,1
461,508,11,0.0620706676172214,1
462,506,11,0.080356714908013,1
462,507,11,0.0799193155156522,1
465,521,11,0.0622679378449649,1
465,522,11,0.0623605256501184,1
465,533,11,0.0780729315220334,1
465,534,11,0.0865071433605728,1
466,521,11,0.0950299920565902,1
466,522,11,0.0974031965926461,1
466,533,11,0.0712339413436883,1
466,534,11,0.0832060911960809,1
467,521,11,0.0789339786500694,1
467,522,11,0.0777421959230371,1
468,519,11,0.0903113693508171,1
468,520,11,0.0891893002109782,1
468,521,11,0.0598665282600555,1
469,520,11,0.133731228752747,1
454,521,12,0.0634149569245276,1
458,510,12,0.0762765122741674,1
458,511,12,0.0753890291783265,1
459,506,12,0.0583800402180527,1
459,507,12,0.0576485841737726,1
459,509,12,0.0600697897756173,1
459,510,12,0.0901918030596705,1
459,511,12,0.0977249983323463,1
459,512,12,0.0724968942013108,1
460,505,12,0.065010626751921,1
460,506,12,0.106156196836166,1
460,507,12,0.107960034430563,1
460,508,12,0.0660439293016715,1
460,510,12,0.0666144579398858,1
460,511,12,0.0779615855608265,1
460,512,12,0.0608867278161718,1
461,505,12,0.0769401063694183,1
461,506,12,0.134734498203227,1
461,507,12,0.136144986523376,1
461,508,12,0.0751280366512079,1
462,505,12,0.0647918975710564,1
462,506,12,0.106913339937274,1
462,507,12,0.105780974745731,1
462,508,12,0.0602541398147683,1
463,506,12,0.0589179293109179,1
466,521,12,0.0670584501076215,1
466,522,12,0.0699922823249556,1
468,519,12,0.0727172155551192,1
468,520,12,0.0684257551593716,1
469,520,12,0.105269993375617,1
458,510,13,0.0569534414664861,1
458,511,13,0.0643669584062155,1
459,506,13,0.0617484825766274,1
459,507,13,0.0605514279880699,1
459,510,13,0.0710082891589864,1
459,511,13,0.0861439981967639,1
459,512,13,0.0708227302477855,1
460,505,13,0.0722850290549154,1
460,506,13,0.120758687155047,1
460,507,13,0.123712191553643,1
460,508,13,0.0705983930799965,1
460,511,13,0.066946296266069,1
461,505,13,0.0893016368575724,1
461,506,13,0.158350822075452,1
461,507,13,0.160857645303118,1
461,508,13,0.0848348959115169,1
462,505,13,0.0720485795788795,1
462,506,13,0.118416494609775,1
462,507,13,0.116790791683111,1
463,506,13,0.0585718616761661,1
469,520,13,0.0732923732887443,1
474,537,13,0.05698553259671,1
475,524,13,0.0692428642110941,1
475,537,13,0.0569830971617996,1
476,523,13,0.0759636679815106,1
476,524,13,0.0791009445194482,1
476,525,13,0.0641317767715979,1
477,523,13,0.0786333881921435,1
477,524,13,0.07558605763166,1
427,513,14,0.0618469142461785,1
427,514,14,0.0688994855795363,1
428,514,14,0.0637292400697707,1
441,509,14,0.0587159769153322,1
442,509,14,0.0570638262269898,1
459,506,14,0.0575934949899153,1
459,507,14,0.0569544675334944,1
459,511,14,0.0642037547825337,1
460,506,14,0.111310921608198,1
460,507,14,0.116110285173035,1
460,508,14,0.0691473338344629,1
461,505,14,0.0845967127360532,1
461,506,14,0.148747294839199,1
461,507,14,0.153592454015451,1
461,508,14,0.0864100208109977,1
462,506,14,0.107469881041329,1
462,507,14,0.106436560800768,1
462,508,14,0.0609154753832136,1
473,538,14,0.0588131643312124,1
474,524,14,0.0727610828681908,1
474,537,14,0.0701231884256245,1
474,538,14,0.0797858855260205,1
474,539,14,0.0599029359480383,1
475,523,14,0.10161620414082,1
475,524,14,0.122507612473691,1
475,525,14,0.0985300186635692,1
475,537,14,0.0673728335007906,1
475,538,14,0.0728476499008418,1
476,522,14,0.0890958101744899,1
476,523,14,0.131179895445895,1
476,524,14,0.139982005379327,1
476,525,14,0.103468679670183,1
477,522,14,0.0913744042560599,1
477,523,14,0.117889898150938,1
477,524,14,0.111136950177866,1
477,525,14,0.0802199649429464,1
478,522,14,0.0720116647543294,1
478,523,14,0.0842604988827428,1
478,524,14,0.0749540475300657,1
478,525,14,0.0588299293226174,1
480,530,14,0.0618084131456214,1
426,514,15,0.0607802586217226,1
427,513,15,0.0760349324630901,1
427,514,15,0.0917936528768607,1
427,515,15,0.0620101237667972,1
428,513,15,0.0672889141927759,1
428,514,15,0.0828294302530597,1
428,515,15,0.0584482147047338,1
428,522,15,0.0613019783138025,1
441,508,15,0.0589302362180802,1
441,509,15,0.070988015490168,1
442,508,15,0.0594929219303118,1
442,509,15,0.071909582880881,1
455,505,15,0.0582952658541977,1
456,505,15,0.0700997304109184,1
460,502,15,0.0634645560601971,1
460,503,15,0.0691100533998294,1
460,505,15,0.0613556640266945,1
460,506,15,0.0900352983562265,1
460,507,15,0.0944206733679142,1
460,508,15,0.0637230895646579,1
461,502,15,0.0577311943618113,1
461,503,15,0.0611431855988688,1
461,506,15,0.119885221078049,1
461,507,15,0.12635713283572,1
461,508,15,0.0815457555594198,1
462,507,15,0.0922962605966775,1
462,508,15,0.0609965995431714,1
473,538,15,0.0613908687395642,1
474,523,15,0.0694591461631746,1
474,524,15,0.0843683597542836,1
474,525,15,0.0677734419042747,1
474,537,15,0.0742147426628661,1
474,538,15,0.0888859499866163,1
474,539,15,0.062277490882628,1
475,522,15,0.0836432134324107,1
475,523,15,0.138918304120223,1
475,524,15,0.16140701573199,1
475,525,15,0.113253997675003,1
475,537,15,0.0696453832221108,1
475,538,15,0.0795909386913876,1
475,539,15,0.0573559486836292,1
476,521,15,0.0663274127458563,1
476,522,15,0.117659469447404,1
476,523,15,0.180336159365614,1
476,524,15,0.192690654808131,1
476,525,15,0.12588104953776,1
477,521,15,0.0719060388218467,1
477,522,15,0.116331432097999,1
477,523,15,0.152417076566677,1
477,524,15,0.144485861645785,1
477,525,15,0.0929239305527657,1
478,516,15,0.063883627772893,1
478,517,15,0.0589657534686018,1
478,521,15,0.0637935579597655,1
478,522,15,0.0930224742641165,1
478,523,15,0.104055766907013,1
478,524,15,0.08675900742948,1
478,525,15,0.060308214725491,1
479,516,15,0.0613600218630112,1
479,522,15,0.0626030784557725,1
479,523,15,0.0675865620792241,1
480,530,15,0.0762526650616305,1
480,531,15,0.0713895202280501,1
481,530,15,0.0632050200764753,1
426,514,16,0.0627818971681777,1
427,513,16,0.0842122147639862,1
427,514,16,0.103862771958471,1
427,515,16,0.0709115204256211,1
428,513,16,0.0728921717739014,1
428,514,16,0.0920695469633464,1
428,515,16,0.0653828590953835,1
428,522,16,0.0589994721533906,1
441,508,16,0.0621610145863799,1
441,509,16,0.0737461956501741,1
442,508,16,0.0668475461619291,1
442,509,16,0.0814342267931712,1
442,510,16,0.061825643995036,1
455,505,16,0.0669273140264162,1
456,504,16,0.0642485184300033,1
456,505,16,0.0873624114905164,1
456,506,16,0.0618144810936185,1
457,505,16,0.0626895157558132,1
460,502,16,0.0690419083978325,1
460,503,16,0.0720106740689421,1
460,506,16,0.0637897603324476,1
460,507,16,0.0662938061028673,1
461,502,16,0.0708935583560397,1
461,503,16,0.0694781932691325,1
461,505,16,0.0571861404906987,1
461,506,16,0.0824061717152151,1
461,507,16,0.0888507039951889,1
461,508,16,0.0662926679940593,1
462,506,16,0.0678028440313045,1
462,507,16,0.0727791333918247,1
473,538,16,0.0570179716462068,1
474,523,16,0.076365644474339,1
474,524,16,0.0910525848255493,1
474,525,16,0.0683923843938558,1
474,537,16,0.0707653943309963,1
474,538,16,0.0840325056141197,1
474,539,16,0.0592817349316517,1
475,522,16,0.0968522045061466,1
475,523,16,0.162733366557462,1
475,524,16,0.191160623784582,1
475,525,16,0.126338309813361,1
475,526,16,0.0600194417289706,1
475,537,16,0.0645000463735112,1
475,538,16,0.074536243658788,1
476,521,16,0.0706319348566804,1
476,522,16,0.134811052237142,1
476,523,16,0.213741079939536,1
476,524,16,0.239383650275604,1
476,525,16,0.151355651525188,1
476,526,16,0.0672265010133768,1
477,516,16,0.066598200085048,1
477,517,16,0.0577073943247691,1
477,521,16,0.0782486130640455,1
477,522,16,0.132363045057409,1
477,523,16,0.17667847815251,1
477,524,16,0.177332554591718,1
477,525,16,0.110521911460466,1
477,526,16,0.0571526517864464,1
478,515,16,0.0691694414506351,1
478,516,16,0.0944183853564245,1
478,517,16,0.0788863137096799,1
478,521,16,0.0735803384049192,1
478,522,16,0.109873448905118,1
478,523,16,0.121631256897647,1
478,524,16,0.10373796918742,1
478,525,16,0.0672846389135748,1
479,515,16,0.0670932361379762,1
479,516,16,0.0883055793608343,1
479,517,16,0.0716903347695755,1
479,522,16,0.0747237190744583,1
479,523,16,0.0777634838649901,1
479,524,16,0.0629792263652895,1
479,531,16,0.0605463684162705,1
480,530,16,0.075655753528043,1
480,531,16,0.0799768755160409,1
481,530,16,0.0585749811557487,1
481,531,16,0.0581123251829489,1
427,513,17,0.0752558232722942,1
427,514,17,0.0919803793815538,1
427,515,17,0.0670494513820203,1
428,513,17,0.0656120612360565,1
428,514,17,0.0816052025795938,1
428,515,17,0.0609749931666296,1
441,508,17,0.0568618030681621,1
441,509,17,0.0637624280302448,1
442,508,17,0.0640348311301277,1
442,509,17,0.0749700164349988,1
455,505,17,0.0638565549359107,1
456,504,17,0.0636437875581804,1
456,505,17,0.0865527030945143,1
456,506,17,0.0578627727132788,1
457,505,17,0.059480426321171,1
460,502,17,0.0609080157581248,1
460,503,17,0.0580323037501782,1
461,502,17,0.0731830381829962,1
461,503,17,0.0638808621095202,1
462,502,17,0.0660492424417545,1
474,523,17,0.0765251625125027,1
474,524,17,0.0913089010817624,1
474,525,17,0.0723945587595789,1
474,537,17,0.0613252417295933,1
474,538,17,0.0674637111942637,1
475,522,17,0.0945411536842693,1
475,523,17,0.156417546717656,1
475,524,17,0.188064672979943,1
475,525,17,0.133629129188488,1
475,526,17,0.0746865447846877,1
475,538,17,0.0606365325803873,1
476,521,17,0.0685780671407301,1
476,522,17,0.130464832886,1
476,523,17,0.207864381397646,1
476,524,17,0.2424419668294,1
476,525,17,0.165781174769828,1
476,526,17,0.0843835502635553,1
477,515,17,0.0626103670696932,1
477,516,17,0.0809753389630053,1
477,517,17,0.0670751561296583,1
477,521,17,0.0782267767069674,1
477,522,17,0.130805227667522,1
477,523,17,0.175701862856497,1
477,524,17,0.185147021957268,1
477,525,17,0.12381096524553,1
477,526,17,0.0681932802187584,1
478,515,17,0.0851903573666375,1
478,516,17,0.117921199091626,1
478,517,17,0.0935776649696383,1
478,521,17,0.076895295546454,1
478,522,17,0.113574012642844,1
478,523,17,0.126519864704455,1
478,524,17,0.113006550411781,1
478,525,17,0.0755994672660093,1
479,515,17,0.0792472062436201,1
479,516,17,0.107609013368875,1
479,517,17,0.0834470105502333,1
479,521,17,0.0584459679718019,1
479,522,17,0.0767754167176555,1
479,523,17,0.0783407173203791,1
479,524,17,0.0646852927470602,1
479,531,17,0.057217423740577,1
480,516,17,0.0621117574730465,1
480,530,17,0.065370835241189,1
480,531,17,0.0735329624144343,1
427,513,18,0.0592192568859475,1
427,514,18,0.0717484254942789,1
428,514,18,0.0657853545186529,1
442,509,18,0.0570819593077392,1
456,505,18,0.0659176640902871,1
461,502,18,0.0719363844587692,1
461,503,18,0.0596338528235902,1
462,501,18,0.0580080850306211,1
462,502,18,0.0756192279013236,1
462,503,18,0.0603414616553334,1
463,502,18,0.0609505621573467,1
463,544,18,0.0712008831158244,1
474,523,18,0.07556911573215,1
474,524,18,0.0873433172090638,1
474,525,18,0.0722076258620968,1
475,522,18,0.087144195343156,1
475,523,18,0.139449276106188,1
475,524,18,0.166760691358761,1
475,525,18,0.131111856588761,1
475,526,18,0.0787721313218583,1
476,516,18,0.0580789485204963,1
476,521,18,0.0687021917640455,1
476,522,18,0.120010236138825,1
476,523,18,0.188081325929548,1
476,524,18,0.221124917596205,1
476,525,18,0.166787817268175,1
476,526,18,0.0899196122495135,1
477,515,18,0.0700972124188924,1
477,516,18,0.0897386411551656,1
477,517,18,0.072367816151059,1
477,521,18,0.0774060528329687,1
477,522,18,0.12395207894385,1
477,523,18,0.16951812260779,1
477,524,18,0.182586241757616,1
477,525,18,0.131610749238375,1
477,526,18,0.0732357391074378,1
478,515,18,0.0881340197776657,1
478,516,18,0.120387710859129,1
478,517,18,0.0937260142094477,1
478,518,18,0.0569344592268333,1
478,521,18,0.0764166942564685,1
478,522,18,0.110313702414904,1
478,523,18,0.127343938038573,1
478,524,18,0.118460049385195,1
478,525,18,0.0809560736703846,1
479,515,18,0.0777891768187545,1
479,516,18,0.105891860745865,1
479,517,18,0.0819271163610937,1
479,521,18,0.0593180128870242,1
479,522,18,0.075021213640549,1
479,523,18,0.0767907369595375,1
479,524,18,0.0648021110656444,1
480,516,18,0.0570466307591962,1
432,533,19,0.0612522848271438,1
439,504,19,0.0594890889213729,1
461,502,19,0.0618864355168071,1
461,503,19,0.056941164044008,1
462,501,19,0.0577870737352038,1
462,502,19,0.0726350594312164,1
462,503,19,0.0649023530948021,1
463,502,19,0.0620704140489378,1
463,544,19,0.0724097551657874,1
463,545,19,0.0872564140510135,1
464,544,19,0.0833423517153906,1
474,523,19,0.0679868402542457,1
474,524,19,0.0755866473253429,1
474,525,19,0.0644166224081901,1
475,522,19,0.080253241357473,1
475,523,19,0.117702410941394,1
475,524,19,0.134123799631333,1
475,525,19,0.111380069089455,1
475,526,19,0.0731962414245565,1
476,516,19,0.0614560298915256,1
476,521,19,0.0691476109904939,1
476,522,19,0.114411448435816,1
476,523,19,0.164559765832167,1
476,524,19,0.182191654126634,1
476,525,19,0.14294929681623,1
476,526,19,0.0830580839786076,1
477,515,19,0.0678344457157716,1
477,516,19,0.0848784447899997,1
477,517,19,0.0701832605211024,1
477,521,19,0.0780867598388976,1
477,522,19,0.122724926389717,1
477,523,19,0.161617489201293,1
477,524,19,0.164788248546547,1
477,525,19,0.121090861606629,1
477,526,19,0.0703272519245951,1
478,515,19,0.0778825842981272,1
478,516,19,0.102613022342409,1
478,517,19,0.0822846004655467,1
478,521,19,0.0748988934799032,1
478,522,19,0.105499230897911,1
478,523,19,0.122501043286064,1
478,524,19,0.112228626505287,1
478,525,19,0.0784249491660458,1
479,515,19,0.0672912965552548,1
479,516,19,0.0895700949067166,1
479,517,19,0.0728218390083409,1
479,521,19,0.0590898957827278,1
479,522,19,0.0711262278955682,1
479,523,19,0.0727999790635155,1
479,524,19,0.0623892437324761,1
431,533,20,0.0626002538230313,1
432,533,20,0.0733591266136496,1
432,534,20,0.0605147962164876,1
434,506,20,0.0601263649875556,1
435,506,20,0.0580686288810454,1
439,504,20,0.0642545922749373,1
441,540,20,0.0588718093679776,1
461,503,20,0.0620556599129914,1
461,504,20,0.0580625432422378,1
462,502,20,0.0652134401002838,1
462,503,20,0.0732139086472965,1
462,504,20,0.0656012226661646,1
463,502,20,0.0604498591481257,1
463,503,20,0.0612742980923268,1
463,544,20,0.0634672450633911,1
463,545,20,0.0793014875471319,1
464,544,20,0.0766350342395023,1
464,545,20,0.0938534293235138,1
473,515,20,0.0621819133305022,1
474,515,20,0.063176425829791,1
474,523,20,0.0628968225700398,1
474,524,20,0.0675134400625434,1
474,525,20,0.0572808511931107,1
475,522,20,0.0793910266359447,1
475,523,20,0.10590728713261,1
475,524,20,0.111022915213465,1
475,525,20,0.0890360152350429,1
475,526,20,0.0610167198916322,1
476,515,20,0.0580430007935862,1
476,516,20,0.0662665504608433,1
476,517,20,0.0592830735363119,1
476,521,20,0.0722050194160183,1
476,522,20,0.117998319231477,1
476,523,20,0.151478732390685,1
476,524,20,0.149790486552012,1
476,525,20,0.111841987945152,1
476,526,20,0.0688025340411293,1
477,515,20,0.0651972412148143,1
477,516,20,0.0777563957469216,1
477,517,20,0.0663532767107887,1
477,521,20,0.0852438013051195,1
477,522,20,0.134198336912853,1
477,523,20,0.161533410675984,1
477,524,20,0.147227135287902,1
477,525,20,0.102121312161852,1
477,526,20,0.0616883279240339,1
478,515,20,0.0660289982576203,1
478,516,20,0.0812514099575958,1
478,517,20,0.0693150073362612,1
478,521,20,0.0803823076138512,1
478,522,20,0.110708950502811,1
478,523,20,0.121504814778158,1
478,524,20,0.10392154083091,1
478,525,20,0.0714227081885242,1
479,516,20,0.0698995294055708,1
479,517,20,0.0620447093012998,1
479,521,20,0.0632374650229089,1
479,522,20,0.071903579799189,1
479,523,20,0.0701850649837721,1
479,524,20,0.0592353673173646,1
431,533,21,0.0597775847618623,1
432,533,21,0.075940227657615,1
432,534,21,0.0616452508004974,1
434,506,21,0.060027361315132,1
435,505,21,0.0750357554867695,1
435,506,21,0.0570364703370397,1
436,505,21,0.066059267234364,1
437,505,21,0.0572342889799082,1
439,504,21,0.0644259100836959,1
440,503,21,0.063777117299886,1
440,504,21,0.05917069561116,1
441,503,21,0.0649786181788127,1
442,503,21,0.0576238583176483,1
461,503,21,0.0665290113252323,1
461,504,21,0.0656538174457432,1
462,502,21,0.0590535057855555,1
462,503,21,0.0766808888202852,1
462,504,21,0.0757688272917407,1
463,502,21,0.0568520436377099,1
463,503,21,0.064389195754998,1
463,504,21,0.0613218804756007,1
463,545,21,0.0623858824784835,1
464,544,21,0.0628508146688993,1
464,545,21,0.0768088051739818,1
473,515,21,0.0620870493077326,1
474,515,21,0.0653437388164593,1
474,516,21,0.0583798338252637,1
474,524,21,0.0594042496912128,1
475,515,21,0.0574999106024377,1
475,516,21,0.0586744506861817,1
475,522,21,0.0768699623058363,1
475,523,21,0.0950919275841061,1
475,524,21,0.0926191355788806,1
475,525,21,0.0704422009142045,1
476,516,21,0.063084958442635,1
476,517,21,0.0569236796263097,1
476,521,21,0.0744119775089886,1
476,522,21,0.118425623067987,1
476,523,21,0.137679617157652,1
476,524,21,0.12207211189499,1
476,525,21,0.0836223205852252,1
477,516,21,0.0637674876020441,1
477,517,21,0.0569585541107169,1
477,520,21,0.0573620461163104,1
477,521,21,0.0940538897940818,1
477,522,21,0.143700118401056,1
477,523,21,0.155344268833142,1
477,524,21,0.127608073633022,1
477,525,21,0.0811667240477933,1
478,516,21,0.0614468070823249,1
478,520,21,0.0613807967714601,1
478,521,21,0.089629081965818,1
478,522,21,0.117454951884298,1
478,523,21,0.116626703518905,1
478,524,21,0.0943317475605316,1
478,525,21,0.0633652044685006,1
479,521,21,0.0704674280099593,1
479,522,21,0.0750783903400438,1
479,523,21,0.067313303923501,1
479,524,21,0.0575021219537486,1
432,533,22,0.0669797201040163,1
434,506,22,0.0619458353614865,1
434,539,22,0.11368606623647,1
435,505,22,0.0756923852996252,1
435,506,22,0.0571231906900482,1
435,538,22,0.0583942164541898,1
435,539,22,0.0870345594936296,1
436,505,22,0.0667290177316645,1
437,505,22,0.0579843439629472,1
438,504,22,0.0584701925882958,1
439,504,22,0.0618578530639965,1
440,503,22,0.0628039635057922,1
440,504,22,0.0585963339640068,1
441,503,22,0.0642339824807196,1
442,503,22,0.0571494084711903,1
453,549,22,0.0669589392986306,1
454,549,22,0.0682684602663925,1
461,503,22,0.069533724723252,1
461,504,22,0.0673493283105899,1
462,503,22,0.0774437401562433,1
462,504,22,0.0795644437542145,1
463,503,22,0.0657320815913389,1
463,504,22,0.0672938499289018,1
473,515,22,0.0612713201392281,1
474,515,22,0.0656581222096285,1
474,516,22,0.0609395230916026,1
475,515,22,0.0641710857525006,1
475,516,22,0.0654445233638052,1
475,521,22,0.0588475316790523,1
475,522,22,0.0766705986655185,1
475,523,22,0.0840573494089807,1
475,524,22,0.0753960111515321,1
476,516,22,0.0609911389796676,1
476,521,22,0.0797869469746497,1
476,522,22,0.112896372044066,1
476,523,22,0.119262433785655,1
476,524,22,0.0960991951577563,1
476,525,22,0.0643221004077567,1
477,520,22,0.0630041998927607,1
477,521,22,0.0988738749470101,1
477,522,22,0.135670790245202,1
477,523,22,0.135144429663838,1
477,524,22,0.10215222390471,1
477,525,22,0.0646822381337827,1
478,520,22,0.0675092296496474,1
478,521,22,0.0953616004022371,1
478,522,22,0.1123944129873,1
478,523,22,0.102730241652697,1
478,524,22,0.0787032374088841,1
479,520,22,0.0599695654372701,1
479,521,22,0.0747507034573882,1
479,522,22,0.0743140293882574,1
479,523,22,0.0623943799644542,1
433,506,23,0.0646749966953566,1
433,539,23,0.0974073775208579,1
434,505,23,0.081557372524973,1
434,506,23,0.0644481887110362,1
434,538,23,0.081951223038851,1
434,539,23,0.122441897009668,1
434,540,23,0.125342541266528,1
435,505,23,0.075686081474155,1
435,506,23,0.0584743322379498,1
435,538,23,0.0636362866545338,1
435,539,23,0.0939562895926236,1
435,540,23,0.0960068196423286,1
436,505,23,0.067337074475859,1
436,539,23,0.0657557931743286,1
436,540,23,0.0609498014524957,1
437,505,23,0.0582931488538761,1
437,539,23,0.0632482210356851,1
438,539,23,0.0618908582194289,1
439,504,23,0.0571285274178785,1
440,503,23,0.0610764145831531,1
441,503,23,0.0611795991837885,1
453,549,23,0.0652622372525445,1
453,550,23,0.125217927197456,1
454,549,23,0.0669015738971572,1
454,550,23,0.12712053848374,1
460,502,23,0.0606065171719272,1
460,503,23,0.061508046771295,1
461,502,23,0.064144160338939,1
461,503,23,0.069276506235704,1
461,504,23,0.0622106078251125,1
462,502,23,0.0606650501668927,1
462,503,23,0.0710856805579314,1
462,504,23,0.0708533707315494,1
463,503,23,0.0608970474556227,1
463,504,23,0.0639990485174488,1
464,503,23,0.0582410553139279,1
464,504,23,0.0632105985787156,1
465,503,23,0.0577799030600196,1
465,504,23,0.0660816696973777,1
465,505,23,0.0618064730534046,1
466,504,23,0.0586121141669614,1
466,505,23,0.0575606372579036,1
467,498,23,0.062972238495147,1
468,498,23,0.059819276105244,1
472,515,23,0.0631917578655466,1
472,516,23,0.0607772747716871,1
473,515,23,0.0623472398514425,1
473,516,23,0.0578813775489745,1
474,515,23,0.0654141305513881,1
474,516,23,0.0624904115807159,1
475,515,23,0.0690992796962426,1
475,516,23,0.0705943890598896,1
475,521,23,0.0740399220736309,1
475,522,23,0.0812180450890169,1
475,523,23,0.073729118121117,1
475,524,23,0.0601446690794731,1
476,516,23,0.0598861650596963,1
476,520,23,0.0618308745780034,1
476,521,23,0.089186652486342,1
476,522,23,0.1052536588606,1
476,523,23,0.0978516527415614,1
476,524,23,0.0734426803115809,1
477,520,23,0.0635868054576009,1
477,521,23,0.094080001430361,1
477,522,23,0.113080462617997,1
477,523,23,0.106305011933985,1
477,524,23,0.0775888401838599,1
478,520,23,0.065302035679204,1
478,521,23,0.088226648861377,1
478,522,23,0.095538119309279,1
478,523,23,0.0852716171561423,1
478,524,23,0.0647393617608461,1
479,520,23,0.0589021550049001,1
479,521,23,0.0722905367939138,1
479,522,23,0.0712888182378198,1
479,523,23,0.061062928288625,1
433,506,24,0.063500509684044,1
433,538,24,0.0597590860710295,1
433,539,24,0.0832643175503313,1
434,505,24,0.0775845059352905,1
434,506,24,0.061985114857705,1
434,538,24,0.0731363816188045,1
434,539,24,0.107059654733877,1
434,540,24,0.111665362893247,1
435,505,24,0.0721339731211015,1
435,538,24,0.0628569179985174,1
435,539,24,0.0872804558624657,1
435,540,24,0.0872059244778828,1
436,505,24,0.0654575025217661,1
436,538,24,0.0581908311029546,1
436,539,24,0.0743587517571692,1
436,540,24,0.0627673848066413,1
437,504,24,0.0577915554071939,1
437,505,24,0.0572124290350828,1
437,538,24,0.0646080428745991,1
437,539,24,0.0851429459945316,1
437,540,24,0.0634396945745256,1
438,539,24,0.0788186581534398,1
438,540,24,0.0596698949014896,1
440,503,24,0.0588167673596149,1
441,503,24,0.0573985894338403,1
453,550,24,0.0962508525791267,1
454,550,24,0.0957057751202668,1
455,550,24,0.060912597678041,1
458,502,24,0.0587729708097853,1
458,503,24,0.0583294209123118,1
459,503,24,0.0570805263520898,1
460,502,24,0.0647205210476772,1
460,503,24,0.0657562177537803,1
461,501,24,0.0602457543705973,1
461,502,24,0.0727323647858332,1
461,503,24,0.0733453395753432,1
461,504,24,0.0590680417348392,1
462,501,24,0.0619155545908691,1
462,502,24,0.0714323319894293,1
462,503,24,0.0720600019455174,1
462,504,24,0.0654275873612321,1
463,501,24,0.0603719783034239,1
463,502,24,0.0626030725588356,1
463,503,24,0.0626144831315999,1
463,504,24,0.0640902623363211,1
463,505,24,0.0610221922490096,1
464,500,24,0.0580684224882564,1
464,503,24,0.0631087289949931,1
464,504,24,0.0706143325002456,1
464,505,24,0.0658720394900404,1
465,499,24,0.0573892545828398,1
465,503,24,0.0706893002581537,1
465,504,24,0.0857327340284297,1
465,505,24,0.0753141439775339,1
465,506,24,0.0609406788912211,1
465,507,24,0.0589274115853391,1
466,498,24,0.0626804757516542,1
466,499,24,0.0596438894100733,1
466,503,24,0.0667397914352512,1
466,504,24,0.0821924608275922,1
466,505,24,0.0728652168756557,1
467,497,24,0.0605989926805333,1
467,498,24,0.0754661375243036,1
467,499,24,0.0654745328753285,1
467,504,24,0.0614357267380231,1
467,505,24,0.0608329418553537,1
468,498,24,0.0693557138911924,1
468,499,24,0.0610423361852178,1
472,515,24,0.0682678057064044,1
472,516,24,0.0645886950248629,1
473,514,24,0.0574992678363233,1
473,515,24,0.0677937804393982,1
473,516,24,0.0624948637680219,1
474,515,24,0.068065841516945,1
474,516,24,0.0648818258577,1
474,520,24,0.0608037991935444,1
474,521,24,0.0719314015471487,1
474,522,24,0.0597816713390849,1
475,515,24,0.0700103859210209,1
475,516,24,0.0715538206819822,1
475,520,24,0.094840889086355,1
475,521,24,0.122004391472444,1
475,522,24,0.102192936356578,1
475,523,24,0.0678055979008037,1
476,516,24,0.0590952266136213,1
476,520,24,0.0957071962820427,1
476,521,24,0.12739670382932,1
476,522,24,0.113581643279101,1
476,523,24,0.080515047661874,1
477,520,24,0.0724353655624362,1
477,521,24,0.0975793204049205,1
477,522,24,0.096406278143131,1
477,523,24,0.0780838703398513,1
477,524,24,0.0569462295127441,1
478,520,24,0.0594478221574429,1
478,521,24,0.0739667116028978,1
478,522,24,0.0752703061491465,1
478,523,24,0.0654966463884376,1
479,521,24,0.0628934318313631,1
479,522,24,0.0635106170337691,1
479,523,24,0.0570736623176207,1
486,517,24,0.0628455074257531,1
433,506,25,0.0576895678847348,1
433,539,25,0.060623535731616,1
434,538,25,0.0598284517389501,1
434,539,25,0.0783554478685781,1
435,505,25,0.0641579532741822,1
435,538,25,0.0610348293846344,1
435,539,25,0.0708913293139183,1
435,540,25,0.0684416061255681,1
436,504,25,0.0604966395479908,1
436,505,25,0.0604798745565857,1
436,538,25,0.0607128448398925,1
436,539,25,0.0702600681233013,1
437,504,25,0.0575036551573241,1
437,538,25,0.0683578460348478,1
437,539,25,0.0916863109357609,1
437,540,25,0.0665374557387716,1
438,538,25,0.0604412496203552,1
438,539,25,0.087470036484584,1
438,540,25,0.0645275143052611,1
453,550,25,0.063042382558729,1
453,551,25,0.0659976914199946,1
454,550,25,0.0609312202045473,1
454,551,25,0.0632290913726116,1
457,502,25,0.061722341455664,1
457,503,25,0.0576187574672911,1
458,502,25,0.0662956931226526,1
458,503,25,0.0636094261072773,1
459,502,25,0.0584765966616922,1
459,503,25,0.0590084885698022,1
460,502,25,0.0617962654557535,1
460,503,25,0.0652560277780635,1
461,501,25,0.0608411562883566,1
461,502,25,0.0717925581695078,1
461,503,25,0.0745616417657108,1
461,504,25,0.0577174544989996,1
462,500,25,0.0633783959161873,1
462,501,25,0.0748686362970331,1
462,502,25,0.0753800835251568,1
462,503,25,0.0725825766934375,1
462,504,25,0.0658872653809332,1
462,505,25,0.0592477272969583,1
463,500,25,0.0755783798199085,1
463,501,25,0.0841078330851745,1
463,502,25,0.073837214870131,1
463,503,25,0.0674508676658499,1
463,504,25,0.073991407974338,1
463,505,25,0.074920706249234,1
464,499,25,0.0605002661641407,1
464,500,25,0.0718067108178976,1
464,501,25,0.0746447649872537,1
464,502,25,0.0677664363433217,1
464,503,25,0.0701654576688154,1
464,504,25,0.0831947808712427,1
464,505,25,0.0794355190243202,1
464,506,25,0.0616039899335043,1
465,499,25,0.0599138334872984,1
465,500,25,0.0585102150985548,1
465,502,25,0.0587147208677876,1
465,503,25,0.0781291411238882,1
465,504,25,0.0972883832325838,1
465,505,25,0.084236097358144,1
465,506,25,0.0629457966304054,1
465,507,25,0.0583155631107634,1
466,498,25,0.0658124214586984,1
466,499,25,0.0649137459767559,1
466,503,25,0.0763381706456523,1
466,504,25,0.0955918345068552,1
466,505,25,0.0813586516507696,1
466,506,25,0.0589116608670686,1
467,497,25,0.0640880038095155,1
467,498,25,0.0776922783527789,1
467,499,25,0.0716106022867094,1
467,503,25,0.0593934523998787,1
467,504,25,0.0676008916357188,1
467,505,25,0.0662680836644188,1
467,506,25,0.0591474970616743,1
468,497,25,0.059347279384507,1
468,498,25,0.0707595445696618,1
468,499,25,0.065994607322033,1
468,502,25,0.0594904039382858,1
468,505,25,0.0611260432035067,1
468,506,25,0.0650647665289488,1
469,506,25,0.059081433678378,1
472,515,25,0.0662478630680319,1
472,516,25,0.062381896149187,1
473,514,25,0.06181525948928,1
473,515,25,0.0715124772578734,1
473,516,25,0.067515834218896,1
473,517,25,0.0579362485461692,1
474,515,25,0.0666522278202761,1
474,516,25,0.0665273130074255,1
474,517,25,0.0610213312962326,1
474,520,25,0.077029167806348,1
474,521,25,0.086310091319492,1
474,522,25,0.0633830780840296,1
475,515,25,0.0625347034732392,1
475,516,25,0.0656818455864919,1
475,517,25,0.0593422669882023,1
475,519,25,0.072569137574404,1
475,520,25,0.128845840673447,1
475,521,25,0.153427870508551,1
475,522,25,0.109463883054591,1
475,523,25,0.0616904920998501,1
476,519,25,0.0703210306562404,1
476,520,25,0.125445313081585,1
476,521,25,0.152134660468058,1
476,522,25,0.113467525757584,1
476,523,25,0.0671302806951366,1
477,519,25,0.056922494342007,1
477,520,25,0.0809182271298155,1
477,521,25,0.0963095447913867,1
477,522,25,0.0815971001883906,1
477,523,25,0.0588484987766923,1
478,521,25,0.0594765166520533,1
478,522,25,0.0587568132028736,1
485,516,25,0.0644106311203718,1
485,517,25,0.0797671804423986,1
485,518,25,0.0603872218851271,1
486,516,25,0.0886413450469457,1
486,517,25,0.11820998388202,1
486,518,25,0.0874822667315676,1
487,516,25,0.0762549825578044,1
487,517,25,0.103716185902773,1
487,518,25,0.0775048029371086,1
421,516,26,0.0569371305392168,1
435,538,26,0.0597852625736138,1
436,538,26,0.0606300105682543,1
436,539,26,0.0604604028711761,1
437,538,26,0.0595289581112744,1
437,539,26,0.0785387718407208,1
437,540,26,0.0586270511079495,1
438,539,26,0.078642033101535,1
438,540,26,0.0603917920111696,1
457,502,26,0.0578507252713369,1
458,502,26,0.0623557904098447,1
458,503,26,0.0601988029595641,1
460,503,26,0.0630040878509609,1
461,501,26,0.0592643448649427,1
461,502,26,0.0667591687696716,1
461,503,26,0.0763281104714219,1
461,504,26,0.064785635024144,1
462,500,26,0.0782917845385713,1
462,501,26,0.0879001708507714,1
462,502,26,0.0767978191806692,1
462,503,26,0.0778543733523369,1
462,504,26,0.0777577402485186,1
462,505,26,0.0715765238887742,1
463,499,26,0.0664717992441165,1
463,500,26,0.0991155609029503,1
463,501,26,0.108328592982381,1
463,502,26,0.0855644295543907,1
463,503,26,0.0829040618855687,1
463,504,26,0.0984614549790574,1
463,505,26,0.100642973686547,1
463,506,26,0.0689472507678519,1
464,499,26,0.0647659923275663,1
464,500,26,0.082920302049596,1
464,501,26,0.0884736951328948,1
464,502,26,0.0784619465477115,1
464,503,26,0.0862256766687836,1
464,504,26,0.104305749853072,1
464,505,26,0.100873072161618,1
464,506,26,0.0709310098018412,1
465,499,26,0.0617022329010769,1
465,500,26,0.0608233593330064,1
465,501,26,0.0601949286720674,1
465,502,26,0.0649634866389092,1
465,503,26,0.0840367219239525,1
465,504,26,0.0998859249364287,1
465,505,26,0.08689249638848,1
465,506,26,0.0633217794256912,1
466,497,26,0.0576245659500678,1
466,498,26,0.0662142564250429,1
466,499,26,0.0671059971092744,1
466,500,26,0.0568692508993772,1
466,502,26,0.0579372156438092,1
466,503,26,0.0770121728344066,1
466,504,26,0.0911819223410217,1
466,505,26,0.0783274551094505,1
466,506,26,0.0604926532186944,1
467,497,26,0.0649949644877029,1
467,498,26,0.0743995054875951,1
467,499,26,0.0710780440247377,1
467,500,26,0.0568975561961568,1
467,503,26,0.0581962209032164,1
467,504,26,0.0644186922330171,1
467,505,26,0.0649441800677308,1
467,506,26,0.0627782764489647,1
468,497,26,0.0614001151365122,1
468,498,26,0.0683961584334264,1
468,499,26,0.0651123017367281,1
468,501,26,0.0579580141400054,1
468,502,26,0.0601552540810813,1
468,505,26,0.0658707539578117,1
468,506,26,0.0705073856539132,1
468,510,26,0.0592221345911201,1
469,505,26,0.0616713624367766,1
469,506,26,0.0634079336727642,1
471,540,26,0.0653376531776517,1
472,515,26,0.0614839518874113,1
472,516,26,0.0584673679555546,1
472,540,26,0.058948463649819,1
473,514,26,0.061576810951659,1
473,515,26,0.0690573347845773,1
473,516,26,0.0686708672356094,1
473,517,26,0.0686472794882931,1
473,518,26,0.0607889094280509,1
474,515,26,0.0611509754524201,1
474,516,26,0.065937749057127,1
474,517,26,0.0718896571313355,1
474,518,26,0.0667170410529646,1
474,519,26,0.0629517938151606,1
474,520,26,0.0779538428827699,1
474,521,26,0.0818655346497875,1
474,522,26,0.0588516300501485,1
475,516,26,0.0577922807304238,1
475,517,26,0.0600134091625944,1
475,518,26,0.0586096138657459,1
475,519,26,0.080419853410642,1
475,520,26,0.13316265789756,1
475,521,26,0.146482812127461,1
475,522,26,0.0977210768693549,1
476,519,26,0.078678812296538,1
476,520,26,0.131576547004767,1
476,521,26,0.143987181285896,1
476,522,26,0.0983305547753253,1
477,519,26,0.0637496080895783,1
477,520,26,0.083571884084526,1
477,521,26,0.0861142776351453,1
477,522,26,0.0671328517595941,1
483,516,26,0.0577268719071156,1
485,516,26,0.0677410795149567,1
485,517,26,0.095639316642203,1
485,518,26,0.075445905134043,1
486,516,26,0.103860483946981,1
486,517,26,0.162608917602621,1
486,518,26,0.12803182751356,1
486,519,26,0.0593874198335026,1
487,516,26,0.0890317812343997,1
487,517,26,0.142480997474884,1
487,518,26,0.112398104469755,1
488,517,26,0.0655942465898958,1
436,538,27,0.0569408043308614,1
437,539,27,0.0574410178943256,1
438,539,27,0.0593656365488559,1
460,503,27,0.0591823066797764,1
461,501,27,0.0584412209376545,1
461,502,27,0.0613435163368266,1
461,503,27,0.0721530261239963,1
461,504,27,0.0704456506222495,1
462,500,27,0.0862887562020443,1
462,501,27,0.0935003266431248,1
462,502,27,0.076165909327001,1
462,503,27,0.0779469670544272,1
462,504,27,0.0863248159707542,1
462,505,27,0.0816482914970039,1
462,506,27,0.0579195484210692,1
463,499,27,0.0690822611365539,1
463,500,27,0.108656097059995,1
463,501,27,0.117298458974727,1
463,502,27,0.0939370655785607,1
463,503,27,0.0973217127195418,1
463,504,27,0.119425719966453,1
463,505,27,0.123133808195572,1
463,506,27,0.0870589787090388,1
464,499,27,0.062983312942512,1
464,500,27,0.0841296281636948,1
464,501,27,0.090525669932123,1
464,502,27,0.0858155152276364,1
464,503,27,0.101360312464058,1
464,504,27,0.120658521786068,1
464,505,27,0.117962807877892,1
464,506,27,0.083787458404187,1
465,499,27,0.0605299513441383,1
465,500,27,0.0627716306011583,1
465,501,27,0.063227522787415,1
465,502,27,0.070217156113996,1
465,503,27,0.0873373613028664,1
465,504,27,0.0964645811575602,1
465,505,27,0.0860008677460483,1
465,506,27,0.065439841195963,1
466,497,27,0.0573342007806035,1
466,498,27,0.0615197168092798,1
466,499,27,0.0632811495309388,1
466,500,27,0.0580576310938591,1
466,502,27,0.0595380040123702,1
466,503,27,0.0720438266477952,1
466,504,27,0.0787762178990809,1
466,505,27,0.0711111848097172,1
466,506,27,0.061888817879286,1
467,496,27,0.0570574398444039,1
467,497,27,0.0621065563747633,1
467,498,27,0.0657093901784205,1
467,499,27,0.0633052562086961,1
467,503,27,0.0575691170530638,1
467,504,27,0.0630120428187434,1
467,505,27,0.0654615537173676,1
467,506,27,0.0667181260893411,1
467,507,27,0.0568764215745614,1
468,496,27,0.0591295467859666,1
468,497,27,0.0608470591221225,1
468,498,27,0.0627643066056165,1
468,499,27,0.0590390111148296,1
468,504,27,0.0571427390356367,1
468,505,27,0.0689694763227608,1
468,506,27,0.0714397385420866,1
468,510,27,0.0574171411971046,1
469,505,27,0.0651255757415304,1
469,506,27,0.0640348842025591,1
471,540,27,0.064984125917811,1
472,515,27,0.057749769712823,1
472,516,27,0.0572580595322663,1
472,540,27,0.0584210003412675,1
473,514,27,0.0579448050015082,1
473,515,27,0.0635136657501097,1
473,516,27,0.0686454927164339,1
473,517,27,0.0760770542828603,1
473,518,27,0.0707396129231795,1
474,515,27,0.0572789582763886,1
474,516,27,0.0660415174545084,1
474,517,27,0.0781700599685453,1
474,518,27,0.0773218032964915,1
474,519,27,0.065785625777747,1
474,520,27,0.0690824026630378,1
474,521,27,0.0668750612691737,1
475,517,27,0.0596226132619939,1
475,518,27,0.0642443964711598,1
475,519,27,0.0787987206100207,1
475,520,27,0.111189562648255,1
475,521,27,0.112188079167651,1
475,522,27,0.0774909628263707,1
476,519,27,0.0804131898720251,1
476,520,27,0.11522570926705,1
476,521,27,0.112914416670763,1
476,522,27,0.0773782074972617,1
477,519,27,0.0691429406165252,1
477,520,27,0.0827120399316031,1
477,521,27,0.0750211959497385,1
477,522,27,0.0572260922377158,1
485,516,27,0.0600991801087735,1
485,517,27,0.09054129681472,1
485,518,27,0.0767855240673806,1
486,516,27,0.0946228970225941,1
486,517,27,0.162589198245864,1
486,518,27,0.139150584461921,1
486,519,27,0.0677076497800726,1
487,516,27,0.081244469262948,1
487,517,27,0.14116521396021,1
487,518,27,0.120489904774377,1
487,519,27,0.0581681102053521,1
488,517,27,0.0649317316340846,1
460,503,28,0.0577788298175167,1
460,504,28,0.060792494765643,1
461,503,28,0.0665872789580405,1
461,504,28,0.0748173801221147,1
461,505,28,0.0625389138861352,1
462,500,28,0.0823798006137154,1
462,501,28,0.0897452339305405,1
462,502,28,0.0743283412539416,1
462,503,28,0.0785413429051783,1
462,504,28,0.0944761104710445,1
462,505,28,0.0921181848983127,1
462,506,28,0.0712844191229453,1
463,499,28,0.0639766047758772,1
463,500,28,0.0992344077678037,1
463,501,28,0.109790254920333,1
463,502,28,0.096931547791182,1
463,503,28,0.108396820541494,1
463,504,28,0.135474551981404,1
463,505,28,0.140662582652646,1
463,506,28,0.107779387667741,1
463,507,28,0.0587497132909314,1
464,499,28,0.0589219392279617,1
464,500,28,0.0776449318469782,1
464,501,28,0.0849108189731914,1
464,502,28,0.0904280048643596,1
464,503,28,0.113947618972588,1
464,504,28,0.136084519333131,1
464,505,28,0.133576752595572,1
464,506,28,0.100305951952891,1
464,507,28,0.0570867004449498,1
465,499,28,0.0586771927618072,1
465,500,28,0.0640134311463749,1
465,501,28,0.0644978173313898,1
465,502,28,0.0737270777809742,1
465,503,28,0.0915478213743297,1
465,504,28,0.09909376582443,1
465,505,28,0.0901432594756934,1
465,506,28,0.0705767867034547,1
466,498,28,0.0571991196486596,1
466,499,28,0.0597325970307932,1
466,500,28,0.0602606087544698,1
466,501,28,0.0570276897981011,1
466,502,28,0.0608446708627068,1
466,503,28,0.0691345787601016,1
466,504,28,0.0742651909574389,1
466,505,28,0.0726991532376117,1
466,506,28,0.0657419825482749,1
467,496,28,0.0574654901821663,1
467,497,28,0.0606443342278122,1
467,498,28,0.0596498040377128,1
467,499,28,0.0579813247312907,1
467,503,28,0.0596776139917988,1
467,504,28,0.0715357170859169,1
467,505,28,0.0814804057054798,1
467,506,28,0.0789198849710479,1
467,507,28,0.0594787751788588,1
468,496,28,0.0594192279107587,1
468,497,28,0.0605637525860427,1
468,498,28,0.0585005854007129,1
468,504,28,0.0706631945188114,1
468,505,28,0.0853058783591193,1
468,506,28,0.0806231562047617,1
468,507,28,0.0590061887644389,1
469,504,28,0.0620553945508341,1
469,505,28,0.0722048896834081,1
469,506,28,0.0670846855795741,1
471,514,28,0.057515737980887,1
472,514,28,0.0570149170329293,1
472,515,28,0.0584035572021271,1
472,516,28,0.0595588084055032,1
472,517,28,0.0593181721043186,1
473,515,28,0.0611084467440087,1
473,516,28,0.0694512088862026,1
473,517,28,0.0786171598219899,1
473,518,28,0.0728694980517936,1
474,516,28,0.0660582942397872,1
474,517,28,0.0787513269287253,1
474,518,28,0.0786384831455639,1
474,519,28,0.0638665089652782,1
474,520,28,0.0571536837503914,1
475,517,28,0.0598720065143697,1
475,518,28,0.0662047092843166,1
475,519,28,0.0729899370895909,1
475,520,28,0.0830771015998814,1
475,521,28,0.0781405634905262,1
475,522,28,0.0594158312751451,1
476,518,28,0.0575879459723591,1
476,519,28,0.0783422976994493,1
476,520,28,0.0932225573307275,1
476,521,28,0.0831187103861475,1
476,522,28,0.0597026700763856,1
477,515,28,0.0583713717209139,1
477,519,28,0.0710491077557174,1
477,520,28,0.0788369858331046,1
477,521,28,0.0665844956038572,1
478,514,28,0.057339944397075,1
478,515,28,0.056846453341596,1
485,517,28,0.0705494308135046,1
485,518,28,0.0664165154613438,1
486,516,28,0.0702857021076973,1
486,517,28,0.12389833426159,1
486,518,28,0.117759222030805,1
486,519,28,0.0631451897554073,1
487,517,28,0.108408638002899,1
487,518,28,0.10278115580528,1
423,514,29,0.0632735778640502,1
460,503,29,0.0597045276114868,1
460,504,29,0.063730849933525,1
461,503,29,0.0645544279249491,1
461,504,29,0.0759862945281238,1
461,505,29,0.0688696293883707,1
462,500,29,0.0717355288934337,1
462,501,29,0.0813266430776613,1
462,502,29,0.0726092780233996,1
462,503,29,0.0800750831019926,1
462,504,29,0.0990093452767848,1
462,505,29,0.100231391083624,1
462,506,29,0.0838271506859836,1
463,499,29,0.0572358221834838,1
463,500,29,0.0816028320109885,1
463,501,29,0.0945199895779897,1
463,502,29,0.0920825084304968,1
463,503,29,0.109687223640056,1
463,504,29,0.137648445949573,1
463,505,29,0.14489329280518,1
463,506,29,0.122543312529255,1
463,507,29,0.0754062718216147,1
464,500,29,0.0698581270120938,1
464,501,29,0.0788346447491835,1
464,502,29,0.0896057241990379,1
464,503,29,0.118567066994769,1
464,504,29,0.143800696555613,1
464,505,29,0.143020378492767,1
464,506,29,0.117535680949488,1
464,507,29,0.0732049040247585,1
465,499,29,0.0572103415194453,1
465,500,29,0.0633357433721025,1
465,501,29,0.0656530744317028,1
465,502,29,0.0757180015932108,1
465,503,29,0.09792167296947,1
465,504,29,0.109928278623755,1
465,505,29,0.103251011937948,1
465,506,29,0.0848341175158554,1
465,507,29,0.0598025818770809,1
466,500,29,0.060066074705415,1
466,501,29,0.0585562465874427,1
466,502,29,0.0615485469334372,1
466,503,29,0.0711538432507388,1
466,504,29,0.0788883658436964,1
466,505,29,0.0815348226385386,1
466,506,29,0.0709952215469732,1
467,497,29,0.0600304100314727,1
467,503,29,0.0612666910438173,1
467,504,29,0.078562984663341,1
467,505,29,0.098133897829012,1
467,506,29,0.0889245749228468,1
467,507,29,0.0606416982970496,1
468,496,29,0.0571649174150509,1
468,497,29,0.0594142449991381,1
468,503,29,0.0582681576355944,1
468,504,29,0.0801216276243846,1
468,505,29,0.102645160648127,1
468,506,29,0.0916163968527152,1
468,507,29,0.0609352949878962,1
469,504,29,0.0649710642027346,1
469,505,29,0.0765980781363944,1
469,506,29,0.0699228399968562,1
469,515,29,0.066463602501924,1
469,516,29,0.0590248938480608,1
470,515,29,0.0633921888514305,1
470,516,29,0.060462443211319,1
471,514,29,0.0592015896632075,1
471,515,29,0.0602108975770006,1
471,516,29,0.0611275646132086,1
472,514,29,0.0581188059165241,1
472,515,29,0.0589856143518422,1
472,516,29,0.0622667643545359,1
472,517,29,0.062024759964007,1
473,515,29,0.0590853905229904,1
473,516,29,0.0661784620184903,1
473,517,29,0.0716420447538821,1
473,518,29,0.0657845407413704,1
474,516,29,0.0607210533759586,1
474,517,29,0.0692989735650229,1
474,518,29,0.0688894430961164,1
474,519,29,0.0587249638470597,1
475,517,29,0.0582590114865725,1
475,518,29,0.0631618014264549,1
475,519,29,0.0638672991548133,1
475,520,29,0.0606067471524636,1
476,518,29,0.0588152754345972,1
476,519,29,0.0691984189982133,1
476,520,29,0.0691637509065951,1
476,521,29,0.0597798786702889,1
477,514,29,0.0605554202143032,1
477,515,29,0.0582701331094321,1
477,519,29,0.0642638327749485,1
477,520,29,0.0648043813863236,1
478,514,29,0.0673207694455266,1
478,515,29,0.0623452820684152,1
486,517,29,0.0780554353104615,1
486,518,29,0.0824419366370835,1
429,541,30,0.0707497261698414,1
451,553,30,0.0611900426589128,1
459,503,30,0.0585141542523566,1
460,503,30,0.0620838826526554,1
460,504,30,0.0634660126035938,1
461,501,30,0.0635358264387134,1
461,502,30,0.0637792873726391,1
461,503,30,0.0661029045668992,1
461,504,30,0.0756316645410961,1
461,505,30,0.0735714871027387,1
461,506,30,0.0587673746167345,1
462,500,30,0.0622754328516747,1
462,501,30,0.077428915257055,1
462,502,30,0.0754383865395859,1
462,503,30,0.0820466177859352,1
462,504,30,0.102373724645884,1
462,505,30,0.108205476735263,1
462,506,30,0.0926477887949331,1
462,507,30,0.0645810584916692,1
463,500,30,0.0680835795029269,1
463,501,30,0.0835537922823344,1
463,502,30,0.0871813460451792,1
463,503,30,0.10782606781968,1
463,504,30,0.137998452738127,1
463,505,30,0.146435082320766,1
463,506,30,0.128440732907162,1
463,507,30,0.0898009363958281,1
464,500,30,0.0644990144095661,1
464,501,30,0.075296164217142,1
464,502,30,0.0863236778619462,1
464,503,30,0.119055274394849,1
464,504,30,0.150420904480662,1
464,505,30,0.151345897991673,1
464,506,30,0.128692803368859,1
464,507,30,0.0900169529857512,1
465,500,30,0.0608384024188574,1
465,501,30,0.0659784850967423,1
465,502,30,0.0758744060487287,1
465,503,30,0.10357786735251,1
465,504,30,0.123801447589488,1
465,505,30,0.118300100870643,1
465,506,30,0.0973046410874216,1
465,507,30,0.0711712038327636,1
466,497,30,0.0592164027685222,1
466,498,30,0.0589589484035011,1
466,500,30,0.0580274328803574,1
466,501,30,0.0594011243146934,1
466,502,30,0.0622242592338719,1
466,503,30,0.0746838027090622,1
466,504,30,0.0870438471691354,1
466,505,30,0.0921459417799673,1
466,506,30,0.076552064338317,1
467,497,30,0.0626469103872231,1
467,498,30,0.0589315807196773,1
467,503,30,0.0635127045494066,1
467,504,30,0.0840765085567384,1
467,505,30,0.112117528215427,1
467,506,30,0.0976282472897914,1
467,507,30,0.0617931459761709,1
468,497,30,0.0591211967234166,1
468,503,30,0.0641512543539443,1
468,504,30,0.0879382237841295,1
468,505,30,0.11931622564341,1
468,506,30,0.104276725129999,1
468,507,30,0.064292727765411,1
468,514,30,0.0586271159742546,1
468,515,30,0.0747680876271604,1
468,516,30,0.0609450367275378,1
469,503,30,0.0573253612722967,1
469,504,30,0.0658591546830689,1
469,505,30,0.0789700620065266,1
469,506,30,0.0719912082804693,1
469,514,30,0.0644978586099476,1
469,515,30,0.0820852132374815,1
469,516,30,0.0703083286543105,1
470,515,30,0.0686146517368177,1
470,516,30,0.0669200666910533,1
471,514,30,0.0581064282461198,1
471,515,30,0.0648605497096207,1
471,516,30,0.0687737864740875,1
471,517,30,0.0635486640701903,1
472,513,30,0.0570458995390294,1
472,514,30,0.0589891348231292,1
472,515,30,0.0626901172433698,1
472,516,30,0.0654185001815785,1
472,517,30,0.0611364630908837,1
473,513,30,0.0569600637265452,1
473,515,30,0.0576321553077668,1
473,516,30,0.0618819066693223,1
473,517,30,0.0616775070449525,1
474,517,30,0.059633546182875,1
474,518,30,0.0604191479011198,1
475,518,30,0.0605587932621694,1
475,519,30,0.05967826265485,1
476,518,30,0.0585384201474083,1
476,519,30,0.0616590732204248,1
476,520,30,0.0578933896092954,1
477,514,30,0.0605168778351883,1
478,514,30,0.0715863599794051,1
478,515,30,0.0659007221907771,1
429,541,31,0.066583328010365,1
451,553,31,0.0756566557593778,1
459,503,31,0.0580248087434684,1
460,501,31,0.0720995114222723,1
460,502,31,0.0779337107404354,1
460,503,31,0.0699848403906773,1
460,504,31,0.0638799834659326,1
461,500,31,0.0625660810741068,1
461,501,31,0.0930843390283905,1
461,502,31,0.0980693735462282,1
461,503,31,0.0824804200468302,1
461,504,31,0.0798915232523767,1
461,505,31,0.0797872536153648,1
461,506,31,0.0665020446331129,1
462,500,31,0.0642003522499833,1
462,501,31,0.0918582479228866,1
462,502,31,0.0970807992623262,1
462,503,31,0.0925759346196707,1
462,504,31,0.10436048522072,1
462,505,31,0.112898754406545,1
462,506,31,0.100522876671086,1
462,507,31,0.0747576205642887,1
463,500,31,0.0624394089740811,1
463,501,31,0.0804923208673347,1
463,502,31,0.0874681140831778,1
463,503,31,0.10346483486737,1
463,504,31,0.129377532085705,1
463,505,31,0.138290528019272,1
463,506,31,0.126222682676017,1
463,507,31,0.098655823913881,1
463,508,31,0.0634962697864639,1
464,500,31,0.0622709511796846,1
464,501,31,0.0730041781920331,1
464,502,31,0.08134511228381,1
464,503,31,0.109140978587703,1
464,504,31,0.139403999425214,1
464,505,31,0.141984970736569,1
464,506,31,0.126037978820656,1
464,507,31,0.0990311285614314,1
464,508,31,0.065373353233215,1
465,497,31,0.0601973641069778,1
465,498,31,0.0587233775710527,1
465,500,31,0.0593063487459763,1
465,501,31,0.0664129124329412,1
465,502,31,0.0745441927296336,1
465,503,31,0.0993997814642387,1
465,504,31,0.12193947799183,1
465,505,31,0.118796304517063,1
465,506,31,0.10046202028301,1
465,507,31,0.0786409421682216,1
465,508,31,0.0574694942022732,1
466,496,31,0.0579239121543227,1
466,497,31,0.0665926746552391,1
466,498,31,0.0660008934566929,1
466,499,31,0.057419128464816,1
466,501,31,0.0594271946724148,1
466,502,31,0.0628175795329305,1
466,503,31,0.0746444642434754,1
466,504,31,0.088158091073802,1
466,505,31,0.0925808349741757,1
466,506,31,0.0774915171384326,1
466,507,31,0.0581685053001196,1
467,496,31,0.0594939362034464,1
467,497,31,0.0690831043985205,1
467,498,31,0.0667237281793288,1
467,503,31,0.0651937738159588,1
467,504,31,0.0818989702816085,1
467,505,31,0.104526613725069,1
467,506,31,0.0909392633905047,1
467,507,31,0.0590306846400269,1
467,515,31,0.0587171327149507,1
468,497,31,0.0599455236258179,1
468,498,31,0.0574378866208693,1
468,503,31,0.0672046941409828,1
468,504,31,0.084331875406122,1
468,505,31,0.110029788494331,1
468,506,31,0.0979580865543896,1
468,507,31,0.0624286116827471,1
468,514,31,0.0657139779952736,1
468,515,31,0.0859445991748251,1
468,516,31,0.0703087355429517,1
469,503,31,0.060071906775939,1
469,504,31,0.0612255245278134,1
469,505,31,0.0699071187632699,1
469,506,31,0.0654461332275596,1
469,514,31,0.0689977698256667,1
469,515,31,0.0888500022597062,1
469,516,31,0.0756035361524214,1
470,514,31,0.0595857102313175,1
470,515,31,0.0740914907862013,1
470,516,31,0.0712498276915059,1
470,517,31,0.0587060051951542,1
471,515,31,0.0676878596600741,1
471,516,31,0.0727374007698852,1
471,517,31,0.0653232469609782,1
472,515,31,0.0614991541905567,1
472,516,31,0.0676803351686802,1
472,517,31,0.0627499593583114,1
473,516,31,0.0583660290961468,1
473,517,31,0.0580880946695182,1
478,514,31,0.0637254955148842,1
478,515,31,0.0625549594512471,1
451,553,32,0.0759718234451452,1
451,554,32,0.132344457912524,1
452,554,32,0.0866252707991331,1
459,501,32,0.0581041225438197,1
459,502,32,0.0635890403966591,1
459,503,32,0.0605450592962945,1
460,500,32,0.0627458020178469,1
460,501,32,0.100365357694507,1
460,502,32,0.115542068134057,1
460,503,32,0.0965400265673516,1
460,504,32,0.0724523074619461,1
460,505,32,0.0574412006993673,1
461,500,32,0.0752108119534778,1
461,501,32,0.13157897654274,1
461,502,32,0.156271798026989,1
461,503,32,0.127933525576619,1
461,504,32,0.0975272209680355,1
461,505,32,0.0859187057252086,1
461,506,32,0.0727869409361864,1
462,500,32,0.067116293160978,1
462,501,32,0.111409825032695,1
462,502,32,0.135346328986992,1
462,503,32,0.122816104826968,1
462,504,32,0.112783292383431,1
462,505,32,0.113355861361789,1
462,506,32,0.104251203187403,1
462,507,32,0.0814916393701392,1
463,500,32,0.0577098710382373,1
463,501,32,0.0803272891932358,1
463,502,32,0.097048200995535,1
463,503,32,0.106494032347104,1
463,504,32,0.120177567618288,1
463,505,32,0.127166098217682,1
463,506,32,0.120464724854117,1
463,507,32,0.101300800577579,1
463,508,32,0.0723320099506327,1
464,495,32,0.0616237387749449,1
464,496,32,0.0697756288658549,1
464,497,32,0.0659045610966529,1
464,500,32,0.0585897176008846,1
464,501,32,0.0748712486400484,1
464,502,32,0.0883523833484468,1
464,503,32,0.104788685391627,1
464,504,32,0.123800669193826,1
464,505,32,0.127737417045431,1
464,506,32,0.118272031451336,1
464,507,32,0.101368933785702,1
464,508,32,0.0761598236881934,1
465,495,32,0.0726800530592223,1
465,496,32,0.0853007539210148,1
465,497,32,0.0811072888214929,1
465,498,32,0.0678275345058079,1
465,501,32,0.0697766136543053,1
465,502,32,0.0814930841196623,1
465,503,32,0.0956857786074794,1
465,504,32,0.111127302789213,1
465,505,32,0.112798282396851,1
465,506,32,0.100873638267554,1
465,507,32,0.0847283500568889,1
465,508,32,0.0672561508117535,1
466,495,32,0.07211104583071,1
466,496,32,0.085180574348438,1
466,497,32,0.0886572372917001,1
466,498,32,0.078169346439189,1
466,499,32,0.058958052069103,1
466,501,32,0.0578178852301357,1
466,502,32,0.0638849074081849,1
466,503,32,0.0719830528168346,1
466,504,32,0.083424177610831,1
466,505,32,0.089015275708215,1
466,506,32,0.0789552312104015,1
466,507,32,0.0632533454737896,1
467,494,32,0.0618719231552707,1
467,495,32,0.0674074367261037,1
467,496,32,0.0730967247186288,1
467,497,32,0.08002234679593,1
467,498,32,0.0746697738963458,1
467,499,32,0.0574883172246317,1
467,503,32,0.0612269987620207,1
467,504,32,0.0729775417283761,1
467,505,32,0.0858279577643458,1
467,506,32,0.0769811667405592,1
467,515,32,0.0638537303031695,1
468,494,32,0.0667725666101473,1
468,495,32,0.0636345411612323,1
468,496,32,0.0581114406424246,1
468,497,32,0.058622858385864,1
468,503,32,0.0618487128119114,1
468,504,32,0.0697268553013415,1
468,505,32,0.082345173800655,1
468,506,32,0.076028587359062,1
468,514,32,0.0678140541082166,1
468,515,32,0.0887274344277136,1
468,516,32,0.0758706261122213,1
469,494,32,0.0591857740786319,1
469,514,32,0.0773159653290307,1
469,515,32,0.100504490022053,1
469,516,32,0.085611687606139,1
470,514,32,0.0725225517734542,1
470,515,32,0.0927486912810156,1
470,516,32,0.0844739679959557,1
470,517,32,0.0611945950941448,1
471,514,32,0.0580234996234924,1
471,515,32,0.0739398569525782,1
471,516,32,0.0793957205976607,1
471,517,32,0.0694571765862737,1
472,515,32,0.0573006707977933,1
472,516,32,0.0725189782297358,1
472,517,32,0.0736347022655465,1
472,518,32,0.0583640949008668,1
473,516,32,0.0591597391025315,1
473,517,32,0.0644396322556972,1
450,554,33,0.0792301346114999,1
451,553,33,0.0620295246889649,1
451,554,33,0.0993901694572072,1
451,555,33,0.088959484788875,1
452,554,33,0.0658463701240234,1
452,555,33,0.0590278776980963,1
459,501,33,0.0654654574895485,1
459,502,33,0.0737796253850582,1
459,503,33,0.0684097567697542,1
459,514,33,0.058803169023287,1
460,500,33,0.0642724246119084,1
460,501,33,0.112592974644209,1
460,502,33,0.143381365377697,1
460,503,33,0.127332214928157,1
460,504,33,0.0838136349067713,1
460,505,33,0.0577425872437651,1
460,514,33,0.0682268573770633,1
461,500,33,0.0764011322401765,1
461,501,33,0.147177884071506,1
461,502,33,0.195870377497365,1
461,503,33,0.173519099895336,1
461,504,33,0.112883174699443,1
461,505,33,0.0809598477099552,1
461,506,33,0.0674221495834923,1
462,500,33,0.0655817097021971,1
462,501,33,0.115650866618554,1
462,502,33,0.156268601887227,1
462,503,33,0.14701682693283,1
462,504,33,0.112635220299653,1
462,505,33,0.099374377460379,1
462,506,33,0.0925336830672903,1
462,507,33,0.0759700543640965,1
463,496,33,0.0592254309788075,1
463,501,33,0.0780718641764673,1
463,502,33,0.101448707547126,1
463,503,33,0.104138595281715,1
463,504,33,0.101984585784533,1
463,505,33,0.106229094769247,1
463,506,33,0.103878292696205,1
463,507,33,0.091028926314991,1
463,508,33,0.0700040054353718,1
464,495,33,0.0836066760118176,1
464,496,33,0.100241923012801,1
464,497,33,0.0897232324592312,1
464,498,33,0.0677688717782322,1
464,501,33,0.0755914474319218,1
464,502,33,0.0953852883974796,1
464,503,33,0.0974745554252149,1
464,504,33,0.101924212945277,1
464,505,33,0.108066757193296,1
464,506,33,0.104178871360257,1
464,507,33,0.0936511761841497,1
464,508,33,0.076594156673403,1
464,509,33,0.0581346038102892,1
465,494,33,0.0679449955905065,1
465,495,33,0.112392007037074,1
465,496,33,0.139352365846338,1
465,497,33,0.121375164725033,1
465,498,33,0.08360821511233,1
465,501,33,0.0715293955696361,1
465,502,33,0.0888078863368729,1
465,503,33,0.089661615366304,1
465,504,33,0.0937106114104501,1
465,505,33,0.0996417327823361,1
465,506,33,0.0950869505694224,1
465,507,33,0.0851963899330136,1
465,508,33,0.0712898973772595,1
466,494,33,0.070739701377232,1
466,495,33,0.109751346931135,1
466,496,33,0.13163136492953,1
466,497,33,0.118195147188959,1
466,498,33,0.086366088631621,1
466,499,33,0.0582788428851287,1
466,502,33,0.0655484745662284,1
466,503,33,0.0684296943131734,1
466,504,33,0.0747994534341543,1
466,505,33,0.080352710887906,1
466,506,33,0.0765268313456253,1
466,507,33,0.0677177512328608,1
466,508,33,0.0572532358379401,1
467,494,33,0.0725839624735923,1
467,495,33,0.0886752111551552,1
467,496,33,0.09178563893971,1
467,497,33,0.0856543814287816,1
467,498,33,0.0719458903209377,1
467,504,33,0.060422279174576,1
467,505,33,0.0637198344555283,1
467,506,33,0.0599134442894677,1
467,515,33,0.0636767573319918,1
468,493,33,0.0592967190481344,1
468,494,33,0.0788815725724693,1
468,495,33,0.076520598283397,1
468,496,33,0.0624474464989792,1
468,514,33,0.0648279986183241,1
468,515,33,0.0844739090265875,1
468,516,33,0.0743134043129536,1
469,494,33,0.0678290912971308,1
469,495,33,0.0611162542883704,1
469,514,33,0.0800344532072402,1
469,515,33,0.109289416281565,1
469,516,33,0.0929075665530649,1
469,517,33,0.0573137855853012,1
470,514,33,0.0789348749844675,1
470,515,33,0.106836573613633,1
470,516,33,0.0926824097110567,1
470,517,33,0.0622119346358991,1
471,492,33,0.0598033484788686,1
471,493,33,0.058132439634473,1
471,515,33,0.0728733959270376,1
471,516,33,0.0753670866763854,1
471,517,33,0.0705817696150753,1
471,518,33,0.0592676943250616,1
472,516,33,0.0683540955830245,1
472,517,33,0.0805803798250034,1
472,518,33,0.0699569124978547,1
473,517,33,0.0668593695202715,1
473,518,33,0.0586461866679599,1
450,554,34,0.0635611773701417,1
451,554,34,0.0662940124956563,1
451,555,34,0.0617619040048504,1
456,554,34,0.0592758733764436,1
459,501,34,0.0654492291193949,1
459,502,34,0.0771396764025251,1
459,503,34,0.0739986730005115,1
459,504,34,0.0580326752571984,1
459,515,34,0.0603306643639993,1
460,501,34,0.101175018915015,1
460,502,34,0.142137465522969,1
460,503,34,0.137609384640017,1
460,504,34,0.091467764559938,1
460,505,34,0.058920618314112,1
460,515,34,0.0660313334446046,1
461,500,34,0.0658152460914395,1
461,501,34,0.128516142935333,1
461,502,34,0.18968674339352,1
461,503,34,0.18311369916923,1
461,504,34,0.116710357464763,1
461,505,34,0.0740294196291383,1
461,506,34,0.0597190281791495,1
462,500,34,0.0582521297612929,1
462,501,34,0.097974149810312,1
462,502,34,0.142392118842996,1
462,503,34,0.141597317903298,1
462,504,34,0.102486934039129,1
462,505,34,0.0847309918845884,1
462,506,34,0.0810309529742404,1
462,507,34,0.0686440184822266,1
463,495,34,0.057035733219936,1
463,496,34,0.0613880559006967,1
463,497,34,0.059220896234386,1
463,501,34,0.0699492818615979,1
463,502,34,0.0928469873210197,1
463,503,34,0.0921085552004708,1
463,504,34,0.0841775584662416,1
463,505,34,0.0896325493646735,1
463,506,34,0.0918628888121711,1
463,507,34,0.0815909673740884,1
463,508,34,0.0645996338426809,1
464,494,34,0.0616284504274713,1
464,495,34,0.0983365460631436,1
464,496,34,0.123493191113684,1
464,497,34,0.112084269491711,1
464,498,34,0.07862878268448,1
464,501,34,0.0710464010617128,1
464,502,34,0.0926781108441083,1
464,503,34,0.0868607472805922,1
464,504,34,0.0846772648931385,1
464,505,34,0.0940488773977771,1
464,506,34,0.0944926808635342,1
464,507,34,0.0863014464101005,1
464,508,34,0.0730698818621828,1
464,509,34,0.0580996762534505,1
464,517,34,0.064107929559061,1
464,518,34,0.0595482410947055,1
465,494,34,0.0790032263792534,1
465,495,34,0.148465621754621,1
465,496,34,0.191812671677522,1
465,497,34,0.164906859533927,1
465,498,34,0.101003300114552,1
465,499,34,0.0578381942805751,1
465,501,34,0.0666792947603216,1
465,502,34,0.08696402033528,1
465,503,34,0.0816930964230313,1
465,504,34,0.0802996148686969,1
465,505,34,0.0886143783548263,1
465,506,34,0.0891258845523182,1
465,507,34,0.0834040572623702,1
465,508,34,0.0710849788224487,1
466,494,34,0.0821303071134136,1
466,495,34,0.14753746748547,1
466,496,34,0.180617054054531,1
466,497,34,0.150276901283296,1
466,498,34,0.0928446226493512,1
466,502,34,0.0615183605138091,1
466,503,34,0.062035628018583,1
466,504,34,0.065304659816093,1
466,505,34,0.0707321591950276,1
466,506,34,0.0717285587141017,1
466,507,34,0.0689540381421422,1
466,508,34,0.0592729013202817,1
467,494,34,0.0756901621544407,1
467,495,34,0.106350890102515,1
467,496,34,0.110041169582411,1
467,497,34,0.0896229904300735,1
467,498,34,0.0646258339330125,1
468,494,34,0.0795969712577638,1
468,495,34,0.0821550270726011,1
468,496,34,0.0642659674660806,1
468,514,34,0.0590287386508733,1
468,515,34,0.0759635795274582,1
468,516,34,0.0685694340252123,1
469,494,34,0.0690878927112257,1
469,495,34,0.0639944253189747,1
469,514,34,0.0766210172206595,1
469,515,34,0.110689360878664,1
469,516,34,0.097051998622853,1
469,517,34,0.058679132854024,1
470,514,34,0.0739215115821029,1
470,515,34,0.106914118332935,1
470,516,34,0.0948176492583116,1
470,517,34,0.0632791445724169,1
471,492,34,0.0579087747174825,1
471,493,34,0.0576868434999198,1
471,515,34,0.0648496521703605,1
471,516,34,0.0672740244272824,1
471,517,34,0.0676727752956653,1
471,518,34,0.0655057630527753,1
472,517,34,0.0732502042934795,1
472,518,34,0.0729117437072372,1
472,519,34,0.0591360098287313,1
473,517,34,0.0579962380845315,1
459,502,35,0.0678992943300811,1
459,503,35,0.0692533961402709,1
459,504,35,0.0612156176739405,1
460,501,35,0.0760734689452682,1
460,502,35,0.109807757028842,1
460,503,35,0.115777674348127,1
460,504,35,0.0893325957759251,1
460,505,35,0.0649590875240347,1
461,501,35,0.0941499921735854,1
461,502,35,0.144425241135182,1
461,503,35,0.149722258992899,1
461,504,35,0.105947822676373,1
461,505,35,0.071005163782467,1
462,501,35,0.0775519784317413,1
462,502,35,0.112761273221312,1
462,503,35,0.116675129164146,1
462,504,35,0.088595549435531,1
462,505,35,0.0727679586965335,1
462,506,35,0.0702026909279542,1
462,507,35,0.0611103986300991,1
463,496,35,0.060948480538646,1
463,497,35,0.059965773706889,1
463,501,35,0.0629116769539123,1
463,502,35,0.0803927982644702,1
463,503,35,0.0801686969741543,1
463,504,35,0.0722223092348012,1
463,505,35,0.0762509077744555,1
463,506,35,0.0804325200309509,1
463,507,35,0.0722731231394575,1
463,508,35,0.0587048788802198,1
464,495,35,0.0989007708758876,1
464,496,35,0.126186876475591,1
464,497,35,0.118437322590655,1
464,498,35,0.0814236182038157,1
464,501,35,0.060544628819906,1
464,502,35,0.075488793555601,1
464,503,35,0.07163107645138,1
464,504,35,0.0697505315027103,1
464,505,35,0.0799652703443613,1
464,506,35,0.0836643893325639,1
464,507,35,0.0766015337413762,1
464,508,35,0.0653125499175703,1
464,517,35,0.0644082546548296,1
464,518,35,0.0647396153291298,1
465,494,35,0.0801934405210892,1
465,495,35,0.154333180044426,1
465,496,35,0.204239675855289,1
465,497,35,0.179841783769611,1
465,498,35,0.106878406483498,1
465,499,35,0.058621997433087,1
465,502,35,0.0703034282998056,1
465,503,35,0.06705791348637,1
465,504,35,0.0663092855620437,1
465,505,35,0.0756351614246358,1
465,506,35,0.0788082382660628,1
465,507,35,0.0745866329839925,1
465,508,35,0.063750722610639,1
465,518,35,0.0576636567443078,1
466,494,35,0.0813813489606248,1
466,495,35,0.15233574601393,1
466,496,35,0.19039714737332,1
466,497,35,0.157508314916806,1
466,498,35,0.0905707225294972,1
466,505,35,0.0594844362382147,1
466,506,35,0.0620334815335772,1
466,507,35,0.0618621519309449,1
467,494,35,0.0693102720959874,1
467,495,35,0.10402332196058,1
467,496,35,0.110566173868305,1
467,497,35,0.0870009764383879,1
467,498,35,0.0577449401215599,1
468,494,35,0.0688494854521625,1
468,495,35,0.0764356882899949,1
468,496,35,0.0617568916085457,1
468,515,35,0.0651841146334327,1
468,516,35,0.0604738596810201,1
469,494,35,0.0645263408148321,1
469,495,35,0.0642074993374202,1
469,514,35,0.0651449000035193,1
469,515,35,0.0943318242207104,1
469,516,35,0.087476971282295,1
470,514,35,0.0609542064643071,1
470,515,35,0.0897790056877607,1
470,516,35,0.0855311885214851,1
470,517,35,0.0604473470530365,1
470,522,35,0.0601457364250391,1
470,523,35,0.0590041012488014,1
471,516,35,0.0602540690515263,1
471,517,35,0.0606298454540231,1
471,518,35,0.0641331861395,1
472,518,35,0.063412492004933,1
424,515,36,0.0912858794403816,1
424,516,36,0.0682571381476806,1
425,515,36,0.0651984029113696,1
458,546,36,0.0856769372121528,1
458,547,36,0.0730825838641127,1
459,503,36,0.0593080470637831,1
459,504,36,0.0619078708821808,1
459,505,36,0.0587995306132635,1
459,545,36,0.0816715490158579,1
459,546,36,0.127917662816549,1
459,547,36,0.105651265723239,1
460,502,36,0.0737038320559939,1
460,503,36,0.0851449627469271,1
460,504,36,0.0808386892458648,1
460,505,36,0.0698867035679676,1
460,545,36,0.0708488949564962,1
460,546,36,0.106185752283553,1
460,547,36,0.0866023376118047,1
461,501,36,0.0630746977725524,1
461,502,36,0.0928433430140593,1
461,503,36,0.102415734423855,1
461,504,36,0.0854097234166795,1
461,505,36,0.0674243727286768,1
462,501,36,0.059792846034376,1
462,502,36,0.0820560292971144,1
462,503,36,0.0862250574904165,1
462,504,36,0.0714402456786539,1
462,505,36,0.0622589037377427,1
462,506,36,0.06140681405675,1
463,496,36,0.0594665331380016,1
463,497,36,0.0583073722655078,1
463,502,36,0.0668452522535026,1
463,503,36,0.0671469218508683,1
463,504,36,0.0606329236550479,1
463,505,36,0.0629216840557112,1
463,506,36,0.0683226826005359,1
463,507,36,0.0636385864598971,1
464,495,36,0.0894015899368254,1
464,496,36,0.111750396722322,1
464,497,36,0.105791872284991,1
464,498,36,0.0737694649629017,1
464,502,36,0.059004425580327,1
464,503,36,0.0583129802524323,1
464,504,36,0.0572164330551898,1
464,505,36,0.0655517827477895,1
464,506,36,0.0718752214299779,1
464,507,36,0.0673680098064644,1
464,508,36,0.0591866468252826,1
464,517,36,0.060669148537989,1
464,518,36,0.062409983259304,1
465,494,36,0.0731713740419483,1
465,495,36,0.133568355357528,1
465,496,36,0.177217446384814,1
465,497,36,0.158971922843912,1
465,498,36,0.0959687018426654,1
465,505,36,0.061627666134873,1
465,506,36,0.066766952726286,1
465,507,36,0.063767387354118,1
465,508,36,0.0570020794014524,1
466,494,36,0.0721036333811158,1
466,495,36,0.129378652503703,1
466,496,36,0.163888718008764,1
466,497,36,0.138605082423609,1
466,498,36,0.0806587737032093,1
466,514,36,0.0577866668465625,1
467,494,36,0.0601808585807932,1
467,495,36,0.088684327819493,1
467,496,36,0.0970067396326897,1
467,497,36,0.0786649839796738,1
468,494,36,0.0575301383006236,1
468,495,36,0.0667467439237727,1
468,496,36,0.0572178778047129,1
469,494,36,0.0575376745858912,1
469,495,36,0.0604964567429491,1
469,515,36,0.0693291363969037,1
469,516,36,0.0682349479743928,1
470,515,36,0.0675014338991594,1
470,516,36,0.068728191358525,1
470,523,36,0.0723354832464251,1
424,516,37,0.0791064876400676,1
425,515,37,0.0843501677041659,1
425,516,37,0.0670076244090916,1
426,515,37,0.0585272218643699,1
458,545,37,0.0855290243456688,1
458,546,37,0.141293425160748,1
458,547,37,0.120937293577726,1
459,545,37,0.124727962510201,1
459,546,37,0.207466715565639,1
459,547,37,0.17317962503596,1
459,548,37,0.0763623539835884,1
460,503,37,0.0604786479937253,1
460,504,37,0.0649347567626779,1
460,505,37,0.0635057402670114,1
460,545,37,0.0982738144491558,1
460,546,37,0.155624892262964,1
460,547,37,0.127004923140269,1
460,548,37,0.0595514549252773,1
461,502,37,0.0583348932696892,1
461,503,37,0.0659701527250028,1
461,504,37,0.0644067037604436,1
461,505,37,0.059961875831645,1
461,546,37,0.0681753594277348,1
461,547,37,0.0577378520034914,1
462,502,37,0.0588207595858482,1
462,503,37,0.0628953188511484,1
462,504,37,0.058627345954791,1
463,506,37,0.0581611813045779,1
464,495,37,0.0771485041169582,1
464,496,37,0.091550020931767,1
464,497,37,0.0837888618751523,1
464,506,37,0.0612604579815889,1
464,507,37,0.0582605505870849,1
465,494,37,0.0620822668919642,1
465,495,37,0.0989157726831808,1
465,496,37,0.127070520665556,1
465,497,37,0.114840969520573,1
465,498,37,0.0740345322733692,1
466,495,37,0.0901653847826762,1
466,496,37,0.113089767984313,1
466,497,37,0.0999608042402844,1
466,498,37,0.0641190983574153,1
466,513,37,0.0611044309300281,1
466,514,37,0.065861566530232,1
467,495,37,0.0659958397818303,1
467,496,37,0.073492810171565,1
467,497,37,0.064616847001285,1
467,514,37,0.0632849058796989,1
424,516,38,0.0895948502475251,1
425,515,38,0.102953039719974,1
425,516,38,0.0827822134798692,1
426,515,38,0.0657703645052333,1
457,546,38,0.0636562241979529,1
457,547,38,0.0568776009619272,1
458,545,38,0.102126159443925,1
458,546,38,0.16935257200325,1
458,547,38,0.144799283838251,1
458,548,38,0.0647539802672454,1
459,545,38,0.14682152038505,1
459,546,38,0.245385033649809,1
459,547,38,0.205302822802332,1
459,548,38,0.0876309815814603,1
460,545,38,0.108582385349631,1
460,546,38,0.171712950701702,1
460,547,38,0.140655518122325,1
461,546,38,0.0706416648024484,1
465,495,38,0.0670543871181462,1
465,496,38,0.0821229300454404,1
465,497,38,0.0752838396191692,1
466,496,38,0.068293386618369,1
466,497,38,0.0646743008568108,1
466,513,38,0.0603151200385178,1
466,514,38,0.0658501264727836,1
467,514,38,0.0652136877716306,1
425,515,39,0.11700495663487,1
425,516,39,0.0935661305612006,1
426,514,39,0.0614690385341706,1
426,515,39,0.0770676217314105,1
426,516,39,0.0603532614259284,1
457,546,39,0.0679217911440841,1
457,547,39,0.062734479899135,1
458,545,39,0.10099778058168,1
458,546,39,0.160532099008531,1
458,547,39,0.14028007194829,1
459,544,39,0.0608283599354375,1
459,545,39,0.138630179786754,1
459,546,39,0.223561083726785,1
459,547,39,0.189958368097742,1
460,546,39,0.154972584904804,1
466,513,39,0.0570970908476427,1
466,514,39,0.0578389844701102,1
467,514,39,0.0573208854972434,1
425,516,40,0.0886383906815944,1
426,515,40,0.0839488752560096,1
426,516,40,0.0649643829733073,1
454,502,40,0.0589519900180427,1
455,502,40,0.0577340189945525,1
455,518,40,0.0612131055788513,1
460,506,40,0.0578324211794194,1
461,505,40,0.0618440955103742,1
461,506,40,0.0602405414784404,1
462,505,40,0.0571980287153462,1
426,516,41,0.0668699958004375,1
449,516,41,0.0579475588710074,1
454,502,41,0.0584305297911833,1
454,503,41,0.0575686394011807,1
455,502,41,0.0590485110800612,1
455,503,41,0.0586784488093518,1
455,518,41,0.0632530683177587,1
456,518,41,0.0595515138946456,1
461,505,41,0.0646360238398532,1
461,506,41,0.0632406080902388,1
462,505,41,0.0589879613327002,1
448,516,42,0.0600237464928558,1
449,515,42,0.0638668745753616,1
449,516,42,0.0733455046895744,1
449,517,42,0.0588350832454061,1
454,518,42,0.0587404668939834,1
455,503,42,0.0590982753299619,1
455,518,42,0.0654519122256521,1
455,519,42,0.0603089813272788,1
456,518,42,0.0613540777506875,1
456,519,42,0.0598053534373905,1
461,505,42,0.0613310973878646,1
461,506,42,0.0614881505064337,1
448,515,43,0.0655125563240024,1
448,516,43,0.0736303562231035,1
448,517,43,0.0610821405088141,1
449,515,43,0.0794453315272038,1
449,516,43,0.0928799511978943,1
449,517,43,0.0749895470897768,1
450,517,43,0.0736696475131957,1
451,518,43,0.0624619706543892,1
452,518,43,0.0828392250651328,1
452,519,43,0.0582171550289596,1
453,518,43,0.0854655379237668,1
453,519,43,0.0636937817886174,1
454,518,43,0.071893230675054,1
454,519,43,0.0604938502968707,1
455,503,43,0.0594374435486237,1
455,518,43,0.0635136834409202,1
455,519,43,0.0603935905769025,1
448,514,44,0.0579236644829759,1
448,515,44,0.0788162816878977,1
448,516,44,0.0872021032628176,1
448,517,44,0.0715378340862385,1
449,514,44,0.0668059727572841,1
449,515,44,0.10700069715946,1
449,516,44,0.122956628831605,1
449,517,44,0.0957555983395358,1
450,515,44,0.0981320461908477,1
450,516,44,0.113693307674896,1
450,517,44,0.0906858189425273,1
451,518,44,0.066941879460384,1
452,518,44,0.101885163429594,1
452,519,44,0.0733961416861258,1
453,518,44,0.113625764160456,1
453,519,44,0.085431718991052,1
454,518,44,0.083649446494639,1
454,519,44,0.069244592013585,1
455,503,44,0.0587580338687972,1
448,514,45,0.065066759693597,1
448,515,45,0.0910178459706891,1
448,516,45,0.0993275321942087,1
448,517,45,0.0799269638427195,1
449,514,45,0.0816368455426187,1
449,515,45,0.135110852505533,1
449,516,45,0.153145949752626,1
449,517,45,0.114380489517464,1
449,518,45,0.0637921250041161,1
450,507,45,0.062134684763438,1
450,514,45,0.0776552337956186,1
450,515,45,0.127737888800377,1
450,516,45,0.149113683318264,1
450,517,45,0.113749823917466,1
450,518,45,0.0634704353062157,1
451,514,45,0.0658806254300636,1
451,515,45,0.0828810992135562,1
451,516,45,0.0941894662687194,1
451,518,45,0.0690613270108106,1
452,519,45,0.0780482469444668,1
453,518,45,0.116667333413657,1
453,519,45,0.0914574685082344,1
454,519,45,0.068538286404881,1
448,515,46,0.0978590946758397,1
448,516,46,0.107290590573978,1
448,517,46,0.0847401321366734,1
448,518,46,0.0580034087597157,1
449,514,46,0.090727026737089,1
449,515,46,0.14714466072941,1
449,516,46,0.165407816111432,1
449,517,46,0.119519339735551,1
449,518,46,0.0666716818148752,1
450,507,46,0.0604950532719838,1
450,514,46,0.0871264219755531,1
450,515,46,0.139298550400836,1
450,516,46,0.161017971221627,1
450,517,46,0.118917545538269,1
450,518,46,0.0665039611375823,1
451,514,46,0.0725858553903145,1
451,515,46,0.0890122093010639,1
451,516,46,0.100231815663076,1
452,514,46,0.0629153330547463,1
452,515,46,0.0582339907836067,1
452,519,46,0.0694316605406142,1
453,519,46,0.0797121797125937,1
448,515,47,0.0964864411023856,1
448,516,47,0.103810973265364,1
448,517,47,0.0859846511697683,1
448,518,47,0.0622198778098078,1
449,514,47,0.090987211383862,1
449,515,47,0.135980344047108,1
449,516,47,0.147397273709295,1
449,517,47,0.110488923995844,1
449,518,47,0.0681366873160097,1
450,514,47,0.0876599473351648,1
450,515,47,0.125690908706643,1
450,516,47,0.137282918423286,1
450,517,47,0.103844432484932,1
451,513,47,0.0582426297960613,1
451,514,47,0.0749735604940331,1
451,515,47,0.0865343636209758,1
451,516,47,0.0928015219380674,1
451,517,47,0.0799850958459807,1
452,514,47,0.0621591452574051,1
452,515,47,0.060960315690862,1
452,516,47,0.0678800703160183,1
447,517,48,0.057336459307409,1
448,514,48,0.0739802273821101,1
448,515,48,0.0905838314200682,1
448,517,48,0.0811882596610931,1
448,518,48,0.0668566982078879,1
449,513,48,0.0582068530803192,1
449,514,48,0.0893792700309273,1
449,515,48,0.115825404154821,1
449,516,48,0.116526455592811,1
449,518,48,0.0685120450359916,1
450,513,48,0.0574997808698274,1
450,514,48,0.0841176632788686,1
450,515,48,0.104968825017882,1
450,516,48,0.104689274830562,1
450,517,48,0.0831691763715308,1
451,513,48,0.058031826098295,1
451,514,48,0.0741966213759903,1
451,515,48,0.082891389368323,1
451,516,48,0.0828711451841887,1
451,517,48,0.072056428401799,1
452,514,48,0.0590583294798817,1
452,515,48,0.0622792894483609,1
452,516,48,0.0681053097151421,1
452,517,48,0.0682421717220084,1
448,518,49,0.064208507713618,1
449,514,49,0.0823008288357003,1
449,515,49,0.091622164056934,1
450,514,49,0.0739365251832697,1
450,515,49,0.0842080338357744,1
450,516,49,0.079495042704673,1
451,514,49,0.0659988826012341,1
451,515,49,0.0760065564030686,1
451,516,49,0.0743949766401103,1
451,517,49,0.065231478830044,1
452,515,49,0.0598250315155892,1
452,516,49,0.0636686195591677,1
452,517,49,0.0621135442449057,1
448,518,50,0.0571604829185554,1
450,515,50,0.0721565171105991,1
450,516,50,0.0676525841839625,1
451,515,50,0.0683651818242632,1
451,516,50,0.0686732790827725,1
451,517,50,0.0597133376351094,1
452,516,50,0.0585334490296614,1
451,515,51,0.059893182414523,1
451,516,51,0.060338749064392,1
447,552,52,0.0707656066207221,1
448,552,52,0.074733112894827,1
447,551,53,0.0680324353698082,1
447,552,53,0.0923324618918713,1
447,553,53,0.0675320625890496,1
448,551,53,0.070139558322262,1
448,552,53,0.0981087238056887,1
448,553,53,0.0718676674538999,1
449,552,53,0.0583579031171963,1
447,551,54,0.073393440889058,1
447,552,54,0.0975377293094649,1
447,553,54,0.0714584023471507,1
448,551,54,0.0766730341004289,1
448,552,54,0.105501365589043,1
448,553,54,0.0770232236940243,1
449,552,54,0.0617964423638584,1
447,551,55,0.0667423566027719,1
447,552,55,0.0852324143201025,1
447,553,55,0.0656336912003456,1
448,551,55,0.0710001042106676,1
448,552,55,0.093082009738343,1
448,553,55,0.0707825131386111,1
449,552,55,0.0585816859729233,1
447,552,56,0.065623289003779,1
448,551,56,0.057839061130289,1
448,552,56,0.0712140038002691,1
448,553,56,0.0580393446927521,1
458,508,58,0.0600823443541264,1
458,509,58,0.0632707591282459,1
458,508,59,0.0710235150498791,1
458,509,59,0.0752059233928465,1
459,508,59,0.0589009992052816,1
459,509,59,0.0619293298353019,1
457,509,60,0.0569541196142214,1
458,508,60,0.0713442022685186,1
458,509,60,0.0763752977599283,1
459,508,60,0.0577981010070742,1
459,509,60,0.0608178280062608,1
458,508,61,0.0600000820853607,1
458,509,61,0.0636663079599306,1
