x,y,z,signal,cytoplasm.p
929,254,22,0.0614291929320164,1
930,255,22,0.0584466048409794,1
914,254,23,0.0608404486559371,1
915,253,23,0.0598201193672106,1
915,254,23,0.0650531790480797,1
915,255,23,0.0593821774566615,1
916,252,23,0.0581420162598834,1
916,253,23,0.060520303955486,1
916,254,23,0.0606897288475225,1
917,251,23,0.0691535727936281,1
917,252,23,0.0648853876075448,1
918,250,23,0.065718654266179,1
918,251,23,0.0867149042389352,1
918,252,23,0.0769935385140266,1
918,253,23,0.0602330110901096,1
919,250,23,0.0607301169678649,1
919,251,23,0.0764006604852302,1
919,252,23,0.073184046559194,1
919,253,23,0.0654178986940219,1
920,251,23,0.0620788525655402,1
920,252,23,0.0718875932034454,1
920,253,23,0.0756153948923847,1
921,252,23,0.059332200917035,1
921,253,23,0.0643889127020302,1
923,268,23,0.0581073127866442,1
923,269,23,0.0629778052035137,1
925,259,23,0.0605065110202427,1
926,258,23,0.0795770278174078,1
926,259,23,0.103294495950125,1
926,260,23,0.0718773207394891,1
927,254,23,0.065157743531933,1
927,255,23,0.0644083254180716,1
927,258,23,0.0879159923322838,1
927,259,23,0.113840353691666,1
927,260,23,0.0800102639723672,1
928,253,23,0.0572903747460897,1
928,254,23,0.067922345456146,1
928,255,23,0.0674579557839185,1
928,256,23,0.0575425041771542,1
928,258,23,0.0674559744131439,1
928,259,23,0.0811480484488556,1
928,260,23,0.0636699935454488,1
929,254,23,0.0618075109142866,1
929,255,23,0.0607574846516887,1
929,256,23,0.056967729744423,1
929,257,23,0.0578388960160578,1
929,258,23,0.0597146349612118,1
929,259,23,0.0654791324860552,1
929,260,23,0.0613898898480506,1
930,254,23,0.0627471052408861,1
930,255,23,0.0607187417767216,1
930,256,23,0.0583032738944116,1
930,257,23,0.0628442631720822,1
930,258,23,0.0809478238557607,1
930,259,23,0.101170985410223,1
930,260,23,0.0915513536394903,1
930,261,23,0.065140046824509,1
930,267,23,0.0581283294695031,1
931,255,23,0.058056186344336,1
931,256,23,0.0572550167128625,1
931,257,23,0.0654661061525997,1
931,258,23,0.103085083929451,1
931,259,23,0.136624690540549,1
931,260,23,0.119434588959444,1
931,261,23,0.0748486692689299,1
931,266,23,0.0672021407673358,1
931,267,23,0.0748605987721351,1
932,258,23,0.097417933037782,1
932,259,23,0.127061922931659,1
932,260,23,0.111481590753905,1
932,261,23,0.072566413189589,1
913,254,24,0.0578896627452194,1
913,255,24,0.0601321911611427,1
914,253,24,0.0589408742921199,1
914,254,24,0.0695821503684925,1
914,255,24,0.0658143556539783,1
915,253,24,0.0645275968623767,1
915,254,24,0.0761639751317211,1
915,255,24,0.0668473515630138,1
916,253,24,0.0611596793311798,1
916,254,24,0.0661429919434634,1
916,255,24,0.0570466071714489,1
917,251,24,0.0631731648237245,1
917,252,24,0.0597667933674651,1
918,250,24,0.0596720295926217,1
918,251,24,0.0799442949400602,1
918,252,24,0.0684753425011674,1
919,251,24,0.0673560803032592,1
919,252,24,0.0600813536687392,1
920,253,24,0.0593718047447792,1
926,258,24,0.0591318819729509,1
926,259,24,0.0833655679556867,1
927,258,24,0.0654742439254239,1
927,259,24,0.0923817190052047,1
927,260,24,0.0594717165454744,1
928,254,24,0.0589258547940162,1
928,255,24,0.0578069464123178,1
928,259,24,0.0578936195898317,1
929,254,24,0.0580239006151968,1
930,254,24,0.0602261647464511,1
930,255,24,0.0575022634802325,1
930,258,24,0.0691731211392165,1
930,259,24,0.0985440061977278,1
930,260,24,0.0836719551025157,1
931,258,24,0.102999932161639,1
931,259,24,0.162325711314467,1
931,260,24,0.134348744183615,1
931,261,24,0.0711589205133486,1
931,266,24,0.0599016799004937,1
931,267,24,0.0742840198767342,1
931,268,24,0.0813976363001467,1
931,269,24,0.0673628381928653,1
932,258,24,0.0932671558639659,1
932,259,24,0.145665897674654,1
932,260,24,0.120720769851236,1
932,261,24,0.0681012997980983,1
932,266,24,0.066700016596339,1
932,267,24,0.0839123083507324,1
932,268,24,0.0901528537919144,1
933,258,24,0.0579903116630183,1
933,259,24,0.0768149792668419,1
933,260,24,0.0689826913581948,1
912,255,25,0.0641780854165167,1
912,256,25,0.0692522816192102,1
913,254,25,0.0620824025215113,1
913,255,25,0.0827953518551244,1
913,256,25,0.0923720185441208,1
913,257,25,0.0665688746181969,1
914,253,25,0.0603643594610407,1
914,254,25,0.0711974098200321,1
914,255,25,0.0812992223214061,1
914,256,25,0.083218610392969,1
914,257,25,0.0593929865418692,1
915,253,25,0.064136913003576,1
915,254,25,0.0767584394365246,1
915,255,25,0.069624331157631,1
916,254,25,0.0632781302992823,1
918,251,25,0.0624546407619107,1
918,252,25,0.0569041017960371,1
924,247,25,0.0630761543159492,1
930,259,25,0.0756711681209142,1
930,260,25,0.0604395395086748,1
931,258,25,0.0783459361094728,1
931,259,25,0.138628764521915,1
931,260,25,0.110217405436485,1
931,267,25,0.0625340489132512,1
931,268,25,0.0720978543830233,1
931,269,25,0.0624280455768115,1
932,258,25,0.0661389230570513,1
932,259,25,0.117152380055597,1
932,260,25,0.0925518692204712,1
932,266,25,0.0569323068448907,1
932,267,25,0.0787874102851825,1
932,268,25,0.0889548556934642,1
932,269,25,0.0732754667708553,1
933,268,25,0.059069462896615,1
912,255,26,0.0579842614058316,1
912,256,26,0.067565103126103,1
913,253,26,0.061233786136311,1
913,254,26,0.0636688967151986,1
913,255,26,0.0839192667361908,1
913,256,26,0.1058333277509,1
913,257,26,0.0688073990140133,1
914,253,26,0.063452585278434,1
914,254,26,0.068036274275684,1
914,255,26,0.0780572987424994,1
914,256,26,0.0930652565408116,1
914,257,26,0.0599619348010133,1
915,253,26,0.0617815467014281,1
915,254,26,0.0680807843548699,1
915,255,26,0.0610227406641347,1
924,246,26,0.0711858695146576,1
924,247,26,0.0660412697831616,1
925,246,26,0.0789106739557209,1
925,247,26,0.0715081135246199,1
926,246,26,0.0709902268414789,1
926,247,26,0.0667361884068486,1
926,248,26,0.0573214339123685,1
927,246,26,0.0710404687432628,1
927,247,26,0.0633427253453081,1
927,248,26,0.0586982448262871,1
928,246,26,0.0795270453808445,1
928,247,26,0.060163786948673,1
929,245,26,0.0782108078020343,1
929,246,26,0.0573712217500165,1
931,259,26,0.0881249561857594,1
931,260,26,0.0723613413144206,1
932,259,26,0.0725347702265641,1
932,260,26,0.0599953704328342,1
932,267,26,0.0575776970961502,1
932,268,26,0.0679774051553192,1
936,246,26,0.0593268759830783,1
936,247,26,0.0609206882753705,1
936,248,26,0.058758629459417,1
937,249,26,0.064884172838558,1
937,250,26,0.0656626628509869,1
938,247,26,0.0829237281698937,1
938,252,26,0.114422534677055,1
939,252,26,0.113832487177936,1
912,253,27,0.0660741216182365,1
912,254,27,0.0583420344601892,1
912,256,27,0.0572613500230169,1
913,252,27,0.0641517968721326,1
913,253,27,0.0813556088313658,1
913,254,27,0.0721085219417471,1
913,255,27,0.0750359677764953,1
913,256,27,0.0957569959135643,1
913,257,27,0.0602486143849594,1
914,252,27,0.0596286045498123,1
914,253,27,0.0736849323734567,1
914,254,27,0.067025551097052,1
914,255,27,0.0670484842843803,1
914,256,27,0.0841429611378654,1
915,253,27,0.0583864855700069,1
915,254,27,0.0574755621502704,1
924,246,27,0.0636524088798245,1
924,247,27,0.0607564821724278,1
925,246,27,0.0694231571577066,1
925,247,27,0.0629921288630715,1
926,246,27,0.0590454564667838,1
926,247,27,0.0580635044429409,1
927,246,27,0.0584453369995612,1
927,248,27,0.0571643218244311,1
928,246,27,0.0696392445108717,1
936,245,27,0.0589380024838841,1
936,246,27,0.0621890014485707,1
936,247,27,0.0661536064297557,1
936,248,27,0.0610429435697112,1
936,249,27,0.0569418834703011,1
937,245,27,0.0645747015937675,1
937,246,27,0.0761604664543078,1
937,247,27,0.0891188848883021,1
937,248,27,0.0800454392005528,1
937,249,27,0.0667898033564987,1
937,250,27,0.0646224726790199,1
937,251,27,0.0741562922250162,1
937,252,27,0.0688863000287865,1
938,246,27,0.0834537861306499,1
938,247,27,0.0994424870807549,1
938,248,27,0.0913712022193617,1
938,249,27,0.0769259891026494,1
938,250,27,0.0824013598147626,1
938,251,27,0.110696661286459,1
938,252,27,0.108021857916279,1
938,253,27,0.0714048817484899,1
939,247,27,0.0898731443873002,1
939,251,27,0.10975890680415,1
939,252,27,0.109800739674015,1
939,253,27,0.0759277261515373,1
940,252,27,0.0805935594788165,1
912,253,28,0.0665436534193789,1
913,252,28,0.0630675978606102,1
913,253,28,0.0926018516570345,1
913,254,28,0.0750037646044717,1
913,255,28,0.0604989275594805,1
913,256,28,0.0671362130135866,1
914,253,28,0.0770411562789215,1
914,254,28,0.063772735875822,1
914,256,28,0.0620715816424299,1
928,245,28,0.0620356928848881,1
934,244,28,0.0601668297680768,1
935,245,28,0.0644568984867328,1
936,246,28,0.0625934723456779,1
936,247,28,0.067499617642616,1
936,248,28,0.0627341319798621,1
936,249,28,0.0588624981047245,1
937,245,28,0.0662381154314534,1
937,246,28,0.0770852653664031,1
937,247,28,0.0945228495923518,1
937,248,28,0.0836459731988467,1
937,249,28,0.0672203917868219,1
937,250,28,0.0636308201940932,1
937,251,28,0.0687786278592242,1
937,252,28,0.0637838398078712,1
938,245,28,0.0728272464994132,1
938,246,28,0.0860856303160296,1
938,247,28,0.107242058783874,1
938,248,28,0.0970674132157242,1
938,249,28,0.0778196816729714,1
938,250,28,0.0782213869067056,1
938,251,28,0.0942885583951953,1
938,252,28,0.0914907213350137,1
938,253,28,0.0675222913647238,1
939,247,28,0.0917301310733378,1
939,249,28,0.0795174864462445,1
939,250,28,0.0843754832539731,1
939,251,28,0.0999541996710358,1
939,252,28,0.0977135936565188,1
939,253,28,0.0737080542627635,1
940,252,28,0.0820740680268746,1
912,253,29,0.0604110278191061,1
913,252,29,0.0581627204050903,1
913,253,29,0.0904093056776746,1
913,254,29,0.0705271344953538,1
914,253,29,0.0709525572090147,1
934,245,29,0.0640884991522092,1
936,247,29,0.0659811033366944,1
936,248,29,0.0662184845287494,1
936,249,29,0.060003726392321,1
937,246,29,0.0759303974639209,1
937,247,29,0.0922596524128426,1
937,248,29,0.0858352404813297,1
937,249,29,0.0693220718665824,1
937,250,29,0.0653638827526675,1
937,251,29,0.0678175686825668,1
937,252,29,0.0624001884472309,1
938,245,29,0.0749422536564075,1
938,246,29,0.0885820513471293,1
938,247,29,0.108803650213332,1
938,248,29,0.100552184447126,1
938,249,29,0.0809760701831721,1
938,250,29,0.0802877266440495,1
938,251,29,0.0896460356592016,1
938,252,29,0.0836599548360685,1
938,253,29,0.068528556459113,1
938,254,29,0.0571961299016872,1
939,245,29,0.0837004903798316,1
939,246,29,0.0868218569822044,1
939,247,29,0.0967275255707692,1
939,248,29,0.0915795822760912,1
939,249,29,0.0832030365828034,1
939,250,29,0.0905850108074341,1
939,251,29,0.104517202213889,1
939,252,29,0.0984797767617854,1
939,253,29,0.078714659775522,1
939,254,29,0.0617140503624823,1
940,247,29,0.0906435379054628,1
940,252,29,0.0966093450597775,1
940,253,29,0.0810478064196979,1
911,262,30,0.0584878362232884,1
913,253,30,0.0729025326919101,1
913,254,30,0.0577891730447149,1
914,253,30,0.0573409586702096,1
934,244,30,0.0871025098967111,1
934,245,30,0.058390241918767,1
935,245,30,0.0932941815254536,1
936,246,30,0.0586842631890653,1
936,247,30,0.0633190904224971,1
936,248,30,0.0706867409875699,1
936,249,30,0.0620735040438362,1
937,246,30,0.074166889020498,1
937,247,30,0.0885776286445075,1
937,248,30,0.0909155871891359,1
937,249,30,0.0757601175160442,1
937,250,30,0.0665493557572926,1
937,251,30,0.0631041116934559,1
937,252,30,0.0585732828379419,1
938,245,30,0.0741973525961571,1
938,246,30,0.0890455741696429,1
938,247,30,0.106070396405303,1
938,248,30,0.103824430075208,1
938,249,30,0.0863167194764879,1
938,250,30,0.078417831563293,1
938,251,30,0.0813447407767898,1
938,252,30,0.0761611976744746,1
938,253,30,0.066914452807192,1
938,254,30,0.0590112660270487,1
939,240,30,0.0622188871244206,1
939,245,30,0.0856301037398562,1
939,246,30,0.0902094054161053,1
939,247,30,0.100304123902474,1
939,248,30,0.0966197354624703,1
939,249,30,0.0863533984235648,1
939,250,30,0.0888559286812194,1
939,251,30,0.108315737660094,1
939,252,30,0.107821397445711,1
939,253,30,0.0867491123694807,1
939,254,30,0.0647632915304985,1
939,255,30,0.0571072512697992,1
940,247,30,0.095263133351065,1
940,251,30,0.11490427903437,1
940,252,30,0.12230001670956,1
940,253,30,0.0976474595099806,1
940,254,30,0.0669798203519424,1
941,252,30,0.102579810794187,1
910,262,31,0.0595210444220497,1
934,244,31,0.0731017253210599,1
935,244,31,0.124930994045226,1
935,245,31,0.0863715374012511,1
936,245,31,0.0671448048505466,1
936,246,31,0.0574145465448998,1
936,247,31,0.0616619037501027,1
936,248,31,0.0724953845854826,1
936,249,31,0.0670226144225111,1
937,245,31,0.0649074421512856,1
937,246,31,0.0760411006590134,1
937,247,31,0.0857490921311935,1
937,248,31,0.101769949077828,1
937,249,31,0.0981224754623741,1
937,250,31,0.0780982824534616,1
937,251,31,0.0594388588134627,1
938,244,31,0.0662787925017004,1
938,245,31,0.0747957265700783,1
938,246,31,0.0908560929934672,1
938,247,31,0.101376576215833,1
938,248,31,0.115186942804336,1
938,249,31,0.111362366485094,1
938,250,31,0.0929343917187005,1
938,251,31,0.0783670176586368,1
938,252,31,0.0759005530666289,1
938,253,31,0.0655237251223567,1
938,254,31,0.0601469452970891,1
939,227,31,0.092649345586256,1
939,229,31,0.0871190154228958,1
939,240,31,0.0631774518967993,1
939,241,31,0.0651191834620076,1
939,242,31,0.0673514571047852,1
939,246,31,0.0936242448736513,1
939,247,31,0.100613441826907,1
939,248,31,0.107606855089995,1
939,249,31,0.102403244711651,1
939,250,31,0.0985190444641302,1
939,251,31,0.11421892524222,1
939,252,31,0.123905434173532,1
939,253,31,0.0927434194194904,1
939,254,31,0.0681949549488179,1
939,255,31,0.0598720124113065,1
940,228,31,0.0786257575558867,1
940,247,31,0.0938432630044204,1
940,248,31,0.0929629328929532,1
940,249,31,0.0849900030409324,1
940,251,31,0.129832681257921,1
940,252,31,0.151041450937061,1
940,253,31,0.11080889178819,1
940,254,31,0.0720216659591915,1
941,252,31,0.113742558891293,1
928,273,32,0.0776684311402421,1
929,272,32,0.0585750342281801,1
929,273,32,0.0925398099846557,1
935,244,32,0.0880672428650131,1
935,245,32,0.0676946293435539,1
936,244,32,0.0680218916467578,1
936,245,32,0.0581494758849722,1
936,248,32,0.0660814750984623,1
936,249,32,0.0708220108214924,1
937,244,32,0.0600458482120912,1
937,245,32,0.0660248173294085,1
937,246,32,0.0770288434748224,1
937,247,32,0.083978637096186,1
937,248,32,0.117020489166478,1
937,249,32,0.137890468030913,1
937,250,32,0.0983539420267895,1
938,227,32,0.0634119907653026,1
938,228,32,0.0975003427299685,1
938,229,32,0.0647101542327316,1
938,242,32,0.0574129543719559,1
938,243,32,0.0602411901414916,1
938,244,32,0.0651893747010843,1
938,245,32,0.0772829837613456,1
938,246,32,0.0979751758773203,1
938,247,32,0.107973314332302,1
938,248,32,0.142780054729235,1
938,249,32,0.164896374780245,1
938,250,32,0.122032166044909,1
938,251,32,0.0755090141519879,1
938,252,32,0.0714997044927016,1
938,253,32,0.0630698386966052,1
938,254,32,0.0597702312816365,1
938,255,32,0.0575960129819413,1
939,227,32,0.0748329480353435,1
939,228,32,0.113007187280958,1
939,229,32,0.0760558960735175,1
939,240,32,0.0615297533957629,1
939,241,32,0.0656474723417151,1
939,242,32,0.0665677188185784,1
939,246,32,0.100881669895515,1
939,247,32,0.10848637142418,1
939,248,32,0.125264748875879,1
939,249,32,0.131126197939129,1
939,250,32,0.110216367575603,1
939,252,32,0.123631604014937,1
939,253,32,0.0922106547647297,1
939,254,32,0.0715117932132013,1
940,228,32,0.0691086381349904,1
940,247,32,0.0947693592426182,1
940,248,32,0.0946326151744885,1
940,249,32,0.087804333833425,1
940,252,32,0.156179817606329,1
927,273,33,0.0608095605008264,1
927,274,33,0.0663458347765103,1
928,273,33,0.0908359962327537,1
928,274,33,0.120218091368177,1
929,272,33,0.0586608287621065,1
929,273,33,0.112620454369833,1
929,274,33,0.148744134081059,1
930,272,33,0.0730258553318169,1
930,273,33,0.0950579730218442,1
931,271,33,0.0581435789481431,1
931,272,33,0.0821024971593276,1
936,248,33,0.0575932001430738,1
936,249,33,0.0719619358860497,1
936,264,33,0.0578165171407914,1
937,244,33,0.0571057593447814,1
937,245,33,0.064719801621384,1
937,246,33,0.0749521546133435,1
937,247,33,0.0807047049441711,1
937,248,33,0.112638640523014,1
937,249,33,0.155022602722988,1
937,250,33,0.10914290098911,1
937,251,33,0.0585378186598518,1
938,228,33,0.0663578409398944,1
938,243,33,0.058709873585714,1
938,244,33,0.0651450238391927,1
938,245,33,0.0781478226197628,1
938,246,33,0.100297767004572,1
938,247,33,0.112636293542156,1
938,248,33,0.144007089344631,1
938,249,33,0.185430723588115,1
938,250,33,0.131758149071355,1
938,251,33,0.0770910856430534,1
938,252,33,0.067186366461318,1
938,253,33,0.0620716229209877,1
938,254,33,0.0583346750830265,1
938,255,33,0.0573372494969441,1
938,256,33,0.059756963173771,1
939,227,33,0.0576235398830595,1
939,228,33,0.0844714087253719,1
939,229,33,0.0665104005925997,1
939,234,33,0.057304026154849,1
939,235,33,0.0732127469507411,1
939,236,33,0.067715640129476,1
939,240,33,0.060630847933284,1
939,241,33,0.0719052840139326,1
939,242,33,0.068009567048785,1
939,243,33,0.0703849534514677,1
939,246,33,0.102809060110355,1
939,247,33,0.111218622752949,1
939,248,33,0.118178470651606,1
939,249,33,0.130715865486814,1
939,250,33,0.101089348216762,1
939,251,33,0.0943450746377653,1
939,252,33,0.107209106700873,1
939,253,33,0.087968327646642,1
939,254,33,0.0761467324884328,1
939,255,33,0.0748388508691094,1
940,228,33,0.0735478816646119,1
940,229,33,0.0639109777659063,1
940,234,33,0.0740287591722135,1
940,235,33,0.0980933269036279,1
940,236,33,0.0919492789367172,1
940,237,33,0.0681650103035998,1
940,238,33,0.057818875915523,1
940,239,33,0.0670349508143575,1
940,247,33,0.0939681542295237,1
940,248,33,0.0868842760585403,1
940,249,33,0.0820952439270278,1
941,228,33,0.0617526340201551,1
941,229,33,0.0602029603000286,1
941,232,33,0.057324659536814,1
941,234,33,0.0725762138985989,1
941,235,33,0.0921403161022323,1
923,273,34,0.0597983950519322,1
924,273,34,0.0717049532759749,1
924,274,34,0.0674837607794826,1
925,273,34,0.0762716885798412,1
925,274,34,0.0748032982369669,1
926,273,34,0.0679388922608884,1
926,274,34,0.0655024312834669,1
927,273,34,0.0577426992855649,1
927,274,34,0.0667669350354755,1
928,273,34,0.082357805039343,1
928,274,34,0.125256964919264,1
929,273,34,0.104678106032208,1
929,274,34,0.16049273105826,1
930,272,34,0.0767408429770266,1
930,273,34,0.0923184507699654,1
930,274,34,0.102610946620645,1
931,271,34,0.0594579354041048,1
931,272,34,0.0998254223645622,1
931,273,34,0.0917805380893528,1
932,272,34,0.073765000981722,1
936,249,34,0.0648292605628055,1
937,245,34,0.061436452061253,1
937,246,34,0.0683962115058578,1
937,247,34,0.0726261491596676,1
937,248,34,0.0943786517960701,1
937,249,34,0.138211910057466,1
937,250,34,0.1037660504006,1
937,257,34,0.0593610900105607,1
937,258,34,0.0571677184600447,1
938,244,34,0.0640235325991631,1
938,245,34,0.0758018914165414,1
938,246,34,0.0933575912871768,1
938,247,34,0.105400657701876,1
938,248,34,0.123191102833804,1
938,249,34,0.161619388014952,1
938,250,34,0.11924516755462,1
938,251,34,0.070222952802899,1
938,252,34,0.0609512167173347,1
938,253,34,0.0609064943484229,1
938,254,34,0.0572599642428621,1
938,256,34,0.0607674622688035,1
938,257,34,0.0711493910634328,1
939,228,34,0.0569404976901463,1
939,235,34,0.0806327269332353,1
939,236,34,0.0748328654782279,1
939,241,34,0.0686191039241237,1
939,242,34,0.0640060599753385,1
939,243,34,0.0673477597253933,1
939,247,34,0.105365169936039,1
939,248,34,0.0986998622381206,1
939,249,34,0.109039126694791,1
939,250,34,0.084343574928791,1
939,251,34,0.075881158041398,1
939,252,34,0.0856617702906284,1
939,253,34,0.0819991297536505,1
939,254,34,0.0787896923997353,1
939,255,34,0.0810362543204497,1
939,256,34,0.0736227550715308,1
940,228,34,0.0698875763146183,1
940,229,34,0.0655905551074408,1
940,234,34,0.0794104039703651,1
940,235,34,0.124463520275037,1
940,236,34,0.117683977116866,1
940,237,34,0.078513096577767,1
940,239,34,0.0615546738508026,1
940,248,34,0.0787008845310893,1
940,249,34,0.0765448995600696,1
940,250,34,0.0712314646302201,1
940,252,34,0.0962073213914544,1
941,228,34,0.061977248343975,1
941,229,34,0.0613285499111544,1
941,234,34,0.0715350330412447,1
941,235,34,0.10507185629816,1
941,236,34,0.106444403726751,1
942,231,34,0.0653557803614643,1
942,232,34,0.0637210433275782,1
921,273,35,0.0571482349807614,1
922,272,35,0.0621150066852393,1
922,273,35,0.092418109002377,1
922,274,35,0.0782920970762232,1
923,272,35,0.066014863300041,1
923,273,35,0.0991086143113656,1
923,274,35,0.0858675262104689,1
924,272,35,0.0580637108357299,1
924,273,35,0.0993217649899898,1
924,274,35,0.10434404456084,1
924,275,35,0.0658124214586984,1
925,273,35,0.10404282902761,1
925,274,35,0.120312748998158,1
926,273,35,0.0775252063385372,1
926,274,35,0.088255596924271,1
927,274,35,0.0620860940039663,1
928,273,35,0.0646032250772098,1
928,274,35,0.0984652172247543,1
929,273,35,0.080026038278385,1
929,274,35,0.126700051506205,1
930,272,35,0.0687525810892501,1
930,273,35,0.0757273305472744,1
930,274,35,0.0822141969367442,1
931,272,35,0.0976315613682894,1
931,273,35,0.0906834424769852,1
932,272,35,0.0662473146529068,1
936,264,35,0.0570876439548425,1
937,245,35,0.0606146903263723,1
937,246,35,0.062617307764341,1
937,247,35,0.0646371973302821,1
937,248,35,0.0759405401952669,1
937,249,35,0.104028405120126,1
937,250,35,0.0899566686005474,1
937,257,35,0.063795887249813,1
937,258,35,0.0611220804619575,1
938,243,35,0.0572372433452596,1
938,244,35,0.0689544627215939,1
938,245,35,0.0788867913615631,1
938,246,35,0.0881619771551724,1
938,247,35,0.0926382239633963,1
938,248,35,0.0977205402481035,1
938,249,35,0.116673301113729,1
938,250,35,0.0986567615268368,1
938,251,35,0.0650920398617833,1
938,252,35,0.0594947145991078,1
938,253,35,0.0614160368659507,1
938,254,35,0.0595467904482455,1
938,255,35,0.0600245484762645,1
938,256,35,0.06416586106647,1
938,257,35,0.0742088280352265,1
938,258,35,0.0739073353459657,1
939,235,35,0.0719807883930923,1
939,236,35,0.0706245342009599,1
939,241,35,0.0643627479933196,1
939,242,35,0.0631161001660294,1
939,243,35,0.0677568597179113,1
939,244,35,0.0820296287109306,1
939,247,35,0.106352446893838,1
939,248,35,0.0848661025012164,1
939,249,35,0.0849226364345969,1
939,250,35,0.0754533824499423,1
939,251,35,0.0663032647895412,1
939,252,35,0.0716539683601506,1
939,253,35,0.0748093425972167,1
939,254,35,0.0777072978508826,1
939,255,35,0.083543248559284,1
939,256,35,0.0750105283910147,1
940,228,35,0.0619288698742292,1
940,229,35,0.0610497899133698,1
940,234,35,0.0735877036790187,1
940,235,35,0.11784180273416,1
940,236,35,0.11771087894268,1
940,237,35,0.0787089574376083,1
940,239,35,0.0592828081741546,1
940,242,35,0.101621487796218,1
940,243,35,0.0889680176564667,1
940,248,35,0.0771995185174667,1
940,249,35,0.0689170997298448,1
940,250,35,0.0679449661058224,1
940,251,35,0.0681910570735739,1
940,253,35,0.0764107088655869,1
940,254,35,0.0853712518008066,1
941,229,35,0.0571537486166966,1
941,231,35,0.0568479393696769,1
941,232,35,0.0635086592507418,1
941,233,35,0.0596307333440076,1
941,234,35,0.0647597769561484,1
941,235,35,0.094101979313923,1
941,236,35,0.10158280389062,1
941,248,35,0.0723242318909552,1
941,249,35,0.0650361015190226,1
942,230,35,0.0580890086947267,1
942,231,35,0.0639829734676527,1
942,232,35,0.0662359866372581,1
942,233,35,0.0615480162091225,1
942,234,35,0.0612824299682141,1
942,235,35,0.0721297921928896,1
943,231,35,0.0655653633933069,1
921,273,36,0.0694820852474397,1
922,272,36,0.0697853706054965,1
922,273,36,0.125267567611683,1
922,274,36,0.107374940358381,1
923,272,36,0.0683444835759931,1
923,273,36,0.124267340980607,1
923,274,36,0.110748790208028,1
923,275,36,0.057726028645149,1
924,273,36,0.10449122031022,1
924,274,36,0.122120679066714,1
924,275,36,0.0728813391009464,1
925,273,36,0.109108899251353,1
925,274,36,0.144951766830778,1
925,275,36,0.0933026672175506,1
926,273,36,0.0697284710620327,1
926,274,36,0.0935106226948284,1
926,275,36,0.0610696154149891,1
928,274,36,0.0688506235609705,1
929,273,36,0.0582371279539997,1
929,274,36,0.0864726757648068,1
930,273,36,0.0599959129510225,1
930,274,36,0.0647563567327875,1
931,272,36,0.0711365416380823,1
931,273,36,0.0725701459506018,1
937,245,36,0.0573411591660618,1
937,248,36,0.0608646791693679,1
937,249,36,0.0730460818251406,1
937,250,36,0.0721753401329575,1
937,255,36,0.0569916123385808,1
937,256,36,0.0639279019746058,1
937,257,36,0.0688432641838078,1
937,258,36,0.064972361528837,1
937,259,36,0.0597608256673941,1
938,244,36,0.0703393052634737,1
938,245,36,0.0777172754679974,1
938,246,36,0.0800388818067988,1
938,247,36,0.0770518592192663,1
938,248,36,0.0768465927451826,1
938,249,36,0.0821777302793931,1
938,250,36,0.0801703599103401,1
938,251,36,0.0640615737386476,1
938,252,36,0.0609898239627548,1
938,253,36,0.0638020259610521,1
938,254,36,0.0666266056297537,1
938,255,36,0.070891341107792,1
938,256,36,0.0725040943611792,1
938,257,36,0.076352052034948,1
938,258,36,0.0739054778108646,1
938,259,36,0.0662974916883855,1
939,235,36,0.057169157312631,1
939,236,36,0.0617880333319401,1
939,241,36,0.057474435835336,1
939,242,36,0.0613296703291519,1
939,243,36,0.0661068378237642,1
939,244,36,0.0800958757012519,1
939,248,36,0.07456391208639,1
939,249,36,0.0698210588671862,1
939,250,36,0.0705300063035896,1
939,251,36,0.0631713780518653,1
939,252,36,0.0645296784810774,1
939,253,36,0.069959076673671,1
939,254,36,0.0793874589891631,1
939,255,36,0.0895014014895946,1
939,256,36,0.0808376277972356,1
939,257,36,0.0709616856672261,1
940,234,36,0.0607005143449829,1
940,235,36,0.0898024872902141,1
940,236,36,0.0977547660694595,1
940,237,36,0.0725757244528421,1
940,239,36,0.0580430892476386,1
940,240,36,0.0745820451671395,1
940,242,36,0.0887020540116012,1
940,243,36,0.0803807744102756,1
940,249,36,0.0632361971814906,1
940,250,36,0.0663033414497199,1
940,251,36,0.0631398353367665,1
940,253,36,0.0702473189458768,1
940,254,36,0.0821858031859121,1
940,255,36,0.0942569213291073,1
940,256,36,0.0823833210850024,1
941,232,36,0.0678139243756064,1
941,233,36,0.0635580048181276,1
941,234,36,0.0594300723775874,1
941,235,36,0.0762120646515623,1
941,236,36,0.0866684127889747,1
941,249,36,0.0619944379148318,1
941,250,36,0.0658904261390735,1
942,231,36,0.0600946748490361,1
942,232,36,0.0672175022877756,1
942,233,36,0.0634804777896356,1
942,234,36,0.0588397123408169,1
942,235,36,0.0684452740202758,1
942,243,36,0.0903198078674195,1
943,232,36,0.0637860039836875,1
943,233,36,0.0629212830640069,1
943,234,36,0.0623693651584252,1
921,273,37,0.069597175763533,1
921,274,37,0.0575050822160368,1
922,272,37,0.0687659789297258,1
922,273,37,0.130688892897758,1
922,274,37,0.116418494473344,1
923,272,37,0.0623463022384867,1
923,273,37,0.121345856948993,1
923,274,37,0.113267843682678,1
923,275,37,0.0599652665703217,1
924,273,37,0.0906921522526818,1
924,274,37,0.112803731166481,1
924,275,37,0.0691903342978206,1
925,273,37,0.0944709919298768,1
925,274,37,0.134005070705216,1
925,275,37,0.0904862607032942,1
926,274,37,0.0813924057171793,1
929,274,37,0.0608391041543401,1
936,256,37,0.0577562681372086,1
936,257,37,0.0589660129338223,1
936,258,37,0.0591266395961098,1
936,259,37,0.0700598671179537,1
936,260,37,0.0775280663528993,1
936,261,37,0.0631623734293273,1
937,254,37,0.0630697266548055,1
937,255,37,0.0710910467704458,1
937,256,37,0.0775978271155874,1
937,257,37,0.0776881504969986,1
937,258,37,0.0771884971425331,1
937,259,37,0.0925929413854858,1
937,260,37,0.101096424540956,1
937,261,37,0.0772604692565321,1
938,244,37,0.0717553426011794,1
938,245,37,0.0786021992932545,1
938,246,37,0.0745461858942818,1
938,247,37,0.0677011277679396,1
938,248,37,0.0653357366731822,1
938,249,37,0.0647229623795244,1
938,250,37,0.0654091712275149,1
938,251,37,0.0612602397949262,1
938,252,37,0.0588249699987442,1
938,253,37,0.0658772170005764,1
938,254,37,0.0799489889017762,1
938,255,37,0.0892240154780911,1
938,256,37,0.0908233767879394,1
938,257,37,0.0879592817455461,1
938,258,37,0.0825686323248565,1
938,259,37,0.0884572131944575,1
938,260,37,0.0909128981859418,1
939,242,37,0.0583302641742784,1
939,243,37,0.0688846076079165,1
939,248,37,0.069461717227632,1
939,249,37,0.0637163021903677,1
939,250,37,0.0648955480297013,1
939,251,37,0.0611567485535757,1
939,252,37,0.0596279794745084,1
939,253,37,0.0683961407426159,1
939,254,37,0.0862632283625112,1
939,255,37,0.0999461798369483,1
939,256,37,0.0968814415189453,1
939,257,37,0.0865093488149469,1
939,258,37,0.0732032941610041,1
940,235,37,0.0645525232143533,1
940,236,37,0.0730259732705534,1
940,237,37,0.06224561204213,1
940,239,37,0.0608713486049216,1
940,242,37,0.0793171733990972,1
940,249,37,0.0615722113409323,1
940,250,37,0.0633620672981075,1
940,251,37,0.061102880035642,1
940,253,37,0.0673631861121382,1
940,254,37,0.080339118448515,1
940,255,37,0.0916902795742468,1
940,256,37,0.0855376751519971,1
940,257,37,0.0742105558377174,1
941,232,37,0.0647475643999754,1
941,233,37,0.0653596369581505,1
941,234,37,0.0591896896446864,1
941,235,37,0.0657822645237544,1
941,236,37,0.0739032310779327,1
941,249,37,0.0616051693208701,1
941,250,37,0.0647941325101147,1
941,254,37,0.0826874320142153,1
941,255,37,0.0898894847992536,1
941,256,37,0.0742591996696206,1
942,232,37,0.0641418251519546,1
942,233,37,0.0646941558431143,1
942,234,37,0.0602627670333492,1
942,235,37,0.0675813963625618,1
943,232,37,0.0632571784827285,1
943,233,37,0.0642255793457382,1
921,273,38,0.0590022614045107,1
922,272,38,0.0570872783447591,1
922,273,38,0.103952900740967,1
922,274,38,0.0980720861371695,1
923,273,38,0.0943954816537804,1
923,274,38,0.0959812859058587,1
924,273,38,0.0680015413177606,1
924,274,38,0.0882228748218064,1
924,275,38,0.0611406676068428,1
925,273,38,0.067019719026528,1
925,274,38,0.09795410612203,1
925,275,38,0.0747071368880949,1
926,274,38,0.0606306651282423,1
936,255,38,0.059620643685093,1
936,256,38,0.0649771675323527,1
936,257,38,0.064147091116543,1
936,258,38,0.0658696512306247,1
936,259,38,0.0924610858779874,1
936,260,38,0.108635988505408,1
936,261,38,0.0757573341618608,1
937,254,38,0.081723436163017,1
937,255,38,0.100961160603971,1
937,256,38,0.0999921641503415,1
937,257,38,0.0913236729085193,1
937,258,38,0.0941151176891782,1
937,259,38,0.136958115142739,1
937,260,38,0.159994840887907,1
937,261,38,0.103587727030889,1
938,244,38,0.0805912773642636,1
938,245,38,0.0896876975178991,1
938,246,38,0.0726200399331127,1
938,247,38,0.0586743150566347,1
938,253,38,0.066127754258697,1
938,254,38,0.102475517569428,1
938,255,38,0.124704280411895,1
938,256,38,0.125540383497144,1
938,257,38,0.11573796437552,1
938,258,38,0.102222586154955,1
938,259,38,0.115504351326098,1
938,260,38,0.128880609012991,1
939,243,38,0.0740614399961203,1
939,244,38,0.113600537064701,1
939,247,38,0.083595554388958,1
939,248,38,0.0640161850158741,1
939,249,38,0.0598876628816509,1
939,250,38,0.058977718353428,1
939,251,38,0.0570519026207214,1
939,253,38,0.0646891611376201,1
939,254,38,0.0932542061906892,1
939,255,38,0.114125777228068,1
939,256,38,0.12240034719277,1
939,257,38,0.117949351068048,1
939,258,38,0.0915298828924956,1
939,259,38,0.0686375790272092,1
940,236,38,0.0578148011321741,1
940,239,38,0.0600572587848555,1
940,242,38,0.0695149252886409,1
940,243,38,0.0840079094906056,1
940,248,38,0.0757373789276312,1
940,249,38,0.0616683255143096,1
940,250,38,0.0606717137055096,1
940,251,38,0.0584834724900349,1
940,253,38,0.0618742465483813,1
940,254,38,0.0739265534630917,1
940,255,38,0.0860292202183225,1
940,256,38,0.0895282325521669,1
940,257,38,0.0883652032891132,1
941,233,38,0.058874003028478,1
941,235,38,0.0594726718492407,1
941,236,38,0.0664617390698861,1
941,243,38,0.083688885208152,1
941,248,38,0.0732940303279933,1
941,249,38,0.0634084643970788,1
941,250,38,0.064623433879723,1
941,254,38,0.0776847007889535,1
941,255,38,0.0859558033548004,1
941,256,38,0.076165290148634,1
942,232,38,0.058715499263449,1
942,233,38,0.0616190625040394,1
942,234,38,0.0592690034450377,1
942,235,38,0.0652281057821777,1
942,247,38,0.0799633066643972,1
942,248,38,0.0665476397486754,1
943,233,38,0.0637201941686748,1
943,235,38,0.070690155313994,1
922,273,39,0.0764391733796609,1
922,274,39,0.0748842277980093,1
923,273,39,0.0684891354364106,1
923,274,39,0.0764612574080859,1
924,274,39,0.0697718017538528,1
925,274,39,0.069487215582481,1
936,255,39,0.0728382324927258,1
936,256,39,0.0775312919773448,1
936,257,39,0.0723292619780704,1
936,258,39,0.0670196010877914,1
936,259,39,0.105362752191939,1
936,260,39,0.132564625945975,1
936,261,39,0.0869514598598341,1
936,262,39,0.0576085734573873,1
937,254,39,0.0933205762147006,1
937,255,39,0.130775070732578,1
937,256,39,0.121285295407758,1
937,257,39,0.107666378770348,1
937,258,39,0.100998110810142,1
937,259,39,0.165853942970299,1
937,260,39,0.205314310035275,1
938,244,39,0.0903531019727565,1
938,246,39,0.0812999240568887,1
938,247,39,0.0584905370203561,1
938,253,39,0.0690851034601055,1
938,254,39,0.118755084928628,1
938,255,39,0.160096044117768,1
938,256,39,0.156998277056585,1
938,257,39,0.151143149509615,1
938,258,39,0.118820647072294,1
938,259,39,0.132565887890456,1
939,243,39,0.0732627883566728,1
939,247,39,0.0816168785145154,1
939,248,39,0.0647412428836946,1
939,249,39,0.0608319039944718,1
939,250,39,0.0590096915449154,1
939,251,39,0.0576047227576379,1
939,253,39,0.0643177838499978,1
939,254,39,0.0949624131605289,1
939,255,39,0.126044831061251,1
939,256,39,0.141131872679378,1
939,257,39,0.154534654788129,1
940,239,39,0.0609987106465562,1
940,241,39,0.0669580075826116,1
940,242,39,0.0645945506831342,1
940,243,39,0.0780512543822496,1
940,248,39,0.0746794507696824,1
940,249,39,0.0646388071940365,1
940,250,39,0.0618277668922945,1
940,254,39,0.0699457495964372,1
940,255,39,0.0830822319349227,1
940,256,39,0.0925831937489073,1
941,235,39,0.0595022449874386,1
941,236,39,0.0639324603067747,1
941,237,39,0.0682752889192405,1
941,243,39,0.0788870095482258,1
941,248,39,0.0731693690834264,1
942,233,39,0.0598258334989979,1
942,235,39,0.0666166810850703,1
942,236,39,0.0780255791192958,1
937,259,40,0.164416434885599,1
938,255,40,0.177418272465466,1
938,256,40,0.178710975369391,1
938,257,40,0.173825587290091,1
939,243,40,0.0699849642263507,1
939,247,40,0.0805819543071368,1
939,248,40,0.0647696484284003,1
939,249,40,0.0625394976828812,1
939,250,40,0.0598374032890566,1
939,255,40,0.125603681217067,1
939,256,40,0.14419194652035,1
940,238,40,0.0590682363337545,1
940,239,40,0.0609888273804306,1
940,240,40,0.0650908604744175,1
940,241,40,0.0656807546531785,1
940,242,40,0.064455477324957,1
940,243,40,0.0724924420140049,1
940,247,40,0.0871368713476142,1
940,248,40,0.0717656091681989,1
941,237,40,0.0777248766195701,1
941,242,40,0.0763516451463068,1
941,243,40,0.0756284684013348,1
