x,y,z,signal,cytoplasm.p
27,867,56,0.0755256671015933,1
27,868,56,0.0804434765395793,1
28,864,56,0.0935122089708355,1
28,865,56,0.109821473303907,1
28,866,56,0.0929519940751353,1
28,867,56,0.0768099904582845,1
28,868,56,0.0714643346656007,1
29,864,56,0.0983499498005562,1
29,865,56,0.111040700374941,1
29,866,56,0.0893310153968549,1
37,860,56,0.0581714301807869,1
38,856,56,0.0587814859865665,1
25,864,57,0.0603224263432491,1
25,865,57,0.0603138463001628,1
25,866,57,0.0572490667036019,1
26,860,57,0.127027072034999,1
26,862,57,0.0667843604838055,1
26,864,57,0.06050629283358,1
26,865,57,0.0633032807348583,1
26,866,57,0.0617822838185317,1
26,867,57,0.0719023237516444,1
26,868,57,0.0864085229890431,1
26,869,57,0.0723687537640148,1
27,860,57,0.167644017114137,1
27,861,57,0.148947719928146,1
27,862,57,0.0785845320705145,1
27,863,57,0.0569599104061876,1
27,864,57,0.0712091270335115,1
27,865,57,0.0771074083641963,1
27,866,57,0.0743403061387679,1
27,867,57,0.0950150197339812,1
27,868,57,0.116504318491954,1
27,869,57,0.0943722772073579,1
27,870,57,0.0596092213184551,1
28,859,57,0.0736701133712052,1
28,860,57,0.114654720667763,1
28,861,57,0.101998773814544,1
28,862,57,0.0652756350930202,1
28,863,57,0.0679014408150869,1
28,864,57,0.0945738580959234,1
28,865,57,0.102446941013554,1
28,866,57,0.0884537045170442,1
28,867,57,0.0882072361453356,1
28,868,57,0.0956140423709536,1
28,869,57,0.076847648296875,1
29,863,57,0.0730691978175107,1
29,864,57,0.0998050425508809,1
29,865,57,0.105353187360402,1
29,866,57,0.0857745786921689,1
29,867,57,0.0671073121261873,1
29,868,57,0.0595771832606626,1
30,864,57,0.0664762101528646,1
30,865,57,0.0683631414841203,1
30,866,57,0.0592739037995426,1
30,873,57,0.0574358108991055,1
30,874,57,0.0585769212479654,1
31,873,57,0.0620216994537927,1
31,874,57,0.0615972792193928,1
32,872,57,0.0584075317375499,1
32,873,57,0.067361399340279,1
32,874,57,0.0645326446403024,1
33,873,57,0.0604250861165067,1
33,874,57,0.0582281528161459,1
36,877,57,0.0606032620627976,1
37,858,57,0.0610353660058858,1
37,859,57,0.0623602956695821,1
37,860,57,0.0608645317459471,1
37,861,57,0.0583279761627887,1
37,876,57,0.0577715176158486,1
37,877,57,0.0809237761473717,1
38,854,57,0.0734781739743552,1
38,855,57,0.0719159810573406,1
38,856,57,0.0608139714095745,1
38,857,57,0.0569161905165368,1
38,858,57,0.0612850246204189,1
38,859,57,0.060286649627507,1
38,865,57,0.0572235270701952,1
38,875,57,0.0570300662636433,1
38,876,57,0.0606726513184654,1
38,877,57,0.10073628681493,1
39,854,57,0.0913258134965882,1
39,855,57,0.0849453101567047,1
39,856,57,0.0656392932903332,1
39,865,57,0.0605071537863571,1
39,866,57,0.0657604104758658,1
39,867,57,0.0612778126666769,1
39,874,57,0.0570233614464686,1
39,875,57,0.0597289940023907,1
39,876,57,0.0626598659574366,1
40,854,57,0.0915776539777481,1
40,855,57,0.0817342275574142,1
40,856,57,0.0632018770091453,1
40,865,57,0.0696142768803374,1
40,866,57,0.0822676172874789,1
40,867,57,0.0756820892479217,1
40,868,57,0.0586555215189603,1
40,873,57,0.0570796948839969,1
40,874,57,0.0595327203569713,1
40,875,57,0.0626660931227281,1
40,876,57,0.0647442031459828,1
41,854,57,0.0738957183804124,1
41,855,57,0.0686770885039641,1
41,858,57,0.059457616969516,1
41,859,57,0.0643794835000405,1
41,860,57,0.065659242627626,1
41,861,57,0.0584884200200345,1
41,865,57,0.0700566591843187,1
41,866,57,0.0842617903119083,1
41,867,57,0.078488046390117,1
41,868,57,0.0598138096448034,1
41,872,57,0.0588499965986468,1
41,873,57,0.0598775968104837,1
41,874,57,0.0616911230720909,1
41,875,57,0.0638012475653907,1
42,857,57,0.0615085362170518,1
42,858,57,0.0673542817375263,1
42,859,57,0.0796789622674354,1
42,860,57,0.091799821072784,1
42,861,57,0.0765013919601446,1
42,862,57,0.0606015460541803,1
42,865,57,0.0645722130864256,1
42,866,57,0.0737810701345813,1
42,867,57,0.0704421065632152,1
42,868,57,0.0572672646506565,1
42,872,57,0.0592177531670561,1
42,873,57,0.061505287004859,1
42,874,57,0.0619579771544176,1
43,858,57,0.0680309021662327,1
43,859,57,0.0936075683362986,1
43,860,57,0.119355522830439,1
43,861,57,0.0932440870470905,1
43,862,57,0.0640295769594129,1
43,865,57,0.0586198273603339,1
43,866,57,0.0620058897661539,1
43,867,57,0.0606885907387145,1
43,873,57,0.0594140562971596,1
44,860,57,0.11993184226062,1
44,861,57,0.0914797353417011,1
44,865,57,0.0572880867346,1
44,866,57,0.0582959027233753,1
44,867,57,0.0573137148220592,1
46,865,57,0.059100651795504,1
23,862,58,0.0572051168334147,1
24,858,58,0.0761772078579655,1
24,859,58,0.0691858585227673,1
24,860,58,0.0590326365261173,1
24,861,58,0.0610313501919052,1
24,862,58,0.0626740539874474,1
24,863,58,0.0601010848193693,1
24,864,58,0.0580876995747507,1
24,865,58,0.0583633459898895,1
24,866,58,0.0569878677836943,1
25,859,58,0.0625675140297562,1
25,860,58,0.0747213249181057,1
25,861,58,0.0705164846274405,1
25,862,58,0.0614341699467002,1
25,863,58,0.058919167667652,1
25,864,58,0.0619402568592462,1
25,865,58,0.0620599646768766,1
25,866,58,0.0582737479317084,1
26,859,58,0.0928748149659162,1
26,860,58,0.156047065764432,1
26,861,58,0.129169193307533,1
26,862,58,0.0695420158164337,1
26,864,58,0.0646822145460354,1
26,865,58,0.0648013975362881,1
26,866,58,0.0623994100515694,1
26,867,58,0.0744780232014744,1
26,868,58,0.0961782553898238,1
26,869,58,0.0738570285778768,1
26,878,58,0.138757046485695,1
27,859,58,0.12813602638733,1
27,860,58,0.223466095868342,1
27,861,58,0.186200863537994,1
27,862,58,0.087286311520737,1
27,863,58,0.0581105502049634,1
27,864,58,0.0725679758778487,1
27,865,58,0.0729384509341361,1
27,866,58,0.0737767889584434,1
27,867,58,0.107353746767417,1
27,868,58,0.143084136173764,1
27,869,58,0.104721790540238,1
27,870,58,0.0581305290269403,1
27,877,58,0.087681642165759,1
27,878,58,0.160883898465881,1
28,859,58,0.0856391555378889,1
28,860,58,0.144940645207918,1
28,861,58,0.119801649689307,1
28,862,58,0.0682147155841322,1
28,863,58,0.0663704309000245,1
28,864,58,0.0876552356826384,1
28,865,58,0.090249368956996,1
28,866,58,0.0841679700469575,1
28,867,58,0.0959267038585686,1
28,868,58,0.116129815827812,1
28,869,58,0.0839023838060491,1
28,877,58,0.0732835396773743,1
29,860,58,0.0602208987818627,1
29,863,58,0.069148743202365,1
29,864,58,0.0900600478000982,1
29,865,58,0.0936240502747359,1
29,866,58,0.0817211068729695,1
29,867,58,0.0686688858648348,1
29,868,58,0.0656785374049308,1
29,877,58,0.0623086915753907,1
29,878,58,0.0770652983382998,1
30,864,58,0.0631248394264101,1
30,865,58,0.0657564654251272,1
30,866,58,0.0592913705264304,1
30,877,58,0.058437234608358,1
30,878,58,0.0658145148712727,1
31,873,58,0.0594459941070259,1
31,874,58,0.0582058152194373,1
31,877,58,0.0573904457640793,1
31,878,58,0.0635022256926613,1
32,873,58,0.0595829858465024,1
32,874,58,0.0579627906588369,1
32,878,58,0.0624724554080713,1
33,878,58,0.0622567454588633,1
34,878,58,0.0617135727105992,1
35,878,58,0.0602926939877568,1
36,877,58,0.0596003110469063,1
36,878,58,0.0812381359527936,1
37,854,58,0.0601268367425019,1
37,855,58,0.0623171477828036,1
37,857,58,0.0577924576385287,1
37,858,58,0.0672774682383906,1
37,859,58,0.0672056494447491,1
37,860,58,0.0600295844603166,1
37,877,58,0.0992772195291829,1
37,878,58,0.163731800519742,1
38,853,58,0.0682460106278841,1
38,854,58,0.0877663693541194,1
38,855,58,0.0878103192243066,1
38,856,58,0.0677208589185697,1
38,857,58,0.0587824059087118,1
38,858,58,0.0647719305429531,1
38,859,58,0.0636305607288727,1
38,877,58,0.136113013331889,1
38,878,58,0.224123368447312,1
39,853,58,0.0811999473898884,1
39,854,58,0.104413793529654,1
39,855,58,0.0976928187480699,1
39,856,58,0.0689814353106502,1
39,866,58,0.0574051114459733,1
39,876,58,0.0606282237963951,1
39,877,58,0.11045177329382,1
40,853,58,0.0856645241601276,1
40,854,58,0.102465858386902,1
40,855,58,0.0864983274400133,1
40,856,58,0.0605098015109934,1
40,865,58,0.0630840856959843,1
40,866,58,0.0693136805254746,1
40,867,58,0.0624647893901935,1
40,875,58,0.0607155456369602,1
40,876,58,0.0634445654443465,1
40,877,58,0.0748826061403813,1
41,853,58,0.076773293820397,1
41,854,58,0.0876095521130234,1
41,855,58,0.0734741640573114,1
41,859,58,0.0568899786323315,1
41,865,58,0.0665643575645858,1
41,866,58,0.0745621665930886,1
41,867,58,0.0679855252373328,1
41,874,58,0.0602303102930419,1
41,875,58,0.0641966135920337,1
41,876,58,0.065728938524009,1
42,854,58,0.0662178299687613,1
42,855,58,0.0636028687135233,1
42,856,58,0.057056779387479,1
42,857,58,0.0583502606870658,1
42,858,58,0.0624936725867824,1
42,859,58,0.0633318926723531,1
42,860,58,0.064057522543046,1
42,861,58,0.0585290676055974,1
42,865,58,0.0624928765003105,1
42,866,58,0.0686685497394356,1
42,867,58,0.064003595055744,1
42,873,58,0.0589749998655498,1
42,874,58,0.0609980914681891,1
42,875,58,0.0615948850630401,1
43,858,58,0.0619587437562053,1
43,859,58,0.0709085306786487,1
43,860,58,0.082011843549454,1
43,861,58,0.0692514501511173,1
43,862,58,0.0570606241902916,1
43,866,58,0.0591648458498255,1
43,867,58,0.0571365472519661,1
43,873,58,0.0591976917879635,1
43,874,58,0.0597649771109218,1
44,858,58,0.059158860458944,1
44,859,58,0.0804352915912606,1
44,860,58,0.0990522278014059,1
44,861,58,0.0785591988298968,1
44,873,58,0.0582852115769041,1
45,859,58,0.0689020802317411,1
45,860,58,0.0808292600438751,1
45,861,58,0.0654242202103027,1
46,860,58,0.0633759604812768,1
46,861,58,0.059577342477957,1
46,865,58,0.0581618771431237,1
46,866,58,0.0603333238825092,1
46,867,58,0.0591993488272125,1
47,861,58,0.0665980172800063,1
47,862,58,0.0632588355219775,1
47,863,58,0.0641021741487158,1
47,864,58,0.063709320217162,1
47,865,58,0.0648674963012053,1
47,867,58,0.0690508776387495,1
21,873,59,0.0572154777514235,1
21,875,59,0.0582543470095407,1
22,858,59,0.13535786339543,1
22,859,59,0.0955670437844257,1
22,876,59,0.060438253976446,1
23,857,59,0.107236138259298,1
23,858,59,0.154508649296712,1
23,859,59,0.109493674379451,1
23,860,59,0.0570562781478486,1
23,862,59,0.0569814165348033,1
23,876,59,0.0596165335201231,1
23,877,59,0.0616530878295432,1
24,857,59,0.0739321260683952,1
24,858,59,0.10014146279698,1
24,859,59,0.0779615619730792,1
24,860,59,0.0597370610119729,1
24,861,59,0.0616549099830234,1
24,862,59,0.0632607638203206,1
24,863,59,0.0589881205499946,1
24,864,59,0.0568596388923458,1
24,865,59,0.058408941105452,1
24,866,59,0.0569189502829728,1
24,876,59,0.0609617250587642,1
24,877,59,0.0662753604844659,1
25,858,59,0.0581116824168346,1
25,859,59,0.0650681218860046,1
25,860,59,0.0795163719251838,1
25,861,59,0.0757594806468666,1
25,862,59,0.0652930074689187,1
25,863,59,0.0595460238464577,1
25,864,59,0.0601605554272906,1
25,865,59,0.0601250617645163,1
25,866,59,0.0579814131853432,1
25,876,59,0.0605622547640881,1
25,877,59,0.0740092756929302,1
25,878,59,0.0917537895838961,1
26,858,59,0.0597768063662009,1
26,859,59,0.0960100452667741,1
26,860,59,0.160963955280273,1
26,861,59,0.131220784805868,1
26,862,59,0.074274608365555,1
26,863,59,0.0579478065423542,1
26,864,59,0.0641402742575686,1
26,865,59,0.0629621429392956,1
26,866,59,0.0628047183137063,1
26,867,59,0.0744050368143407,1
26,868,59,0.0928294734186373,1
26,869,59,0.0698805294751075,1
26,876,59,0.0578699492853998,1
26,877,59,0.0827118453326877,1
26,878,59,0.134087380149476,1
26,879,59,0.182106549534317,1
27,858,59,0.0656319457070441,1
27,859,59,0.140498718572039,1
27,860,59,0.240373675205966,1
27,861,59,0.195297348557935,1
27,862,59,0.0934823056041751,1
27,863,59,0.0603231870481,1
27,864,59,0.0691448925026156,1
27,865,59,0.067799583025238,1
27,866,59,0.0725049317262089,1
27,867,59,0.106525592753014,1
27,868,59,0.139928991917234,1
27,869,59,0.0992292774327624,1
27,870,59,0.0571645812896516,1
27,877,59,0.0831791539886456,1
27,878,59,0.145384165620707,1
27,879,59,0.194066056354148,1
28,858,59,0.0580349396809408,1
28,859,59,0.0986682900383376,1
28,860,59,0.163484506576877,1
28,861,59,0.130727529627862,1
28,862,59,0.0726816747168503,1
28,863,59,0.0621940610203701,1
28,864,59,0.074445601842788,1
28,865,59,0.0765237177629796,1
28,866,59,0.076779196654163,1
28,867,59,0.0943652598525313,1
28,868,59,0.116865057705537,1
28,869,59,0.0828671883395764,1
28,877,59,0.070556112042932,1
28,878,59,0.102518942612237,1
28,879,59,0.130612244512853,1
29,859,59,0.0595601175254792,1
29,860,59,0.0728251236021547,1
29,861,59,0.0648145241176697,1
29,863,59,0.0606341561148452,1
29,864,59,0.0734435353674212,1
29,865,59,0.0785386480050474,1
29,866,59,0.0730436463902302,1
29,867,59,0.0667360704681121,1
29,868,59,0.0680131052108825,1
29,877,59,0.060860327229988,1
29,878,59,0.0717301214023614,1
29,879,59,0.081456764885732,1
30,865,59,0.0605703866399754,1
30,877,59,0.057922697385336,1
30,878,59,0.0639453510106831,1
30,879,59,0.0708302370483689,1
31,878,59,0.0628073778322162,1
31,879,59,0.0697105266832617,1
32,878,59,0.0649597892595174,1
32,879,59,0.0759923624761209,1
33,878,59,0.066574323387827,1
33,879,59,0.0786111980188557,1
34,878,59,0.063375022868321,1
34,879,59,0.07055531595646,1
35,878,59,0.0606068061218318,1
35,879,59,0.0632556511760898,1
36,877,59,0.0657497193293947,1
36,878,59,0.101361173416835,1
36,879,59,0.092037060738355,1
37,854,59,0.0617773952579004,1
37,855,59,0.0648356764300756,1
37,857,59,0.0569389703835075,1
37,858,59,0.064580203435829,1
37,859,59,0.0633195385896961,1
37,877,59,0.118940284126682,1
37,878,59,0.215510278926999,1
37,879,59,0.173756522365949,1
38,853,59,0.0677892456949766,1
38,854,59,0.0923202316448878,1
38,855,59,0.0958680293371192,1
38,856,59,0.0715984545968415,1
38,857,59,0.0576506952771574,1
38,858,59,0.0612942887081774,1
38,859,59,0.059924648469443,1
38,876,59,0.0607784364682424,1
38,877,59,0.16275144656578,1
38,878,59,0.285811318967389,1
38,879,59,0.225021542689624,1
39,853,59,0.0767310363710798,1
39,854,59,0.103896573200375,1
39,855,59,0.101834945115558,1
39,856,59,0.0719583446515207,1
39,876,59,0.0632090064057717,1
39,877,59,0.121779081310079,1
39,878,59,0.199832446795713,1
40,852,59,0.0579602254913163,1
40,853,59,0.0802189683606223,1
40,854,59,0.0992723132777411,1
40,855,59,0.084842898054794,1
40,856,59,0.0606186943464793,1
40,875,59,0.0578426110862601,1
40,876,59,0.0634652165171219,1
40,877,59,0.0778825784011904,1
41,853,59,0.0773279655954779,1
41,854,59,0.0907329000861708,1
41,855,59,0.0735283333190234,1
41,866,59,0.0591978274175106,1
41,874,59,0.0572076230315671,1
41,875,59,0.0631875297618402,1
41,876,59,0.0651485148257955,1
41,877,59,0.065875748663306,1
42,853,59,0.0580679920118678,1
42,854,59,0.068610087507712,1
42,855,59,0.0617906810565763,1
42,866,59,0.057643394869363,1
42,874,59,0.0586417108929066,1
42,875,59,0.0619744355051075,1
42,876,59,0.0625677145256084,1
43,859,59,0.0581374697215882,1
43,860,59,0.0596676835501786,1
43,874,59,0.0591291634850727,1
43,875,59,0.0599906882649919,1
44,859,59,0.0641550637751359,1
44,860,59,0.0725629457907335,1
44,861,59,0.0640673350459296,1
44,874,59,0.0582116649807717,1
45,859,59,0.059833629249486,1
45,860,59,0.066527501709404,1
45,861,59,0.0586883025907933,1
46,860,59,0.060136112624134,1
46,865,59,0.0602605379912278,1
46,866,59,0.0582752280628525,1
47,860,59,0.0609001728321421,1
47,861,59,0.0598018211722299,1
47,862,59,0.0569051573477295,1
47,863,59,0.0579844265200628,1
47,864,59,0.0618405042758453,1
47,865,59,0.0657141549033785,1
47,866,59,0.0668024640798708,1
47,867,59,0.0623005832872507,1
48,861,59,0.060611977735431,1
48,862,59,0.062191478162039,1
48,863,59,0.0666859524020016,1
48,864,59,0.0683446781749084,1
48,865,59,0.0694587097898492,1
48,867,59,0.0702019597077874,1
20,875,60,0.0583053024406808,1
21,858,60,0.0875636621506195,1
21,859,60,0.0624135685968961,1
21,875,60,0.0602603728769966,1
21,876,60,0.0662633130425241,1
22,857,60,0.121642944626442,1
22,858,60,0.182350128406979,1
22,859,60,0.110850701070308,1
22,876,60,0.0615931218789282,1
22,877,60,0.0633765383810861,1
23,857,60,0.139310155572516,1
23,858,60,0.20536120247694,1
23,859,60,0.126678020550212,1
23,876,60,0.0585093364549673,1
23,877,60,0.0618091325719146,1
23,878,60,0.0622527473356932,1
24,857,60,0.0811382064612878,1
24,858,60,0.115219234430412,1
24,859,60,0.0789544056392454,1
24,860,60,0.0575541211427075,1
24,861,60,0.0591538598565129,1
24,862,60,0.0610133881223238,1
24,876,60,0.0589186959127057,1
24,877,60,0.0685919249422784,1
24,878,60,0.0729010820454502,1
25,858,60,0.0578530486644476,1
25,859,60,0.064472106686815,1
25,860,60,0.0762454649017622,1
25,861,60,0.0737987432542581,1
25,862,60,0.0645324382475134,1
25,863,60,0.0573999988017424,1
25,876,60,0.0603554256017447,1
25,877,60,0.0807133262658152,1
25,878,60,0.0993838243531791,1
25,879,60,0.12909306385307,1
26,858,60,0.0612628816226257,1
26,859,60,0.0903113103814488,1
26,860,60,0.139127551026666,1
26,861,60,0.115643294951665,1
26,862,60,0.072435542470541,1
26,863,60,0.0573571044832476,1
26,864,60,0.0585303059623315,1
26,865,60,0.0571591737985793,1
26,866,60,0.0581290665866067,1
26,867,60,0.066586329551211,1
26,868,60,0.0743730518289798,1
26,869,60,0.0583765905100077,1
26,876,60,0.0581751452509892,1
26,877,60,0.0864428549552621,1
26,878,60,0.129514565103739,1
26,879,60,0.181024874411757,1
26,880,60,0.17137171855515,1
27,858,60,0.0736837647799645,1
27,859,60,0.132314843495768,1
27,860,60,0.210251980356501,1
27,861,60,0.17100160321201,1
27,862,60,0.0893200117127318,1
27,863,60,0.0585545836512569,1
27,864,60,0.0622674955747027,1
27,865,60,0.0619622878152396,1
27,866,60,0.0664358810018905,1
27,867,60,0.0889218387441581,1
27,868,60,0.106732009129779,1
27,869,60,0.0780710916777427,1
27,877,60,0.0789445223731199,1
27,878,60,0.12909622461121,1
27,879,60,0.186985156136263,1
27,880,60,0.169762456288366,1
28,858,60,0.0701760485673604,1
28,859,60,0.104840389733744,1
28,860,60,0.158757179992344,1
28,861,60,0.128037075787338,1
28,862,60,0.0730752775593815,1
28,864,60,0.0622554894113187,1
28,865,60,0.065943510364409,1
28,866,60,0.0670300032843579,1
28,867,60,0.0800605294618984,1
28,868,60,0.0934649450221503,1
28,869,60,0.0695833828282898,1
28,877,60,0.0651169249352021,1
28,878,60,0.0880172014590814,1
28,879,60,0.12250551316418,1
28,880,60,0.121937708910781,1
29,858,60,0.0590919656075548,1
29,859,60,0.0671442151568637,1
29,860,60,0.0806146115432963,1
29,861,60,0.0701502376748595,1
29,864,60,0.0581631921600366,1
29,865,60,0.0649275507058728,1
29,866,60,0.061975903842378,1
29,867,60,0.0586018181152578,1
29,868,60,0.0602883302545033,1
29,878,60,0.0652995235841148,1
29,879,60,0.0810258285361359,1
29,880,60,0.0953067235081057,1
30,878,60,0.0621934831205608,1
30,879,60,0.0733925209669127,1
30,880,60,0.0838123552714794,1
31,878,60,0.062403703021581,1
31,879,60,0.0732021796399434,1
31,880,60,0.0785775854789299,1
32,878,60,0.0657422773951164,1
32,879,60,0.0797877253703111,1
32,880,60,0.0802416656704775,1
33,878,60,0.0708068556938416,1
33,879,60,0.0865250051822281,1
33,880,60,0.0822383507899961,1
34,878,60,0.0638449379703574,1
34,879,60,0.0742732874517053,1
34,880,60,0.0703777297038521,1
35,878,60,0.0596823433351358,1
35,879,60,0.0633436688552008,1
36,877,60,0.07068287259701,1
36,878,60,0.114509313999432,1
36,879,60,0.103150457371138,1
37,854,60,0.0575832461137063,1
37,855,60,0.0610036345888085,1
37,858,60,0.0571907106167413,1
37,877,60,0.131387385065163,1
37,878,60,0.245100824882394,1
37,879,60,0.205468927718934,1
37,880,60,0.113356474643219,1
38,853,60,0.0626797976039189,1
38,854,60,0.0841171207606803,1
38,855,60,0.0893608951757679,1
38,856,60,0.0682211078636549,1
38,876,60,0.0682528510746059,1
38,877,60,0.171139367450211,1
38,878,60,0.3102849513097,1
38,879,60,0.256871747662431,1
39,853,60,0.0691253028784694,1
39,854,60,0.0917869716474334,1
39,855,60,0.0923287232339217,1
39,856,60,0.0673513804446064,1
39,876,60,0.0679454437577055,1
39,877,60,0.125328046595802,1
39,878,60,0.21292020274518,1
39,879,60,0.18293144843959,1
40,853,60,0.0721177329570742,1
40,854,60,0.0873445201841769,1
40,855,60,0.0763743483530988,1
40,856,60,0.0572387057855932,1
40,876,60,0.0648215650602436,1
40,877,60,0.0805406757493332,1
40,878,60,0.1065173606292,1
41,853,60,0.0725248279910702,1
41,854,60,0.0841083991911101,1
41,855,60,0.0691536317629964,1
41,875,60,0.0622803508969901,1
41,876,60,0.0646919444918034,1
41,877,60,0.0664608368385512,1
42,853,60,0.0570222233376606,1
42,854,60,0.06644614756891,1
42,855,60,0.0594284507199594,1
42,874,60,0.0575028236892312,1
42,875,60,0.0629841503075418,1
42,876,60,0.0635690379869348,1
42,877,60,0.0633621852368441,1
43,874,60,0.0594254786637975,1
43,875,60,0.0624333115413998,1
43,876,60,0.0631960626294319,1
44,874,60,0.0595391008426204,1
44,875,60,0.0609888863497989,1
45,874,60,0.05892103109969,1
46,865,60,0.0600099240729284,1
47,864,60,0.0583271211069485,1
47,865,60,0.0638960997942865,1
47,866,60,0.0605659757312272,1
48,863,60,0.0581915564261846,1
48,864,60,0.0625113928819538,1
48,865,60,0.0650244137902274,1
48,866,60,0.0662084892208241,1
48,867,60,0.0615122159056332,1
49,863,60,0.059974571936638,1
49,864,60,0.0633279240338671,1
49,865,60,0.063689618551216,1
49,866,60,0.0683929799844755,1
20,876,61,0.0595939305612572,1
21,857,61,0.0700934324823849,1
21,858,61,0.0972363604558776,1
21,859,61,0.0672647839272712,1
21,875,61,0.059941897009668,1
21,876,61,0.0649566756768716,1
21,877,61,0.0652581034998273,1
22,856,61,0.0602759113055412,1
22,857,61,0.137378437006043,1
22,858,61,0.197565027409434,1
22,859,61,0.11825450575508,1
22,860,61,0.0570452154943572,1
22,876,61,0.0608966110822974,1
22,877,61,0.0626675142845039,1
22,878,61,0.0604225150520492,1
23,856,61,0.067710014451741,1
23,857,61,0.152840429455511,1
23,858,61,0.215840790442396,1
23,859,61,0.129865491814438,1
23,860,61,0.060360349543997,1
23,876,61,0.0571780086148114,1
23,877,61,0.061603724571347,1
23,878,61,0.0633765796596439,1
24,857,61,0.0873685030262608,1
24,858,61,0.117748595750639,1
24,859,61,0.0791034212329165,1
24,860,61,0.0574479350012261,1
24,862,61,0.0571750837341442,1
24,877,61,0.0679472600142489,1
24,878,61,0.0767616473701596,1
24,879,61,0.0912491474208733,1
25,858,61,0.0599765238227285,1
25,859,61,0.0635494660535991,1
25,860,61,0.068132913276439,1
25,861,61,0.0662892477706984,1
25,862,61,0.0606142716438575,1
25,876,61,0.0592765986996735,1
25,877,61,0.0836105031238197,1
25,878,61,0.105018111615899,1
25,879,61,0.127846958543968,1
25,880,61,0.155655143548897,1
26,858,61,0.059839390556768,1
26,859,61,0.0775917591675903,1
26,860,61,0.101713090812922,1
26,861,61,0.0901403286980894,1
26,862,61,0.0663875202229552,1
26,876,61,0.0580159279566038,1
26,877,61,0.0874737751425337,1
26,878,61,0.123014336255415,1
26,879,61,0.159835611799648,1
26,880,61,0.171167436869517,1
27,858,61,0.0717563509773772,1
27,859,61,0.104405549611967,1
27,860,61,0.146094038876193,1
27,861,61,0.125426867463184,1
27,862,61,0.078108932321375,1
27,863,61,0.0576834232765589,1
27,866,61,0.0588131289495914,1
27,867,61,0.0671423340340152,1
27,868,61,0.0706382091974665,1
27,869,61,0.0574550231192947,1
27,877,61,0.0765380591133479,1
27,878,61,0.115143411616664,1
27,879,61,0.161288758560819,1
27,880,61,0.168512128772495,1
28,857,61,0.0594525220160957,1
28,858,61,0.0744815495696982,1
28,859,61,0.0959474080037755,1
28,860,61,0.127599051319673,1
28,861,61,0.109962398300248,1
28,862,61,0.0703959099600961,1
28,865,61,0.0582542762462987,1
28,866,61,0.0581177326740212,1
28,867,61,0.0622117341400469,1
28,868,61,0.0656927018471942,1
28,877,61,0.0603237236693515,1
28,878,61,0.0784566982739336,1
28,879,61,0.107603399485013,1
28,880,61,0.121231609694866,1
29,858,61,0.0636173162087546,1
29,859,61,0.066884089479459,1
29,860,61,0.0757665982496193,1
29,861,61,0.0679401895869908,1
29,878,61,0.06300163472524,1
29,879,61,0.0803318239376574,1
29,880,61,0.0969717059309881,1
29,881,61,0.0996104082539,1
30,878,61,0.0621190107053463,1
30,879,61,0.0755821892411001,1
30,880,61,0.0838169607791429,1
30,881,61,0.0853979472338318,1
31,878,61,0.0628284711752538,1
31,879,61,0.0754837280868648,1
31,880,61,0.0778975212391153,1
31,881,61,0.0756701302600323,1
32,878,61,0.0666606073675102,1
32,879,61,0.0801941658443192,1
32,880,61,0.0746919404818864,1
32,881,61,0.0699478783906325,1
33,878,61,0.0746505793669671,1
33,879,61,0.0901283638132632,1
33,880,61,0.0786392202626675,1
34,878,61,0.0652365796804011,1
34,879,61,0.0768609694771719,1
34,880,61,0.0684292343521007,1
35,878,61,0.0627739598912058,1
35,879,61,0.0662133954722659,1
36,877,61,0.0748852656588912,1
36,878,61,0.110962506992588,1
36,879,61,0.101599173787257,1
37,876,61,0.0629052905713264,1
37,877,61,0.131747133593358,1
37,878,61,0.228671888113313,1
37,879,61,0.209249784148524,1
37,880,61,0.120592263803856,1
38,853,61,0.0568823244083273,1
38,854,61,0.069060106344887,1
38,855,61,0.0710315171931562,1
38,856,61,0.0579280635978504,1
38,876,61,0.0743950356094786,1
38,877,61,0.157080173715267,1
38,878,61,0.279005569821949,1
38,879,61,0.262900233358302,1
39,853,61,0.0629245499670102,1
39,854,61,0.0763459074267721,1
39,855,61,0.0745281235767743,1
39,856,61,0.0579351694067295,1
39,876,61,0.0719636283069196,1
39,877,61,0.119142584441541,1
39,878,61,0.199267638186223,1
39,879,61,0.200146305361504,1
40,853,61,0.0633015529323674,1
40,854,61,0.0712809753118371,1
40,855,61,0.0635951260354667,1
40,876,61,0.0669372739527205,1
40,877,61,0.081709118400396,1
40,878,61,0.105957446477278,1
41,853,61,0.060952036391554,1
41,854,61,0.0667114094782928,1
41,855,61,0.0583196202033019,1
41,875,61,0.0606517053988485,1
41,876,61,0.0650601079488538,1
41,877,61,0.0685866059052586,1
42,875,61,0.0627733525067124,1
42,876,61,0.0644205556650551,1
42,877,61,0.0645403165551171,1
43,874,61,0.0581070356306132,1
43,875,61,0.0636537474844847,1
43,876,61,0.0644028471637574,1
44,874,61,0.0589349537675435,1
44,875,61,0.0622989734234964,1
45,873,61,0.0580144478254597,1
45,874,61,0.059596595976704,1
46,871,61,0.0591272469806032,1
46,872,61,0.0658718095095041,1
46,873,61,0.06791716794561,1
47,870,61,0.0614620270762808,1
47,871,61,0.0719785239693499,1
48,865,61,0.0587601272813715,1
48,866,61,0.0575328214068808,1
49,864,61,0.0582252633170996,1
49,865,61,0.0589375896983061,1
20,876,62,0.0574913541470987,1
21,857,62,0.0728865460961665,1
21,858,62,0.0921180846503867,1
21,859,62,0.0656567010478527,1
21,875,62,0.0575080955507564,1
21,876,62,0.0620817007860287,1
21,877,62,0.0615950737650187,1
22,856,62,0.0667724486714107,1
22,857,62,0.129786036487603,1
22,858,62,0.170417157802879,1
22,859,62,0.106874679619422,1
22,860,62,0.0595460061556472,1
22,876,62,0.058263239590279,1
22,877,62,0.0603249561291488,1
23,856,62,0.0730973380000591,1
23,857,62,0.139437234561183,1
23,858,62,0.179905765534206,1
23,859,62,0.112605381799298,1
23,860,62,0.0604127438277234,1
23,877,62,0.0598216289830388,1
23,878,62,0.063241185990048,1
24,856,62,0.0591985291529932,1
24,857,62,0.0842984515681748,1
24,858,62,0.103371875555197,1
24,859,62,0.0734836168470485,1
24,877,62,0.0661334742874212,1
24,878,62,0.0772681647590941,1
24,879,62,0.0899909946698296,1
25,858,62,0.0584626798907755,1
25,859,62,0.0602896452714162,1
25,860,62,0.0605933493119879,1
25,861,62,0.0589733251354904,1
25,876,62,0.0592432574188419,1
25,877,62,0.0821888754900001,1
25,878,62,0.103025866889813,1
25,879,62,0.115888701874745,1
25,880,62,0.141969650494687,1
26,859,62,0.0664099462737162,1
26,860,62,0.0746237542013316,1
26,861,62,0.0693516037262225,1
26,862,62,0.0584026608677291,1
26,876,62,0.0593128412734251,1
26,877,62,0.0873572693616014,1
26,878,62,0.116391781349508,1
26,879,62,0.135942874910496,1
26,880,62,0.156486387558199,1
27,858,62,0.0637161606638837,1
27,859,62,0.0777647399125347,1
27,860,62,0.0941341942798203,1
27,861,62,0.0861466577152738,1
27,862,62,0.0641716341676257,1
27,877,62,0.0742534029807176,1
27,878,62,0.102291202911898,1
27,879,62,0.128043019899661,1
27,880,62,0.146282516771124,1
28,858,62,0.0682338629380162,1
28,859,62,0.0773104988685901,1
28,860,62,0.091501335821306,1
28,861,62,0.0842554628986907,1
28,862,62,0.0611166906616958,1
28,877,62,0.0568608241766485,1
28,878,62,0.0715600183625895,1
28,879,62,0.0901632795762282,1
28,880,62,0.107026042193951,1
29,858,62,0.0586004913044713,1
29,859,62,0.0575043333050595,1
29,860,62,0.0611288737331847,1
29,861,62,0.0569009469348336,1
29,878,62,0.0598400038381982,1
29,879,62,0.0742687291195364,1
29,880,62,0.0863492410831003,1
30,878,62,0.060800325897752,1
30,879,62,0.074617668562524,1
30,880,62,0.0788093233024394,1
30,881,62,0.0771078801191427,1
31,878,62,0.0600160274025465,1
31,879,62,0.0725796341219598,1
31,880,62,0.0730305610874065,1
31,881,62,0.069483972267225,1
32,878,62,0.0627753692591079,1
32,879,62,0.0733791467141843,1
32,880,62,0.0680872532945714,1
33,852,62,0.0627557973257722,1
33,878,62,0.0697330706727594,1
33,879,62,0.0805841302768267,1
33,880,62,0.070850935296639,1
34,852,62,0.0574782393595908,1
34,878,62,0.0623464909404652,1
34,879,62,0.0708815462957188,1
34,880,62,0.0644057130750563,1
35,878,62,0.0651987213459584,1
35,879,62,0.0659875074100908,1
35,880,62,0.0598578066904853,1
36,877,62,0.0797090720268848,1
36,878,62,0.102107973290745,1
36,879,62,0.0942680488489038,1
36,880,62,0.0672455776040189,1
37,876,62,0.0692149481121452,1
37,877,62,0.122843832223939,1
37,878,62,0.188534328616759,1
37,879,62,0.190476024800346,1
37,880,62,0.112367428604371,1
38,876,62,0.0720921933236674,1
38,877,62,0.131135715595171,1
38,878,62,0.226094785192518,1
38,879,62,0.249954546410921,1
38,880,62,0.151403369538009,1
39,853,62,0.0569736384751257,1
39,854,62,0.0637511412931539,1
39,855,62,0.059347556540538,1
39,876,62,0.0675742374812513,1
39,877,62,0.100895268231843,1
39,878,62,0.166104079236716,1
39,879,62,0.196236400366346,1
40,854,62,0.0594896432334348,1
40,876,62,0.0646193237147532,1
40,877,62,0.076585152050865,1
40,878,62,0.0964003930001756,1
41,875,62,0.0569309387555463,1
41,876,62,0.0634043542321089,1
41,877,62,0.067558168328392,1
41,878,62,0.0732672700286629,1
42,875,62,0.0596516910574982,1
42,876,62,0.0627998533408223,1
42,877,62,0.0637788038238191,1
43,875,62,0.0611557696620621,1
43,876,62,0.0624845795101919,1
44,875,62,0.0599012965995998,1
45,872,62,0.0618239161925451,1
45,873,62,0.0623607379398443,1
45,874,62,0.0589192502247676,1
46,870,62,0.0715425929142596,1
46,871,62,0.097160785313476,1
46,872,62,0.0932319865327172,1
46,873,62,0.0741020816847464,1
47,870,62,0.092979432522201,1
47,871,62,0.124735687497447,1
47,872,62,0.108709723803519,1
48,870,62,0.0773681944985259,1
21,857,63,0.072132298391042,1
21,858,63,0.0807263231145865,1
21,859,63,0.064142638929237,1
21,876,63,0.0575421503609444,1
21,877,63,0.0570710263868581,1
22,856,63,0.0679550380739265,1
22,857,63,0.105660181891724,1
22,858,63,0.123421531537337,1
22,859,63,0.0866099151756301,1
22,860,63,0.0586490879608798,1
22,877,63,0.0575732625996547,1
22,878,63,0.0587638600423844,1
23,856,63,0.072964090815469,1
23,857,63,0.111753616449831,1
23,858,63,0.129265277996227,1
23,859,63,0.0893884338707597,1
23,860,63,0.0580673492457535,1
23,877,63,0.0596692757231225,1
23,878,63,0.0651419692259152,1
24,856,63,0.0582110870809625,1
24,857,63,0.0731767756360837,1
24,858,63,0.0824524685662603,1
24,859,63,0.0643280799017014,1
24,877,63,0.0659585711410705,1
24,878,63,0.0785886717201685,1
24,879,63,0.0889575741813424,1
25,876,63,0.0582545475053929,1
25,877,63,0.076497788931742,1
25,878,63,0.0957743682894628,1
25,879,63,0.104997731802218,1
25,880,63,0.123724056190543,1
26,859,63,0.0588811147342939,1
26,860,63,0.0619610907370633,1
26,861,63,0.0587932739632878,1
26,876,63,0.0579532788997316,1
26,877,63,0.0811264597631243,1
26,878,63,0.104041401968898,1
26,879,63,0.116297831351947,1
26,880,63,0.136030043430704,1
27,858,63,0.0576003649213212,1
27,859,63,0.0634138188157196,1
27,860,63,0.0685964125112054,1
27,861,63,0.064353177264846,1
27,877,63,0.0686815642790174,1
27,878,63,0.0867441176639865,1
27,879,63,0.0988535128241393,1
27,880,63,0.117537992548725,1
28,858,63,0.0606061220771597,1
28,859,63,0.0641902095186373,1
28,860,63,0.0687933760982337,1
28,861,63,0.064869442290359,1
28,878,63,0.066738729986622,1
28,879,63,0.0759517679629895,1
28,880,63,0.0883057503720024,1
29,878,63,0.0580843206299476,1
29,879,63,0.0665963838285046,1
29,880,63,0.0726224576772126,1
29,881,63,0.0730230778745704,1
30,878,63,0.0584859845851241,1
30,879,63,0.0680345287823826,1
30,880,63,0.0700218554631534,1
30,881,63,0.0685503220529492,1
31,878,63,0.057044496068064,1
31,879,63,0.0658262851571836,1
31,880,63,0.066717648437458,1
31,881,63,0.0641358456580099,1
32,878,63,0.0585819454381438,1
32,879,63,0.0653883078650136,1
32,880,63,0.0636079813577541,1
32,881,63,0.0609019006346331,1
33,851,63,0.0643707678274071,1
33,852,63,0.0726346407487015,1
33,878,63,0.062516629361858,1
33,879,63,0.0680764795909847,1
33,880,63,0.063451447169626,1
33,881,63,0.0597373204771933,1
34,852,63,0.0620746539465179,1
34,878,63,0.0608222035333879,1
34,879,63,0.0654513107380955,1
34,880,63,0.0615208077425931,1
34,881,63,0.0591612782030439,1
35,877,63,0.0588734958919108,1
35,878,63,0.0686483409369223,1
35,879,63,0.0676342859889819,1
35,880,63,0.0608360554379995,1
35,881,63,0.05782142928917,1
36,876,63,0.0589005156564616,1
36,877,63,0.0842997076157194,1
36,878,63,0.0954481497440777,1
36,879,63,0.0898672238627238,1
36,880,63,0.0671674726757176,1
37,876,63,0.0719843029674424,1
37,877,63,0.10882801635631,1
37,878,63,0.143701628016885,1
37,879,63,0.156273378406059,1
37,880,63,0.0979790029893224,1
38,876,63,0.0667996099624455,1
38,877,63,0.105088804094606,1
38,878,63,0.170577519103009,1
38,879,63,0.210531117758243,1
38,880,63,0.134842742375662,1
39,876,63,0.0613461286798419,1
39,877,63,0.0815570953689421,1
39,878,63,0.12533171449051,1
39,879,63,0.163786028750822,1
39,880,63,0.112399000804153,1
40,876,63,0.0615599516092646,1
40,877,63,0.0706696870462602,1
40,878,63,0.0834429770454422,1
40,879,63,0.0981627515409168,1
41,876,63,0.0612861568322901,1
41,877,63,0.0657740854723725,1
41,878,63,0.0683028629958534,1
42,875,63,0.0572304028985379,1
42,876,63,0.0613355082966127,1
42,877,63,0.0630669315067485,1
42,878,63,0.0642972212312748,1
43,875,63,0.0594226894126774,1
43,876,63,0.0606072601859677,1
43,877,63,0.0603283409708887,1
44,875,63,0.0580251802504887,1
44,876,63,0.0577598888564217,1
45,871,63,0.0738219418037437,1
45,872,63,0.0771298874873888,1
45,873,63,0.0692045989880102,1
45,874,63,0.0582211236674456,1
46,870,63,0.0986512596847752,1
46,871,63,0.150704181532058,1
46,872,63,0.125837707052067,1
46,873,63,0.0816684649178962,1
46,874,63,0.0595231024530031,1
47,870,63,0.128122699310096,1
47,871,63,0.189664193507086,1
47,872,63,0.142725390124829,1
48,870,63,0.0886211480383061,1
48,871,63,0.128675890954033,1
50,865,63,0.0577250674444459,1
21,857,64,0.0697699972911831,1
21,858,64,0.0714834230501165,1
21,859,64,0.0637219632497236,1
22,856,64,0.0653182994309786,1
22,857,64,0.0865286907677463,1
22,858,64,0.0908904721351808,1
22,859,64,0.0740457364533444,1
22,860,64,0.0573530650815197,1
22,877,64,0.0569567083694894,1
22,878,64,0.0586906790563354,1
23,856,64,0.0705560825582478,1
23,857,64,0.0945550232796913,1
23,858,64,0.100267881328722,1
23,859,64,0.0773467591331522,1
23,877,64,0.0610583876472666,1
23,878,64,0.0675446289614324,1
23,879,64,0.0717343377121942,1
24,857,64,0.0673063809196636,1
24,858,64,0.0720588225581516,1
24,859,64,0.0599853869187826,1
24,877,64,0.0687839527931808,1
24,878,64,0.0849842299397767,1
24,879,64,0.0944965964295887,1
24,880,64,0.107591947633691,1
25,877,64,0.075937880676757,1
25,878,64,0.100996766308545,1
25,879,64,0.11549752267325,1
25,880,64,0.11714765071226,1
26,877,64,0.0758009125250278,1
26,878,64,0.101614317121034,1
26,879,64,0.118444740937186,1
26,880,64,0.123721485126085,1
26,881,64,0.102447955286689,1
27,859,64,0.0585409322424975,1
27,860,64,0.0585141896339776,1
27,877,64,0.0639187676194576,1
27,878,64,0.079800427372241,1
27,879,64,0.0902654970792236,1
27,880,64,0.0992941083562614,1
27,881,64,0.0889678053667409,1
28,859,64,0.0583467873912735,1
28,860,64,0.0572383283816362,1
28,878,64,0.0632766501681382,1
28,879,64,0.06840476206426,1
28,880,64,0.0743400820551683,1
28,881,64,0.0726853367146212,1
29,879,64,0.0598356106202606,1
29,880,64,0.0629965751534406,1
29,881,64,0.0642476574772263,1
30,879,64,0.0605475301128259,1
30,880,64,0.0635071968104082,1
30,881,64,0.0637353433993888,1
31,879,64,0.0601424695220358,1
31,880,64,0.0636118320575035,1
31,881,64,0.062410018640925,1
31,882,64,0.0612074799011164,1
32,851,64,0.0656820342884704,1
32,852,64,0.06245897501048,1
32,879,64,0.0602619178744458,1
32,880,64,0.0624251324900179,1
32,881,64,0.0609972717939699,1
32,882,64,0.0607419167384599,1
33,851,64,0.0740518810615203,1
33,852,64,0.0805377449717291,1
33,853,64,0.0581938562315479,1
33,879,64,0.0592385752509996,1
33,880,64,0.0588692559943306,1
33,881,64,0.0585276228560743,1
33,882,64,0.0597539321482409,1
34,852,64,0.0659443182447546,1
34,878,64,0.0568826664306634,1
34,879,64,0.061226019870507,1
34,880,64,0.0592159369105127,1
34,881,64,0.0595208498231344,1
35,877,64,0.0588356080727839,1
35,878,64,0.0679221921357884,1
35,879,64,0.0706562007517321,1
35,880,64,0.0637712557446779,1
35,881,64,0.0602126194825546,1
36,876,64,0.0585359729186243,1
36,877,64,0.0805765114344436,1
36,878,64,0.0905467691720974,1
36,879,64,0.0910751052272996,1
36,880,64,0.0715435364241522,1
36,881,64,0.0596869311519888,1
37,876,64,0.0664976691059857,1
37,877,64,0.093553629055123,1
37,878,64,0.115879113455461,1
37,879,64,0.129560903233342,1
37,880,64,0.0887491469491183,1
37,881,64,0.0597925452905977,1
38,876,64,0.0592456043996998,1
38,877,64,0.0853262168942428,1
38,878,64,0.128800174794643,1
38,879,64,0.163327270653266,1
38,880,64,0.112914723311478,1
39,877,64,0.0680468062048607,1
39,878,64,0.0945009424720318,1
39,879,64,0.125234332475714,1
39,880,64,0.0923024464834113,1
40,876,64,0.0596034246295521,1
40,877,64,0.0651558388213373,1
40,878,64,0.0716031131769365,1
40,879,64,0.0832344731530393,1
41,876,64,0.0615754133776305,1
41,877,64,0.0648500472651281,1
41,878,64,0.0643162801311064,1
41,879,64,0.0660825837225862,1
42,875,64,0.0568501566179246,1
42,876,64,0.0616651175806746,1
42,877,64,0.06284406267623,1
42,878,64,0.0618880335866878,1
43,875,64,0.0592572213652532,1
43,876,64,0.0599272136369636,1
43,877,64,0.0580413083727162,1
44,875,64,0.0570476922078254,1
45,871,64,0.0883973239040213,1
45,872,64,0.0875174478566899,1
45,873,64,0.0727937695890345,1
45,874,64,0.0574643048978636,1
46,870,64,0.117973233662206,1
46,871,64,0.197822381526529,1
46,872,64,0.152419305608798,1
46,873,64,0.0868030339598459,1
46,874,64,0.0574118044692743,1
47,870,64,0.153493350095101,1
47,871,64,0.245882570003952,1
47,872,64,0.172381710513616,1
47,873,64,0.0777304374309999,1
48,870,64,0.0910114065156717,1
48,871,64,0.146839824476968,1
48,872,64,0.100856501769128,1
49,865,64,0.0572729846793807,1
50,864,64,0.0585616540785149,1
50,865,64,0.0620990318833693,1
50,866,64,0.0575167817387057,1
21,857,65,0.0606260065481474,1
21,858,65,0.0612709191475237,1
21,859,65,0.0609415339470614,1
22,856,65,0.0570467958734274,1
22,857,65,0.0679486045158459,1
22,858,65,0.0690757450213578,1
22,859,65,0.0645426930206592,1
22,877,65,0.0571008471964028,1
22,878,65,0.0610022606025273,1
22,879,65,0.065623878697462,1
23,856,65,0.0621431704555351,1
23,857,65,0.0773838862474281,1
23,858,65,0.0804246004447894,1
23,859,65,0.068096617630256,1
23,877,65,0.0647278037646611,1
23,878,65,0.0741096710424454,1
23,879,65,0.0800769465340306,1
23,880,65,0.118617933971857,1
24,851,65,0.0575787585447794,1
24,857,65,0.063661360429931,1
24,858,65,0.066834095249022,1
24,859,65,0.0575200781263931,1
24,877,65,0.0758196647841443,1
24,878,65,0.0971927644019001,1
24,879,65,0.108034807589556,1
24,880,65,0.111434816250977,1
25,877,65,0.0848302196406114,1
25,878,65,0.11976461692602,1
25,879,65,0.138644757014595,1
25,880,65,0.121203151077729,1
25,881,65,0.0969280509076424,1
26,877,65,0.0771522840534657,1
26,878,65,0.110724884026123,1
26,879,65,0.132403533425678,1
26,880,65,0.11845503698889,1
26,881,65,0.0927879118078659,1
27,877,65,0.0625742424346782,1
27,878,65,0.0824610898879044,1
27,879,65,0.0960516835377243,1
27,880,65,0.0923226847706087,1
27,881,65,0.0810073180514294,1
28,851,65,0.0568742338109978,1
28,878,65,0.0635240797405499,1
28,879,65,0.0693213052647946,1
28,880,65,0.0693908419438832,1
28,881,65,0.0668630256211055,1
28,882,65,0.0630514461506353,1
29,880,65,0.0585768563816603,1
29,881,65,0.0599263055086919,1
29,882,65,0.0602780459966734,1
30,880,65,0.0582642479664767,1
30,881,65,0.0603482608234973,1
30,882,65,0.0600864781068436,1
31,880,65,0.0601598890734289,1
31,881,65,0.0607836080818416,1
31,882,65,0.0594767171479055,1
32,850,65,0.0581597070703706,1
32,851,65,0.0677955082418891,1
32,852,65,0.0610669499995424,1
32,880,65,0.0610540121201394,1
32,881,65,0.0606376883800058,1
32,882,65,0.0599608615585104,1
33,851,65,0.073355317192458,1
33,852,65,0.0742276333667745,1
33,880,65,0.0582407899517706,1
33,881,65,0.0584190543521139,1
33,882,65,0.0588933803628984,1
34,851,65,0.0581011033121632,1
34,852,65,0.0635297054182848,1
34,879,65,0.0594970497860922,1
34,880,65,0.0601643825392927,1
34,881,65,0.0602983845317969,1
34,882,65,0.0604960734420552,1
35,878,65,0.0642780797743275,1
35,879,65,0.0732873785832501,1
35,880,65,0.0687408049064024,1
35,881,65,0.0635050326345919,1
35,882,65,0.0609738196762006,1
36,877,65,0.0657684480007639,1
36,878,65,0.0806503646712911,1
36,879,65,0.0885415865666081,1
36,880,65,0.0753020965355921,1
36,881,65,0.0630003079144535,1
37,877,65,0.0725244623809868,1
37,878,65,0.0920806273076483,1
37,879,65,0.10321565390472,1
37,880,65,0.0808295607876534,1
37,881,65,0.0603976653602514,1
38,877,65,0.0670513148140583,1
38,878,65,0.0920086433997756,1
38,879,65,0.112163701230799,1
38,880,65,0.0886519595332381,1
38,881,65,0.0605816379954453,1
39,877,65,0.0597426631019605,1
39,878,65,0.0734578354392317,1
39,879,65,0.0910693321261439,1
39,880,65,0.07728072523454,1
40,876,65,0.05815859254931,1
40,877,65,0.0612303482221396,1
40,878,65,0.0639498090949259,1
40,879,65,0.0712636029359386,1
40,880,65,0.0668655554070052,1
41,876,65,0.0630320098468466,1
41,877,65,0.0640387997686136,1
41,878,65,0.0619073991272345,1
41,879,65,0.0616640207504244,1
42,875,65,0.0585995065160208,1
42,876,65,0.0637064955844209,1
42,877,65,0.0627085628617712,1
42,878,65,0.0592280846003806,1
43,875,65,0.0605688770241472,1
43,876,65,0.061215635364751,1
43,877,65,0.0570727188077281,1
44,875,65,0.0569444132562008,1
45,870,65,0.0571537368228229,1
45,871,65,0.0937566311054643,1
45,872,65,0.0910937395476795,1
45,873,65,0.0753714032341443,1
45,874,65,0.0589295580703449,1
46,870,65,0.11914545035284,1
46,871,65,0.208058367031575,1
46,872,65,0.15806588208787,1
46,873,65,0.0903598716562363,1
46,874,65,0.0589824771814491,1
47,870,65,0.156977567014441,1
47,871,65,0.259804954804461,1
47,872,65,0.183681550598124,1
47,873,65,0.084116855398523,1
48,870,65,0.0891554635874529,1
48,871,65,0.148640005970531,1
48,872,65,0.102536350369757,1
49,865,65,0.0575877336826333,1
50,864,65,0.0602951058349199,1
50,865,65,0.0662765162840844,1
50,866,65,0.0601557553207117,1
51,865,65,0.0610577566750259,1
21,859,66,0.0577974877256439,1
21,879,66,0.0592251833074607,1
22,858,66,0.0574534368432876,1
22,859,66,0.0584930844970663,1
22,878,66,0.0636049916107818,1
22,879,66,0.0723770802388174,1
22,880,66,0.103888506190793,1
23,857,66,0.0631507859484581,1
23,858,66,0.065240135533309,1
23,859,66,0.0597115213785661,1
23,877,66,0.0658970483991326,1
23,878,66,0.0791277402003996,1
23,879,66,0.087768279961652,1
23,880,66,0.120167365917573,1
23,881,66,0.204691451979639,1
24,850,66,0.0573213218705687,1
24,851,66,0.0570562309723539,1
24,857,66,0.059483669636427,1
24,858,66,0.0608471947516696,1
24,877,66,0.0780684144684223,1
24,878,66,0.103067204416985,1
24,879,66,0.112467605767223,1
24,880,66,0.111935902561092,1
24,881,66,0.14363851899894,1
25,876,66,0.0571043204921951,1
25,877,66,0.0905434432997258,1
25,878,66,0.131189047491854,1
25,879,66,0.145562064410967,1
25,880,66,0.121980449908918,1
25,881,66,0.105202532418292,1
25,882,66,0.0973921398360916,1
26,877,66,0.0808316836849119,1
26,878,66,0.119482884872074,1
26,879,66,0.136869767235166,1
26,880,66,0.113392221874277,1
26,881,66,0.0864165958955621,1
26,882,66,0.0719913969824478,1
27,877,66,0.0637980160440083,1
27,878,66,0.0886110701732652,1
27,879,66,0.101576258290739,1
27,880,66,0.0893121157143177,1
27,881,66,0.0748843929122405,1
27,882,66,0.065942165862812,1
28,878,66,0.0670759109375724,1
28,879,66,0.0739827925496307,1
28,880,66,0.0685187852347872,1
28,881,66,0.0627364966515306,1
28,882,66,0.0600854343490249,1
28,883,66,0.0575290119856892,1
29,880,66,0.0568721757800444,1
29,881,66,0.0571537486166966,1
29,882,66,0.0575335467301108,1
30,881,66,0.0580035856678205,1
30,882,66,0.0573656255569657,1
31,881,66,0.0582283120334403,1
31,882,66,0.0568587248671373,1
31,883,66,0.0582742373774652,1
32,851,66,0.0650210171546138,1
32,880,66,0.057967307712448,1
32,881,66,0.058194646421083,1
32,882,66,0.0573165630425477,1
32,883,66,0.0622844138864654,1
33,851,66,0.0682420773710191,1
33,852,66,0.0624280514737483,1
33,880,66,0.057187614724906,1
33,881,66,0.0571618628017734,1
34,851,66,0.0573408171437257,1
34,880,66,0.0609839270259257,1
34,881,66,0.060032226288016,1
34,882,66,0.0586419172856956,1
35,878,66,0.0586532335074707,1
35,879,66,0.0707665560275516,1
35,880,66,0.071122990477249,1
35,881,66,0.0651787543178551,1
35,882,66,0.0608576264329203,1
36,878,66,0.0697163941354067,1
36,879,66,0.080818291741373,1
36,880,66,0.0741578018408444,1
36,881,66,0.0635748818513325,1
36,882,66,0.0584335844044608,1
37,878,66,0.0724556038496336,1
37,879,66,0.0798476323515578,1
37,880,66,0.0698613821212235,1
37,881,66,0.0585764730807664,1
38,878,66,0.0652101496095332,1
38,879,66,0.0730984937996776,1
38,880,66,0.0674629269016654,1
38,881,66,0.0568628704137281,1
39,878,66,0.0589784200889107,1
39,879,66,0.0665513548188777,1
39,880,66,0.0657989233702966,1
40,877,66,0.0573361762544412,1
40,878,66,0.0581752396019785,1
40,879,66,0.0616549807462654,1
40,880,66,0.0614467481129566,1
41,876,66,0.0611385859881422,1
41,877,66,0.0623081077786447,1
41,878,66,0.0597443968013882,1
41,879,66,0.0584201040068695,1
42,876,66,0.0626786241134899,1
42,877,66,0.0620873913300687,1
42,878,66,0.0574802914936073,1
43,875,66,0.0575689519388326,1
43,876,66,0.0599102068711485,1
45,871,66,0.0864757952443894,1
45,872,66,0.0875091567635082,1
45,873,66,0.0747593424698428,1
45,874,66,0.0604273682310595,1
46,870,66,0.103396465781774,1
46,871,66,0.178491255503139,1
46,872,66,0.144231326264494,1
46,873,66,0.0902527302109886,1
46,874,66,0.0627427709923167,1
47,870,66,0.138408667251706,1
47,871,66,0.226227088867215,1
47,872,66,0.172581569496627,1
47,873,66,0.0900464376698966,1
48,870,66,0.0861275516399476,1
48,871,66,0.135920832160629,1
48,872,66,0.102644535572823,1
49,870,66,0.0578457246689059,1
50,865,66,0.064202640261473,1
50,866,66,0.0596465371347095,1
21,879,67,0.0603797327753542,1
21,880,67,0.0771384793243488,1
22,878,67,0.0617985888488642,1
22,879,67,0.0745053908852982,1
22,880,67,0.0998965040411,1
22,881,67,0.159290746630514,1
23,877,67,0.0616826727616148,1
23,878,67,0.0744406602097253,1
23,879,67,0.0854299970854979,1
23,880,67,0.111010460882882,1
23,881,67,0.185371423991362,1
23,882,67,0.235944108549681,1
24,877,67,0.0709780319761164,1
24,878,67,0.0921248602308033,1
24,879,67,0.0994815955658054,1
24,880,67,0.105716733515915,1
24,881,67,0.159585133510896,1
24,882,67,0.19366374373592,1
25,877,67,0.0831667822151782,1
25,878,67,0.118112684424341,1
25,879,67,0.127486254712006,1
25,880,67,0.113127767845239,1
25,881,67,0.117358737462994,1
25,882,67,0.126790368990679,1
26,877,67,0.0772858437757077,1
26,878,67,0.112165375960859,1
26,879,67,0.123968849832192,1
26,880,67,0.10451240210731,1
26,881,67,0.0836730637266395,1
26,882,67,0.0741131089566168,1
27,877,67,0.0628567351934757,1
27,878,67,0.0883529553513192,1
27,879,67,0.0992863126057733,1
27,880,67,0.0861881131811823,1
27,881,67,0.0705596325142189,1
27,882,67,0.0623106906369758,1
27,883,67,0.0573007474579721,1
28,878,67,0.0676807007787636,1
28,879,67,0.0759273841292012,1
28,880,67,0.0684401554791082,1
28,881,67,0.0606168191205676,1
28,882,67,0.0573543859953694,1
29,879,67,0.0573454403421997,1
31,883,67,0.0569461351617549,1
32,851,67,0.0582661585740093,1
32,883,67,0.0609967705543394,1
33,851,67,0.0609856961069744,1
33,883,67,0.0590947253739908,1
34,880,67,0.0591106058248715,1
34,881,67,0.058489746830821,1
34,882,67,0.0573826618074649,1
34,883,67,0.0568564191648371,1
35,879,67,0.0622190640325254,1
35,880,67,0.0676855362669635,1
35,881,67,0.0637054990020968,1
35,882,67,0.0598894083749523,1
36,879,67,0.0676540230365488,1
36,880,67,0.0681545373437913,1
36,881,67,0.0620607961449695,1
36,882,67,0.0584805063308099,1
37,879,67,0.0630884376353642,1
37,880,67,0.061074173747158,1
37,881,67,0.0568852492889945,1
39,880,67,0.0589239382895468,1
41,877,67,0.0580087513844828,1
42,876,67,0.0596060369725674,1
42,877,67,0.059569440582606,1
43,876,67,0.0580383658012385,1
45,871,67,0.071232537872723,1
45,872,67,0.0746090649316904,1
45,873,67,0.0666199892666315,1
45,874,67,0.0581882069660656,1
46,870,67,0.0839224039065838,1
46,871,67,0.13001054466656,1
46,872,67,0.114368919727405,1
46,873,67,0.080665307509216,1
46,874,67,0.0627793320006571,1
47,870,67,0.111557861734852,1
47,871,67,0.167081803156852,1
47,872,67,0.139218033625372,1
47,873,67,0.0852665811720903,1
48,870,67,0.0843043485050039,1
48,871,67,0.11620173486938,1
48,872,67,0.0962330084482819,1
49,870,67,0.0644137800846385,1
50,865,67,0.0591643151255109,1
51,864,67,0.0639089079410793,1
51,865,67,0.0811413849102387,1
21,880,68,0.0684880975755287,1
22,879,68,0.0662742931388998,1
22,880,68,0.084394671886415,1
22,881,68,0.120626925998538,1
23,878,68,0.0632492353088197,1
23,879,68,0.0714590628040755,1
23,880,68,0.0890973020995076,1
23,881,68,0.144204577759038,1
23,882,68,0.221283356494929,1
24,877,68,0.0582402474335823,1
24,878,68,0.0736775965840413,1
24,879,68,0.0785987731729568,1
24,880,68,0.0892868650308155,1
24,881,68,0.156665843139782,1
24,882,68,0.223837390598849,1
24,883,68,0.163029970686091,1
25,877,68,0.066273668063596,1
25,878,68,0.0904516633749179,1
25,879,68,0.0963824309305942,1
25,880,68,0.0911826535611885,1
25,881,68,0.113707554674275,1
25,882,68,0.146987778622009,1
26,877,68,0.0643406993465156,1
26,878,68,0.0898387711425235,1
26,879,68,0.097964767783817,1
26,880,68,0.0854994040319763,1
26,881,68,0.076374790623361,1
26,882,68,0.0752278305131665,1
26,883,68,0.0637219750435972,1
27,878,68,0.0757350791222678,1
27,879,68,0.0844915113830223,1
27,880,68,0.0756118508333504,1
27,881,68,0.063695379858498,1
28,878,68,0.0582593299211613,1
28,879,68,0.0670281457492568,1
28,880,68,0.0633120023044286,1
28,881,68,0.0572645107811573,1
35,880,68,0.0588861978938406,1
35,881,68,0.0573553059175148,1
36,880,68,0.0581650261073905,1
46,870,68,0.058050254025886,1
46,871,68,0.0800851550700967,1
46,872,68,0.0780999276988369,1
46,873,68,0.0650259175091188,1
46,874,68,0.0587948602392949,1
47,870,68,0.0778844005546706,1
47,871,68,0.105960689792534,1
47,872,68,0.0991078595034515,1
47,873,68,0.0742924642902735,1
47,874,68,0.0593235383168331,1
48,870,68,0.0729381266026105,1
48,871,68,0.0904660754885282,1
48,872,68,0.0833932186924783,1
48,873,68,0.065671419802178,1
49,870,68,0.0619022569983195,1
49,871,68,0.067783643604989,1
50,865,68,0.060488525362914,1
51,864,68,0.0836255403127339,1
51,865,68,0.128892697733491,1
51,866,68,0.100957209656295,1
21,880,69,0.0652497121587195,1
21,881,69,0.0769608399993093,1
22,879,69,0.0612122446260743,1
22,880,69,0.0764862132447466,1
22,881,69,0.0976910378731475,1
23,879,69,0.0620374973475578,1
23,880,69,0.0769537223965566,1
23,881,69,0.112289058313912,1
23,882,69,0.177028685436915,1
24,878,69,0.0606914153714556,1
24,879,69,0.0667070044664815,1
24,880,69,0.0812236117973835,1
24,881,69,0.137342689774985,1
24,882,69,0.202367681465022,1
24,883,69,0.158044511588802,1
25,878,69,0.0679842456020409,1
25,879,69,0.074215019818897,1
25,880,69,0.0783783338804118,1
25,881,69,0.101980799951088,1
25,882,69,0.138950595746299,1
25,883,69,0.102718235489313,1
26,878,69,0.0684472730818609,1
26,879,69,0.0758188745946092,1
26,880,69,0.0743015927484849,1
26,881,69,0.0738416552635634,1
26,882,69,0.0781259567780005,1
26,883,69,0.0659720043631671,1
27,878,69,0.0614387046911218,1
27,879,69,0.0685417773914839,1
27,880,69,0.0672580673162229,1
27,881,69,0.0614977094410336,1
28,879,69,0.0570499330438205,1
28,880,69,0.0588812680546515,1
47,871,69,0.0693795139282346,1
47,872,69,0.0695899166342964,1
47,873,69,0.06261085651545,1
48,870,69,0.0635872005523684,1
48,871,69,0.0738408355893441,1
48,872,69,0.0721388439909223,1
48,873,69,0.0635618967964348,1
49,870,69,0.0616855032912927,1
49,871,69,0.0673290605387083,1
50,865,69,0.069866023010508,1
50,866,69,0.0607639182097692,1
50,869,69,0.0620636561593316,1
50,870,69,0.0589393823671022,1
51,864,69,0.0959549324951695,1
51,865,69,0.15824000683856,1
51,866,69,0.122613568634636,1
52,865,69,0.218736776119161,1
21,880,70,0.0610106637375088,1
22,880,70,0.0681142199866908,1
23,879,70,0.0574643697641688,1
23,880,70,0.0695066165046487,1
23,881,70,0.0942944730228349,1
24,879,70,0.0588976261574154,1
24,880,70,0.0718322150696834,1
24,881,70,0.109736439474831,1
24,882,70,0.15408559125472,1
25,879,70,0.059894114130542,1
25,880,70,0.0675078792511136,1
25,881,70,0.0870111486544181,1
25,882,70,0.113021681951684,1
26,879,70,0.0590525033062945,1
26,880,70,0.0628515517860029,1
26,881,70,0.0668284106019187,1
26,882,70,0.0712147645051201,1
27,880,70,0.0583400295016673,1
27,881,70,0.0570313576928088,1
47,872,70,0.0584929311767087,1
47,873,70,0.058532151703559,1
48,870,70,0.0572672882384038,1
48,871,70,0.0650137698192509,1
49,870,70,0.0598950930220556,1
50,865,70,0.0667685566931035,1
50,866,70,0.0601308938350403,1
51,865,70,0.137824351575185,1
