x,y,z,signal,cytoplasm.p
45,563,1,0.0590074860905413,1
46,563,1,0.0577359001174009,1
48,570,1,0.074115102121265,1
48,571,1,0.110061490426724,1
49,561,1,0.0570333272697098,1
49,571,1,0.0648298502564884,1
49,572,1,0.0621131963256328,1
50,559,1,0.0622387598015346,1
50,560,1,0.0598316419817746,1
50,561,1,0.0592014481367236,1
51,558,1,0.0698965042769775,1
51,559,1,0.067008609197542,1
51,560,1,0.0634113362053145,1
51,561,1,0.0610505093396629,1
52,557,1,0.072298603803496,1
52,558,1,0.0744159579413482,1
52,559,1,0.0701805007546664,1
52,560,1,0.0641025220679888,1
52,561,1,0.0590126930857614,1
53,557,1,0.0683539363657301,1
53,558,1,0.0703966234894525,1
53,559,1,0.0683287269607857,1
53,560,1,0.0626389613163775,1
54,556,1,0.0617727248839318,1
54,557,1,0.0647888252669685,1
54,558,1,0.0655206999937634,1
54,559,1,0.0652746444076329,1
54,560,1,0.0613028805451374,1
55,556,1,0.0628612640409604,1
55,557,1,0.0636496491133885,1
55,558,1,0.0625882771443314,1
55,559,1,0.0624767247903356,1
55,560,1,0.0593145985606002,1
56,555,1,0.061500386650354,1
56,556,1,0.0635323649367947,1
56,557,1,0.0631721151689689,1
56,558,1,0.061560423364211,1
56,559,1,0.0615679124739839,1
56,560,1,0.0588655939965598,1
57,555,1,0.0625781049283013,1
57,556,1,0.0646814243565003,1
57,557,1,0.064304663165553,1
57,558,1,0.0622755389965376,1
57,559,1,0.0617798424866845,1
57,560,1,0.0593818236404518,1
58,555,1,0.0643939604799559,1
58,556,1,0.0661025684415,1
58,557,1,0.0660121094305418,1
58,558,1,0.0637610304562163,1
58,559,1,0.062047946719619,1
58,560,1,0.0587510813802757,1
59,554,1,0.0670545109538196,1
59,555,1,0.06782276978085,1
59,556,1,0.069169895514771,1
59,557,1,0.0691155965204487,1
59,558,1,0.0659216386257099,1
59,559,1,0.0619123997296655,1
60,554,1,0.0691142284311044,1
60,555,1,0.0714185803327439,1
60,556,1,0.0725176985944439,1
60,557,1,0.0710639621395898,1
60,558,1,0.0651913737626693,1
60,559,1,0.0577193061371639,1
61,554,1,0.0699293620089892,1
61,555,1,0.0738892612345846,1
61,556,1,0.075030595667044,1
61,557,1,0.071402015837191,1
61,558,1,0.0627294144303988,1
61,583,1,0.0571741991936198,1
61,584,1,0.0587633823905012,1
62,553,1,0.0661853083621489,1
62,554,1,0.0698225684830144,1
62,555,1,0.0742884189916087,1
62,556,1,0.0753268813610847,1
62,557,1,0.0698369275241933,1
62,558,1,0.0603412021901129,1
62,582,1,0.0606400884332952,1
62,583,1,0.0695610924070758,1
62,584,1,0.0785275440729982,1
62,585,1,0.0707846065511855,1
63,553,1,0.0678632463552449,1
63,554,1,0.0702166018019341,1
63,555,1,0.0751809793500594,1
63,556,1,0.0761054126520714,1
63,557,1,0.0693699962721924,1
63,558,1,0.0594505996146894,1
63,581,1,0.061150427037295,1
63,582,1,0.0638404209167463,1
63,583,1,0.0727417645031387,1
63,584,1,0.082332477695662,1
63,585,1,0.0724613415691683,1
64,553,1,0.0673220195961344,1
64,554,1,0.0698001601230639,1
64,555,1,0.074692712980611,1
64,556,1,0.0746215605408312,1
64,557,1,0.0672262356512195,1
64,580,1,0.0569643213149358,1
64,581,1,0.0615315283737484,1
64,582,1,0.0606367271793026,1
64,583,1,0.0627924998605964,1
64,584,1,0.0652961446393117,1
65,553,1,0.0667590331401245,1
65,554,1,0.0696524890309899,1
65,555,1,0.0742837073390823,1
65,556,1,0.074130351599905,1
65,557,1,0.0675064698832114,1
66,553,1,0.0666628128218843,1
66,554,1,0.0681943357704508,1
66,555,1,0.0711834281828103,1
66,556,1,0.0707573155275404,1
66,557,1,0.0655628807829019,1
67,553,1,0.0660897720885809,1
67,554,1,0.0654715726130403,1
67,555,1,0.0656414692600231,1
67,556,1,0.0631594249609127,1
67,557,1,0.0583869514280164,1
68,553,1,0.0656524611502725,1
68,554,1,0.0642856455442792,1
68,555,1,0.0631384790412958,1
68,556,1,0.0588089303305691,1
69,553,1,0.0666984126295215,1
69,554,1,0.0648644829664857,1
69,555,1,0.0628851289443077,1
69,556,1,0.0576064623540025,1
69,565,1,0.0648563805752825,1
69,566,1,0.0693615282709058,1
69,567,1,0.0717118644859385,1
69,568,1,0.0726925840499841,1
69,569,1,0.066977903847473,1
70,553,1,0.0690115568639731,1
70,554,1,0.0660980513878889,1
70,555,1,0.0632610409763516,1
70,556,1,0.0583284950932296,1
70,564,1,0.0712210565367167,1
70,565,1,0.0981062058136626,1
70,566,1,0.114412722174171,1
70,567,1,0.124982214838523,1
70,568,1,0.119549532052116,1
70,569,1,0.0963873666667201,1
70,570,1,0.0691724017129233,1
71,553,1,0.0703692145270709,1
71,554,1,0.0668683505550622,1
71,555,1,0.0638032761116599,1
71,556,1,0.0600319137503641,1
71,564,1,0.0754648519920749,1
71,565,1,0.119725484853222,1
71,566,1,0.169760557474707,1
71,567,1,0.206025268327137,1
71,568,1,0.188861655786268,1
71,569,1,0.129712136075261,1
71,570,1,0.0780406457928941,1
71,576,1,0.0573441017375395,1
71,577,1,0.0584356365384773,1
72,554,1,0.0684195338910169,1
72,555,1,0.0663097868016741,1
72,556,1,0.0623088684834956,1
72,557,1,0.0582649791866435,1
72,564,1,0.0777121392360193,1
72,565,1,0.141792565481709,1
72,566,1,0.235407275008508,1
72,567,1,0.301923991220452,2
72,568,1,0.269509590919585,1
72,569,1,0.168496006547204,1
72,570,1,0.088243555379266,1
72,571,1,0.0579068169344552,1
72,575,1,0.0679863272207416,1
72,576,1,0.0716938080653679,1
72,577,1,0.0664014900663033,1
72,578,1,0.0591855146134114,1
73,554,1,0.0727683419974274,1
73,555,1,0.0705680769277582,1
73,556,1,0.06468274527035,1
73,557,1,0.0590627757702508,1
73,558,1,0.0574378099606905,1
73,559,1,0.0577761879898173,1
73,564,1,0.0814224800950077,1
73,565,1,0.159524229947325,1
73,566,1,0.282627350483638,2
73,567,1,0.366883397179075,2
73,568,1,0.32316077134953,2
73,569,1,0.194942624219918,1
73,570,1,0.0958559465135564,1
73,571,1,0.0606944699847331,1
73,574,1,0.0624895624218125,1
73,575,1,0.0770573079888964,1
73,576,1,0.080579601429342,1
73,577,1,0.0733471971104443,1
73,578,1,0.0637957987957606,1
74,554,1,0.0778067084119474,1
74,555,1,0.074361004387038,1
74,556,1,0.0665601530486267,1
74,557,1,0.0600294016552749,1
74,558,1,0.0578025531943801,1
74,559,1,0.0578868381124783,1
74,564,1,0.0786702263565148,1
74,565,1,0.149228036717254,1
74,566,1,0.264579279975522,1
74,567,1,0.344556509307772,2
74,568,1,0.303118852148509,2
74,569,1,0.183957645180462,1
74,570,1,0.093152708113987,1
74,571,1,0.0615524683964285,1
74,574,1,0.0635601866847544,1
74,575,1,0.0763538859823018,1
74,576,1,0.0831702319232232,1
74,577,1,0.0789724915445002,1
74,578,1,0.0682849893803244,1
75,555,1,0.0751113719077289,1
75,556,1,0.0670859239363082,1
75,557,1,0.0612308317709596,1
75,558,1,0.0580689591095078,1
75,564,1,0.0655441580084695,1
75,565,1,0.107100520506102,1
75,566,1,0.178070744937857,1
75,567,1,0.231663191876984,1
75,568,1,0.207311083608846,1
75,569,1,0.132881904735127,1
75,570,1,0.0773285317014135,1
75,571,1,0.0580032495424213,1
75,574,1,0.061732142164674,1
75,575,1,0.0735834814722491,1
75,576,1,0.0866594022694998,1
75,577,1,0.085190268912585,1
75,578,1,0.0706877788484518,1
76,556,1,0.065729663847239,1
76,557,1,0.0623553127579615,1
76,558,1,0.060161268956647,1
76,559,1,0.0569552164444717,1
76,564,1,0.0573226132997343,1
76,565,1,0.0727372415525908,1
76,566,1,0.0981604576324902,1
76,567,1,0.121485354886622,1
76,568,1,0.112697550921937,1
76,569,1,0.0832517511779485,1
76,570,1,0.0609872175166763,1
76,575,1,0.0672044582635097,1
76,576,1,0.082575030501316,1
76,577,1,0.0828638742610784,1
76,578,1,0.0683077633503583,1
77,557,1,0.0628519173960863,1
77,558,1,0.0618029525821177,1
77,559,1,0.058874970126118,1
77,565,1,0.0592347599328712,1
77,566,1,0.0618675830097645,1
77,567,1,0.0676506853703036,1
77,568,1,0.0662418246047189,1
77,569,1,0.0588731361787642,1
77,575,1,0.0580273974987364,1
77,576,1,0.068289524124746,1
77,577,1,0.068936105557245,1
77,578,1,0.0603552604875134,1
78,558,1,0.0606762838315522,1
78,559,1,0.0587643259003938,1
78,560,1,0.0574165868850427,1
78,564,1,0.057696632415056,1
79,559,1,0.0569939003500705,1
79,560,1,0.0578043812447971,1
79,561,1,0.0584458795177494,1
79,562,1,0.0578783288326339,1
79,563,1,0.0579545290503394,1
79,564,1,0.0583516641580311,1
45,563,2,0.0584795038515489,1
48,570,2,0.0596658260150775,1
48,571,2,0.0914152405436013,1
48,572,2,0.0914121682395134,1
48,573,2,0.0618078883182436,1
50,559,2,0.0599554717582486,1
50,560,2,0.0578617053677127,1
50,561,2,0.0569622691809192,1
51,558,2,0.0659637604454801,1
51,559,2,0.0657388276870714,1
51,560,2,0.0627109865028079,1
51,561,2,0.0589330018814531,1
52,557,2,0.066370861376413,1
52,558,2,0.0705414345671644,1
52,559,2,0.0695198728186405,1
52,560,2,0.0638021085181677,1
53,557,2,0.0651631687138158,1
53,558,2,0.0678462985587981,1
53,559,2,0.0676633578875493,1
53,560,2,0.0621636446202057,1
54,556,2,0.0616882571607919,1
54,557,2,0.0642548517401578,1
54,558,2,0.0642035601836183,1
54,559,2,0.0637411577791023,1
54,560,2,0.0599164930058083,1
55,556,2,0.0628189476222749,1
55,557,2,0.0634202641676738,1
55,558,2,0.0614643622632651,1
55,559,2,0.060956795219575,1
55,560,2,0.0579082204054205,1
56,555,2,0.0607246033319297,1
56,556,2,0.0629971530532499,1
56,557,2,0.0621237577394937,1
56,558,2,0.059955147426723,1
56,559,2,0.0593883987250162,1
57,555,2,0.0625135806455174,1
57,556,2,0.0642895729042074,1
57,557,2,0.0633061289553468,1
57,558,2,0.0607603977384823,1
57,559,2,0.058776225918915,1
58,555,2,0.0642431581144257,1
58,556,2,0.0660421720144965,1
58,557,2,0.0652855065652721,1
58,558,2,0.0615642386823394,1
58,559,2,0.0569390352498126,1
59,554,2,0.0662800131676241,1
59,555,2,0.068246912859219,1
59,556,2,0.0707908042317928,1
59,557,2,0.0701082455876996,1
59,558,2,0.063915058446192,1
60,554,2,0.0675551962722302,1
60,555,2,0.0712771599937087,1
60,556,2,0.074377321211244,1
60,557,2,0.072328896367987,1
60,558,2,0.0628718608364423,1
61,554,2,0.0685454158015074,1
61,555,2,0.0735306861968182,1
61,556,2,0.076359883167057,1
61,557,2,0.071705949858299,1
61,558,2,0.0594673174305999,1
62,554,2,0.0686197054116803,1
62,555,2,0.0732794295124045,1
62,556,2,0.0745101850949402,1
62,557,2,0.0670357233130821,1
62,582,2,0.0576994039753657,1
62,583,2,0.0670325330702576,1
62,584,2,0.0769896760204036,1
62,585,2,0.0684785917133602,1
63,553,2,0.067209966002508,1
63,554,2,0.0696735116107856,1
63,555,2,0.074231719943997,1
63,556,2,0.0749015883800341,1
63,557,2,0.065856666175727,1
63,582,2,0.0601089513330993,1
63,583,2,0.0707755193715318,1
63,584,2,0.0830276498876327,1
63,585,2,0.0719882067396233,1
64,553,2,0.0670747728287644,1
64,554,2,0.0688468849030209,1
64,555,2,0.0732210734255438,1
64,556,2,0.073116868654837,1
64,557,2,0.0632358846438387,1
64,583,2,0.0588617079151894,1
64,584,2,0.0630153215156203,1
65,553,2,0.0674439446620126,1
65,554,2,0.0687052935528176,1
65,555,2,0.0725961160603971,1
65,556,2,0.0721380361105767,1
65,557,2,0.0628725861596723,1
66,553,2,0.0673862667228873,1
66,554,2,0.0673449468865259,1
66,555,2,0.0690618459412516,1
66,556,2,0.0670619764758452,1
66,557,2,0.0594756026268448,1
67,553,2,0.066338669998263,1
67,554,2,0.0647504892806426,1
67,555,2,0.0635389636091065,1
67,556,2,0.058736787205402,1
68,553,2,0.0654036222099587,1
68,554,2,0.0628896459979188,1
68,555,2,0.0605518761552689,1
69,553,2,0.0655272279028332,1
69,554,2,0.0620415721309067,1
69,555,2,0.0586814857318188,1
69,568,2,0.0573096400387103,1
70,553,2,0.0667161211308192,1
70,554,2,0.062480127322886,1
70,555,2,0.0582940039097163,1
70,565,2,0.07582350369002,1
70,566,2,0.0870803138264865,1
70,567,2,0.0970741711053303,1
70,568,2,0.0946499698595765,1
70,569,2,0.075891990714353,1
71,553,2,0.0674984323583134,1
71,554,2,0.0633031274145008,1
71,555,2,0.0590572444435051,1
71,564,2,0.0582149141929646,1
71,565,2,0.0951464034865332,1
71,566,2,0.1379677061095,1
71,567,2,0.173438972317703,1
71,568,2,0.16065305697677,1
71,569,2,0.105746206406187,1
71,570,2,0.0630478549161064,1
71,577,2,0.057401013074877,1
72,554,2,0.0653256764989518,1
72,555,2,0.0619556655551806,1
72,564,2,0.0635050267376551,1
72,565,2,0.121759857296016,1
72,566,2,0.214080554798913,1
72,567,2,0.28777249863026,2
72,568,2,0.260054277293595,2
72,569,2,0.153047860105411,1
72,570,2,0.0751672335903108,1
72,575,2,0.0621206264660375,1
72,576,2,0.0691408472039509,1
72,577,2,0.0658697043030561,1
72,578,2,0.0584819805650171,1
73,554,2,0.0708691627283777,1
73,555,2,0.0671439380008327,1
73,556,2,0.0595755674999715,1
73,564,2,0.068726050770456,1
73,565,2,0.144307078315001,1
73,566,2,0.280216635532413,2
73,567,2,0.386914513191825,2
73,568,2,0.345962126758101,2
73,569,2,0.194733731129684,2
73,570,2,0.0864751937568328,1
73,575,2,0.0731358214098057,1
73,576,2,0.0787112926245926,1
73,577,2,0.0712344779649397,1
73,578,2,0.0605093002713629,1
74,554,2,0.0783133437396184,1
74,555,2,0.0736430582250333,1
74,556,2,0.0626231634226123,1
74,564,2,0.0666764701275805,1
74,565,2,0.137757963860363,1
74,566,2,0.27109357891512,2
74,567,2,0.375963382569768,2
74,568,2,0.334045927042343,2
74,569,2,0.188548528440643,2
74,570,2,0.0861355478862878,1
74,574,2,0.0580332472600709,1
74,575,2,0.0720457490492015,1
74,576,2,0.0779690628767258,1
74,577,2,0.0726855077257892,1
74,578,2,0.0616553286655383,1
75,554,2,0.0819934804881682,1
75,555,2,0.0763413844762242,1
75,556,2,0.0642791825015146,1
75,565,2,0.0944300848790934,1
75,566,2,0.17229122791491,1
75,567,2,0.236828460372066,2
75,568,2,0.212360536264605,2
75,569,2,0.127285334280366,1
75,570,2,0.0703017476728093,1
75,574,2,0.0580421221499986,1
75,575,2,0.0706185665008888,1
75,576,2,0.0844748407426064,1
75,577,2,0.0839462216344365,1
75,578,2,0.0657412513281081,1
76,555,2,0.0710872019676333,1
76,556,2,0.0629347752554718,1
76,557,2,0.0585384850137134,1
76,565,2,0.0620715049822512,1
76,566,2,0.0867279364693275,1
76,567,2,0.110610577802628,1
76,568,2,0.10231293902105,1
76,569,2,0.0735077294217426,1
76,575,2,0.0643905638443424,1
76,576,2,0.0849173999546926,1
76,577,2,0.0890584707704881,1
76,578,2,0.0665531651784842,1
77,556,2,0.061955341223655,1
77,557,2,0.0604241602974245,1
77,558,2,0.0581319501887161,1
77,567,2,0.057377967845749,1
77,568,2,0.0573873793569282,1
77,576,2,0.0692363304050875,1
77,577,2,0.0724158820831528,1
78,557,2,0.0584954904472926,1
45,563,3,0.059824866401358,1
45,564,3,0.057575078856198,1
48,571,3,0.0653233413119675,1
48,572,3,0.0723474422343145,1
50,560,3,0.0598104307000004,1
51,559,3,0.0709896194569855,1
51,560,3,0.0659388399904404,1
51,561,3,0.0586850121000426,1
52,558,3,0.072202684229034,1
52,559,3,0.0751309497380015,1
52,560,3,0.0691152309103653,1
52,561,3,0.0587704881993802,1
53,557,3,0.0666372083221724,1
53,558,3,0.06945764834122,1
53,559,3,0.0706091549897096,1
53,560,3,0.0658796583324236,1
54,557,3,0.0662253426662816,1
54,558,3,0.0652026722936339,1
54,559,3,0.0637401552998413,1
54,560,3,0.0610829130075387,1
55,556,3,0.063785296351268,1
55,557,3,0.0642978934820733,1
55,558,3,0.0621693410611826,1
55,559,3,0.0609348763053813,1
55,560,3,0.0585270331623914,1
56,556,3,0.0636474849375722,1
56,557,3,0.0626598895451839,1
56,558,3,0.0609086054518077,1
56,559,3,0.0594422141705185,1
57,555,3,0.0631835552264174,1
57,556,3,0.0639064548153584,1
57,557,3,0.0626383834165682,1
57,558,3,0.0609085405855026,1
57,559,3,0.0576165048374224,1
58,555,3,0.0659910632629988,1
58,556,3,0.0671492393470421,1
58,557,3,0.0660247052876087,1
58,558,3,0.0618736509577616,1
59,555,3,0.0705545493546723,1
59,556,3,0.0737123708205224,1
59,557,3,0.0721948354061145,1
59,558,3,0.0632672209661485,1
60,554,3,0.0680779892068129,1
60,555,3,0.0734015137955771,1
60,556,3,0.0790407485882969,1
60,557,3,0.0768667661660749,1
60,558,3,0.0635060410107897,1
61,554,3,0.0687056237812801,1
61,555,3,0.0743645071675144,1
61,556,3,0.0794621908695982,1
61,557,3,0.0748248751288245,1
61,558,3,0.0590709961001906,1
62,554,3,0.0696507789193094,1
62,555,3,0.0735852623471714,1
62,556,3,0.0753891766017472,1
62,557,3,0.0678939281175666,1
62,583,3,0.0599030656806485,1
62,584,3,0.0662077167220994,1
62,585,3,0.056962139448309,1
63,554,3,0.0707161667023471,1
63,555,3,0.0726785139587099,1
63,556,3,0.0726694326759931,1
63,557,3,0.0637717216026874,1
63,583,3,0.0650013390764151,1
63,584,3,0.0745853769364479,1
63,585,3,0.063083891097069,1
64,553,3,0.0693891672138238,1
64,554,3,0.0693761290864947,1
64,555,3,0.0712050168685416,1
64,556,3,0.0719226858745153,1
64,557,3,0.0628194547588422,1
65,553,3,0.068933310409188,1
65,554,3,0.0675349402942222,1
65,555,3,0.0694050004892099,1
65,556,3,0.0700307008683971,1
65,557,3,0.0607438509337398,1
66,553,3,0.0680435628896047,1
66,554,3,0.0663737862570802,1
66,555,3,0.0670015682549681,1
66,556,3,0.064658043001973,1
67,553,3,0.0666245652896108,1
67,554,3,0.0648779102916455,1
67,555,3,0.0632448067092611,1
67,556,3,0.0572256086888958,1
68,553,3,0.0662361104729315,1
68,554,3,0.0637373188732265,1
68,555,3,0.0605075901596824,1
69,553,3,0.065539965286384,1
69,554,3,0.0612622919289428,1
70,553,3,0.0657455560919933,1
70,554,3,0.0608434030212885,1
70,566,3,0.0633661833600142,1
70,567,3,0.0714637567657915,1
70,568,3,0.0696578021710729,1
71,554,3,0.0609510103245457,1
71,565,3,0.0726168850719091,1
71,566,3,0.105822489181008,1
71,567,3,0.133408654514322,1
71,568,3,0.12493587670892,1
71,569,3,0.0816063878638964,1
72,554,3,0.0631545540910919,1
72,555,3,0.0591951030326955,1
72,565,3,0.100478319416405,1
72,566,3,0.179139659089119,1
72,567,3,0.248585419205691,2
72,568,3,0.229429550144862,2
72,569,3,0.132754306816019,1
72,570,3,0.0634205236328943,1
72,576,3,0.0644957710943101,1
72,577,3,0.0637211081938834,1
73,554,3,0.0683185488478187,1
73,555,3,0.0643246007089722,1
73,565,3,0.122962101188983,1
73,566,3,0.251264704247861,2
73,567,3,0.366802373267044,2
73,568,3,0.334987880143674,2
73,569,3,0.183367833558816,2
73,570,3,0.0777358449220722,1
73,575,3,0.0624802216738752,1
73,576,3,0.0708706605503323,1
73,577,3,0.0660599394851625,1
74,555,3,0.0729125279998355,1
74,556,3,0.0605026485266197,1
74,565,3,0.119516957373072,1
74,566,3,0.250678265674082,2
74,567,3,0.366480683569143,2
74,568,3,0.329771544175652,2
74,569,3,0.180338364819988,2
74,570,3,0.0795028915275925,1
74,575,3,0.0626523591568531,1
74,576,3,0.0665087494502875,1
74,577,3,0.0625517515176121,1
75,554,3,0.0824372839539254,1
75,555,3,0.0772830132460297,1
75,556,3,0.0631059574346834,1
75,565,3,0.0822916532019942,1
75,566,3,0.157023551327834,1
75,567,3,0.221547091097673,2
75,568,3,0.198403288773563,2
75,569,3,0.115625238531095,1
75,570,3,0.0641498390891054,1
75,575,3,0.0627043642427489,1
75,576,3,0.0726751703955278,1
75,577,3,0.0764930831761524,1
75,578,3,0.0584150975075016,1
76,554,3,0.074481761859424,1
76,556,3,0.061934259674491,1
76,566,3,0.0775031400009227,1
76,567,3,0.097598797987267,1
76,568,3,0.0898499045592568,1
76,569,3,0.0646839069669053,1
76,575,3,0.0608488105123608,1
76,576,3,0.0811397986342317,1
76,577,3,0.0923898037055974,1
76,578,3,0.0648721961598581,1
77,557,3,0.0597328977745715,1
77,576,3,0.0679357432966217,1
77,577,3,0.0755847308208734,1
45,563,4,0.0609649801678938,1
45,564,4,0.0597968264667357,1
50,560,4,0.0588665669911366,1
51,559,4,0.0711191987468679,1
51,560,4,0.0663792350267103,1
51,561,4,0.0581773919839211,1
52,558,4,0.0684083827834731,1
52,559,4,0.07546443330956,1
52,560,4,0.0713828566894332,1
52,561,4,0.0608734891929905,1
52,581,4,0.0599291006567489,1
53,557,4,0.0646513617725456,1
53,558,4,0.0663657428352453,1
53,559,4,0.0691510253169179,1
53,560,4,0.0665151712144944,1
53,561,4,0.0575386416835311,1
53,581,4,0.05699291556162,1
54,557,4,0.064125632163422,1
54,558,4,0.062194031535686,1
54,559,4,0.0609548374365478,1
54,560,4,0.0592310861412266,1
55,556,4,0.0613182420655771,1
55,557,4,0.0623397507416695,1
55,558,4,0.0600951230162351,1
55,559,4,0.0586145967773665,1
56,556,4,0.0609817687470462,1
56,557,4,0.0603949468723732,1
56,558,4,0.0583856658957876,1
57,555,4,0.0610841985397675,1
57,556,4,0.0614087777367141,1
57,557,4,0.0602359890432083,1
57,558,4,0.0576692116588008,1
58,555,4,0.0644717174889843,1
58,556,4,0.0658849007092647,1
58,557,4,0.0644522929790693,1
58,558,4,0.0584008505081225,1
59,555,4,0.069009905721661,1
59,556,4,0.0742619063636251,1
59,557,4,0.0724634172909321,1
59,558,4,0.0601499586318088,1
60,554,4,0.0650324690059359,1
60,555,4,0.0717688524834548,1
60,556,4,0.0816264079644312,1
60,557,4,0.0800194278121996,1
60,558,4,0.0621349442286585,1
61,554,4,0.0657062412141538,1
61,555,4,0.0718455008683593,1
61,556,4,0.0806206735943566,1
61,557,4,0.0768808244634755,1
61,558,4,0.0571927863385051,1
62,554,4,0.0675730345061381,1
62,555,4,0.0707459934088286,1
62,556,4,0.0733448914081442,1
62,557,4,0.0661762388733058,1
63,553,4,0.0680557282702831,1
63,554,4,0.0690116453180256,1
63,555,4,0.0690726845111435,1
63,556,4,0.0673860544331614,1
63,557,4,0.0580625904177324,1
63,584,4,0.059767866609968,1
64,553,4,0.068729329467333,1
64,554,4,0.067396592259275,1
64,555,4,0.0670863956912545,1
64,556,4,0.0657725581657337,1
65,553,4,0.0674570889342046,1
65,554,4,0.064344308271855,1
65,555,4,0.0640968433178223,1
65,556,4,0.0625210874461008,1
66,553,4,0.0658677288292184,1
66,554,4,0.0629584337660301,1
66,555,4,0.0622282337692947,1
66,556,4,0.0574700426173983,1
67,552,4,0.0694102015874931,1
67,553,4,0.0639301840891587,1
67,554,4,0.0618098637920814,1
67,555,4,0.059466898748085,1
68,552,4,0.068161519316997,1
68,553,4,0.0633065476378617,1
68,554,4,0.0600987850140059,1
69,552,4,0.0672163582820308,1
69,553,4,0.0621643404587515,1
70,552,4,0.0672120830028297,1
70,553,4,0.0618430458556186,1
71,552,4,0.0673130798399015,1
71,553,4,0.0617912353686383,1
71,566,4,0.0662655420846455,1
71,567,4,0.0825732496263937,1
71,568,4,0.0782869195656873,1
72,552,4,0.0674220021600715,1
72,553,4,0.0636543312812308,1
72,554,4,0.0592707902168969,1
72,565,4,0.0669828867590935,1
72,566,4,0.120922221007191,1
72,567,4,0.176392405953057,1
72,568,4,0.166013643813505,1
72,569,4,0.0973411903018883,1
72,577,4,0.0605640061543263,1
73,552,4,0.0676466990410071,1
73,553,4,0.0660026743316152,1
73,554,4,0.0633514292240678,1
73,555,4,0.0582182400653362,1
73,565,4,0.0842735605978192,1
73,566,4,0.182348819287003,1
73,567,4,0.28599386454387,2
73,568,4,0.265335762619704,2
73,569,4,0.144401476479761,1
73,570,4,0.0612965590288566,1
73,576,4,0.0605923527296638,1
73,577,4,0.0610999787427221,1
74,552,4,0.0667716702757493,1
74,553,4,0.0689562612873268,1
74,554,4,0.0714537732517398,1
74,555,4,0.0671823034718428,1
74,565,4,0.0839113707377766,1
74,566,4,0.186012586138915,1
74,567,4,0.288817530187363,2
74,568,4,0.260661355146276,2
74,569,4,0.140497668917284,1
74,570,4,0.0623632972104281,1
75,549,4,0.0733075696949529,1
75,553,4,0.0736672002844116,1
75,554,4,0.0786036912182722,1
75,555,4,0.0735150770050316,1
75,556,4,0.0577389724214889,1
75,565,4,0.0599985547787219,1
75,566,4,0.116134898987359,1
75,567,4,0.168385096959322,1
75,568,4,0.149544088943545,1
75,569,4,0.0874639508457764,1
75,576,4,0.0615197816755849,1
75,577,4,0.0667996217563191,1
76,552,4,0.0744556148415238,1
76,553,4,0.0751678527686779,1
76,554,4,0.0735786282932387,1
76,555,4,0.0673116586781257,1
76,556,4,0.0578152728871205,1
76,566,4,0.0576540093556554,1
76,567,4,0.0714560907479137,1
76,568,4,0.0657476200198835,1
76,575,4,0.0588783785556052,1
76,576,4,0.0754691862406443,1
76,577,4,0.0889522492473857,1
76,578,4,0.0607848936140703,1
77,553,4,0.0775607353829325,1
77,554,4,0.0719846744744626,1
77,555,4,0.0658141020856947,1
77,556,4,0.0607825879117701,1
77,576,4,0.06482555138954,1
77,577,4,0.074008072717817,1
78,553,4,0.0793713957332407,1
78,554,4,0.073838494505423,1
78,555,4,0.0682293046058473,1
78,556,4,0.0619959062521023,1
79,554,4,0.0700929784182491,1
79,555,4,0.0672936848146706,1
79,556,4,0.0619334341033349,1
44,564,5,0.0571205488623488,1
45,563,5,0.0630672499413373,1
45,564,5,0.0635891937170167,1
45,569,5,0.0584034687480747,1
50,559,5,0.062383724199604,1
50,560,5,0.0591967659688813,1
51,558,5,0.0646495926914969,1
51,559,5,0.0705436813000963,1
51,560,5,0.0667404106136183,1
51,561,5,0.0592886048630576,1
52,557,5,0.0602895450234901,1
52,558,5,0.0668414192445637,1
52,559,5,0.074511677019958,1
52,560,5,0.0724637003438999,1
52,561,5,0.0635782254145146,1
52,581,5,0.0615006579094481,1
53,557,5,0.0640958526324351,1
53,558,5,0.0653829298586254,1
53,559,5,0.0685027101849912,1
53,560,5,0.0674554259980188,1
53,561,5,0.0598222127797849,1
54,556,5,0.061326562643443,1
54,557,5,0.0631310076223334,1
54,558,5,0.0617774129487109,1
54,559,5,0.0607585932758126,1
54,560,5,0.0585923063561525,1
55,556,5,0.0602723436587596,1
55,557,5,0.0619636441107103,1
55,558,5,0.0605770147969713,1
55,559,5,0.0585661888229365,1
56,555,5,0.0592267577895941,1
56,556,5,0.060505154724772,1
56,557,5,0.0604373517451112,1
56,558,5,0.0585397528551317,1
57,555,5,0.0617165506636979,1
57,556,5,0.0621978527507512,1
57,557,5,0.0609544600325907,1
57,558,5,0.0574682204639182,1
58,555,5,0.0663045916003277,1
58,556,5,0.0680069959843276,1
58,557,5,0.0655813087104928,1
58,558,5,0.0577067633525284,1
59,554,5,0.0655159293718687,1
59,555,5,0.071422578455914,1
59,556,5,0.0781091740957849,1
59,557,5,0.0754943189854098,1
59,558,5,0.0601368025657431,1
60,554,5,0.0661947198733281,1
60,555,5,0.0745037987123543,1
60,556,5,0.08704268547258,1
60,557,5,0.0856441089648253,1
60,558,5,0.0630041114387082,1
61,553,5,0.0637920837255583,1
61,554,5,0.066129788701903,1
61,555,5,0.0733630303858304,1
61,556,5,0.0851665101541006,1
61,557,5,0.0826376795581883,1
61,558,5,0.0585067535966361,1
62,553,5,0.0658496547178372,1
62,554,5,0.0674900056355846,1
62,555,5,0.0704026737466391,1
62,556,5,0.0738988673446792,1
62,557,5,0.0674517345155638,1
63,553,5,0.068306082723362,1
63,554,5,0.0689700070470754,1
63,555,5,0.0678276996200391,1
63,556,5,0.0652280762974936,1
64,552,5,0.0669942678471737,1
64,553,5,0.0692517626887692,1
64,554,5,0.0677197267066985,1
64,555,5,0.0655927015924466,1
64,556,5,0.0620526052997139,1
65,552,5,0.0696017223018282,1
65,553,5,0.0680423658114284,1
65,554,5,0.0644526762799632,1
65,555,5,0.0621596818786565,1
65,556,5,0.0579609685053567,1
66,552,5,0.0711514726821335,1
66,553,5,0.0663559303323617,1
66,554,5,0.0624585799157125,1
66,555,5,0.0601644591994715,1
67,551,5,0.0741672428367078,1
67,552,5,0.0703301355267045,1
67,553,5,0.064559121886665,1
67,554,5,0.0614910812840377,1
67,555,5,0.0580012740685835,1
68,551,5,0.0737939136629951,1
68,552,5,0.0687568917500722,1
68,553,5,0.0631705465837724,1
68,554,5,0.0586990291188854,1
69,551,5,0.0722752637275264,1
69,552,5,0.0679713784858798,1
69,553,5,0.0616023505850658,1
70,551,5,0.0720671726207016,1
70,552,5,0.0665500574927753,1
70,553,5,0.0598934536736171,1
71,551,5,0.0740380114660983,1
71,552,5,0.0661779607788599,1
71,553,5,0.0598304920790929,1
72,551,5,0.0735053824408846,1
72,552,5,0.0659476677048735,1
72,553,5,0.0618957703678075,1
72,554,5,0.0581648256115383,1
72,566,5,0.0749354014158121,1
72,567,5,0.112578149745021,1
72,568,5,0.107735773922953,1
72,569,5,0.0670828280444729,1
72,577,5,0.061992397574689,1
73,551,5,0.0710552464669564,1
73,552,5,0.0663557180426359,1
73,553,5,0.063529734902969,1
73,554,5,0.0600966208381897,1
73,566,5,0.116447637135153,1
73,567,5,0.191728038840151,1
73,568,5,0.179987449903163,1
73,569,5,0.101155441084742,1
73,576,5,0.059679642538068,1
73,577,5,0.0643293890216774,1
74,549,5,0.0795509279750023,1
74,551,5,0.0692599358432143,1
74,552,5,0.0665608429902357,1
74,553,5,0.0658549737548571,1
74,554,5,0.0649197726461952,1
74,555,5,0.060278093172168,1
74,566,5,0.119486941964612,1
74,567,5,0.192085440387488,1
74,568,5,0.173688141486479,1
74,569,5,0.0966124114669286,1
74,577,5,0.0571816647156455,1
75,548,5,0.074038990357612,1
75,549,5,0.074742223662228,1
75,550,5,0.0714235750382381,1
75,551,5,0.0698743789699948,1
75,552,5,0.0700522541725074,1
75,553,5,0.0713555007994831,1
75,554,5,0.071486029496195,1
75,555,5,0.0660961938527877,1
75,566,5,0.0776093733178988,1
75,567,5,0.112140479093566,1
75,568,5,0.099669755026148,1
75,569,5,0.0628856065961909,1
75,576,5,0.0574474986279007,1
75,577,5,0.0614313276231486,1
76,549,5,0.0708294822404548,1
76,551,5,0.0745336666973936,1
76,552,5,0.07835866169915,1
76,553,5,0.0788528309023644,1
76,554,5,0.0730435638331146,1
76,555,5,0.0640810336301836,1
76,575,5,0.0584002726083133,1
76,576,5,0.0683028570989165,1
76,577,5,0.0781205315961178,1
77,552,5,0.0865313384923825,1
77,553,5,0.0859113404511091,1
77,554,5,0.0768782416051443,1
77,555,5,0.0658481863805668,1
77,556,5,0.0579554961479793,1
77,576,5,0.0604222555868287,1
77,577,5,0.0671496521326201,1
78,552,5,0.0905237947062113,1
78,553,5,0.090178570333426,1
78,554,5,0.0829722245783761,1
78,555,5,0.0725289971254084,1
78,556,5,0.0624991626349703,1
79,553,5,0.085263208124224,1
79,554,5,0.083729078729579,1
79,555,5,0.0762763471599362,1
79,556,5,0.0648523352766178,1
80,554,5,0.0776717747034242,1
80,555,5,0.073278515487196,1
80,556,5,0.0636567136437097,1
81,556,5,0.057485822820353,1
81,565,5,0.0643088028152071,1
44,564,6,0.0579513388075148,1
44,569,6,0.0600053244622017,1
45,563,6,0.0637549860959665,1
45,564,6,0.0658384623317356,1
45,569,6,0.0631619311590651,1
45,570,6,0.0593929629541219,1
46,564,6,0.056962310459477,1
46,569,6,0.0572609726190599,1
46,570,6,0.057129824743981,1
50,559,6,0.0607796512372292,1
50,560,6,0.0593101817549152,1
51,558,6,0.0609448539224961,1
51,559,6,0.067539710916117,1
51,560,6,0.0659002032603362,1
51,561,6,0.0594944374430769,1
52,557,6,0.0571764105449307,1
52,558,6,0.0626459786712041,1
52,559,6,0.0705165318029351,1
52,560,6,0.0714856402983643,1
52,561,6,0.0646628490054887,1
52,581,6,0.0591216389936788,1
53,557,6,0.0605438445273077,1
53,558,6,0.0621015911539532,1
53,559,6,0.0654325407881685,1
53,560,6,0.0663077818431522,1
53,561,6,0.0597171529532379,1
54,556,6,0.0582119362398659,1
54,557,6,0.0603109803888638,1
54,558,6,0.0601285409572455,1
54,559,6,0.0594396313121873,1
55,556,6,0.057977037658216,1
55,557,6,0.0601612630597101,1
55,558,6,0.0603346506932958,1
55,559,6,0.0580136576359246,1
56,555,6,0.057916865314812,1
56,556,6,0.0590700113117401,1
56,557,6,0.0599933536804387,1
56,558,6,0.0593461353787621,1
57,555,6,0.0610742445104,1
57,556,6,0.0619234446923464,1
57,557,6,0.0616551694482439,1
57,558,6,0.0583993821708521,1
58,554,6,0.0629450948949227,1
58,555,6,0.0667243709454431,1
58,556,6,0.0682708721135556,1
58,557,6,0.0661720107695993,1
58,558,6,0.0581247500288478,1
59,554,6,0.0649771793262264,1
59,555,6,0.0721473296830194,1
59,556,6,0.0779855860937209,1
59,557,6,0.0753525507271017,1
59,558,6,0.0597130840668258,1
60,553,6,0.0622178256757913,1
60,554,6,0.0664813994572742,1
60,555,6,0.0754719401101435,1
60,556,6,0.0874791177673008,1
60,557,6,0.0865229707390221,1
60,558,6,0.0627694841161525,1
61,553,6,0.0631130868313098,1
61,554,6,0.0667113269211772,1
61,555,6,0.0739945628355416,1
61,556,6,0.0859102613116693,1
61,557,6,0.0842450489082505,1
61,558,6,0.0585461333407808,1
62,553,6,0.0651014867545835,1
62,554,6,0.0678492057486548,1
62,555,6,0.0704261612460294,1
62,556,6,0.073344655530671,1
62,557,6,0.0665951867503283,1
63,552,6,0.0630374291317926,1
63,553,6,0.0673593884848203,1
63,554,6,0.0691702788156649,1
63,555,6,0.0681177758395988,1
63,556,6,0.064109415587142,1
64,552,6,0.0650329171731349,1
64,553,6,0.0682273232350728,1
64,554,6,0.0677445351199385,1
64,555,6,0.0658731363202907,1
64,556,6,0.0603541223787054,1
65,552,6,0.0688102236467544,1
65,553,6,0.0688710033746518,1
65,554,6,0.06514673984781,1
65,555,6,0.0620595106127408,1
66,551,6,0.0711747066132401,1
66,552,6,0.0725293332508077,1
66,553,6,0.0690920677425007,1
66,554,6,0.0633533929040319,1
66,555,6,0.0589377430186637,1
67,551,6,0.0734770948349155,1
67,552,6,0.0723298044962587,1
67,553,6,0.0670195303245495,1
67,554,6,0.0618037604624633,1
68,551,6,0.0735678722804625,1
68,552,6,0.0706390465624963,1
68,553,6,0.0644170469876418,1
68,554,6,0.0578520461851866,1
69,550,6,0.0705281487684884,1
69,551,6,0.0723218849100972,1
69,552,6,0.0695373336485914,1
69,553,6,0.0620624649780922,1
70,550,6,0.0714929525000323,1
70,551,6,0.0709227953688383,1
70,552,6,0.0660374190834122,1
70,553,6,0.058647218631905,1
71,550,6,0.0765838252400785,1
71,551,6,0.0715046874043222,1
71,552,6,0.063652320425772,1
71,553,6,0.0571655837689125,1
72,550,6,0.0784924690927388,1
72,551,6,0.071403602113198,1
72,552,6,0.063411595670535,1
72,553,6,0.0591391646899348,1
72,567,6,0.0686723827483745,1
72,568,6,0.0663791347787842,1
72,577,6,0.0669839246199754,1
72,578,6,0.0596218407632693,1
73,550,6,0.0799380205992741,1
73,551,6,0.0715738997518852,1
73,552,6,0.0643436065363723,1
73,553,6,0.0599192704630548,1
73,566,6,0.0703340392988853,1
73,567,6,0.112665754638554,1
73,568,6,0.106765680639073,1
73,569,6,0.0655277291424637,1
73,576,6,0.0648324567025669,1
73,577,6,0.0759787464489826,1
73,578,6,0.0606269441611032,1
74,549,6,0.0897812229360084,1
74,550,6,0.0843098503470654,1
74,551,6,0.0732439594373775,1
74,552,6,0.0661491955210076,1
74,553,6,0.0623778154689013,1
74,554,6,0.0582308477162768,1
74,566,6,0.0713065857084858,1
74,567,6,0.110457363589934,1
74,568,6,0.100606919814774,1
74,569,6,0.0613550094667065,1
74,576,6,0.0633982980779854,1
74,577,6,0.0680988289815669,1
75,548,6,0.0814635640538959,1
75,549,6,0.0899834760753725,1
75,550,6,0.0848934819789139,1
75,551,6,0.0745860373933728,1
75,552,6,0.0705212080738406,1
75,553,6,0.0695152614140402,1
75,554,6,0.0652660584676097,1
75,555,6,0.0571317058668294,1
75,567,6,0.0678525905903947,1
75,568,6,0.0610432030349317,1
75,577,6,0.0578790659497375,1
76,549,6,0.0826912119507227,1
76,550,6,0.0816320572299135,1
76,551,6,0.0775333441113613,1
76,552,6,0.0807600712840594,1
76,553,6,0.0852088855421545,1
76,554,6,0.0772122971795753,1
76,555,6,0.0622182207705589,1
76,575,6,0.058342730298735,1
76,576,6,0.0602740065949454,1
76,577,6,0.0626619534730741,1
77,551,6,0.0828104303225964,1
77,552,6,0.0926886073916641,1
77,553,6,0.0997271911908633,1
77,554,6,0.0892793405394216,1
77,555,6,0.0692295902062918,1
78,551,6,0.0880949112926152,1
78,552,6,0.100529905819786,1
78,553,6,0.109501623450297,1
78,554,6,0.10510757994147,1
78,555,6,0.0858413497078846,1
78,556,6,0.0634549381562288,1
79,552,6,0.0971253918986278,1
79,553,6,0.114295667978114,1
79,554,6,0.123140306619958,1
79,555,6,0.104903298255837,1
79,556,6,0.0734496622847866,1
80,553,6,0.108825280177621,1
80,554,6,0.125267190207726,1
80,555,6,0.107890379812738,1
80,556,6,0.0756792056458122,1
81,554,6,0.0940682606291343,1
81,555,6,0.0847730724258007,1
81,556,6,0.0673436377665498,1
82,556,6,0.0578937257346946,1
44,564,7,0.0583897465760734,1
44,568,7,0.0598006535787377,1
44,569,7,0.0636416705578587,1
44,570,7,0.0580378822524185,1
45,562,7,0.0587085703626748,1
45,563,7,0.0646616047518177,1
45,564,7,0.0670941501631847,1
45,568,7,0.0586335672231457,1
45,569,7,0.0652579324886592,1
45,570,7,0.0709963242741602,1
45,571,7,0.0671565043732155,1
46,563,7,0.0578731572190348,1
46,564,7,0.059719216881128,1
46,569,7,0.0583473358063986,1
46,570,7,0.0689365242397598,1
46,571,7,0.0680652046477675,1
50,559,7,0.0600909479849601,1
50,560,7,0.0623542454123954,1
50,561,7,0.0583733118131307,1
51,558,7,0.057731825334052,1
51,559,7,0.0655534103023544,1
51,560,7,0.0674770205806869,1
51,561,7,0.0618623583237339,1
52,558,7,0.0604824986934747,1
52,559,7,0.0683737500734758,1
52,560,7,0.0718879411227183,1
52,561,7,0.0661534708002087,1
52,581,7,0.0574352919686645,1
52,582,7,0.058705391913724,1
53,557,7,0.057802523709696,1
53,558,7,0.060124212605613,1
53,559,7,0.064056178041449,1
53,560,7,0.0663346600812192,1
53,561,7,0.0598327447089616,1
54,556,7,0.057271009205543,1
54,557,7,0.0588378665995894,1
54,558,7,0.0596348081273565,1
54,559,7,0.0596285514773808,1
54,560,7,0.0568864286763604,1
55,557,7,0.0587024729299935,1
55,558,7,0.0601589160788521,1
55,559,7,0.0582961916732799,1
56,555,7,0.0575678963871402,1
56,556,7,0.0582776222192051,1
56,557,7,0.0597074701829645,1
56,558,7,0.0604553963718082,1
57,555,7,0.0602106675964642,1
57,556,7,0.061784447994348,1
57,557,7,0.0626375460515385,1
57,558,7,0.060244244754769,1
58,554,7,0.0632546133152079,1
58,555,7,0.066950542060586,1
58,556,7,0.0701930317454282,1
58,557,7,0.0688662681343781,1
58,558,7,0.0605912028269821,1
59,554,7,0.0643391189674454,1
59,555,7,0.0734317532876366,1
59,556,7,0.0812403532010413,1
59,557,7,0.0788357769610546,1
59,558,7,0.0624432950554515,1
60,553,7,0.0622008837762814,1
60,554,7,0.0662588549582813,1
60,555,7,0.0772648388867225,1
60,556,7,0.0909742086381539,1
60,557,7,0.0900943207969488,1
60,558,7,0.0655122201986032,1
61,553,7,0.0629167424226485,1
61,554,7,0.0666143930735807,1
61,555,7,0.0748298108649504,1
61,556,7,0.0883858661557624,1
61,557,7,0.0874433587423692,1
61,558,7,0.0608196265719936,1
62,552,7,0.0620407996321821,1
62,553,7,0.0648068227181709,1
62,554,7,0.068139747826224,1
62,555,7,0.0708049509832458,1
62,556,7,0.0745177921434497,1
62,557,7,0.0678729763010129,1
63,552,7,0.063006706090913,1
63,553,7,0.0667930112901337,1
63,554,7,0.0701880134521866,1
63,555,7,0.0697476832822218,1
63,556,7,0.0654065058120681,1
64,552,7,0.0654890865154227,1
64,553,7,0.069037680294126,1
64,554,7,0.0705631352946954,1
64,555,7,0.0690555833943391,1
64,556,7,0.0618733502139833,1
65,551,7,0.0669379226157717,1
65,552,7,0.0703894115357105,1
65,553,7,0.0722652625226643,1
65,554,7,0.0696200145998721,1
65,555,7,0.0656656997734538,1
65,556,7,0.0570385106771825,1
66,551,7,0.0725114065628472,1
66,552,7,0.0774675225024751,1
66,553,7,0.0760935362212976,1
66,554,7,0.0685736798197292,1
66,555,7,0.0607756059385645,1
67,551,7,0.0756133014798104,1
67,552,7,0.078228103517754,1
67,553,7,0.0733227248226036,1
67,554,7,0.0649954008610283,1
68,550,7,0.0741287358392138,1
68,551,7,0.0769504024211219,1
68,552,7,0.0771702107414261,1
68,553,7,0.0695099482739572,1
68,554,7,0.0599543631341247,1
69,550,7,0.0711777317418334,1
69,551,7,0.0745683878614433,1
69,552,7,0.0742993872941108,1
69,553,7,0.0652921877946994,1
70,550,7,0.071005440938498,1
70,551,7,0.0709071625893044,1
70,552,7,0.0679424304229859,1
70,553,7,0.0599347853038522,1
71,550,7,0.0746052555104988,1
71,551,7,0.0697009441609145,1
71,552,7,0.0631195970495691,1
71,578,7,0.0586594960543832,1
72,550,7,0.0771119136239338,1
72,551,7,0.0699185824084656,1
72,552,7,0.0621869787992384,1
72,553,7,0.0575106607182771,1
72,577,7,0.0754581176902161,1
72,578,7,0.0686221703312748,1
73,549,7,0.0838378241416442,1
73,550,7,0.0812007316824866,1
73,551,7,0.071045498830378,1
73,552,7,0.0631230113759931,1
73,553,7,0.0579166058495915,1
73,567,7,0.0617162558168564,1
73,568,7,0.0595066735869972,1
73,576,7,0.0755924499111827,1
73,577,7,0.094627938903583,1
73,578,7,0.0745551905168198,1
74,549,7,0.100496458394091,1
74,550,7,0.0932595783001405,1
74,551,7,0.0756248771668059,1
74,552,7,0.0662452920035744,1
74,553,7,0.0606528435076565,1
74,567,7,0.0601666705507824,1
74,576,7,0.0785273907526407,1
74,577,7,0.0906556914922675,1
74,578,7,0.0676674680525192,1
75,548,7,0.0930554263471175,1
75,549,7,0.111297193539259,1
75,550,7,0.100609113475274,1
75,551,7,0.0789139939311557,1
75,552,7,0.0718656094229465,1
75,553,7,0.0689588559395316,1
75,554,7,0.0611112065104447,1
75,576,7,0.0652611227314838,1
75,577,7,0.0683677469917838,1
76,549,7,0.103467842305153,1
76,550,7,0.095910646499583,1
76,551,7,0.0815317975099453,1
76,552,7,0.0831530600431769,1
76,553,7,0.0883397403158852,1
76,554,7,0.0787799093815359,1
76,555,7,0.0588401487141423,1
76,574,7,0.0579349689108773,1
76,575,7,0.0635737968149559,1
76,576,7,0.0609915812499298,1
76,577,7,0.0583496120240146,1
77,550,7,0.0851417901949131,1
77,551,7,0.08821502010195,1
77,552,7,0.100319927693176,1
77,553,7,0.109639022078415,1
77,554,7,0.097361245784044,1
77,555,7,0.0700237896584334,1
77,574,7,0.0576676253827938,1
77,575,7,0.0601178439138375,1
78,550,7,0.0819343990780776,1
78,551,7,0.0960571382042912,1
78,552,7,0.11259758604881,1
78,553,7,0.125691486606452,1
78,554,7,0.123384887971881,1
78,555,7,0.0971706214041069,1
78,556,7,0.0635796642671009,1
79,551,7,0.0916618740295411,1
79,552,7,0.11451298189414,1
79,553,7,0.149258111095082,1
79,554,7,0.174494700918214,1
79,555,7,0.145379353720255,1
79,556,7,0.0862158877536473,1
80,552,7,0.104548231895484,1
80,553,7,0.160048385074315,1
80,554,7,0.200627000064064,1
80,555,7,0.165762469686207,1
80,556,7,0.0956920293605182,1
81,553,7,0.123463541315308,1
81,554,7,0.15290090843963,1
81,555,7,0.127990360253778,1
81,556,7,0.0846150640034653,1
81,557,7,0.0606864501506455,1
81,569,7,0.0597200070706631,1
82,554,7,0.0850353504851481,1
82,555,7,0.0815382546557731,1
82,556,7,0.0737610854156675,1
82,557,7,0.066880191604215,1
82,558,7,0.0601513915874582,1
83,557,7,0.0655801293231269,1
83,558,7,0.0609787966908844,1
83,559,7,0.0591968544229338,1
83,560,7,0.0648551481154852,1
83,561,7,0.065925188581681,1
44,568,8,0.0637256960107364,1
44,569,8,0.0636522496625301,1
44,570,8,0.0611384975340897,1
44,571,8,0.0617291465207648,1
45,562,8,0.0587896945226326,1
45,563,8,0.0626977950551213,1
45,564,8,0.0643257388177802,1
45,567,8,0.0591410929882779,1
45,568,8,0.0624630262060816,1
45,569,8,0.0680772874713303,1
45,570,8,0.0809968627824314,1
45,571,8,0.0860347751328155,1
45,572,8,0.0631662536137608,1
46,563,8,0.0584569126865567,1
46,564,8,0.0594781677943654,1
46,569,8,0.0617864234681857,1
46,570,8,0.0813374403689954,1
46,571,8,0.0870080940411406,1
46,572,8,0.0595478401030011,1
49,560,8,0.0568444542800109,1
49,561,8,0.0568928268528199,1
50,560,8,0.0618403804401719,1
50,561,8,0.0594478339513166,1
51,559,8,0.0597157376883989,1
51,560,8,0.0647236287333861,1
51,561,8,0.060820269338108,1
52,559,8,0.0629746562392469,1
52,560,8,0.067468357980485,1
52,561,8,0.0626596182860897,1
52,582,8,0.058640112823026,1
53,559,8,0.061095774226763,1
53,560,8,0.0634580517388746,1
54,558,8,0.0569234083672156,1
54,559,8,0.0588746457945924,1
55,558,8,0.0580238652335758,1
55,559,8,0.0577451524112858,1
56,557,8,0.0571469258607853,1
56,558,8,0.0593492253736606,1
57,555,8,0.0575585969177608,1
57,556,8,0.059540634046196,1
57,557,8,0.0618280027697676,1
57,558,8,0.0604605031191022,1
58,554,8,0.0612081226672308,1
58,555,8,0.0641948798926059,1
58,556,8,0.0693877991244794,1
58,557,8,0.0696243016729468,1
58,558,8,0.0613512884995674,1
59,554,8,0.0612643381660225,1
59,555,8,0.0718207868061086,1
59,556,8,0.0809508312935436,1
59,557,8,0.0790660759319778,1
59,558,8,0.0621975932855307,1
60,553,8,0.0608234300962484,1
60,554,8,0.0637300715378636,1
60,555,8,0.0771400302187348,1
60,556,8,0.0896480701024076,1
60,557,8,0.0875039320774776,1
60,558,8,0.0629187296903599,1
61,553,8,0.0609712250239958,1
61,554,8,0.0652759594245458,1
61,555,8,0.0757672940881652,1
61,556,8,0.0870910462515154,1
61,557,8,0.0843463523860375,1
61,558,8,0.0575496571615279,1
62,553,8,0.0630362497444268,1
62,554,8,0.0669918324122633,1
62,555,8,0.0717026770583588,1
62,556,8,0.074328706864025,1
62,557,8,0.0657219447569297,1
63,552,8,0.0613133770926931,1
63,553,8,0.0638103524358548,1
63,554,8,0.0678906789053738,1
63,555,8,0.0701443289441568,1
63,556,8,0.0660425553153904,1
64,552,8,0.0637868885242118,1
64,553,8,0.0667124060606169,1
64,554,8,0.0696163113235434,1
64,555,8,0.0701028204058168,1
64,556,8,0.0623035789311599,1
65,552,8,0.0683720753434164,1
65,553,8,0.072283902739981,1
65,554,8,0.0720253102661519,1
65,555,8,0.068711697626214,1
65,556,8,0.0577503712003795,1
66,551,8,0.0694250146928078,1
66,552,8,0.0779061897362541,1
66,553,8,0.0810908363677398,1
66,554,8,0.074046508952069,1
66,555,8,0.0633220035092907,1
67,551,8,0.0737665931546659,1
67,552,8,0.0807259516075663,1
67,553,8,0.0799575925326098,1
67,554,8,0.0692550767672672,1
68,551,8,0.0772475313771291,1
68,552,8,0.0813111223399272,1
68,553,8,0.0757471914305148,1
68,554,8,0.0624837952175937,1
69,550,8,0.0685889175044956,1
69,551,8,0.0746161235650748,1
69,552,8,0.0764849925788229,1
69,553,8,0.0688273660421166,1
70,550,8,0.0692184155110007,1
70,551,8,0.0702715789439916,1
70,552,8,0.0693755924652432,1
70,553,8,0.0627569354345802,1
71,550,8,0.0723937331884228,1
71,551,8,0.0682413992232838,1
71,552,8,0.0638082767140909,1
71,553,8,0.0578454946883695,1
71,578,8,0.06126594213284,1
72,550,8,0.0754887463801064,1
72,551,8,0.0687191631482397,1
72,552,8,0.0616464891572315,1
72,577,8,0.0759230262928845,1
72,578,8,0.0711840827427984,1
73,549,8,0.0806249134919367,1
73,550,8,0.0811343616584753,1
73,551,8,0.0706276182989215,1
73,552,8,0.0620794245684126,1
73,576,8,0.0784943561125241,1
73,577,8,0.101981200942793,1
73,578,8,0.0796920829518801,1
74,549,8,0.106139308009088,1
74,550,8,0.100093426349571,1
74,551,8,0.0784194473239842,1
74,552,8,0.0657896062101066,1
74,553,8,0.0574776555628447,1
74,576,8,0.0853402162222751,1
74,577,8,0.102453026652362,1
74,578,8,0.0730596093982266,1
75,548,8,0.0984499854369248,1
75,549,8,0.129434449319979,1
75,550,8,0.11601548601657,1
75,551,8,0.0845733431753995,1
75,552,8,0.0713189162033954,1
75,553,8,0.0644806218635962,1
75,576,8,0.0742242603189082,1
75,577,8,0.0800882332711214,1
76,548,8,0.0951865262447184,1
76,549,8,0.123660640531883,1
76,550,8,0.111659253666692,1
76,551,8,0.0871540314337869,1
76,552,8,0.082762104925282,1
76,553,8,0.0831094345045153,1
76,554,8,0.0721767907794175,1
76,574,8,0.0578636218721821,1
76,575,8,0.067487163312033,1
76,576,8,0.0641082715813971,1
76,577,8,0.0597920912264619,1
77,549,8,0.0923610797263029,1
77,550,8,0.0914419654613108,1
77,551,8,0.0922052590675311,1
77,552,8,0.104478058347218,1
77,553,8,0.109325422977844,1
77,554,8,0.0954448533563902,1
77,555,8,0.0634237728450871,1
77,574,8,0.0591404915007214,1
77,575,8,0.0628327582483286,1
78,551,8,0.101703549569132,1
78,552,8,0.122306633072682,1
78,553,8,0.131271238997377,1
78,554,8,0.126110558319148,1
78,555,8,0.0937986585742452,1
79,551,8,0.0952442690501488,1
79,552,8,0.126668809534885,1
79,553,8,0.17079659030621,1
79,554,8,0.205164575015311,1
79,555,8,0.168360164710409,1
79,556,8,0.0889486757036673,1
80,552,8,0.119467894858654,1
80,553,8,0.199344935234179,1
80,554,8,0.259092652011002,1
80,555,8,0.212449391308745,1
80,556,8,0.107513176351528,1
81,553,8,0.160362078525875,1
81,554,8,0.205106242516197,1
81,555,8,0.167327245461552,1
81,556,8,0.0963944665786624,1
81,557,8,0.0610858791667638,1
81,569,8,0.0572265404049148,1
82,554,8,0.103990546785684,1
82,555,8,0.0972033906820661,1
82,556,8,0.0857186167616608,1
82,557,8,0.0777266928761135,1
82,558,8,0.0638496496228838,1
83,555,8,0.0642190868182893,1
83,556,8,0.0803673588789895,1
83,557,8,0.0831203202499018,1
83,558,8,0.0684575750305013,1
83,559,8,0.0615933518594646,1
83,560,8,0.0748304949096226,1
83,561,8,0.0859106799941842,1
83,562,8,0.0615876141399299,1
44,568,9,0.0616271943799267,1
44,569,9,0.0576715999182166,1
44,570,9,0.057723133249166,1
44,571,9,0.0657742977620983,1
44,572,9,0.0583252576749105,1
45,564,9,0.0569747824808706,1
45,567,9,0.0599681737601785,1
45,568,9,0.0631861675694327,1
45,569,9,0.0636169682894817,1
45,570,9,0.0751601690599896,1
45,571,9,0.0868935873217934,1
45,572,9,0.069075597597937,1
46,569,9,0.0599114098462617,1
46,570,9,0.0776001328178876,1
46,571,9,0.0854440082074039,1
46,572,9,0.0605201270473811,1
50,560,9,0.0569029754811028,1
51,560,9,0.0587812560060302,1
51,561,9,0.0569052929772766,1
52,560,9,0.0598794307578375,1
53,559,9,0.057322383319198,1
53,560,9,0.0581264837282756,1
54,559,9,0.0572984889311665,1
55,559,9,0.0571330031929318,1
56,558,9,0.0585183882529999,1
57,555,9,0.0569988124984491,1
57,556,9,0.0590501976039944,1
57,557,9,0.0617600641605597,1
57,558,9,0.0599259870741032,1
58,555,9,0.0632991587760148,1
58,556,9,0.0688658494518632,1
58,557,9,0.0695770082395775,1
58,558,9,0.0603875815982737,1
59,554,9,0.0615710437474401,1
59,555,9,0.0703749168649846,1
59,556,9,0.0789635458913305,1
59,557,9,0.0767377352913176,1
59,558,9,0.0600993629138152,1
60,554,9,0.063291940925336,1
60,555,9,0.0760836116766142,1
60,556,9,0.0854519808659968,1
60,557,9,0.0807930646456182,1
60,558,9,0.0583025072926238,1
61,553,9,0.0597929050037443,1
61,554,9,0.0650861134402701,1
61,555,9,0.075840168433499,1
61,556,9,0.0832264238342676,1
61,557,9,0.0769450656932915,1
62,553,9,0.0614748293261367,1
62,554,9,0.0661138669724645,1
62,555,9,0.0722409022766233,1
62,556,9,0.0732756024004024,1
62,557,9,0.0623399158559008,1
63,553,9,0.0615880446163184,1
63,554,9,0.0658972371011111,1
63,555,9,0.0700315441303636,1
63,556,9,0.0661085656262552,1
64,552,9,0.0620009304422806,1
64,553,9,0.0636108295782426,1
64,554,9,0.0675229695124592,1
64,555,9,0.0701760603612341,1
64,556,9,0.0618136909040834,1
65,552,9,0.0647347208715616,1
65,553,9,0.0689872084118058,1
65,554,9,0.0715264942767162,1
65,555,9,0.0703026616980178,1
65,556,9,0.0571317176607031,1
66,552,9,0.0725511401232016,1
66,553,9,0.0780878566691478,1
66,554,9,0.0740691708803032,1
66,555,9,0.0644499165135271,1
67,551,9,0.070257143242634,1
67,552,9,0.0777008819836126,1
67,553,9,0.0803953693289276,1
67,554,9,0.0702010751672631,1
68,551,9,0.0742041281765737,1
68,552,9,0.0801501511078269,1
68,553,9,0.0777393477025487,1
68,554,9,0.063141162147553,1
69,551,9,0.0718284882056074,1
69,552,9,0.0752663905830919,1
69,553,9,0.0707643623670512,1
70,551,9,0.0684078166775375,1
70,552,9,0.0694227915476232,1
70,553,9,0.0654902305211675,1
70,578,9,0.0579005661814164,1
70,579,9,0.0592210967302382,1
71,550,9,0.0685612608707672,1
71,551,9,0.0666517973438876,1
71,552,9,0.0644591570135383,1
71,553,9,0.0597283571332131,1
71,578,9,0.06186887443893,1
72,550,9,0.0726187956794418,1
72,551,9,0.0676918518863074,1
72,552,9,0.0616692218487076,1
72,577,9,0.0693622418002622,1
72,578,9,0.0676627681938664,1
73,550,9,0.0808826155283047,1
73,551,9,0.0715482657674892,1
73,552,9,0.0621473690745574,1
73,576,9,0.0724939103512753,1
73,577,9,0.0930254817018994,1
73,578,9,0.0750601629083051,1
74,549,9,0.10395748855782,1
74,550,9,0.101229777870409,1
74,551,9,0.0802032235392886,1
74,552,9,0.0654536695128272,1
74,576,9,0.0799555227077828,1
74,577,9,0.0941667512680537,1
74,578,9,0.0674788368372303,1
75,548,9,0.0979945650056144,1
75,549,9,0.13292218081367,1
75,550,9,0.123545485149485,1
75,551,9,0.090243713794577,1
75,552,9,0.0714989614786612,1
75,553,9,0.0590471429907169,1
75,575,9,0.0603196606798762,1
75,576,9,0.0795433032356823,1
75,577,9,0.0831636332509115,1
76,548,9,0.0969348441788695,1
76,549,9,0.130376909557878,1
76,550,9,0.122169434940417,1
76,551,9,0.0940007348055044,1
76,552,9,0.0823696283976853,1
76,553,9,0.0738059493110632,1
76,554,9,0.0614017544849507,1
76,575,9,0.0699393455230408,1
76,576,9,0.0704712197403404,1
76,577,9,0.0636545435709566,1
77,549,9,0.0957389041113727,1
77,550,9,0.0967801793197162,1
77,551,9,0.0953068768284632,1
77,552,9,0.103269103740139,1
77,553,9,0.0992665106919013,1
77,554,9,0.0833446869023749,1
77,574,9,0.0571408048403567,1
77,575,9,0.0619444554782685,1
78,551,9,0.100834364668272,1
78,552,9,0.121022327406802,1
78,553,9,0.124314669795597,1
78,554,9,0.114547620501074,1
78,555,9,0.0829059606992276,1
79,551,9,0.0929617947841452,1
79,552,9,0.125043896797756,1
79,553,9,0.167466295231982,1
79,554,9,0.199468888846326,1
79,555,9,0.164996127363646,1
79,556,9,0.084896306611655,1
80,552,9,0.122621694613587,1
80,553,9,0.207223926882512,1
80,554,9,0.271624326817485,1
80,555,9,0.227683184096801,1
80,556,9,0.112327046380965,1
81,553,9,0.170949769137282,1
81,554,9,0.221242195875862,1
81,555,9,0.183762244281693,1
81,556,9,0.103513543565579,1
81,557,9,0.0628912204800522,1
82,554,9,0.111977759018704,1
82,555,9,0.105962175820615,1
82,556,9,0.0995663227541658,1
82,557,9,0.0951622249680457,1
82,558,9,0.0721120836915919,1
83,555,9,0.0718268960326636,1
83,556,9,0.109073258165158,1
83,557,9,0.125430122572314,1
83,558,9,0.0954457968662829,1
83,559,9,0.0676479197069307,1
83,560,9,0.0774724346508537,1
83,561,9,0.0959191086039328,1
83,562,9,0.0654041470373365,1
84,557,9,0.111864007107271,1
84,561,9,0.121219261509146,1
44,568,10,0.0581793792516325,1
44,571,10,0.0721798630835054,1
44,572,10,0.0686277252457678,1
45,567,10,0.0597510190614473,1
45,568,10,0.0620652837138965,1
45,570,10,0.0666673062877481,1
45,571,10,0.0865665667929995,1
45,572,10,0.0811243840413605,1
45,573,10,0.057962961670005,1
46,570,10,0.0643278204364809,1
46,571,10,0.0725753116672641,1
46,572,10,0.0603954186273195,1
56,558,10,0.0586876716185525,1
57,556,10,0.0600566631942358,1
57,557,10,0.0627704512137925,1
57,558,10,0.0600600185512915,1
58,556,10,0.0682866994920048,1
58,557,10,0.0692464082701284,1
58,558,10,0.0593206488177868,1
59,555,10,0.0692723194105554,1
59,556,10,0.0758563673189685,1
59,557,10,0.0733105004725569,1
59,558,10,0.0571894663630703,1
60,555,10,0.0747234773000483,1
60,556,10,0.0800449733425432,1
60,557,10,0.072818766704253,1
61,554,10,0.0667227315970047,1
61,555,10,0.0764498763200057,1
61,556,10,0.0790381008636607,1
61,557,10,0.0681576332356266,1
62,554,10,0.066622973116667,1
62,555,10,0.0731979220515528,1
62,556,10,0.0718459844171793,1
62,557,10,0.0573542385719487,1
63,554,10,0.0652709352343674,1
63,555,10,0.0707623220269083,1
63,556,10,0.0662332799432535,1
64,553,10,0.0619905046579668,1
64,554,10,0.0663481876543051,1
64,555,10,0.0709536717300754,1
64,556,10,0.061583916760538,1
65,553,10,0.0670249731972427,1
65,554,10,0.0718858536070808,1
65,555,10,0.0723562817426213,1
66,553,10,0.0749610825757027,1
66,554,10,0.0750659595972081,1
66,555,10,0.0664452276467646,1
67,552,10,0.0768133399184034,1
67,553,10,0.081256304415164,1
67,554,10,0.0733188387412333,1
68,551,10,0.0723528851070077,1
68,552,10,0.0807382290300445,1
68,553,10,0.0806628661773687,1
68,554,10,0.0660572858635894,1
69,551,10,0.0701247039383896,1
69,552,10,0.0759913717907337,1
69,553,10,0.0737931352673336,1
69,554,10,0.0581306174809928,1
70,551,10,0.0666691461320387,1
70,552,10,0.0693590515574376,1
70,553,10,0.0671244545215494,1
70,578,10,0.0602347742742215,1
70,579,10,0.0615053695619746,1
71,551,10,0.0647104078010153,1
71,552,10,0.0644388597569726,1
71,553,10,0.0600484192765487,1
71,578,10,0.0609339799709833,1
72,551,10,0.0664597635960483,1
72,552,10,0.0624121592289939,1
72,577,10,0.0608891278694613,1
72,578,10,0.0618381513980505,1
73,551,10,0.0734551228482903,1
73,552,10,0.0644472098195226,1
73,576,10,0.0616764809779442,1
73,577,10,0.0768739958106274,1
73,578,10,0.065292099340647,1
74,550,10,0.100694560089928,1
74,551,10,0.0841735072706401,1
74,552,10,0.0679272988830824,1
74,576,10,0.0698187354740755,1
74,577,10,0.0771930318869547,1
74,578,10,0.0576403166683382,1
75,549,10,0.127707189347245,1
75,550,10,0.130097571660284,1
75,551,10,0.104736556470058,1
75,552,10,0.0779403978667996,1
75,575,10,0.0604574485058247,1
75,576,10,0.078436188727642,1
75,577,10,0.0749878723597173,1
76,548,10,0.093680460372443,1
76,549,10,0.127202765370885,1
76,550,10,0.136000794624032,1
76,551,10,0.117081675783016,1
76,552,10,0.0915975856242304,1
76,553,10,0.0647014680447824,1
76,575,10,0.06991849985135,1
76,576,10,0.0740725144434853,1
77,549,10,0.0972055371670719,1
77,550,10,0.108777491401558,1
77,551,10,0.11138930369253,1
77,552,10,0.106402040132571,1
77,553,10,0.0881992811775532,1
77,554,10,0.0686738333948344,1
77,575,10,0.0597342776577895,1
78,552,10,0.11568483297469,1
78,553,10,0.1151125470493,1
78,554,10,0.0990037903622918,1
78,555,10,0.069393300966541,1
79,552,10,0.118347571212117,1
79,553,10,0.152929154767041,1
79,554,10,0.170851644108446,1
79,555,10,0.138684950536022,1
79,556,10,0.0720385076107754,1
80,552,10,0.118645909040174,1
80,553,10,0.192131566227365,1
80,554,10,0.245015366473867,1
80,555,10,0.207183049316413,1
80,556,10,0.104184626770602,1
81,553,10,0.160769462509776,1
81,554,10,0.205264138896733,1
81,555,10,0.174449011451663,1
81,556,10,0.101373474427061,1
81,557,10,0.0616695343863596,1
82,554,10,0.112696642793665,1
82,555,10,0.10883878416296,1
82,556,10,0.111749394243061,1
82,557,10,0.118185476212559,1
82,558,10,0.088144292241622,1
83,557,10,0.201510148911336,1
83,561,10,0.0936992480131805,1
44,571,11,0.0722291201968388,1
44,572,11,0.0710424088354795,1
45,570,11,0.0593755080211078,1
45,571,11,0.0820026384310638,1
45,572,11,0.0849361758015565,1
46,571,11,0.0586236426784623,1
46,572,11,0.0574235983429324,1
67,553,11,0.0786749439059781,1
67,554,11,0.0736976048907024,1
68,552,11,0.0784991974976608,1
68,553,11,0.0807237579470659,1
68,554,11,0.0677697209371355,1
69,552,11,0.07544107554278,1
69,553,11,0.075066342898102,1
70,552,11,0.069523410980738,1
70,553,11,0.0675157103832226,1
74,550,11,0.0987244583616347,1
75,549,11,0.114311353830079,1
75,550,11,0.131934785917134,1
75,551,11,0.128078248200278,1
75,552,11,0.090275421623907,1
76,549,11,0.116603976724366,1
76,550,11,0.149449419519691,1
76,551,11,0.157689079618365,1
76,552,11,0.112834218329887,1
77,550,11,0.119095585855013,1
77,551,11,0.135057898012808,1
77,552,11,0.111073970892531,1
77,553,11,0.0764134804258966,1
78,551,11,0.0991417550963451,1
78,553,11,0.099758633658036,1
78,554,11,0.0809871564244107,1
79,553,11,0.127238040846996,1
79,554,11,0.131075201229431,1
79,555,11,0.102980837880186,1
80,553,11,0.155600136922156,1
80,554,11,0.187576772220578,1
80,555,11,0.158262674663731,1
81,553,11,0.131977597678513,1
81,554,11,0.162561742107988,1
81,555,11,0.142248493049587,1
82,554,11,0.103225171560763,1
44,567,12,0.0605003487212563,1
44,571,12,0.0690943557539904,1
44,572,12,0.0665182435185824,1
45,571,12,0.0754568616426715,1
45,572,12,0.0780818299997085,1
74,551,12,0.0895964601112794,1
75,550,12,0.117630586250815,1
75,551,12,0.13231878264957,1
75,552,12,0.0917347896534328,1
76,549,12,0.100407626937698,1
76,550,12,0.142953436465884,1
76,551,12,0.175109928337593,1
76,552,12,0.121979860215235,1
77,550,12,0.114328219069411,1
77,551,12,0.141986822374733,1
77,552,12,0.108014569302358,1
78,551,12,0.0941990782757508,1
80,554,12,0.125924663282548,1
81,554,12,0.116388809293346,1
43,567,13,0.0627190712032006,1
44,567,13,0.0625478418484944,1
44,571,13,0.0587023726820675,1
45,571,13,0.0608914276748246,1
45,572,13,0.061199283158924,1
75,551,13,0.127807437273339,1
76,550,13,0.13151230577495,1
76,551,13,0.168461037711807,1
76,552,13,0.120349003365783,1
77,551,13,0.132058609796671,1
43,567,14,0.0619149059278179,1
44,567,14,0.0576414488802094,1
75,551,14,0.11217885635845,1
76,550,14,0.110524458937176,1
76,551,14,0.136456698604162,1
76,552,14,0.10130167332423,1
77,551,14,0.108817107023176,1
76,551,15,0.0989131662371023,1
39,566,16,0.0612353134429497,1
39,565,17,0.0569091613678365,1
39,566,17,0.0650481784456486,1
