x,y,z,signal,cytoplasm.p
828,269,21,0.0898136560885684,1
826,268,22,0.0809744190408599,1
826,269,22,0.0958963110461515,1
826,270,22,0.0711855392861951,1
826,283,22,0.0631314263048482,1
827,267,22,0.0772868816365896,1
827,268,22,0.135465281996708,1
827,269,22,0.156754320779966,1
827,270,22,0.109155190205462,1
827,282,22,0.0818153929959298,1
827,283,22,0.100722110578793,1
827,284,22,0.076631902966046,1
828,267,22,0.100021519101877,1
828,268,22,0.156243469142462,1
828,269,22,0.162989258234223,1
828,270,22,0.106643330993743,1
828,282,22,0.0857496818248765,1
828,283,22,0.102765352014578,1
828,284,22,0.0783479351710579,1
829,267,22,0.095239362798707,1
829,268,22,0.124580503707852,1
829,269,22,0.111443189901274,1
829,270,22,0.0693025294179308,1
829,282,22,0.0636541130945681,1
829,283,22,0.0718198138115318,1
829,284,22,0.0608952606837635,1
830,267,22,0.0663878504514176,1
830,268,22,0.0736465786963203,1
830,269,22,0.0584643369300245,1
835,280,22,0.0743279461591741,1
835,288,22,0.058452277694209,1
835,289,22,0.0647676965423099,1
835,290,22,0.0780089674482482,1
836,280,22,0.0681953972190801,1
836,286,22,0.0618169813948341,1
836,287,22,0.0782767473496571,1
836,288,22,0.0882154859599595,1
836,289,22,0.096225206800857,1
836,290,22,0.108051543096277,1
836,291,22,0.0829935655927606,1
837,284,22,0.0593671402677474,1
837,285,22,0.0855999350110386,1
837,286,22,0.0933088825889685,1
837,287,22,0.102598221030968,1
837,288,22,0.103070754372956,1
837,289,22,0.0870326017106023,1
837,290,22,0.0833741126171521,1
837,291,22,0.0662290518395471,1
838,284,22,0.0869878557539432,1
838,285,22,0.136058561017209,1
838,286,22,0.127835093907068,1
838,287,22,0.0989648469914725,1
838,288,22,0.0844097090753292,1
838,289,22,0.0668280390948985,1
838,290,22,0.0579129497487575,1
838,291,22,0.0582155392682685,1
839,284,22,0.0863664837263885,1
839,285,22,0.136936496972324,1
839,286,22,0.123679003593169,1
839,287,22,0.0811272027771648,1
839,288,22,0.0612268572355368,1
839,291,22,0.0610897534542605,1
840,284,22,0.0570998211293946,1
840,285,22,0.084444872509641,1
840,286,22,0.078530138725203,1
840,287,22,0.0583808893769561,1
847,286,22,0.0636506339018389,1
847,287,22,0.0853654433180299,1
847,288,22,0.0612313448044637,1
848,286,22,0.0828881047745092,1
848,287,22,0.110973510676711,1
848,288,22,0.072226596307876,1
849,286,22,0.0588162543261108,1
849,287,22,0.0792219437662443,1
859,283,22,0.0832234163964847,1
826,268,23,0.0929911320448699,1
826,269,23,0.127809206354388,1
826,270,23,0.089062822709868,1
826,283,23,0.0631996066884662,1
827,267,23,0.0726873298792694,1
827,268,23,0.173893154392279,1
827,269,23,0.238178811730432,1
827,270,23,0.160357797349737,1
827,271,23,0.0618143690518188,1
827,282,23,0.08092431866556,1
827,283,23,0.107989412969846,1
827,284,23,0.0819979444693479,1
828,267,23,0.0902691236953735,1
828,268,23,0.187975122097256,1
828,269,23,0.233128297626044,1
828,270,23,0.149745068344554,1
828,271,23,0.0583121723720867,1
828,282,23,0.0841210717083558,1
828,283,23,0.110632231354664,1
828,284,23,0.0848494082730533,1
829,267,23,0.0906453718528166,1
829,268,23,0.13767519445503,1
829,269,23,0.133892356654665,1
829,270,23,0.0793836082894137,1
829,282,23,0.057339325218708,1
829,283,23,0.0710940247235445,1
829,284,23,0.0612714085932805,1
830,267,23,0.0629804234434658,1
830,268,23,0.0744701920693653,1
835,288,23,0.05686463359784,1
835,289,23,0.0586832253281834,1
835,290,23,0.0666684208088088,1
835,291,23,0.0603850812970581,1
836,287,23,0.0695282228811905,1
836,288,23,0.0833795260051612,1
836,289,23,0.0783400686573279,1
836,290,23,0.0813926710793366,1
836,291,23,0.0698881247297434,1
836,292,23,0.0767808536934119,1
837,285,23,0.0789196255058274,1
837,286,23,0.0810489681162533,1
837,287,23,0.0904588104623548,1
837,288,23,0.099719230326144,1
837,289,23,0.0793038934973581,1
837,290,23,0.0696015866722812,1
837,291,23,0.0604412967958498,1
837,292,23,0.0632028500037222,1
838,284,23,0.0820551860351478,1
838,285,23,0.139770965804088,1
838,286,23,0.123653552413814,1
838,287,23,0.0867390227105662,1
838,288,23,0.0775126104814703,1
838,289,23,0.0616405096632868,1
838,292,23,0.0604671607607822,1
839,284,23,0.0817775759400449,1
839,285,23,0.14305278805758,1
839,286,23,0.125371377287622,1
839,287,23,0.0756228250327893,1
839,288,23,0.0572510775590607,1
839,291,23,0.0572809455441,1
839,292,23,0.0715984958753993,1
840,285,23,0.0753278425617879,1
840,286,23,0.0692351156361007,1
847,287,23,0.0742292609213393,1
848,286,23,0.068215824208256,1
848,287,23,0.0973895746685709,1
848,288,23,0.0612190791758592,1
849,287,23,0.0629232585378446,1
859,283,23,0.0594481995614,1
859,284,23,0.09041543259504,1
860,283,23,0.0634593372711033,1
867,276,23,0.0581243903157012,1
867,277,23,0.063059289076618,1
868,276,23,0.0740084737095214,1
868,277,23,0.077518242056142,1
869,276,23,0.0667086556087936,1
826,268,24,0.0809691589732084,1
826,269,24,0.124963781013996,1
826,270,24,0.0817698922313566,1
827,267,24,0.0575533899225407,1
827,268,24,0.165153752485087,1
827,269,24,0.257315173724231,1
827,270,24,0.166730050874997,1
827,282,24,0.0669692884227656,1
827,283,24,0.0948713998375087,1
827,284,24,0.0748470004358072,1
828,267,24,0.0674407721099985,1
828,268,24,0.171831384780978,1
828,269,24,0.246649502020196,1
828,270,24,0.153051280328772,1
828,282,24,0.0676883962813256,1
828,283,24,0.0978218673136377,1
828,284,24,0.0794784900029938,1
829,267,24,0.0678206822652125,1
829,268,24,0.113547157992524,1
829,269,24,0.124196990524236,1
829,270,24,0.0692345849117861,1
829,283,24,0.0604893214493859,1
830,268,24,0.0595792294977423,1
836,288,24,0.0704991417362262,1
836,289,24,0.0623063563884064,1
836,290,24,0.0598753146959308,1
837,287,24,0.0656991707868957,1
837,288,24,0.0800755076814443,1
837,289,24,0.0656799526697697,1
838,285,24,0.103112469304085,1
838,286,24,0.0884773984092234,1
838,287,24,0.0601186871758041,1
838,288,24,0.0591493486998386,1
839,284,24,0.0573633670301601,1
839,285,24,0.110210411669406,1
839,286,24,0.095134715757738,1
839,291,24,0.0570914238913499,1
847,287,24,0.0606749747115761,1
848,287,24,0.0766955721929897,1
859,284,24,0.0601452882578401,1
867,276,24,0.0739951761169718,1
867,277,24,0.0862138356196308,1
867,278,24,0.0569869773462331,1
868,276,24,0.105189453012405,1
868,277,24,0.120489621721409,1
868,278,24,0.0755861873642702,1
869,276,24,0.0814727573784125,1
869,277,24,0.0920161443034222,1
826,268,25,0.0618352972806252,1
826,269,25,0.0978962394809261,1
826,270,25,0.063348215393496,1
827,268,25,0.126063960724325,1
827,269,25,0.209898234909998,1
827,270,25,0.135070717953474,1
827,283,25,0.0709749950536494,1
827,284,25,0.0618740814341501,1
828,268,25,0.127447464661545,1
828,269,25,0.201222590683802,1
828,270,25,0.124270938112073,1
828,283,25,0.0731486354535353,1
828,284,25,0.0664851322182871,1
829,268,25,0.07591148598751,1
829,269,25,0.0954935679515353,1
836,288,25,0.0571049278766885,1
837,288,25,0.0601685221889467,1
838,285,25,0.0675595717993573,1
838,286,25,0.061177305275362,1
839,285,25,0.0713791357222941,1
839,286,25,0.0642425212452481,1
855,286,25,0.0575373148727446,1
867,276,25,0.0655453197050248,1
867,277,25,0.08136302128096,1
868,276,25,0.102081448868887,1
868,277,25,0.125108138027572,1
868,278,25,0.069866919344906,1
869,276,25,0.0698184936996655,1
869,277,25,0.0876822849318734,1
826,269,26,0.0641421141018593,1
827,268,26,0.0820341752492258,1
827,269,26,0.132773861058544,1
827,270,26,0.0884326347617539,1
828,268,26,0.0822911342715533,1
828,269,26,0.130043579306677,1
828,270,26,0.0841288851496543,1
829,269,26,0.0652634107429735,1
867,277,26,0.0571815290860984,1
868,276,26,0.0743781349885265,1
868,277,26,0.095102247223557,1
869,277,26,0.0620663451625257,1
872,271,26,0.0896499984007507,1
872,272,26,0.101234990762566,1
872,273,26,0.0597699836102897,1
827,269,27,0.0699198738376312,1
828,269,27,0.0699186413778339,1
868,277,27,0.0582685055548673,1
835,291,28,0.0608424595113959,1
834,291,29,0.0711977400484945,1
835,291,29,0.073806303127273,1
836,291,29,0.0602804578438365,1
834,291,30,0.0732524805110955,1
835,291,30,0.0771188543185816,1
835,292,30,0.106910591964711,1
836,291,30,0.0578838365716323,1
836,292,30,0.0727575623969039,1
855,267,30,0.0661381859399477,1
855,268,30,0.0612839336871055,1
855,284,30,0.0778213387122203,1
856,267,30,0.0674777518008537,1
856,268,30,0.0634140546931928,1
856,283,30,0.083920363566441,1
857,282,30,0.0651952952256607,1
858,282,30,0.0684862400404275,1
822,264,31,0.0597907231371176,1
834,291,31,0.0677105451760556,1
834,292,31,0.0962439000906053,1
835,291,31,0.0726819813575654,1
835,292,31,0.102211228654622,1
835,293,31,0.076824980471704,1
836,292,31,0.0674093414366995,1
854,267,31,0.0636579637943175,1
854,268,31,0.0648362366390744,1
855,266,31,0.0599934834130489,1
855,267,31,0.0914136601645311,1
855,268,31,0.0965987777489798,1
855,269,31,0.0656822288873858,1
856,266,31,0.0572117744750948,1
856,267,31,0.0875035841582047,1
856,268,31,0.0918010535325812,1
856,269,31,0.0610323821558503,1
856,282,31,0.0607774221951078,1
857,267,31,0.0578378404643654,1
857,268,31,0.0595179957057091,1
857,282,31,0.0772433504489173,1
819,265,32,0.058779846638128,1
820,264,32,0.0817633525284131,1
820,265,32,0.0826157075715631,1
820,266,32,0.0571844834514498,1
821,263,32,0.0642015611220333,1
821,264,32,0.0939267518360467,1
821,265,32,0.0891613310395979,1
821,266,32,0.0580965921554889,1
822,263,32,0.0589360211131096,1
822,264,32,0.0785832465382858,1
822,265,32,0.0687131246849267,1
834,291,32,0.0574695649655152,1
834,292,32,0.0739166053306611,1
835,291,32,0.0617710560508091,1
835,292,32,0.0792642955665508,1
836,292,32,0.057600406199879,1
854,267,32,0.0821471251772501,1
854,268,32,0.090714295250475,1
854,269,32,0.067180192368458,1
855,266,32,0.0630607161353306,1
855,267,32,0.109340354021895,1
855,268,32,0.125150100630048,1
855,269,32,0.0920612558701647,1
856,267,32,0.0964004165879229,1
856,268,32,0.108872644374233,1
856,269,32,0.0792833072908878,1
857,267,32,0.0585693495810769,1
857,268,32,0.0641143454263311,1
819,264,33,0.0869574039721578,1
819,265,33,0.0978258713337446,1
819,266,33,0.0614161135261295,1
820,263,33,0.0785535790490987,1
820,264,33,0.162257530930849,1
820,265,33,0.179363447841782,1
820,266,33,0.101876164703993,1
821,263,33,0.0852502584509473,1
821,264,33,0.169167726621405,1
821,265,33,0.178271913040845,1
821,266,33,0.0970624244071668,1
822,263,33,0.0635950552722248,1
822,264,33,0.10010332140957,1
822,265,33,0.0942531119079157,1
838,292,33,0.0570628650262867,1
838,293,33,0.0624057138770397,1
853,267,33,0.0633357964445339,1
853,268,33,0.0676708352034486,1
854,267,33,0.0928686408730561,1
854,268,33,0.110937893178263,1
854,269,33,0.0855925933246864,1
855,266,33,0.0607889625004824,1
855,267,33,0.111997973718155,1
855,268,33,0.137679794065757,1
855,269,33,0.108438488297128,1
856,267,33,0.0907373935520345,1
856,268,33,0.109888049720707,1
856,269,33,0.0872024452851537,1
857,268,33,0.0624493924881328,1
819,263,34,0.0569374076952478,1
819,264,34,0.0984655533501536,1
819,265,34,0.115502546863429,1
819,266,34,0.0622006478988082,1
820,263,34,0.0952565936481216,1
820,264,34,0.211845804442667,1
820,265,34,0.242804675619884,1
820,266,34,0.122315183631085,1
821,263,34,0.0999849934751573,1
821,264,34,0.213996134251268,1
821,265,34,0.235574229084013,1
821,266,34,0.113706953186719,1
822,263,34,0.0629475303298331,1
822,264,34,0.106588182840518,1
822,265,34,0.106576766370817,1
838,293,34,0.0588053744776611,1
839,293,34,0.0644498339564115,1
840,292,34,0.0604513805578276,1
840,293,34,0.0668271840390583,1
841,292,34,0.0636100983580758,1
841,293,34,0.0647245427585946,1
842,292,34,0.0649776156995517,1
853,267,34,0.0664660851123291,1
853,268,34,0.0762381527000942,1
853,269,34,0.0587132879121381,1
854,267,34,0.0899949692052524,1
854,268,34,0.113762974086595,1
854,269,34,0.0911720567657066,1
855,267,34,0.0973335773564419,1
855,268,34,0.12618916448708,1
855,269,34,0.104023404517695,1
856,267,34,0.0724456380263924,1
856,268,34,0.0926787477132858,1
856,269,34,0.0781016201197069,1
819,264,35,0.0842164487646295,1
819,265,35,0.0999711946429773,1
820,263,35,0.0887809845110585,1
820,264,35,0.192373552927084,1
820,265,35,0.221970609100738,1
820,266,35,0.109843445290532,1
821,263,35,0.0938269049016565,1
821,264,35,0.197867964848218,1
821,265,35,0.219637285548457,1
821,266,35,0.103982998706542,1
822,263,35,0.0575588740737917,1
822,264,35,0.097029295416061,1
822,265,35,0.0999485621994272,1
829,256,35,0.0627537157070715,1
830,256,35,0.057380073052197,1
839,292,35,0.0628890975827937,1
839,293,35,0.071845099876655,1
840,292,35,0.0809113984769675,1
840,293,35,0.0883297803895809,1
841,292,35,0.0842783842921454,1
841,293,35,0.087431258227996,1
842,292,35,0.0735701131164575,1
853,267,35,0.0633756361497513,1
853,268,35,0.0744424115999635,1
853,269,35,0.0616786333598868,1
854,267,35,0.0781433173600254,1
854,268,35,0.100766715008969,1
854,269,35,0.0849926625594423,1
855,267,35,0.0786303630635502,1
855,268,35,0.104043819712998,1
855,269,35,0.0897674476915757,1
856,268,35,0.0734770358655472,1
856,269,35,0.06614165923574,1
819,264,36,0.070474303838302,1
819,265,36,0.0804188981068757,1
820,263,36,0.0766879828352906,1
820,264,36,0.147208890165353,1
820,265,36,0.166206827464026,1
820,266,36,0.0895309746277924,1
821,263,36,0.0841534340976738,1
821,264,36,0.162384208927811,1
821,265,36,0.177628109065592,1
821,266,36,0.0912908623520022,1
822,264,36,0.0868639198326062,1
822,265,36,0.0909397233515774,1
829,256,36,0.0671133446925634,1
830,256,36,0.0606343094352027,1
839,292,36,0.0675510330348288,1
839,293,36,0.0738765651295916,1
840,291,36,0.0607547956484946,1
840,292,36,0.100686304378367,1
840,293,36,0.107726338824026,1
840,294,36,0.0726907677934408,1
841,291,36,0.0643711275405537,1
841,292,36,0.103631623828644,1
841,293,36,0.109651275913145,1
841,294,36,0.0742723144571285,1
842,292,36,0.0778792053533242,1
842,293,36,0.0784257039739599,1
853,268,36,0.0658950021620529,1
853,269,36,0.0577398274773291,1
854,267,36,0.0616771650226164,1
854,268,36,0.0807768067907804,1
854,269,36,0.0716511024488516,1
855,267,36,0.0593861401982107,1
855,268,36,0.079466507427357,1
855,269,36,0.0714986430440724,1
856,268,36,0.0572020740140109,1
819,264,37,0.0636923606268416,1
819,265,37,0.0700422942462031,1
820,263,37,0.0643044331850167,1
820,264,37,0.104491845385524,1
820,265,37,0.116445962405094,1
820,266,37,0.0728470602071589,1
821,263,37,0.0724012046073852,1
821,264,37,0.121743345872894,1
821,265,37,0.133096741937684,1
821,266,37,0.0781714103670791,1
822,264,37,0.0763182684838541,1
822,265,37,0.0810307819630723,1
829,256,37,0.0618084013517478,1
830,256,37,0.057054573933105,1
839,292,37,0.0725095195430619,1
839,293,37,0.0756284860921453,1
840,291,37,0.0712860997499416,1
840,292,37,0.117564516970582,1
840,293,37,0.123260580543524,1
840,294,37,0.0807224842087108,1
841,291,37,0.0743858363880252,1
841,292,37,0.121419073316663,1
841,293,37,0.128368118027049,1
841,294,37,0.084488002705609,1
842,291,37,0.0588845526484653,1
842,292,37,0.083144084905323,1
842,293,37,0.0849162382581373,1
854,268,37,0.063425948814777,1
854,269,37,0.0584032977369066,1
855,268,37,0.060592311451106,1
819,265,38,0.0583447883296884,1
820,264,38,0.0749245038765519,1
820,265,38,0.0813250980802121,1
820,266,38,0.0580722613941321,1
821,263,38,0.0601806698788146,1
821,264,38,0.0876854692777611,1
821,265,38,0.094337945241139,1
821,266,38,0.0622592811416998,1
822,264,38,0.0637398309683157,1
822,265,38,0.0658733545069533,1
839,292,38,0.0737729854341886,1
839,293,38,0.0733452334304803,1
840,291,38,0.0771439398878525,1
840,292,38,0.123558163563667,1
840,293,38,0.125504447564107,1
840,294,38,0.0815627505313612,1
841,291,38,0.0799467775504653,1
841,292,38,0.126738865144414,1
841,293,38,0.129988914702271,1
841,294,38,0.0850561135997233,1
842,291,38,0.0598449218835137,1
842,292,38,0.0820624569582581,1
842,293,38,0.0814631630621915,1
820,264,39,0.0632055743885372,1
820,265,39,0.0667450927814606,1
821,263,39,0.0576672774635208,1
821,264,39,0.0724494533445208,1
821,265,39,0.0743324514189115,1
822,264,39,0.0595246297596418,1
822,265,39,0.0573345192151922,1
825,259,39,0.0581033323542846,1
826,258,39,0.0637342819507595,1
826,259,39,0.0738490264345997,1
826,260,39,0.0619993087846526,1
827,258,39,0.062514872074683,1
827,259,39,0.0670246075871593,1
839,292,39,0.0734036248989619,1
839,293,39,0.0719081263374842,1
840,264,39,0.0593522269145066,1
840,265,39,0.0617691395463397,1
840,291,39,0.0794913807069021,1
840,292,39,0.120235841148033,1
840,293,39,0.11805323150723,1
840,294,39,0.0793028084609816,1
841,264,39,0.0603897988465214,1
841,265,39,0.065883096246595,1
841,266,39,0.0571396372468645,1
841,291,39,0.0825275483659682,1
841,292,39,0.120782003643269,1
841,293,39,0.11811558571726,1
841,294,39,0.0797651813808135,1
842,265,39,0.0593781675396177,1
842,292,39,0.0813225034280073,1
842,293,39,0.0773208126111042,1
820,265,40,0.0575701726047563,1
821,263,40,0.0601163696796303,1
821,264,40,0.0665907581507697,1
821,265,40,0.0631615596520449,1
822,264,40,0.0571469848301536,1
825,258,40,0.0584586640767949,1
825,259,40,0.0818538351271186,1
825,260,40,0.0804352856943237,1
826,258,40,0.0760334228472619,1
826,259,40,0.105468095071453,1
826,260,40,0.09867866275022,1
826,261,40,0.0609659295747233,1
827,257,40,0.0588781131934479,1
827,258,40,0.071706398025498,1
827,259,40,0.0846064249910107,1
827,260,40,0.0733056119119256,1
828,256,40,0.058576832793913,1
828,257,40,0.0624772555146502,1
828,258,40,0.0630476485233174,1
829,256,40,0.0574428872233004,1
829,257,40,0.0608027672295993,1
829,258,40,0.0571526164048254,1
839,264,40,0.0578531430154369,1
839,265,40,0.0581402235910873,1
839,292,40,0.0671971460618416,1
840,264,40,0.0657407972639723,1
840,265,40,0.0724171735123184,1
840,266,40,0.0643048636614052,1
840,291,40,0.072634416665102,1
840,292,40,0.104029938323702,1
840,293,40,0.0989633727572652,1
841,264,40,0.0630836316318485,1
841,265,40,0.0725506860590658,1
841,266,40,0.0670253800858839,1
841,291,40,0.0762318134930029,1
841,292,40,0.102950338922906,1
841,293,40,0.0958585647535085,1
842,265,40,0.0612340691892787,1
842,266,40,0.057928458692618,1
821,263,41,0.0641532298277821,1
821,264,41,0.0655692199899931,1
821,265,41,0.0593987655399617,1
822,263,41,0.0595634139131667,1
824,259,41,0.0618812992848289,1
824,260,41,0.0618561016737582,1
825,258,41,0.0666178840601835,1
825,259,41,0.100779782620982,1
825,260,41,0.107027917419863,1
825,261,41,0.0714192172019214,1
826,257,41,0.0573699833932824,1
826,258,41,0.0828269889212125,1
826,259,41,0.126993376937958,1
826,260,41,0.131301407726195,1
826,261,41,0.0819967768758557,1
827,256,41,0.0595757856866341,1
827,257,41,0.0651221319304222,1
827,258,41,0.0758555476447493,1
827,259,41,0.0932743796115815,1
827,260,41,0.088223647320531,1
828,256,41,0.0625668771605787,1
828,257,41,0.0685418245669785,1
828,258,41,0.0683505279362429,1
828,259,41,0.0608757182351119,1
829,257,41,0.0626890145161828,1
829,258,41,0.0607628036887085,1
839,264,41,0.0605950240420473,1
839,265,41,0.0631603743677422,1
839,292,41,0.0588897006743171,1
840,264,41,0.0668704793492575,1
840,265,41,0.075229228087195,1
840,266,41,0.0691032424377918,1
840,291,41,0.0624019634252164,1
840,292,41,0.0820975201446438,1
841,264,41,0.0613429089523332,1
841,265,41,0.071742245504482,1
841,266,41,0.0696067170073225,1
841,291,41,0.0662180009799294,1
842,265,41,0.0582473827271455,1
842,266,41,0.0574191048770687,1
821,263,42,0.0588487110664181,1
821,264,42,0.0571869424741075,1
824,258,42,0.0643104126789614,1
824,259,42,0.0691671062636508,1
824,260,42,0.0682854021659024,1
825,257,42,0.0594845246922672,1
825,258,42,0.0742232047672158,1
825,259,42,0.11313637737301,1
825,260,42,0.121003126980486,1
825,261,42,0.0781921322030965,1
826,257,42,0.0608083634226501,1
826,258,42,0.0863833607595934,1
826,259,42,0.136453007121707,1
826,260,42,0.144913932084082,1
826,261,42,0.0906323219316138,1
827,256,42,0.0614071148005283,1
827,257,42,0.0697891210573198,1
827,258,42,0.0786516745932505,1
827,259,42,0.0959000143224802,1
827,260,42,0.0918105004253814,1
827,261,42,0.058868589640469,1
828,256,42,0.0613515479647878,1
828,257,42,0.0710982469303141,1
828,258,42,0.0713710156402804,1
828,259,42,0.0634185245713092,1
829,257,42,0.0609469060565127,1
829,258,42,0.0613905267172281,1
832,292,42,0.0569978630916196,1
839,264,42,0.0569062246932956,1
839,265,42,0.0616634369536783,1
840,264,42,0.0618734504619094,1
840,265,42,0.0718931422210015,1
840,266,42,0.0677120960704417,1
841,265,42,0.067116428790525,1
841,266,42,0.0676979257312414,1
824,258,43,0.0697994819753285,1
824,259,43,0.0732772004702831,1
824,260,43,0.0704354489215352,1
825,257,43,0.0682483694026158,1
825,258,43,0.0805245476271056,1
825,259,43,0.114091516025091,1
825,260,43,0.117549043408343,1
825,261,43,0.0783539913251813,1
826,257,43,0.0654244030153444,1
826,258,43,0.0878342077154012,1
826,259,43,0.129155146804006,1
826,260,43,0.133204384622563,1
826,261,43,0.0872499745959961,1
827,257,43,0.0719410902143588,1
827,258,43,0.0807738642193026,1
827,259,43,0.0924875513304763,1
827,260,43,0.0858344326009841,1
827,261,43,0.0585036046323694,1
828,257,43,0.0701688012319975,1
828,258,43,0.0723855954155986,1
828,259,43,0.0641659672113329,1
829,257,43,0.0577849803226294,1
829,258,43,0.0598157143553992,1
840,265,43,0.0632157289137569,1
840,266,43,0.0607514933638703,1
841,265,43,0.0593179539176559,1
841,266,43,0.0610577212934049,1
824,258,44,0.0715403461813277,1
824,259,44,0.0719217954370541,1
824,260,44,0.0655552324558345,1
825,257,44,0.073484772646667,1
825,258,44,0.0843941706467845,1
825,259,44,0.106070714839892,1
825,260,44,0.100757032238695,1
825,261,44,0.0683782376424028,1
826,256,44,0.0573138386577326,1
826,257,44,0.0692059729742913,1
826,258,44,0.0884294975913608,1
826,259,44,0.113295747987753,1
826,260,44,0.107285354094073,1
826,261,44,0.0717377107600604,1
826,290,44,0.0573632314006131,1
827,256,44,0.0581362195709804,1
827,257,44,0.0725425070076838,1
827,258,44,0.0827492908815524,1
827,259,44,0.0858021940473395,1
827,260,44,0.0739065982288621,1
828,257,44,0.0675566881972479,1
828,258,44,0.071964442084202,1
828,259,44,0.0621398563770371,1
824,257,45,0.0780009829957817,1
824,258,45,0.0727719863043878,1
824,259,45,0.0694755573383699,1
824,260,45,0.0603263772909246,1
825,256,45,0.0658066070789849,1
825,257,45,0.0774044488661511,1
825,258,45,0.0881885782372084,1
825,259,45,0.0956881904546425,1
825,260,45,0.0830748017945181,1
825,261,45,0.0584636410914787,1
826,256,45,0.060480936005215,1
826,257,45,0.0744289253054354,1
826,258,45,0.0882639057082632,1
826,259,45,0.0958062530268977,1
826,260,45,0.0830641932051625,1
826,261,45,0.0581148667627223,1
827,256,45,0.0576603249749993,1
827,257,45,0.0715913428910256,1
827,258,45,0.0793507033819074,1
827,259,45,0.0762035258870337,1
827,260,45,0.0642995033458276,1
827,290,45,0.0616342648071848,1
828,257,45,0.0626987562558244,1
828,258,45,0.0659755543191383,1
828,259,45,0.0577499996933593,1
828,291,45,0.0579883243953069,1
822,283,46,0.0606639415427689,1
823,283,46,0.0600514267143315,1
823,284,46,0.0575709568973545,1
824,257,46,0.0750479798368162,1
824,258,46,0.0800118856299952,1
824,259,46,0.0720726036995212,1
825,256,46,0.0673699322078707,1
825,257,46,0.0882012566513909,1
825,258,46,0.100976209586759,1
825,259,46,0.094057021067538,1
825,260,46,0.0720200384046267,1
826,256,46,0.0662875199682075,1
826,257,46,0.0861900355825886,1
826,258,46,0.0956913748005302,1
826,259,46,0.0881207634636739,1
826,260,46,0.0690557661993808,1
826,289,46,0.0574561376403553,1
826,290,46,0.0767836370475953,1
827,256,46,0.0589636954376485,1
827,257,46,0.0744413383574606,1
827,258,46,0.0795651277988867,1
827,259,46,0.0731765633463579,1
827,260,46,0.0621998754000836,1
827,289,46,0.0571041435840903,1
827,290,46,0.0749209185389598,1
828,257,46,0.0591277836018547,1
828,258,46,0.0616172521444329,1
828,259,46,0.0580311066720019,1
828,290,46,0.0622161332549214,1
828,291,46,0.0721434553955227,1
822,283,47,0.0616430276553128,1
822,284,47,0.056968142530001,1
823,283,47,0.0635666084489613,1
823,284,47,0.0603737178997885,1
824,257,47,0.0746915512840556,1
824,258,47,0.0840872822603251,1
824,259,47,0.0730076102092677,1
825,256,47,0.0730798594792977,1
825,257,47,0.100761737994285,1
825,258,47,0.110821063065805,1
825,259,47,0.0910702992237838,1
825,260,47,0.0659301479055543,1
826,256,47,0.0810670363306976,1
826,257,47,0.109296445430266,1
826,258,47,0.111738213650833,1
826,259,47,0.0873970088188926,1
826,260,47,0.0642838469785464,1
826,289,47,0.061331598627495,1
827,256,47,0.0701820988245471,1
827,257,47,0.0901305987523214,1
827,258,47,0.0898773548001962,1
827,259,47,0.0748966644377818,1
827,260,47,0.0636692033559137,1
827,289,47,0.0619725425883854,1
827,290,47,0.0894909698083439,1
828,257,47,0.0631974543065235,1
828,258,47,0.0642015139465387,1
828,259,47,0.0613644858441909,1
828,260,47,0.0587518243943162,1
828,290,47,0.0667325794815092,1
828,291,47,0.0820183714585238,1
846,283,47,0.06813270688365,1
847,282,47,0.0609357549489688,1
847,283,47,0.0775706009582475,1
847,284,47,0.0582914151544483,1
848,283,47,0.0616233731648615,1
822,283,48,0.0629085161957719,1
822,284,48,0.0582583864112686,1
823,283,48,0.0676208409730116,1
823,284,48,0.062701150412177,1
824,256,48,0.0611067838078229,1
824,257,48,0.0866003680349038,1
824,258,48,0.0968777441395534,1
824,259,48,0.0778774834477701,1
825,255,48,0.0579257932771712,1
825,256,48,0.0874347138329778,1
825,257,48,0.130093089988294,1
825,258,48,0.138663745151185,1
825,259,48,0.0998716425554286,1
825,260,48,0.0604481254486979,1
826,255,48,0.0639582299207178,1
826,256,48,0.103887503711532,1
826,257,48,0.149096511438218,1
826,258,48,0.148541939911063,1
826,259,48,0.102743120562732,1
826,260,48,0.0626763066173161,1
826,289,48,0.0630078913752157,1
827,256,48,0.0844427967878772,1
827,257,48,0.112252638832056,1
827,258,48,0.109156074745986,1
827,259,48,0.0844035762610269,1
827,260,48,0.06481006013649,1
827,289,48,0.061612245645065,1
827,290,48,0.0977704696122354,1
828,257,48,0.0687261687091926,1
828,258,48,0.0702504914978908,1
828,259,48,0.0698120129660904,1
828,260,48,0.0657669973543039,1
828,290,48,0.0649742072700645,1
829,259,48,0.0609155225587083,1
829,260,48,0.0601786295386718,1
836,292,48,0.0614034233180733,1
846,282,48,0.0594235208807703,1
846,283,48,0.0795186717305472,1
846,284,48,0.05755324249912,1
847,282,48,0.0763328810933166,1
847,283,48,0.0987227777346384,1
847,284,48,0.0663218755221738,1
848,282,48,0.0588978207563307,1
848,283,48,0.0726766033511773,1
866,272,48,0.0569886107977348,1
821,282,49,0.057309339294932,1
821,283,49,0.0579486851859417,1
822,283,49,0.0618292588173122,1
822,284,49,0.0580288304543859,1
823,283,49,0.0664205017906403,1
823,284,49,0.0616202772730262,1
824,256,49,0.0679791152669996,1
824,257,49,0.100732088195908,1
824,258,49,0.11223911125897,1
824,259,49,0.0838767026461584,1
825,255,49,0.0624542692548904,1
825,256,49,0.0984891528913436,1
825,257,49,0.15599399333297,1
825,258,49,0.171426430335051,1
825,259,49,0.115821323474536,1
825,260,49,0.0591809798689899,1
826,255,49,0.0694297086545238,1
826,256,49,0.114046994152031,1
826,257,49,0.171339556661685,1
826,258,49,0.17854319572273,1
826,259,49,0.118336709054478,1
826,260,49,0.063241911313278,1
827,256,49,0.0895078468415487,1
827,257,49,0.119881553183341,1
827,258,49,0.121704697348916,1
827,259,49,0.0935885625088985,1
827,260,49,0.0687306916597405,1
827,289,49,0.0613159245694033,1
828,257,49,0.068901083649417,1
828,258,49,0.0750736668936437,1
828,259,49,0.0806736457778923,1
828,260,49,0.077484429020364,1
829,258,49,0.060494941230184,1
829,259,49,0.0787225439800625,1
829,260,49,0.080557210760202,1
830,259,49,0.0655073552257192,1
830,260,49,0.0651327523136514,1
835,292,49,0.0670707982933416,1
846,282,49,0.0634289798403072,1
846,283,49,0.0821182537745349,1
846,284,49,0.057702429103959,1
847,282,49,0.0836271796611724,1
847,283,49,0.106362507068068,1
847,284,49,0.0703021486645136,1
848,282,49,0.0594001454231798,1
848,283,49,0.0741347978902741,1
821,282,50,0.0584851884986521,1
821,283,50,0.0595379037644441,1
822,283,50,0.0602432540693818,1
822,284,50,0.058527009574644,1
823,283,50,0.062515768409081,1
823,284,50,0.0616040842844935,1
824,257,50,0.106581200867312,1
824,258,50,0.116744429965761,1
824,259,50,0.0813065522138846,1
825,256,50,0.108886183741192,1
825,257,50,0.175888241441917,1
825,258,50,0.19551211499725,1
825,259,50,0.124064356621076,1
825,260,50,0.0573184441653962,1
826,255,50,0.0697846216945192,1
826,256,50,0.120640654067476,1
826,257,50,0.191270884709413,1
826,258,50,0.20513100965088,1
826,259,50,0.127482598611172,1
826,260,50,0.0601511262253009,1
827,256,50,0.0938977094221634,1
827,257,50,0.135855270016963,1
827,258,50,0.142404254738991,1
827,259,50,0.102334616160834,1
827,260,50,0.067689935381838,1
828,257,50,0.0742401702544731,1
828,258,50,0.0860625909838383,1
828,259,50,0.0924422038862606,1
828,260,50,0.0857485201283211,1
829,258,50,0.0729341579641245,1
829,259,50,0.101187874237302,1
829,260,50,0.100703169617698,1
829,261,50,0.0608173975298722,1
830,258,50,0.0653831362514144,1
830,259,50,0.0895647051064548,1
830,260,50,0.0863767974689026,1
831,259,50,0.061828161987062,1
846,282,50,0.0617978399378869,1
846,283,50,0.0751020075720443,1
847,282,50,0.0787668358725858,1
847,283,50,0.0944199598385579,1
847,284,50,0.0665161383121344,1
848,283,50,0.067188955216586,1
820,282,51,0.0577910423736897,1
821,282,51,0.0602650668387125,1
821,283,51,0.0635548558538609,1
822,283,51,0.0632202400704311,1
822,284,51,0.0645020100534753,1
823,283,51,0.062821772255016,1
823,284,51,0.0664136672408553,1
823,285,51,0.0580254220248987,1
824,257,51,0.102707963025357,1
824,258,51,0.106087414964992,1
824,259,51,0.0738202847644947,1
824,284,51,0.0574934534566098,1
825,256,51,0.109701588578171,1
825,257,51,0.169614077563873,1
825,258,51,0.182294862315017,1
825,259,51,0.114158976982416,1
826,255,51,0.0665434588204636,1
826,256,51,0.118675830097645,1
826,257,51,0.192224973706738,1
826,258,51,0.203719282973996,1
826,259,51,0.124327135920054,1
826,260,51,0.0592512949437399,1
827,256,51,0.093854903557721,1
827,257,51,0.146978308141462,1
827,258,51,0.154328368143974,1
827,259,51,0.106718328236336,1
827,260,51,0.0654153335265013,1
828,257,51,0.0832446099874485,1
828,258,51,0.0980773285140106,1
828,259,51,0.100974098483374,1
828,260,51,0.0864076207577083,1
829,258,51,0.083926331266512,1
829,259,51,0.117383799444518,1
829,260,51,0.108912873277281,1
829,261,51,0.0640054466939083,1
830,258,51,0.0821974496361496,1
830,259,51,0.120347729627428,1
830,260,51,0.109821650212011,1
830,261,51,0.0632941876582679,1
831,258,51,0.0638052456885608,1
831,259,51,0.0838451363433123,1
831,260,51,0.074399057320396,1
838,289,51,0.0595970146592188,1
838,290,51,0.059987303423252,1
839,289,51,0.0581396397943413,1
840,288,51,0.0599654080968056,1
841,288,51,0.0589531576115349,1
846,283,51,0.063468595461925,1
847,282,51,0.0673693484111246,1
847,283,51,0.0740765007727818,1
821,282,52,0.061846690162579,1
821,283,52,0.0732961886068727,1
822,282,52,0.0585211362255623,1
822,283,52,0.0758695056942237,1
822,284,52,0.0816789791562625,1
823,283,52,0.0671617526469934,1
823,284,52,0.074554736452684,1
823,285,52,0.0610975256170012,1
824,257,52,0.0973407480316261,1
824,258,52,0.092765827779441,1
824,259,52,0.0654659882138631,1
824,284,52,0.059010499425261,1
825,256,52,0.107550975716603,1
825,257,52,0.157766636131542,1
825,258,52,0.158407432669011,1
825,259,52,0.0984867882196751,1
826,256,52,0.115805130486003,1
826,257,52,0.18894693728669,1
826,258,52,0.193386104156133,1
826,259,52,0.116866980106943,1
826,288,52,0.0594576759388843,1
827,257,52,0.150106680304788,1
827,258,52,0.157169618453091,1
827,259,52,0.105923763174111,1
827,260,52,0.0598786405683024,1
827,288,52,0.0573996155008485,1
827,289,52,0.0671585624041689,1
828,257,52,0.0850811284057523,1
828,258,52,0.102440312856558,1
828,259,52,0.102809732361153,1
828,260,52,0.0808682800748732,1
829,258,52,0.0891561299413146,1
829,259,52,0.130220864815507,1
829,260,52,0.114903712928435,1
829,261,52,0.0673505784611976,1
830,258,52,0.0961105526580891,1
830,259,52,0.153760198280491,1
830,260,52,0.137467327431805,1
830,261,52,0.0779919017130649,1
831,258,52,0.0751477088324697,1
831,259,52,0.113656829223672,1
831,260,52,0.102053485594444,1
831,261,52,0.0616335630717021,1
832,259,52,0.0623517097295589,1
832,260,52,0.0573662211475854,1
835,291,52,0.0647750913010935,1
836,290,52,0.0626147190090731,1
836,291,52,0.0733148347211263,1
837,289,52,0.0661143210366004,1
837,290,52,0.0717196897211107,1
837,291,52,0.0699388089017894,1
838,288,52,0.0620319129483807,1
838,289,52,0.0754863640176274,1
838,290,52,0.077323613656098,1
839,288,52,0.0757949389280199,1
839,289,52,0.0800639437883224,1
839,290,52,0.0693925461586268,1
840,287,52,0.0631868516141048,1
840,288,52,0.0891716919576066,1
840,289,52,0.0845587010812529,1
841,287,52,0.0594720644647473,1
841,288,52,0.0810568877024147,1
821,282,53,0.0616750539192316,1
821,283,53,0.0809202851607689,1
822,282,53,0.0608229583413021,1
822,283,53,0.0848723355634448,1
822,284,53,0.0953273274053865,1
823,283,53,0.0681082935651776,1
823,284,53,0.0770759305154027,1
823,285,53,0.0618442547276686,1
824,257,53,0.0879358178339032,1
824,258,53,0.0794973425100363,1
824,259,53,0.056893858816765,1
824,284,53,0.0595547218282806,1
825,256,53,0.0983872243382528,1
825,257,53,0.134380457909882,1
825,258,53,0.128111282840395,1
825,259,53,0.0807544750910086,1
826,256,53,0.1035753198758,1
826,257,53,0.159209722718482,1
826,258,53,0.159081086938492,1
826,259,53,0.0981257069837564,1
826,288,53,0.0602307289755568,1
827,257,53,0.128556312869013,1
827,258,53,0.136422590721543,1
827,259,53,0.0947389251516433,1
827,288,53,0.05718412963524,1
828,257,53,0.0785046167826067,1
828,258,53,0.0998427947404607,1
828,259,53,0.101711133029894,1
828,260,53,0.0787482487277005,1
829,258,53,0.101469924725837,1
829,259,53,0.147054873969251,1
829,260,53,0.127073846537927,1
829,261,53,0.071980971198134,1
830,258,53,0.112384411782438,1
830,259,53,0.179505280966396,1
830,260,53,0.159093222834487,1
830,261,53,0.0871916833754406,1
831,258,53,0.0887850475005338,1
831,259,53,0.137950298351981,1
831,260,53,0.124613974721294,1
831,261,53,0.0722547246965507,1
832,259,53,0.0714995688631545,1
832,260,53,0.0668415253894266,1
835,289,53,0.0625745726631406,1
835,290,53,0.0772419882565098,1
835,291,53,0.0817701104180192,1
836,289,53,0.0844128639365327,1
836,290,53,0.106549687636897,1
836,291,53,0.103527460336495,1
837,288,53,0.0608796102134191,1
837,289,53,0.0928090464294614,1
837,290,53,0.115096188946536,1
838,288,53,0.0727698987887503,1
838,289,53,0.0966479994806922,1
838,290,53,0.10141386844434,1
839,287,53,0.0619770183634387,1
839,288,53,0.106231854535683,1
839,289,53,0.120638767047691,1
839,290,53,0.0903402584443428,1
840,287,53,0.0741757757042995,1
840,288,53,0.131358277784975,1
840,289,53,0.139318918420644,1
841,287,53,0.0654989520907377,1
841,288,53,0.104001184859723,1
822,282,54,0.0595817533867052,1
822,283,54,0.0880135276674369,1
823,283,54,0.0645988377562089,1
823,284,54,0.0741750916596273,1
824,284,54,0.0593773360715248,1
825,257,54,0.114507886940719,1
825,258,54,0.106200930998951,1
825,259,54,0.069652589278916,1
826,256,54,0.0887063882601706,1
826,257,54,0.125282769914828,1
826,258,54,0.122544963671567,1
826,259,54,0.0799050921040205,1
826,288,54,0.0587500494163306,1
827,257,54,0.0995069877757915,1
827,258,54,0.107361919921862,1
827,259,54,0.0816367040161348,1
828,257,54,0.0671940147883854,1
828,258,54,0.0919434291753827,1
828,259,54,0.0999030142593594,1
828,260,54,0.0796087061620537,1
828,289,54,0.0593700356637304,1
829,257,54,0.0590549918136364,1
829,258,54,0.112220276442737,1
829,259,54,0.159330362252132,1
829,260,54,0.13666924779523,1
829,261,54,0.0726210070307527,1
830,257,54,0.0574976933541899,1
830,258,54,0.124203017193675,1
830,259,54,0.19019248828373,1
830,260,54,0.166854075250386,1
830,261,54,0.0869520377596433,1
830,287,54,0.0599422331350673,1
830,288,54,0.058003638740252,1
831,258,54,0.0964548689026027,1
831,259,54,0.146311305616724,1
831,260,54,0.132101055947967,1
831,261,54,0.0735214397998702,1
831,287,54,0.0601274441269953,1
831,288,54,0.0578288417387642,1
832,259,54,0.0728500794388154,1
832,260,54,0.0689524282783879,1
834,288,54,0.0581283176756294,1
834,289,54,0.0637633597462638,1
834,290,54,0.0656700988883283,1
834,291,54,0.0643889127020302,1
835,288,54,0.0645172241504944,1
835,289,54,0.0898679138043328,1
835,290,54,0.113357630442837,1
835,291,54,0.104419242299285,1
836,288,54,0.0677223744313348,1
836,289,54,0.122921270798378,1
836,290,54,0.173467100706378,1
836,291,54,0.147567954648876,1
837,288,54,0.0653127386195488,1
837,289,54,0.124251372075674,1
837,290,54,0.173724867609051,1
837,291,54,0.139530217461104,1
838,288,54,0.0838882311576593,1
838,289,54,0.121431763524719,1
838,290,54,0.125759254204492,1
839,287,54,0.0684373485371775,1
839,288,54,0.147039164529538,1
839,289,54,0.180024718543923,1
839,290,54,0.115922220063681,1
840,287,54,0.083252735966399,1
840,288,54,0.183749766363363,1
840,289,54,0.215233689001967,1
841,287,54,0.0655257300808786,1
841,288,54,0.12203352234038,1
823,283,55,0.0617205193021839,1
823,284,55,0.0717444332680456,1
824,283,55,0.0591223348322246,1
824,284,55,0.0619677778634275,1
824,285,55,0.0573968616313494,1
825,258,55,0.0820722753580785,1
825,259,55,0.060533483609299,1
825,283,55,0.0587485928729338,1
825,284,55,0.060765445516408,1
826,257,55,0.0882553610467978,1
826,258,55,0.0859516342204622,1
826,259,55,0.0646757515032707,1
827,257,55,0.0710058006516445,1
827,258,55,0.0776028807904499,1
827,259,55,0.0683245224448266,1
828,257,55,0.057421958994494,1
828,258,55,0.0815905781762576,1
828,259,55,0.0939255429639967,1
828,260,55,0.0787409188352219,1
828,289,55,0.057273114411991,1
829,257,55,0.0591085360000445,1
829,258,55,0.112167333743886,1
829,259,55,0.153643462519022,1
829,260,55,0.131301785130152,1
829,261,55,0.0693759285906425,1
830,257,55,0.0618111493243101,1
830,258,55,0.127330316114498,1
830,259,55,0.181954231656021,1
830,260,55,0.156159402411026,1
830,261,55,0.0802203423469035,1
830,287,55,0.0594011773871248,1
830,288,55,0.0569614318158895,1
831,258,55,0.0953451243607367,1
831,259,55,0.135762357880284,1
831,260,55,0.120392463790213,1
831,261,55,0.0670095350166242,1
831,287,55,0.0611357790462115,1
831,288,55,0.0575324675906711,1
832,259,55,0.0690670706272822,1
832,260,55,0.0651663530597035,1
832,288,55,0.0574372556486286,1
833,287,55,0.0599864365735382,1
833,288,55,0.0791352528979199,1
833,289,55,0.0746977784493471,1
833,290,55,0.0568821003247278,1
834,287,55,0.0731067082326805,1
834,288,55,0.105597532834852,1
834,289,55,0.102926798351084,1
834,290,55,0.0809976234872824,1
834,291,55,0.0659910691599356,1
835,287,55,0.0707715566299827,1
835,288,55,0.103005711159731,1
835,289,55,0.129885564987405,1
835,290,55,0.152996769044724,1
835,291,55,0.129135722294091,1
836,288,55,0.0808173659222908,1
836,289,55,0.154916681943664,1
836,290,55,0.238457288675249,1
836,291,55,0.197907733790193,1
836,292,55,0.117477277687133,1
837,288,55,0.0689734626520572,1
837,289,55,0.145476782910545,1
837,290,55,0.225082800069405,1
837,291,55,0.180251998283189,1
838,288,55,0.0928517756337249,1
838,289,55,0.137191681016666,1
838,290,55,0.140896679250887,1
839,287,55,0.0768968641316506,1
839,288,55,0.176314035662598,1
839,289,55,0.224504971023396,1
839,290,55,0.134601121286027,1
840,287,55,0.0918145339301725,1
840,288,55,0.217558096385763,1
840,289,55,0.268147044695856,1
841,287,55,0.0647866080187207,1
841,288,55,0.127691432732038,1
824,283,56,0.0574759867297221,1
824,284,56,0.0596535839742203,1
825,258,56,0.0625363546155513,1
825,283,56,0.0590660603640646,1
825,284,56,0.0607583986768972,1
826,257,56,0.0639828378381056,1
826,258,56,0.0629265785132794,1
827,258,56,0.0604448644426314,1
827,259,56,0.0585133640628215,1
828,258,56,0.0707159367218107,1
828,259,56,0.0819112830857076,1
828,260,56,0.0698674382753469,1
829,258,56,0.0971592108313426,1
829,259,56,0.128562315950705,1
829,260,56,0.108729572892885,1
829,261,56,0.0591183308121176,1
830,257,56,0.0582519764409354,1
830,258,56,0.112513141913417,1
830,259,56,0.154301655020138,1
830,260,56,0.130803906753672,1
830,261,56,0.068613743608546,1
831,258,56,0.083770793660708,1
831,259,56,0.11540699289905,1
831,260,56,0.102944666069677,1
831,261,56,0.0595008238256628,1
831,287,56,0.0607608812873023,1
832,259,56,0.0649045703430498,1
832,260,56,0.0620663982349572,1
832,286,56,0.0639085364340591,1
832,287,56,0.0649704804059885,1
832,288,56,0.0603827991825053,1
833,286,56,0.0691878516874155,1
833,287,56,0.0874255440962086,1
833,288,56,0.11799407343696,1
833,289,56,0.108378292365977,1
833,290,56,0.0665551288584483,1
834,286,56,0.0629542410439446,1
834,287,56,0.111552035561265,1
834,288,56,0.178792034663044,1
834,289,56,0.167109660286433,1
834,290,56,0.102238814525108,1
834,291,56,0.0643683854649282,1
835,287,56,0.0923035904891561,1
835,288,56,0.153415734612557,1
835,289,56,0.173569837139814,1
835,290,56,0.177439690140029,1
835,291,56,0.138947399606538,1
836,287,56,0.0586238785559355,1
836,288,56,0.0910256063395562,1
836,289,56,0.169577351441301,1
836,290,56,0.269800451431743,1
836,291,56,0.22657422974447,1
836,292,56,0.116704130299471,1
837,288,56,0.0674340437050766,1
837,289,56,0.144637342159051,1
837,290,56,0.238745554535202,1
837,291,56,0.195516844340587,1
838,288,56,0.0917077109195136,1
838,289,56,0.133228856910403,1
838,290,56,0.137812451556664,1
838,291,56,0.0952209879435475,1
839,287,56,0.0799918891172078,1
839,288,56,0.179449448768498,1
839,289,56,0.226644379704989,1
839,290,56,0.13364564061161,1
840,287,56,0.0967462129635806,1
840,288,56,0.223332329753311,1
840,289,56,0.272793500688715,1
841,287,56,0.0652072660074237,1
841,288,56,0.126356307264564,1
828,258,57,0.0577956124997323,1
828,259,57,0.0647846620295671,1
829,258,57,0.0732536422076509,1
829,259,57,0.0933781362150893,1
829,260,57,0.0811271379108596,1
830,258,57,0.0846507404712813,1
830,259,57,0.114179227063487,1
830,260,57,0.101589384872121,1
830,261,57,0.0608292916514565,1
830,282,57,0.0570214449419991,1
831,258,57,0.0683997968434499,1
831,259,57,0.0935655880430123,1
831,260,57,0.0895875675305412,1
831,261,57,0.0588202524492809,1
831,282,57,0.070885750811678,1
831,283,57,0.0596168401608382,1
831,287,57,0.0580737769068972,1
832,259,57,0.0621622116645562,1
832,260,57,0.0624867672737555,1
832,282,57,0.0631271274378998,1
832,285,57,0.0621807634278205,1
832,286,57,0.0918234029231635,1
832,287,57,0.0821634950738877,1
832,288,57,0.0674917039533914,1
832,289,57,0.0588918058807651,1
833,285,57,0.0818184004337126,1
833,286,57,0.121915937420008,1
833,287,57,0.125239816626965,1
833,288,57,0.145962678711388,1
833,289,57,0.13285164165532,1
833,290,57,0.0786087861716926,1
834,285,57,0.0670851750253309,1
834,286,57,0.101282166257199,1
834,287,57,0.146834340325717,1
834,288,57,0.227831338737695,1
834,289,57,0.215754223409745,1
834,290,57,0.124520873882637,1
835,286,57,0.0579453416227596,1
835,287,57,0.102069973429818,1
835,288,57,0.179100739306047,1
835,289,57,0.193885397797452,1
835,290,57,0.17632658434417,1
835,291,57,0.134717161208949,1
836,287,57,0.0611391815787619,1
836,288,57,0.0965624349273021,1
836,289,57,0.162099410466714,1
836,290,57,0.249099537746198,1
836,291,57,0.216226662400744,1
837,288,57,0.0676914980700977,1
837,289,57,0.127082503241192,1
837,290,57,0.208407159051142,1
838,287,57,0.0569153000790756,1
838,288,57,0.0858462795470737,1
838,289,57,0.11519991606536,1
838,290,57,0.121268040970596,1
839,287,57,0.0773977027704187,1
839,288,57,0.153251221868899,1
839,289,57,0.183683013038458,1
839,290,57,0.115234920282377,1
840,287,57,0.0936564775303591,1
840,288,57,0.191211066182218,1
840,289,57,0.22213407218964,1
841,287,57,0.0647382295489749,1
841,288,57,0.112299295396247,1
829,259,58,0.0645785346027064,1
829,260,58,0.0607708235227961,1
830,258,58,0.0610570431456695,1
830,259,58,0.0808300384395365,1
830,260,58,0.0795925190704578,1
830,281,58,0.0670480597049286,1
830,282,58,0.109342276423301,1
830,283,58,0.0896776078589845,1
831,258,58,0.0574777027383393,1
831,259,58,0.0793653926515487,1
831,260,58,0.0828919613711954,1
831,261,58,0.0610028326053997,1
831,281,58,0.0985739980184405,1
831,282,58,0.161221686801325,1
831,283,58,0.125847932340528,1
831,284,58,0.0570392477942862,1
831,286,58,0.0575657557990713,1
831,287,58,0.0568650876619759,1
832,259,58,0.0619248422663749,1
832,260,58,0.0643685034036648,1
832,281,58,0.0783398976461598,1
832,282,58,0.125105024444926,1
832,283,58,0.0951659813168058,1
832,285,58,0.0742380414602778,1
832,286,58,0.127670321698189,1
832,287,58,0.107403941493706,1
832,288,58,0.075571875498586,1
832,289,58,0.0609053562396149,1
833,285,58,0.113543643418174,1
833,286,58,0.193064284725622,1
833,287,58,0.175034648042033,1
833,288,58,0.157634851387285,1
833,289,58,0.137095277893384,1
834,285,58,0.086521903393456,1
834,286,58,0.148951081182139,1
834,287,58,0.175334943653117,1
834,288,58,0.235858720904396,1
834,289,58,0.228600063422735,1
834,290,58,0.137748823608278,1
835,286,58,0.0694354050955007,1
835,287,58,0.103532000977854,1
835,288,58,0.175493394345715,1
835,289,58,0.193252314453354,1
835,290,58,0.160254990153059,1
836,287,58,0.0617984355285066,1
836,288,58,0.0948842374689857,1
836,289,58,0.142569805343531,1
836,290,58,0.195479009593892,1
837,288,58,0.0663107892809351,1
837,289,58,0.104591232358842,1
838,288,58,0.0764800863273811,1
838,289,58,0.0939970846016072,1
839,287,58,0.0697738715786798,1
839,288,58,0.116641398685483,1
839,289,58,0.129448224564412,1
840,287,58,0.0841565830619406,1
840,288,58,0.145244514362721,1
841,287,58,0.062862036539685,1
829,282,59,0.061565217573853,1
829,283,59,0.0595364354271736,1
830,259,59,0.0632661536205824,1
830,260,59,0.0674084392053646,1
830,281,59,0.089267629222879,1
830,282,59,0.167677098929748,1
830,283,59,0.134339509580541,1
830,284,59,0.0627581089250092,1
831,259,59,0.0689204138083428,1
831,260,59,0.0744036746219332,1
831,261,59,0.0592483169906412,1
831,281,59,0.140501124522266,1
831,282,59,0.256203601131948,1
831,283,59,0.199779751768208,1
831,284,59,0.0809194772804233,1
831,286,59,0.0640130655362915,1
831,287,59,0.0613461463706524,1
832,259,59,0.0591316755801619,1
832,260,59,0.061837030980053,1
832,281,59,0.0974464152426665,1
832,282,59,0.174036898124425,1
832,283,59,0.129555360112723,1
832,284,59,0.0632719267217381,1
832,285,59,0.0859060391048997,1
832,286,59,0.15566188964463,1
832,287,59,0.130216902073957,1
832,288,59,0.0818063588887076,1
832,289,59,0.0614501034700124,1
833,285,59,0.137555628163884,1
833,286,59,0.244114007885667,1
833,287,59,0.212352563606012,1
833,288,59,0.150745271387883,1
833,289,59,0.122958197416802,1
834,285,59,0.0998797095650108,1
834,286,59,0.178388188841241,1
834,287,59,0.182409298271122,1
834,288,59,0.199521206469874,1
834,289,59,0.19988547205168,1
834,290,59,0.134636243441781,1
835,286,59,0.0808615398760775,1
835,287,59,0.100944885058323,1
835,288,59,0.149406749284796,1
835,289,59,0.172000603280225,1
835,290,59,0.138330237991879,1
836,287,59,0.0640716869853095,1
836,288,59,0.0893143034778812,1
836,289,59,0.120597983832581,1
837,288,59,0.0663355151370594,1
837,289,59,0.0877250848993789,1
838,288,59,0.0698943224103508,1
838,289,59,0.079523336207579,1
839,287,59,0.063134298113084,1
839,288,59,0.087851155511848,1
839,289,59,0.0908940633697097,1
840,287,59,0.0742818262162338,1
840,288,59,0.105960406739567,1
841,287,59,0.061405298543985,1
825,275,60,0.062802035207449,1
826,274,60,0.0647144413058064,1
826,275,60,0.0721656455688105,1
826,276,60,0.0580744609515694,1
827,275,60,0.0575404520431377,1
829,282,60,0.0737996454855929,1
829,283,60,0.0713796310649877,1
830,260,60,0.0605896991080907,1
830,281,60,0.0967521452820307,1
830,282,60,0.197286491495249,1
830,283,60,0.160580253394678,1
830,284,60,0.0720770971653849,1
831,259,60,0.0606859194263309,1
831,260,60,0.0642659438783333,1
831,281,60,0.151739719020867,1
831,282,60,0.295112557427909,1
831,283,60,0.235385385578999,1
831,284,60,0.098047678715634,1
831,286,60,0.070726415578556,1
831,287,60,0.0649441152014257,1
832,281,60,0.0922915961196457,1
832,282,60,0.177171002110349,1
832,283,60,0.134809731323292,1
832,284,60,0.070076384438012,1
832,285,60,0.0945594223945658,1
832,286,60,0.162402182791266,1
832,287,60,0.137047382972458,1
832,288,60,0.0820507102600945,1
833,284,60,0.0570037187498909,1
833,285,60,0.142355274781688,1
833,286,60,0.246594283103729,1
833,287,60,0.213364996896324,1
833,288,60,0.13179643198525,1
833,289,60,0.102394116253439,1
834,285,60,0.10106822538904,1
834,286,60,0.174861985731677,1
834,287,60,0.167734535094464,1
834,288,60,0.151458187462773,1
834,289,60,0.154162911890423,1
835,285,60,0.0633868167419792,1
835,286,60,0.0878684984030623,1
835,287,60,0.0960034996668938,1
835,288,60,0.11872443265099,1
835,289,60,0.139771484734529,1
836,286,60,0.0636111480128314,1
836,287,60,0.0670962140910749,1
836,288,60,0.0815642542502526,1
836,289,60,0.101675244272352,1
837,288,60,0.0655001432719772,1
837,289,60,0.0792230405964945,1
838,288,60,0.0637024797704403,1
838,289,60,0.0707073979572822,1
839,288,60,0.0682137720742395,1
840,287,60,0.0632440106227892,1
824,274,61,0.0598173006314063,1
824,275,61,0.0657941527484019,1
825,274,61,0.0876826328511463,1
825,275,61,0.100723289966159,1
825,276,61,0.0812229159588377,1
826,274,61,0.0946760048356769,1
826,275,61,0.111230452008228,1
826,276,61,0.0898957119645452,1
826,277,61,0.0594497150741651,1
827,274,61,0.0686382512780077,1
827,275,61,0.0819513055959666,1
827,276,61,0.069434909752807,1
828,283,61,0.0580953714895653,1
829,282,61,0.0854222544074413,1
829,283,61,0.0831974344928158,1
829,284,61,0.0588397300316274,1
830,260,61,0.0577221366668418,1
830,281,61,0.100755180600531,1
830,282,61,0.194779102161647,1
830,283,61,0.167036915673709,1
830,284,61,0.0825785273848557,1
831,281,61,0.139367886584072,1
831,282,61,0.26393283417257,1
831,283,61,0.221595445979671,1
831,284,61,0.105303771029774,1
831,285,61,0.0646695597196002,1
831,286,61,0.0768266198201425,1
831,287,61,0.0702116424780608,1
832,281,61,0.0804312816742168,1
832,282,61,0.14782888230969,1
832,283,61,0.122786077624635,1
832,284,61,0.0754121569645702,1
832,285,61,0.0952415151806496,1
832,286,61,0.143866895568457,1
832,287,61,0.12624484336462,1
832,288,61,0.0820595143867804,1
833,284,61,0.063107007089439,1
833,285,61,0.12484728113,1
833,286,61,0.199312785134587,1
833,287,61,0.177346282660656,1
833,288,61,0.112431764185176,1
834,285,61,0.0907239131544432,1
834,286,61,0.142592355229965,1
834,287,61,0.13657137043774,1
834,288,61,0.114057561462829,1
835,285,61,0.0671367260470908,1
835,286,61,0.0875053532392534,1
835,287,61,0.0900343371555234,1
835,288,61,0.0971264238625729,1
836,285,61,0.0604484497802235,1
836,286,61,0.0689146937796185,1
836,287,61,0.0696797918485085,1
836,288,61,0.0777142857210251,1
837,287,61,0.0582845629138529,1
837,288,61,0.0680867815396251,1
838,288,61,0.0639080351944286,1
824,274,62,0.0764227268228446,1
824,275,62,0.0865934981034979,1
824,276,62,0.0712920438622653,1
825,273,62,0.0652576907142493,1
825,274,62,0.118427026538952,1
825,275,62,0.140541388806935,1
825,276,62,0.112908790993028,1
825,277,62,0.0692218711159826,1
826,273,62,0.0668641755237872,1
826,274,62,0.122360424930437,1
826,275,62,0.149891265202421,1
826,276,62,0.124349178669921,1
826,277,62,0.0754534826978684,1
827,274,62,0.0867451791126157,1
827,275,62,0.106662366305828,1
827,276,62,0.0912704766413841,1
827,277,62,0.0587683829929323,1
828,259,62,0.0639500744570832,1
828,260,62,0.0652875999778464,1
828,283,62,0.0572917192476867,1
829,259,62,0.0755150879969219,1
829,260,62,0.0769482736269266,1
829,281,62,0.0595072809714906,1
829,282,62,0.087796260926906,1
829,283,62,0.0861194787334285,1
829,284,62,0.061990050593831,1
830,259,62,0.0687297481498479,1
830,260,62,0.0705426080575934,1
830,281,62,0.0956776408346553,1
830,282,62,0.164038429440981,1
830,283,62,0.149101488452901,1
830,284,62,0.0852002347358262,1
831,281,62,0.108714936695676,1
831,282,62,0.188419161440487,1
831,283,62,0.169455072559213,1
831,284,62,0.0976360725249636,1
831,285,62,0.0711268706616826,1
831,286,62,0.075779718934064,1
831,287,62,0.0682708485258083,1
832,281,62,0.0636606351067011,1
832,282,62,0.104434432808556,1
832,283,62,0.0985716569345194,1
832,284,62,0.0753180949252094,1
832,285,62,0.0877439315094847,1
832,286,62,0.11316046046302,1
832,287,62,0.101958863346084,1
832,288,62,0.0764290011636307,1
833,284,62,0.0637610540439636,1
833,285,62,0.0985770939102758,1
833,286,62,0.138995695519168,1
833,287,62,0.128288910371561,1
833,288,62,0.0938784913050374,1
834,285,62,0.0781976458390317,1
834,286,62,0.108771051946541,1
834,287,62,0.106500117985912,1
834,288,62,0.091618095170522,1
835,285,62,0.0688501046305295,1
835,286,62,0.0866040359296115,1
835,287,62,0.087174765063678,1
835,288,62,0.0855368554777778,1
836,285,62,0.0614693982473172,1
836,286,62,0.0714948218290071,1
836,287,62,0.0723669787860292,1
836,288,62,0.0749260606678748,1
837,287,62,0.0603540103369057,1
824,274,63,0.0896402684549827,1
824,275,63,0.102918589815018,1
824,276,63,0.0843992302185839,1
824,277,63,0.056887543197421,1
825,273,63,0.0770428074212337,1
825,274,63,0.137469981053378,1
825,275,63,0.165581693190774,1
825,276,63,0.135874269947427,1
825,277,63,0.0817129514093349,1
826,273,63,0.0778698528115132,1
826,274,63,0.139513741419603,1
826,275,63,0.173778211299607,1
826,276,63,0.147645369635568,1
826,277,63,0.0886787905958105,1
827,273,63,0.060410998334422,1
827,274,63,0.100151853199673,1
827,275,63,0.123584180848957,1
827,276,63,0.106992665531498,1
827,277,63,0.0684636724631826,1
828,258,63,0.0619274192277692,1
828,259,63,0.092044408321644,1
828,260,63,0.0940967428340188,1
828,261,63,0.0580069823034341,1
828,275,63,0.0634167495933236,1
828,276,63,0.0569430628576669,1
828,283,63,0.0570605652209233,1
829,258,63,0.0729392293297976,1
829,259,63,0.122254303655261,1
829,260,63,0.125674928007836,1
829,261,63,0.0711608193270076,1
829,281,63,0.0634475551913188,1
829,282,63,0.0833716712853048,1
829,283,63,0.0812905774120146,1
829,284,63,0.061538651873438,1
830,258,63,0.0587279123154742,1
830,259,63,0.0903867498943033,1
830,260,63,0.0927537980283096,1
830,281,63,0.0836140000073594,1
830,282,63,0.121798682728098,1
830,283,63,0.114886694368746,1
830,284,63,0.0782701427804085,1
830,285,63,0.0604573187732145,1
831,281,63,0.07694767213937,1
831,282,63,0.114216035743174,1
831,283,63,0.110590186195073,1
831,284,63,0.0819335499191742,1
831,285,63,0.0712300316745706,1
831,286,63,0.0720062985418149,1
831,287,63,0.0666595046403232,1
832,282,63,0.0675063401506012,1
832,283,63,0.0725046958487357,1
832,284,63,0.0697594122895749,1
832,285,63,0.0773989883026474,1
832,286,63,0.0877596114645132,1
832,287,63,0.083429732525324,1
833,284,63,0.061691081793533,1
833,285,63,0.079992018849818,1
833,286,63,0.0980376126444667,1
833,287,63,0.0954162355219586,1
833,288,63,0.0832293015394402,1
834,285,63,0.0749354603851804,1
834,286,63,0.0927089164421035,1
834,287,63,0.0921428576820057,1
834,288,63,0.0829191934254721,1
835,285,63,0.0749620437764059,1
835,286,63,0.0910899360234247,1
835,287,63,0.0906359190630796,1
835,288,63,0.0832637514443957,1
836,285,63,0.0653392217628482,1
836,286,63,0.076286012239399,1
836,287,63,0.0776645922343664,1
837,286,63,0.057801279456025,1
837,287,63,0.0641584604107495,1
838,287,63,0.0588486403031761,1
824,273,64,0.0626123307496573,1
824,274,64,0.098348817588685,1
824,275,64,0.111345359719279,1
824,276,64,0.0908961390914736,1
824,277,64,0.0603182631058478,1
825,273,64,0.0848405392800623,1
825,274,64,0.148535984004865,1
825,275,64,0.177595062631602,1
825,276,64,0.145976241666095,1
825,277,64,0.0873438892119362,1
826,273,64,0.0878346381917897,1
826,274,64,0.155523111133294,1
826,275,64,0.191172417658241,1
826,276,64,0.160175452269108,1
826,277,64,0.0952420400080274,1
827,259,64,0.0609941817990715,1
827,260,64,0.0584202514302902,1
827,273,64,0.0686333686143133,1
827,274,64,0.113806068900942,1
827,275,64,0.137784441106726,1
827,276,64,0.116317869143292,1
827,277,64,0.0744190066576889,1
828,258,64,0.0735556715181631,1
828,259,64,0.122199143708162,1
828,260,64,0.125491910676409,1
828,261,64,0.0676181283820702,1
828,274,64,0.0614973615217607,1
828,275,64,0.0698871163535456,1
828,276,64,0.0611091189948072,1
828,282,64,0.058478707765077,1
828,283,64,0.0580800394538097,1
829,258,64,0.0881204332352114,1
829,259,64,0.170417959786287,1
829,260,64,0.176288230667034,1
829,261,64,0.0884578441666982,1
829,281,64,0.0632905669390548,1
829,282,64,0.0769102619721263,1
829,283,64,0.074567397176056,1
829,284,64,0.0601901521532358,1
830,258,64,0.0596787638944805,1
830,259,64,0.105704668383163,1
830,260,64,0.108733099261109,1
830,281,64,0.0718961555557212,1
830,282,64,0.0910803770888248,1
830,283,64,0.0880352637765889,1
830,284,64,0.0703695152708491,1
830,285,64,0.0603196724737499,1
831,281,64,0.058234427156932,1
831,282,64,0.0739853872018355,1
831,283,64,0.077232146268942,1
831,284,64,0.0712747481465456,1
831,285,64,0.0676084691995441,1
831,286,64,0.0676511394344394,1
832,283,64,0.0591746170741513,1
832,284,64,0.0656158116878798,1
832,285,64,0.0701642311059549,1
832,286,64,0.0743472055548579,1
832,287,64,0.0773409093718177,1
833,284,64,0.0608170142289783,1
833,285,64,0.0743891091879654,1
833,286,64,0.0831749258849392,1
833,287,64,0.082432536919778,1
834,284,64,0.0610153046267932,1
834,285,64,0.0851576057794887,1
834,286,64,0.0997133098015676,1
834,287,64,0.0937711021884429,1
835,284,64,0.0628454779410689,1
835,285,64,0.0919680960621388,1
835,286,64,0.109480960583648,1
835,287,64,0.101903054735934,1
836,284,64,0.058114978804522,1
836,285,64,0.0788262121295179,1
836,286,64,0.0911173449858063,1
836,287,64,0.087743094144455,1
837,285,64,0.0582062633866363,1
837,286,64,0.065284162063675,1
837,287,64,0.0691889308268553,1
861,272,64,0.0575613330964495,1
862,271,64,0.0601431653605816,1
863,271,64,0.0662882099098165,1
864,271,64,0.0699898291992347,1
824,273,65,0.0614213912845916,1
824,274,65,0.0902516746592962,1
824,275,65,0.100181290708324,1
824,276,65,0.0836294912604094,1
824,277,65,0.0582061218601524,1
825,273,65,0.0814395163455069,1
825,274,65,0.135757038843264,1
825,275,65,0.158603163796242,1
825,276,65,0.130907822574474,1
825,277,65,0.0821232602739028,1
826,273,65,0.0872211149871546,1
826,274,65,0.149178974202836,1
826,275,65,0.17764438461124,1
826,276,65,0.147072104818665,1
826,277,65,0.0907611994860135,1
826,278,65,0.0576956889051634,1
827,257,65,0.0650975417038449,1
827,258,65,0.0674465805927752,1
827,259,65,0.0720039220762728,1
827,260,65,0.0687099639267863,1
827,273,65,0.0706823949451269,1
827,274,65,0.114198958214117,1
827,275,65,0.134092404339655,1
827,276,65,0.112752769838404,1
827,277,65,0.0756888707252751,1
828,257,65,0.058581455992387,1
828,258,65,0.0832600363741934,1
828,259,65,0.141682634785342,1
828,260,65,0.146610976152504,1
828,261,65,0.07786295929236,1
828,274,65,0.0668186452745298,1
828,275,65,0.074159370426041,1
828,276,65,0.0658586298556911,1
828,282,65,0.0605977779115465,1
828,283,65,0.060940165857717,1
829,258,65,0.0996475117804286,1
829,259,65,0.199143425108855,1
829,260,65,0.20823112369292,1
829,261,65,0.104892035106493,1
829,281,65,0.0632214430455443,1
829,282,65,0.071799587318208,1
829,283,65,0.0713109907202971,1
829,284,65,0.0615607830773575,1
830,258,65,0.0625519814981484,1
830,259,65,0.116283584352568,1
830,260,65,0.121728072806507,1
830,261,65,0.0630454253781328,1
830,281,65,0.0668252144621574,1
830,282,65,0.0767321980676351,1
830,283,65,0.0763166291354156,1
830,284,65,0.0673942629692275,1
830,285,65,0.0605387672646978,1
831,282,65,0.0648044344587551,1
831,283,65,0.0699254464429347,1
831,284,65,0.0690193467175244,1
831,285,65,0.0652069947483296,1
831,286,65,0.0639338048083717,1
832,283,65,0.0604871749643801,1
832,284,65,0.0662222172897622,1
832,285,65,0.0668428168185922,1
832,286,65,0.0680514294033347,1
833,284,65,0.0628810305732115,1
833,285,65,0.0743428772032253,1
833,286,65,0.0798284024405582,1
833,287,65,0.0796200754562602,1
834,284,65,0.0674881952759781,1
834,285,65,0.0950731989127369,1
834,286,65,0.109788261755685,1
834,287,65,0.0991156434600659,1
835,284,65,0.0713899330136282,1
835,285,65,0.105862140184247,1
835,286,65,0.125640820125217,1
835,287,65,0.112585532709931,1
836,284,65,0.0664281088391498,1
836,285,65,0.090736721301236,1
836,286,65,0.105595492494709,1
836,287,65,0.098831611600756,1
837,285,65,0.0661917124355453,1
837,286,65,0.0741961378271703,1
838,286,65,0.0609521071547959,1
839,286,65,0.0583256468727412,1
840,286,65,0.0582214362050975,1
844,285,65,0.056924015751709,1
845,284,65,0.0577187105465441,1
845,285,65,0.0601126251247438,1
846,284,65,0.0603393682427591,1
846,285,65,0.060243177409203,1
847,284,65,0.0571147875550668,1
861,271,65,0.0581982258617382,1
861,272,65,0.0620623293485451,1
862,270,65,0.0626002774107786,1
862,271,65,0.0698637644837024,1
863,270,65,0.0673646603463455,1
863,271,65,0.077814863875582,1
864,271,65,0.0801493727121654,1
824,274,66,0.0703696509003962,1
824,275,66,0.0771096020246967,1
824,276,66,0.0666926159406185,1
825,273,66,0.0688505822824127,1
825,274,66,0.107487123684617,1
825,275,66,0.122740659417177,1
825,276,66,0.100922559255488,1
825,277,66,0.0677864092683619,1
826,273,66,0.07645983624631,1
826,274,66,0.125022302215088,1
826,275,66,0.145246366000885,1
826,276,66,0.118809136251603,1
826,277,66,0.077699761565615,1
827,257,66,0.0691342957071338,1
827,258,66,0.0702782012040507,1
827,259,66,0.0732451801033011,1
827,260,66,0.0696504899694048,1
827,273,66,0.0649409603402221,1
827,274,66,0.101266232733887,1
827,275,66,0.118261994864853,1
827,276,66,0.102270268786155,1
827,277,66,0.073818344672278,1
827,278,66,0.0569878559898207,1
828,257,66,0.0632206115774514,1
828,258,66,0.0835326753515494,1
828,259,66,0.131160435554359,1
828,260,66,0.136502623948187,1
828,261,66,0.0768921878607451,1
828,274,66,0.0660979393460892,1
828,275,66,0.0759983537639393,1
828,276,66,0.0720345094876053,1
828,277,66,0.0609678283883823,1
828,283,66,0.0585845518842223,1
829,258,66,0.0947299028382948,1
829,259,66,0.178196632745284,1
829,260,66,0.190079668088316,1
829,261,66,0.102443237737226,1
829,281,66,0.0577802391854188,1
829,282,66,0.0626121302538051,1
829,283,66,0.0652895518639368,1
829,284,66,0.0593746588622044,1
830,258,66,0.0613091312981762,1
830,259,66,0.107111712892204,1
830,260,66,0.11582959097997,1
830,261,66,0.0651387436014697,1
830,281,66,0.0596567624231712,1
830,282,66,0.0645959777418468,1
830,283,66,0.0674604973636918,1
830,284,66,0.0633937456427534,1
830,285,66,0.0583829061293516,1
831,282,66,0.0610962341878356,1
831,283,66,0.0664540848458819,1
831,284,66,0.0661389643356091,1
831,285,66,0.062407707041688,1
832,283,66,0.0626343086332193,1
832,284,66,0.0662900084755494,1
832,285,66,0.0654337083816607,1
832,286,66,0.0658928497801103,1
833,284,66,0.065125381142615,1
833,285,66,0.0754042491722824,1
833,286,66,0.079953582615566,1
834,284,66,0.0717972226465396,1
834,285,66,0.0976070536988277,1
834,286,66,0.111946788306478,1
835,283,66,0.0607164537652319,1
835,284,66,0.0775694746433132,1
835,285,66,0.10895313756195,1
835,286,66,0.129000977287547,1
835,287,66,0.115645465024419,1
836,283,66,0.0607455964270413,1
836,284,66,0.0724165897155723,1
836,285,66,0.093961414030728,1
836,286,66,0.109296445430266,1
836,287,66,0.102693409385263,1
837,284,66,0.0614621509119542,1
837,285,66,0.0723557156366857,1
837,286,66,0.0801712916263591,1
838,285,66,0.0626461673731826,1
838,286,66,0.0663421491909922,1
839,285,66,0.0599613627981409,1
839,286,66,0.062526913619688,1
839,287,66,0.0615160725023194,1
840,284,66,0.06434848330313,1
840,285,66,0.0657000612243569,1
840,286,66,0.0609887035447572,1
840,287,66,0.0587034400276335,1
841,283,66,0.0659656356713917,1
841,284,66,0.0923651722004623,1
841,285,66,0.0816653454383136,1
841,286,66,0.0603329641693627,1
842,283,66,0.0731947377056651,1
842,284,66,0.102698209491842,1
842,285,66,0.0875502171346492,1
842,286,66,0.0593533886110619,1
843,283,66,0.0586715965687564,1
843,284,66,0.0804931228507434,1
843,285,66,0.072994347998339,1
843,286,66,0.0575960070850045,1
844,284,66,0.0589850954214012,1
844,285,66,0.0617505759892017,1
845,284,66,0.0592027395658892,1
845,285,66,0.0646097765740269,1
845,286,66,0.0588835914477622,1
846,284,66,0.0607964693010658,1
846,285,66,0.0643540618053703,1
847,284,66,0.057562488896068,1
860,273,66,0.0600468801760363,1
861,271,66,0.0600031720802591,1
861,272,66,0.0636506515926494,1
862,270,66,0.0677697150401987,1
862,271,66,0.0745861730229198,1
863,270,66,0.0741312656251135,1
863,271,66,0.0837094006513804,1
824,275,67,0.0597974338512291,1
825,273,67,0.0577925991650126,1
825,274,67,0.0804786163861439,1
825,275,67,0.0919936239016719,1
825,276,67,0.076440966048457,1
826,273,67,0.0663238981715061,1
826,274,67,0.0969017682601951,1
826,275,67,0.11253852232953,1
826,276,67,0.092725079945952,1
826,277,67,0.0670615047208989,1
827,258,67,0.0641949860374689,1
827,259,67,0.0658913578550925,1
827,260,67,0.064116350384853,1
827,273,67,0.059524830255494,1
827,274,67,0.0832564687274118,1
827,275,67,0.0981398360443989,1
827,276,67,0.0886358432048842,1
827,277,67,0.0707532171564442,1
828,258,67,0.0737106725027157,1
828,259,67,0.101109067573518,1
828,260,67,0.107008056536622,1
828,261,67,0.0690730972967215,1
828,274,67,0.0629446644185342,1
828,275,67,0.075083491190401,1
828,276,67,0.0755907044178813,1
828,277,67,0.0662195931528732,1
829,258,67,0.078759134473087,1
829,259,67,0.129506285804431,1
829,260,67,0.142904232424982,1
829,261,67,0.0874988430209941,1
829,275,67,0.057966547007597,1
829,276,67,0.061623526485219,1
829,282,67,0.0588422421267166,1
830,259,67,0.0859654448465159,1
830,260,67,0.0967856339862831,1
830,261,67,0.0623108734420175,1
830,281,67,0.0574890425478617,1
830,282,67,0.0610850476986709,1
830,283,67,0.0653885201547394,1
831,281,67,0.0573767353859517,1
831,282,67,0.0618170934366338,1
831,283,67,0.0662231607996548,1
831,284,67,0.0656532277520603,1
832,282,67,0.0604572833915935,1
832,283,67,0.065987536894775,1
832,284,67,0.0681446894592867,1
832,285,67,0.0672837543730504,1
833,283,67,0.0614153174396576,1
833,284,67,0.0688138797475885,1
833,285,67,0.0767384547176108,1
834,282,67,0.0597593868148078,1
834,283,67,0.0686205899522046,1
834,284,67,0.0778646281254827,1
834,285,67,0.0950622895796031,1
834,286,67,0.10676228400346,1
835,282,67,0.0703600624811121,1
835,283,67,0.080220360037714,1
835,284,67,0.0864149624440605,1
835,285,67,0.104083081518406,1
835,286,67,0.120636821058537,1
835,287,67,0.110364203781908,1
836,261,67,0.0597923506916824,1
836,282,67,0.0672730160510846,1
836,283,67,0.0760476049803358,1
836,284,67,0.079613765733853,1
836,285,67,0.0919928337121368,1
836,286,67,0.105244542196263,1
836,287,67,0.100587224045765,1
837,283,67,0.0593879682486277,1
837,284,67,0.0657035227262756,1
837,285,67,0.0746807245080374,1
837,286,67,0.0818628869251513,1
838,284,67,0.0570786629200518,1
838,285,67,0.0649737708967392,1
838,286,67,0.0684162021217084,1
838,287,67,0.0668572525199498,1
839,285,67,0.0616360928576018,1
839,286,67,0.0635645327271974,1
839,287,67,0.0613509877557891,1
840,283,67,0.0575641990077484,1
840,284,67,0.0901721957447138,1
840,285,67,0.088730972589811,1
840,286,67,0.0685445017762989,1
841,283,67,0.0874430344108436,1
841,284,67,0.15004420815602,1
841,285,67,0.131086381821659,1
841,286,67,0.0776367115170384,1
842,283,67,0.0940026159283529,1
842,284,67,0.15703137066607,1
842,285,67,0.132407012618407,1
842,286,67,0.0749432266509843,1
843,283,67,0.0641996917930585,1
843,284,67,0.0978800700801408,1
843,285,67,0.0863750991510958,1
843,286,67,0.0637381208566353,1
844,284,67,0.0590549328442681,1
844,285,67,0.0642465016776078,1
844,286,67,0.0613876549089923,1
845,285,67,0.0652326994959676,1
845,286,67,0.0635883740427974,1
846,285,67,0.0631731412359772,1
846,286,67,0.0600510611042481,1
859,274,67,0.057511940353569,1
860,273,67,0.0594287691545481,1
861,270,67,0.0577497991975071,1
861,271,67,0.0638904800134884,1
861,272,67,0.0662758322394122,1
861,273,67,0.069428629515084,1
862,270,67,0.0727419885867382,1
862,271,67,0.0800982698576045,1
862,272,67,0.0816179576539551,1
863,271,67,0.0889594788919382,1
863,272,67,0.0949169477775766,1
825,274,68,0.0598654314298053,1
825,275,68,0.0691380579528307,1
826,274,68,0.07312956475983,1
826,275,68,0.0858672372605643,1
826,276,68,0.0730100102625571,1
827,274,68,0.0687567207389041,1
827,275,68,0.0830354279473103,1
827,276,68,0.0786865785623419,1
827,277,68,0.0659204592383441,1
828,259,68,0.069716865890353,1
828,260,68,0.0747085049774393,1
828,274,68,0.0599104073670007,1
828,275,68,0.0759064735912053,1
828,276,68,0.07920460087503,1
828,277,68,0.0690969032307005,1
829,259,68,0.0810034142792486,1
829,260,68,0.0926947578967768,1
829,261,68,0.0676897702676068,1
829,275,68,0.0624383888040097,1
829,276,68,0.066195138555843,1
829,277,68,0.0584421467567366,1
830,259,68,0.0609727405367609,1
830,260,68,0.0720696729219171,1
831,283,68,0.0596500458121228,1
832,282,68,0.0573448388546432,1
832,283,68,0.0615942540907994,1
832,284,68,0.063053492387715,1
833,283,68,0.0630306358605655,1
833,284,68,0.0658553629526878,1
833,285,68,0.0704361034815232,1
834,282,68,0.0665526108664223,1
834,283,68,0.0796747754422868,1
834,284,68,0.078589037330252,1
834,285,68,0.0845689499574619,1
834,286,68,0.0896157195069632,1
835,260,68,0.059123909314358,1
835,261,68,0.0754580056484163,1
835,262,68,0.0644891724219984,1
835,282,68,0.0820353723274021,1
835,283,68,0.0986199292594023,1
835,284,68,0.0909047545161809,1
835,285,68,0.0917595685819886,1
835,286,68,0.099450766380063,1
836,260,68,0.056958170809823,1
836,261,68,0.0705481806628968,1
836,262,68,0.0600935131524807,1
836,282,68,0.0736321253041522,1
836,283,68,0.0865342103006183,1
836,284,68,0.0812505725925661,1
836,285,68,0.0839168961675855,1
836,286,68,0.092443123808406,1
836,287,68,0.0904351991272911,1
837,283,68,0.0618203957212581,1
837,284,68,0.065311352839394,1
837,285,68,0.0730060180363238,1
837,286,68,0.0804726015105782,1
838,285,68,0.0648703445216938,1
838,286,68,0.0708454334545775,1
839,284,68,0.0603896985985953,1
839,285,68,0.0655646498639506,1
839,286,68,0.0650766547535963,1
839,287,68,0.0606644722670835,1
840,283,68,0.0722187887635142,1
840,284,68,0.119878321661959,1
840,285,68,0.119088014188124,1
840,286,68,0.0803786515130172,1
841,283,68,0.104633690304011,1
841,284,68,0.202460617189448,1
841,285,68,0.190246398080222,1
841,286,68,0.105168424535673,1
842,283,68,0.0980904315076448,1
842,284,68,0.18652773074643,1
842,285,68,0.168817884947083,1
842,286,68,0.0930055913339749,1
843,283,68,0.0582194902159439,1
843,284,68,0.09691719464694,1
843,285,68,0.0898469148122845,1
843,286,68,0.0718066931270871,1
843,287,68,0.0641205607977489,1
844,285,68,0.0633609527770468,1
844,286,68,0.0753106176093101,1
845,285,68,0.0636100688733916,1
845,286,68,0.0761373268741904,1
846,285,68,0.058231873783285,1
846,286,68,0.0629243730589053,1
855,278,68,0.0591506401290042,1
856,277,68,0.0609634764490024,1
856,278,68,0.0585891220102648,1
860,274,68,0.0616743816684331,1
861,270,68,0.060455366887124,1
861,271,68,0.0659159185969857,1
861,272,68,0.0663121691641531,1
861,273,68,0.0657815863760191,1
862,271,68,0.083320049500303,1
862,272,68,0.0817021777057481,1
862,273,68,0.0790535508381529,1
827,274,69,0.0607090236248273,1
827,275,69,0.0728414640141081,1
828,274,69,0.058757007801789,1
828,275,69,0.0753422664692718,1
828,276,69,0.0784734455745282,1
828,277,69,0.0693497343972477,1
829,275,69,0.0646583024671935,1
829,276,69,0.0667575648028541,1
829,277,69,0.0596721534282951,1
832,282,69,0.0570517198156797,1
832,283,69,0.0593971320884601,1
833,282,69,0.0617393305306686,1
833,283,69,0.0673748502531862,1
833,284,69,0.0670480832926759,1
834,261,69,0.0633155168787787,1
834,281,69,0.057656161737598,1
834,282,69,0.0718855823479866,1
834,283,69,0.0859652561445374,1
834,284,69,0.0805297664161994,1
834,285,69,0.0772186010050456,1
835,260,69,0.0675402829189894,1
835,261,69,0.0853623474261946,1
835,262,69,0.072325653052731,1
835,281,69,0.0614027274795275,1
835,282,69,0.0848420606897642,1
835,283,69,0.104324171883726,1
835,284,69,0.0926133211991671,1
835,285,69,0.0839027140345115,1
836,260,69,0.0587715437510727,1
836,261,69,0.0735009597382628,1
836,262,69,0.064476246336469,1
836,282,69,0.0736506652735429,1
836,283,69,0.089191794615257,1
836,284,69,0.0822358976642752,1
836,285,69,0.0802763101743484,1
836,286,69,0.083466995269147,1
837,282,69,0.0605644897031463,1
837,283,69,0.0685161669948351,1
837,284,69,0.0695843676167402,1
837,285,69,0.0749056926480671,1
837,286,69,0.079587129270196,1
838,282,69,0.0599484426095483,1
838,283,69,0.065048337662943,1
838,284,69,0.0662301663606078,1
838,285,69,0.0722358191170766,1
838,286,69,0.0758037843332635,1
839,282,69,0.0669049233572762,1
839,283,69,0.0773007689228221,1
839,284,69,0.0814599256438724,1
839,285,69,0.083071422849715,1
839,286,69,0.0756396136119417,1
840,282,69,0.0650072301163074,1
840,283,69,0.0944119046228494,1
840,284,69,0.136153206853316,1
840,285,69,0.139479126400416,1
840,286,69,0.0937735317264165,1
840,287,69,0.0658507692388979,1
841,282,69,0.0580942333807573,1
841,283,69,0.117295828940902,1
841,284,69,0.207640344973635,1
841,285,69,0.211851512677518,1
841,286,69,0.126205829230559,1
841,287,69,0.0703872709476415,1
842,283,69,0.0956827770666334,1
842,284,69,0.170984832323668,1
842,285,69,0.173811611549807,1
842,286,69,0.109296020850814,1
842,287,69,0.0729766277031676,1
843,283,69,0.0598597526796389,1
843,284,69,0.0924381703814695,1
843,285,69,0.0987476863958045,1
843,286,69,0.090201444551386,1
843,287,69,0.0866742035809408,1
844,284,69,0.0594466014915193,1
844,285,69,0.0736655373482258,1
844,286,69,0.0943255027044296,1
844,287,69,0.103510960707247,1
845,285,69,0.0677545186339902,1
845,286,69,0.0874394018977569,1
846,285,69,0.0603317258126286,1
846,286,69,0.0691370613705066,1
855,278,69,0.058439752600384,1
860,274,69,0.0612209661956445,1
861,270,69,0.0635051977488231,1
861,271,69,0.0696692304346476,1
861,272,69,0.0697749919966773,1
861,273,69,0.06759173958976,1
861,274,69,0.0697751512139717,1
862,271,69,0.0844353784413462,1
862,272,69,0.0825948442090618,1
829,275,70,0.0628431604448951,1
829,276,70,0.0648798091053045,1
829,277,70,0.0587443352845432,1
832,282,70,0.0572523689882262,1
833,281,70,0.0573470973814487,1
833,282,70,0.0639562249621959,1
833,283,70,0.0686088314601674,1
834,261,70,0.0590361569974043,1
834,281,70,0.060249664039715,1
834,282,70,0.0727008987309131,1
834,283,70,0.0840875947979771,1
834,284,70,0.0799109241745444,1
835,261,70,0.0757041614824729,1
835,262,70,0.0643441844361816,1
835,281,70,0.062334974222838,1
835,282,70,0.0802138557163915,1
835,283,70,0.0959670565972901,1
835,284,70,0.0884253402508963,1
836,261,70,0.0650276806932307,1
836,262,70,0.0582139470953246,1
836,281,70,0.056988292363146,1
836,282,70,0.070769752167313,1
836,283,70,0.0838270268503102,1
836,284,70,0.0800462352870247,1
836,285,70,0.076336212862625,1
837,282,70,0.0618901859686304,1
837,283,70,0.0697040105680656,1
837,284,70,0.0708408220499772,1
837,285,70,0.0739241003373708,1
838,282,70,0.064480904916564,1
838,283,70,0.0712705436305864,1
838,284,70,0.0716332111425122,1
838,285,70,0.0748634469926235,1
839,282,70,0.0731710968859173,1
839,283,70,0.085992010546931,1
839,284,70,0.0891432333404694,1
839,285,70,0.087961976645677,1
840,282,70,0.0715443914799924,1
840,283,70,0.0987067321695265,1
840,284,70,0.126576192245047,1
840,285,70,0.129786036487603,1
840,286,70,0.0938375429756962,1
841,282,70,0.0626966156677554,1
841,283,70,0.108494815837719,1
841,284,70,0.170044377044291,1
841,285,70,0.180411475042795,1
841,286,70,0.120927481074843,1
842,283,70,0.0854921449027397,1
842,284,70,0.135959810913069,1
842,285,70,0.148541314835759,1
842,286,70,0.109190041102121,1
843,283,70,0.0599211221012192,1
843,284,70,0.0858772915378579,1
843,285,70,0.0992836118087056,1
843,286,70,0.0978802234004983,1
844,284,70,0.0628002897141476,1
844,285,70,0.0794997071817048,1
844,286,70,0.100859450237543,1
845,285,70,0.0707498971810094,1
846,285,70,0.0613246756236577,1
856,278,70,0.0584922471320366,1
858,276,70,0.0591066607741329,1
859,275,70,0.0605752221281753,1
860,274,70,0.0605305174500739,1
860,275,70,0.0671693125200083,1
861,271,70,0.0686748889465269,1
861,272,70,0.0694056255645138,1
