x,y,z,signal,cytoplasm.p
735,683,20,0.0568519492867207,1
735,684,20,0.0570660316813639,1
736,683,20,0.0586240967425981,1
736,684,20,0.0581134632917569,1
737,682,20,0.0582398936173726,1
737,683,20,0.0612090897648707,1
737,684,20,0.0616266931402962,1
737,685,20,0.0607894283584919,1
737,686,20,0.062430716889195,1
738,682,20,0.05779093033189,1
738,683,20,0.0597336525824856,1
738,684,20,0.0618204664845001,1
738,685,20,0.0638479277173297,1
738,686,20,0.0677151329929087,1
738,687,20,0.0719920397485622,1
739,684,20,0.0601274323331216,1
739,685,20,0.065101952612593,1
739,686,20,0.0724269388397074,1
739,687,20,0.0804200539064942,1
740,684,20,0.0597408586392908,1
740,685,20,0.064367459645846,1
740,686,20,0.0698413502268151,1
740,687,20,0.0763424341309797,1
740,688,20,0.0813448587155264,1
741,684,20,0.0625247140622507,1
741,685,20,0.0669190465209818,1
741,686,20,0.0696549185689635,1
741,687,20,0.0734442135151565,1
741,688,20,0.080485203264582,1
742,684,20,0.0626099719749257,1
742,685,20,0.0692712166833684,1
742,686,20,0.0720712827856714,1
742,687,20,0.0731056231963039,1
742,688,20,0.0813859426744146,1
743,685,20,0.0663876735433127,1
743,686,20,0.0727402312995632,1
743,687,20,0.0749240026369214,1
743,688,20,0.0839170023124484,1
744,685,20,0.0577754331819031,1
744,686,20,0.0667123647820591,1
744,687,20,0.0765809475349059,1
744,688,20,0.0929356182815609,1
745,686,20,0.0630853417435289,1
745,687,20,0.0836560097853298,1
722,679,21,0.0620923801386261,1
723,679,21,0.0669946452511307,1
723,680,21,0.127342923765439,1
724,679,21,0.0622980476044142,1
724,680,21,0.112839313283308,1
725,680,21,0.0703188487896136,1
725,681,21,0.0905111634675234,1
737,683,21,0.0573068684784006,1
737,684,21,0.0580912908092796,1
737,685,21,0.0576676961460357,1
737,686,21,0.0594339820467051,1
737,687,21,0.0604607802751331,1
738,683,21,0.0574898268404599,1
738,684,21,0.0601054249648755,1
738,685,21,0.0615521676526502,1
738,686,21,0.0632355072398816,1
738,687,21,0.063783639312019,1
738,688,21,0.0646986021334834,1
739,684,21,0.060887170086434,1
739,685,21,0.0649407185658121,1
739,686,21,0.0677079210391667,1
739,687,21,0.0692969568126273,1
739,688,21,0.0714714050928588,1
740,684,21,0.0621889483761393,1
740,685,21,0.066486618246368,1
740,686,21,0.0690552590628135,1
740,687,21,0.0715940790697143,1
740,688,21,0.0752812272761539,1
740,689,21,0.077141958517078,1
741,684,21,0.063630206912663,1
741,685,21,0.0670168590121659,1
741,686,21,0.0687043618367986,1
741,687,21,0.0724481501214816,1
741,688,21,0.0781789761370308,1
741,689,21,0.0827543032778572,1
742,684,21,0.0636835388093452,1
742,685,21,0.0673373103533322,1
742,686,21,0.06874930828931,1
742,687,21,0.073536040615459,1
742,688,21,0.0822966950829831,1
742,689,21,0.090247299132169,1
742,690,21,0.098558801612232,1
743,685,21,0.0628797391440459,1
743,686,21,0.0674351346383899,1
743,687,21,0.0749965880323507,1
743,688,21,0.0870103348771357,1
743,689,21,0.0968072875383195,1
743,690,21,0.106533518236112,1
744,685,21,0.0572441722460338,1
744,686,21,0.0652599551379916,1
744,687,21,0.0753402674076868,1
744,688,21,0.0900090098118424,1
744,689,21,0.0984493190830631,1
744,690,21,0.106474501692327,1
745,687,21,0.0756580002609748,1
745,688,21,0.0900646651016354,1
745,689,21,0.0950132034774378,1
745,690,21,0.100467551609755,1
720,679,22,0.0639002984133089,1
721,679,22,0.0627191714511267,1
722,679,22,0.0627713534451273,1
722,680,22,0.0797354608191949,1
723,679,22,0.0629714777902961,1
723,680,22,0.100057195569693,1
723,681,22,0.14409938819988,1
724,679,22,0.0579975059259498,1
724,680,22,0.0884212064981791,1
724,681,22,0.12471258329895,1
725,680,22,0.06160661996733,1
725,681,22,0.0758964370047222,1
725,682,22,0.0739192825399815,1
726,682,22,0.0613293990700578,1
727,682,22,0.0611379196342805,1
727,683,22,0.0727074502277303,1
728,682,22,0.0590782847141113,1
728,683,22,0.0699378005255916,1
730,683,22,0.0593028931409944,1
718,678,23,0.0570247354327498,1
719,679,23,0.0662052459055681,1
720,679,23,0.0652158637413205,1
720,680,23,0.0739324857815418,1
721,679,23,0.0642509184832928,1
721,680,23,0.0749837445039369,1
722,679,23,0.0619782803079201,1
722,680,23,0.0766729338525028,1
722,681,23,0.0931996890097043,1
723,679,23,0.0593541139342919,1
723,680,23,0.0834890321220774,1
723,681,23,0.110345852514496,1
724,680,23,0.0747954022385527,1
724,681,23,0.096619989030754,1
724,682,23,0.0936361389952356,1
725,680,23,0.0576957301837212,1
725,681,23,0.0679666845241639,1
725,682,23,0.0699598137907746,1
726,682,23,0.060414860828045,1
726,683,23,0.0684110835805408,1
727,682,23,0.0580113991091191,1
727,683,23,0.0675218490944617,1
727,684,23,0.0768224801704885,1
728,683,23,0.0631840918476688,1
728,684,23,0.072318405717368,1
730,685,23,0.0651565995261882,1
717,678,24,0.0591561832496236,1
719,679,24,0.0646298556439299,1
720,679,24,0.0639999684395941,1
720,680,24,0.0707655889299117,1
721,679,24,0.0615613904618509,1
721,680,24,0.0705362216750074,1
721,681,24,0.079544588767911,1
722,680,24,0.067513522619659,1
722,681,24,0.078584862298977,1
723,680,24,0.0656618844553254,1
723,681,24,0.0782789469070944,1
723,682,24,0.0842361268428281,1
724,680,24,0.0602645714960189,1
724,681,24,0.0704279775025727,1
724,682,24,0.0748092423492906,1
725,681,24,0.0591083178133819,1
725,682,24,0.0644305804576646,1
725,683,24,0.0690735867424783,1
726,682,24,0.0589006335951982,1
726,683,24,0.0644795486210933,1
726,684,24,0.0736590860993348,1
727,683,24,0.0611629698219304,1
727,684,24,0.0705188021236143,1
728,684,24,0.0635398599435045,1
728,685,24,0.0782119105292213,1
729,685,24,0.0680510814840618,1
730,685,24,0.0586869403983857,1
730,686,24,0.0801972322514703,1
714,676,25,0.0588998257148526,1
715,677,25,0.0617114675041512,1
716,678,25,0.0632462455618474,1
717,678,25,0.0581434669063433,1
717,679,25,0.0667043567418452,1
718,679,25,0.0629122017812901,1
719,679,25,0.0613747818958944,1
719,680,25,0.0678019182122224,1
720,679,25,0.0608187361345324,1
720,680,25,0.0663189624353802,1
721,679,25,0.057052710501067,1
721,680,25,0.0644668702069108,1
721,681,25,0.0734671525994216,1
722,680,25,0.0606516287386697,1
722,681,25,0.0705860331004028,1
722,682,25,0.0800949793668539,1
723,680,25,0.0573130484681975,1
723,681,25,0.0660551334816468,1
723,682,25,0.0743041638129424,1
724,681,25,0.0614281491741977,1
724,682,25,0.0682121268288642,1
724,683,25,0.0740767425471918,1
725,682,25,0.062578735900542,1
725,683,25,0.0677332306920371,1
725,684,25,0.076158113576513,1
726,682,25,0.057846650487988,1
726,683,25,0.0618686385614569,1
726,684,25,0.0697803582091918,1
727,684,25,0.0643053295194147,1
727,685,25,0.0797705240055807,1
728,685,25,0.0710307211066843,1
728,686,25,0.0896056947143538,1
729,685,25,0.0613421541444191,1
729,686,25,0.0805204846376304,1
710,671,26,0.0578022583475387,1
710,672,26,0.0583931314178133,1
711,671,26,0.0582141004156822,1
711,672,26,0.0582513749533788,1
711,673,26,0.0577353988777705,1
712,674,26,0.0571860225519622,1
712,675,26,0.0612993777646609,1
713,675,26,0.0582864558305751,1
713,676,26,0.0646920388427927,1
714,676,26,0.0615595211328761,1
714,677,26,0.0670589985227466,1
715,676,26,0.0583347576401421,1
715,677,26,0.0633546902301343,1
715,678,26,0.069373634682216,1
716,677,26,0.0578320496723992,1
716,678,26,0.063668814158083,1
716,679,26,0.0700470412803505,1
717,678,26,0.0584244913278704,1
717,679,26,0.0654189896273353,1
718,679,26,0.060849459175412,1
718,680,26,0.0688019384505096,1
719,679,26,0.0584343274185013,1
719,680,26,0.0645708214093339,1
720,680,26,0.062200376639714,1
720,681,26,0.0698136876961498,1
721,680,26,0.0579335949245961,1
721,681,26,0.0662747059244779,1
721,682,26,0.0760125712786342,1
722,681,26,0.0610417582854085,1
722,682,26,0.0704281897922986,1
723,682,26,0.0643284926872794,1
723,683,26,0.0727206711601011,1
724,682,26,0.0601640876924513,1
724,683,26,0.0691764470115881,1
724,684,26,0.0768903244287071,1
725,682,26,0.0571233617012163,1
725,683,26,0.0642725897261397,1
725,684,26,0.0725450132058362,1
726,683,26,0.0582004666977333,1
726,684,26,0.0657568074474632,1
726,685,26,0.0784432768457106,1
727,684,26,0.0590062654246177,1
727,685,26,0.0722276341687579,1
727,686,26,0.0849679249094443,1
728,685,26,0.0626811715902001,1
728,686,26,0.0770959683067479,1
729,686,26,0.068683887672128,1
729,687,26,0.0848966486339911,1
730,688,26,0.090011268338648,1
710,671,27,0.0585617366356305,1
710,672,27,0.0596604067301315,1
710,673,27,0.0613880087252021,1
711,671,27,0.059760760801089,1
711,672,27,0.060931851176788,1
711,673,27,0.0602666708055301,1
711,674,27,0.0636208130922942,1
712,672,27,0.0577373743516082,1
712,674,27,0.059086646570535,1
712,675,27,0.0637002389344452,1
713,675,27,0.0608590475946961,1
713,676,27,0.0667895969637097,1
713,677,27,0.0721304526498145,1
714,675,27,0.0573209267758012,1
714,676,27,0.0631416574902467,1
714,677,27,0.0680049969227425,1
714,678,27,0.073682921517998,1
715,676,27,0.0598230442478778,1
715,677,27,0.0644102537164147,1
715,678,27,0.0697793557299309,1
716,677,27,0.0586278000189268,1
716,678,27,0.0640590557466215,1
716,679,27,0.0694084914758127,1
717,678,27,0.0578779042531822,1
717,679,27,0.0638748413370177,1
717,680,27,0.0709448852942001,1
718,679,27,0.0580292196522166,1
718,680,27,0.0647781282235605,1
719,680,27,0.0604932370154404,1
719,681,27,0.0678155755179185,1
720,681,27,0.0630488220137464,1
721,681,27,0.057577667611466,1
721,682,27,0.0659538241069231,1
722,682,27,0.0606147846773616,1
722,683,27,0.0685737034074765,1
723,682,27,0.0573148234461831,1
723,683,27,0.0658783610063212,1
724,683,27,0.0633338327645698,1
724,684,27,0.0711864179297827,1
725,683,27,0.0582633457351419,1
725,684,27,0.0664541261244397,1
725,685,27,0.0752479921401852,1
726,684,27,0.0599596232017763,1
726,685,27,0.0704418942734894,1
726,686,27,0.0821663020158183,1
727,685,27,0.063746753972153,1
727,686,27,0.0738846262422369,1
728,686,27,0.0653933084674446,1
728,687,27,0.0776925967873677,1
729,686,27,0.0577623183943953,1
729,687,27,0.0705514003904055,1
729,688,27,0.0860687296950774,1
730,687,27,0.0589435043259457,1
730,688,27,0.0728980333291096,1
730,689,27,0.0937619442455473,1
731,688,27,0.0641237510405735,1
731,689,27,0.0813803169966797,1
732,689,27,0.0698735357080282,1
732,690,27,0.0813515045633328,1
733,690,27,0.070116684104302,1
734,690,27,0.0656328656291895,1
734,691,27,0.0702276939401096,1
735,691,27,0.0739009135817589,1
736,691,27,0.0862897822690526,1
736,692,27,0.101270867726235,1
737,692,27,0.102125640513485,1
738,692,27,0.0915815754407394,1
738,693,27,0.0878228679058788,1
739,693,27,0.0828536017971222,1
740,693,27,0.0771575500180541,1
740,694,27,0.0751608472077249,1
741,694,27,0.0732225299689406,1
742,694,27,0.0739347855869051,1
742,695,27,0.07149044630188,1
743,694,27,0.0774942592140581,1
743,695,27,0.0756984355568119,1
744,695,27,0.0806773549511578,1
710,672,28,0.0586196445552922,1
710,673,28,0.0617704191816316,1
711,671,28,0.0575461189994304,1
711,672,28,0.0601949699506252,1
711,673,28,0.061022664003956,1
711,674,28,0.0653315557449704,1
712,674,28,0.0603716126933405,1
712,675,28,0.0655505561849291,1
712,676,28,0.0706478801738662,1
713,675,28,0.0622325090484957,1
713,676,28,0.0674725801872546,1
713,677,28,0.0717176316901574,1
714,675,28,0.0577471750606182,1
714,676,28,0.063554507934588,1
714,677,28,0.0674657456374697,1
714,678,28,0.0720849459883044,1
715,676,28,0.0604822215374437,1
715,677,28,0.0645665461301329,1
715,678,28,0.0686274127081159,1
715,679,28,0.0733027165159425,1
716,677,28,0.0590081937229608,1
716,678,28,0.0630736009423022,1
716,679,28,0.067742241211512,1
716,680,28,0.0753716155238702,1
717,679,28,0.0622867608673234,1
717,680,28,0.0690927340963624,1
718,680,28,0.0627461676279303,1
718,681,28,0.0700113353278504,1
719,680,28,0.0578063685125085,1
719,681,28,0.0643752436024604,1
720,681,28,0.0585389862533439,1
720,682,28,0.0663002160732005,1
721,682,28,0.0594380273453698,1
721,683,28,0.0684771056852793,1
722,683,28,0.0628884725074898,1
723,683,28,0.061365859830472,1
723,684,28,0.0700972419035765,1
724,683,28,0.0591393180102924,1
724,684,28,0.0671620592877085,1
724,685,28,0.0726052740032927,1
725,684,28,0.0621283160716626,1
725,685,28,0.0689674536734284,1
726,685,28,0.0631063761171983,1
726,686,28,0.0741008728126964,1
727,686,28,0.0650954247035232,1
727,687,28,0.075971139400473,1
728,687,28,0.0671030663316703,1
728,688,28,0.0819311911444426,1
729,687,28,0.060197599984451,1
729,688,28,0.0737698777484797,1
730,688,28,0.0635027210353549,1
730,689,28,0.0844345351793796,1
731,689,28,0.0761405642925096,1
731,690,28,0.0948707098958997,1
732,689,28,0.0659603756037402,1
732,690,28,0.0794425422760836,1
733,689,28,0.057906928976255,1
733,690,28,0.0683136308025033,1
733,691,28,0.0747885087193995,1
734,690,28,0.0645811469457217,1
734,691,28,0.0703268627267643,1
735,690,28,0.0636649634583336,1
735,691,28,0.0724629750206699,1
735,692,28,0.080475473318814,1
736,690,28,0.0653304766055307,1
736,691,28,0.0817598556448734,1
736,692,28,0.0952264485070513,1
737,690,28,0.0631863149928534,1
737,691,28,0.0818802710949234,1
737,692,28,0.0950420100138479,1
737,693,28,0.0874582426109259,1
738,690,28,0.0588687429608265,1
738,691,28,0.0761324795921169,1
738,692,28,0.0845932630280082,1
738,693,28,0.0818189665396482,1
739,691,28,0.0725714963491357,1
739,692,28,0.0791244438127122,1
739,693,28,0.0787856588949442,1
739,694,28,0.0783452461678638,1
740,691,28,0.0642979760391889,1
740,692,28,0.0731880564762377,1
740,693,28,0.0742851520886054,1
740,694,28,0.0746593716997793,1
741,692,28,0.0682672808790267,1
741,693,28,0.0710760980355841,1
741,694,28,0.0713949984823643,1
741,695,28,0.0722032680257801,1
742,692,28,0.0642675242574035,1
742,693,28,0.0690673713710605,1
742,694,28,0.0699716607368642,1
742,695,28,0.0699038872418875,1
743,692,28,0.0585282951068728,1
743,693,28,0.0664523452495173,1
743,694,28,0.0706182657571106,1
743,695,28,0.0710504758450617,1
744,694,28,0.0713874680940336,1
744,695,28,0.0730132830624972,1
744,696,28,0.0707751301737011,1
745,695,28,0.0757645520125396,1
745,696,28,0.0719648607667169,1
746,695,28,0.0714919795054555,1
746,696,28,0.0688514078535688,1
747,695,28,0.0638008642644968,1
747,696,28,0.0646454117632851,1
748,695,28,0.0583633577837632,1
748,696,28,0.0612946366274503,1
749,696,28,0.0599862950470543,1
710,672,29,0.0574485777673405,1
710,673,29,0.0606777993443172,1
711,672,29,0.0586849413368007,1
711,673,29,0.0600545226061668,1
711,674,29,0.0649970755910877,1
711,675,29,0.0732677181958619,1
712,674,29,0.0603626729371076,1
712,675,29,0.065145808131791,1
712,676,29,0.0704118081017874,1
713,674,29,0.0577895622425456,1
713,675,29,0.0628093356152435,1
713,676,29,0.0672248144894437,1
713,677,29,0.0709804556171531,1
713,678,29,0.0770529973280743,1
714,675,29,0.0576659919312921,1
714,676,29,0.0629182107599189,1
714,677,29,0.0670836654095026,1
714,678,29,0.0727791982581298,1
714,679,29,0.0778944489350274,1
715,676,29,0.0587263791118987,1
715,677,29,0.0634155348243369,1
715,678,29,0.0689015200227424,1
715,679,29,0.0742395569730429,1
715,680,29,0.0818722630547095,1
716,677,29,0.0571301490755066,1
716,678,29,0.0620918847959325,1
716,679,29,0.0675883665418938,1
716,680,29,0.0753215564271281,1
717,679,29,0.0611597029189271,1
717,680,29,0.0682976442067596,1
717,681,29,0.0762208982629322,1
718,680,29,0.0607097784327414,1
718,681,29,0.0677150386419194,1
719,681,29,0.0612819228316468,1
719,682,29,0.0703205883859782,1
720,682,29,0.0621057249066704,1
720,683,29,0.0717589928050766,1
721,683,29,0.0647583616913094,1
722,683,29,0.0596690693303335,1
722,684,29,0.0699090706493603,1
723,683,29,0.0577250438566986,1
723,684,29,0.0663384871932213,1
724,684,29,0.062550442397636,1
724,685,29,0.0685629945701949,1
725,684,29,0.0581942395324418,1
725,685,29,0.0646045872696173,1
725,686,29,0.075738351922208,1
726,685,29,0.0578940441692834,1
726,686,29,0.0664249834626304,1
727,686,29,0.0574023398856636,1
727,687,29,0.0670681033932107,1
728,687,29,0.0580683163433934,1
728,688,29,0.0717312123356748,1
729,688,29,0.0631146141379485,1
729,689,29,0.079413305263285,1
730,689,29,0.0740473640079093,1
731,689,29,0.0672703565325747,1
731,690,29,0.0863891338607491,1
732,689,29,0.0582839673232332,1
732,690,29,0.0720958789091856,1
732,691,29,0.0811697137947656,1
733,690,29,0.0628284181028224,1
733,691,29,0.0708736797819888,1
734,690,29,0.061064998113452,1
734,691,29,0.0689343600639436,1
734,692,29,0.0727096792698517,1
735,690,29,0.0602374396896683,1
735,691,29,0.0713619343575636,1
735,692,29,0.075905241131408,1
736,690,29,0.0574773784068137,1
736,691,29,0.0741140819511936,1
736,692,29,0.0834567522898749,1
736,693,29,0.0793057038569647,1
737,691,29,0.072880283549254,1
737,692,29,0.0842256479860829,1
737,693,29,0.0811592998043255,1
738,691,29,0.0675390681500026,1
738,692,29,0.077653700592043,1
738,693,29,0.0771438986092947,1
738,694,29,0.0756595924339187,1
739,691,29,0.062880187311245,1
739,692,29,0.0732399377264601,1
739,693,29,0.074824096733163,1
739,694,29,0.0762596470348362,1
740,692,29,0.0670755748121731,1
740,693,29,0.0710235268437528,1
740,694,29,0.073425390492798,1
740,695,29,0.0784196242320891,1
741,692,29,0.0591934224056993,1
741,693,29,0.0668191465141602,1
741,694,29,0.070683391527451,1
741,695,29,0.074449293325243,1
742,693,29,0.0615840759778324,1
742,694,29,0.0676515993955121,1
742,695,29,0.0705314628469864,1
742,696,29,0.0724407376718875,1
743,694,29,0.065057413048723,1
743,695,29,0.0694843378773084,1
743,696,29,0.0708459523850185,1
744,694,29,0.0615356090540342,1
744,695,29,0.0680453496614639,1
744,696,29,0.0689067447087729,1
745,694,29,0.059621162615534,1
745,695,29,0.0682502505254643,1
745,696,29,0.0683216683274013,1
746,695,29,0.0633004030296857,1
746,696,29,0.0642153304695292,1
746,697,29,0.0625338307265885,1
747,696,29,0.0596410529834585,1
747,697,29,0.0609818395102882,1
750,696,29,0.0570160374509269,1
751,696,29,0.0570581356829497,1
709,673,30,0.0600151900375168,1
710,673,30,0.0587219328215295,1
710,674,30,0.0697918985145663,1
711,672,30,0.0571107894318967,1
711,673,30,0.0585269741930231,1
711,674,30,0.0628132275935507,1
711,675,30,0.0697366088348568,1
711,676,30,0.0773874479972729,1
712,674,30,0.0590327721556644,1
712,675,30,0.0620800024682219,1
712,676,30,0.0667605722406369,1
712,677,30,0.0710713804861208,1
713,674,30,0.0574680907313079,1
713,675,30,0.0612495958239497,1
713,676,30,0.0646499641985171,1
713,677,30,0.0679978852169266,1
713,678,30,0.0734811696182644,1
714,676,30,0.0604486797607599,1
714,677,30,0.064582102249488,1
714,678,30,0.0704735254426406,1
714,679,30,0.0753619563413441,1
715,677,30,0.0606433494393617,1
715,678,30,0.0670098652450866,1
715,679,30,0.072184397827927,1
715,680,30,0.0787718718566378,1
716,678,30,0.0597338000059064,1
716,679,30,0.0652871164290264,1
716,680,30,0.0724823936336481,1
716,681,30,0.0805783041032396,1
717,679,30,0.0583107924888687,1
717,680,30,0.0651580442757113,1
717,681,30,0.0734158610428822,1
718,680,30,0.057176782051951,1
718,681,30,0.0646268894847049,1
718,682,30,0.075121892043032,1
719,681,30,0.0580810006545128,1
719,682,30,0.0668063678520516,1
719,683,30,0.0770532980718526,1
720,682,30,0.0590191207469051,1
720,683,30,0.067398178535282,1
721,683,30,0.0618755261836733,1
722,683,30,0.0570766520645931,1
722,684,30,0.0666766352418117,1
723,684,30,0.0628265251861003,1
723,685,30,0.0685667273312077,1
724,684,30,0.0590635364751018,1
724,685,30,0.0650276040330519,1
725,685,30,0.061008275478093,1
725,686,30,0.0694714353795264,1
726,686,30,0.0603833534945672,1
726,687,30,0.0697237122340116,1
727,687,30,0.0599002646356547,1
727,688,30,0.0751393764607302,1
728,688,30,0.0631680993549883,1
729,689,30,0.0672511089307646,1
730,689,30,0.0619275902389373,1
730,690,30,0.0807955000805286,1
731,690,30,0.0728457982626775,1
731,691,30,0.0834322976928447,1
732,690,30,0.0616161317264353,1
732,691,30,0.0715249905578248,1
733,691,30,0.0648877168975923,1
733,692,30,0.0729972374973853,1
734,691,30,0.063645869176881,1
734,692,30,0.0679854780618382,1
734,693,30,0.0702553328830275,1
735,691,30,0.0655631815266801,1
735,692,30,0.0695543345174697,1
735,693,30,0.0697767728715997,1
736,691,30,0.0629139354807178,1
736,692,30,0.0718432246507433,1
736,693,30,0.0732739866397112,1
736,694,30,0.0728215913369941,1
737,691,30,0.0608787138790211,1
737,692,30,0.0737339654031905,1
737,693,30,0.0765968102949761,1
737,694,30,0.074904076887376,1
738,692,30,0.0700814263190009,1
738,693,30,0.074068144813295,1
738,694,30,0.0750187782056385,1
739,692,30,0.0654352769668572,1
739,693,30,0.0706855616002041,1
739,694,30,0.0742250210237592,1
739,695,30,0.0833461316518981,1
740,692,30,0.0583294091184381,1
740,693,30,0.0658313683167302,1
740,694,30,0.0710288812623936,1
740,695,30,0.0809564274865944,1
741,693,30,0.0599255035252832,1
741,694,30,0.067592152375338,1
741,695,30,0.0748733774342437,1
741,696,30,0.0834470046532964,1
742,694,30,0.0624785115621948,1
742,695,30,0.068802716846171,1
742,696,30,0.0734338702879583,1
743,695,30,0.0647201377467833,1
743,696,30,0.0685563958978832,1
743,697,30,0.0722991993941157,1
744,695,30,0.0605829648062318,1
744,696,30,0.0640248653068865,1
744,697,30,0.0659716328561469,1
745,695,30,0.0585571900973353,1
745,696,30,0.0621899862370212,1
745,697,30,0.0613780900774556,1
746,696,30,0.0576205383422135,1
746,697,30,0.0578542634334344,1
709,672,31,0.0572375322951642,1
709,673,31,0.0608355777861163,1
709,674,31,0.0826319595294641,1
710,672,31,0.0570040194936692,1
710,673,31,0.059027541572697,1
710,674,31,0.0674175912513234,1
710,675,31,0.0851933942891045,1
711,673,31,0.0584744560736232,1
711,674,31,0.061699089833747,1
711,675,31,0.0656741559808667,1
711,676,31,0.0710166687062205,1
712,674,31,0.0582965101078687,1
712,675,31,0.0601963675246537,1
712,676,31,0.0630648852696688,1
712,677,31,0.0671942447689217,1
713,675,31,0.0596113147310294,1
713,676,31,0.061614521862681,1
713,677,31,0.0642960949163404,1
713,678,31,0.0697079910004252,1
713,679,31,0.0776836334433875,1
714,676,31,0.0570678007624126,1
714,677,31,0.0606818741276661,1
714,678,31,0.0663513896910033,1
714,679,31,0.0710771771750238,1
714,680,31,0.0794254647470266,1
715,678,31,0.0624378403888846,1
715,679,31,0.0673778341032217,1
715,680,31,0.0732226655984877,1
716,679,31,0.0608617483917638,1
716,680,31,0.0673451237946307,1
716,681,31,0.0761795489418867,1
717,680,31,0.0608478434147208,1
717,681,31,0.0697140589484224,1
717,682,31,0.081250059559062,1
718,681,31,0.0612811090543644,1
718,682,31,0.0713282982298905,1
719,682,31,0.0643978170766422,1
719,683,31,0.0740662872781938,1
720,682,31,0.0573385173383624,1
720,683,31,0.0661709729087174,1
721,683,31,0.0612350716685397,1
721,684,31,0.0713371436351342,1
722,684,31,0.0652447351440358,1
723,684,31,0.0607124910236828,1
723,685,31,0.0674471879772686,1
724,684,31,0.057197102896264,1
724,685,31,0.0636597682569872,1
724,686,31,0.0719028426820854,1
725,685,31,0.059445198020554,1
725,686,31,0.066140108341354,1
726,686,31,0.058876556402125,1
726,687,31,0.0650642888770657,1
727,687,31,0.0572951158833003,1
727,688,31,0.0688605245179065,1
728,688,31,0.0581792436220854,1
728,689,31,0.0731864407155466,1
729,689,31,0.0602870211345272,1
729,690,31,0.078350930814967,1
730,690,31,0.0691121409154669,1
730,691,31,0.0828233446142521,1
731,690,31,0.0626126255964987,1
731,691,31,0.0733653066034465,1
732,691,31,0.065024219191312,1
732,692,31,0.0759233270366628,1
733,691,31,0.0604189650960781,1
733,692,31,0.069342581412874,1
733,693,31,0.0775527627243395,1
734,691,31,0.0570178890890912,1
734,692,31,0.064670119928599,1
734,693,31,0.0690711395136942,1
735,692,31,0.0643791119930203,1
735,693,31,0.068383993052748,1
735,694,31,0.0707633716816639,1
736,692,31,0.0633379547234134,1
736,693,31,0.0698733529029865,1
736,694,31,0.0718941977726939,1
737,692,31,0.0636109357231055,1
737,693,31,0.0718631209156047,1
737,694,31,0.0735237690899177,1
737,695,31,0.076625174561124,1
738,692,31,0.0601903703398985,1
738,693,31,0.0690625417797974,1
738,694,31,0.0733568327052231,1
738,695,31,0.0812307411940099,1
739,693,31,0.0644225193450192,1
739,694,31,0.0712044684534165,1
739,695,31,0.0833191354750945,1
740,693,31,0.0579297029462889,1
740,694,31,0.0671048236188454,1
740,695,31,0.0801276424999502,1
740,696,31,0.0974814017688735,1
741,694,31,0.0619334341033349,1
741,695,31,0.0727756424052218,1
741,696,31,0.0866753534836225,1
742,695,31,0.0649650021516743,1
742,696,31,0.0735248128477365,1
742,697,31,0.0795871764456907,1
743,695,31,0.0588908741647461,1
743,696,31,0.0662604294404147,1
743,697,31,0.0736147057527591,1
744,696,31,0.0600084026632265,1
744,697,31,0.0655672681039027,1
745,697,31,0.0595659790806874,1
745,698,31,0.0614438468200367,1
705,667,32,0.0575317009888833,1
707,672,32,0.0580547062131919,1
708,672,32,0.0574304269957805,1
708,673,32,0.0605606684880811,1
709,672,32,0.0585105925025119,1
709,673,32,0.0611748226649569,1
709,674,32,0.076883808313511,1
710,672,32,0.0569727185529804,1
710,673,32,0.0594052757582211,1
710,674,32,0.0643757979145223,1
710,675,32,0.0738255920076409,1
711,673,32,0.0571411940381874,1
711,674,32,0.0598449985436925,1
711,675,32,0.0605331769685839,1
711,676,32,0.0629382308604537,1
711,677,32,0.0683084179103464,1
712,675,32,0.0570535419691599,1
712,676,32,0.0584955317258504,1
712,677,32,0.0630266790159531,1
712,678,32,0.0717662873159342,1
713,676,32,0.0578002828737009,1
713,677,32,0.0608696620809884,1
713,678,32,0.0676578029730563,1
713,679,32,0.076143618905787,1
714,678,32,0.0628588875754183,1
714,679,32,0.0688148704329758,1
714,680,32,0.0769915512463152,1
715,678,32,0.0577283520382597,1
715,679,32,0.0639768052717294,1
715,680,32,0.0708752070886276,1
715,681,32,0.0805377980441606,1
716,680,32,0.0645896090500714,1
716,681,32,0.0745741373748517,1
717,680,32,0.0576241590614266,1
717,681,32,0.0676020297445268,1
717,682,32,0.0781189512170476,1
718,681,32,0.0591518843826752,1
718,682,32,0.0685008762376373,1
718,683,32,0.07839157840053,1
719,682,32,0.0624923811576168,1
719,683,32,0.0717545052361497,1
720,683,32,0.0659967950855966,1
720,684,32,0.0770830540150922,1
721,683,32,0.0615475149694921,1
721,684,32,0.0702500669184391,1
722,684,32,0.0634374419446569,1
722,685,32,0.0702228525549729,1
723,684,32,0.0579207572931192,1
723,685,32,0.0662884752719738,1
723,686,32,0.0744278874445535,1
724,685,32,0.0620525522272825,1
724,686,32,0.0690219236789187,1
725,685,32,0.0585153513305329,1
725,686,32,0.0638376847380576,1
725,687,32,0.0700139830524866,1
726,686,32,0.0590086124054756,1
726,687,32,0.0623507131472348,1
726,688,32,0.0725559284359069,1
727,688,32,0.0638548212364829,1
727,689,32,0.0806996512693086,1
728,689,32,0.0656976729649412,1
729,690,32,0.0688857162320404,1
730,690,32,0.0590034054102556,1
730,691,32,0.0719509675835476,1
731,691,32,0.0651633751066048,1
731,692,32,0.077782188948612,1
732,691,32,0.0606265431693988,1
732,692,32,0.0702254472071777,1
732,693,32,0.0841046605331605,1
733,692,32,0.0664225657185304,1
733,693,32,0.0745241962168461,1
734,692,32,0.0615776895952465,1
734,693,32,0.0683549093603069,1
734,694,32,0.0724834845669615,1
735,692,32,0.0582270500889588,1
735,693,32,0.0674030729928502,1
735,694,32,0.0707023089007987,1
736,693,32,0.066710955414157,1
736,694,32,0.0719799215433784,1
736,695,32,0.0737538203894941,1
737,693,32,0.0648228859740933,1
737,694,32,0.0718902468250184,1
737,695,32,0.0769032210295523,1
738,693,32,0.0599651250438378,1
738,694,32,0.0701258656349449,1
738,695,32,0.0809311060398503,1
739,694,32,0.0663235443552964,1
739,695,32,0.0807686159455248,1
739,696,32,0.0975343326738514,1
740,694,32,0.060612077983357,1
740,695,32,0.0763659805997383,1
740,696,32,0.0956911448199939,1
741,695,32,0.0687291761469754,1
741,696,32,0.0856654263914624,1
741,697,32,0.0954165480596106,1
742,695,32,0.059382401540261,1
742,696,32,0.0723882254494244,1
742,697,32,0.0815664420138162,1
743,696,32,0.0635647803985442,1
743,697,32,0.0747582869181504,1
744,697,32,0.064984367692221,1
744,698,32,0.0718709284599664,1
745,697,32,0.0576557961275146,1
745,698,32,0.0619081421412749,1
705,666,33,0.0600246546211275,1
705,667,33,0.0616057767053635,1
705,670,33,0.0599257747843773,1
706,671,33,0.0584624440133024,1
707,672,33,0.0579085093553252,1
708,672,33,0.0569785506235044,1
708,673,33,0.0603625962769288,1
708,674,33,0.0834169302754681,1
709,672,33,0.0580009674278684,1
709,673,33,0.0609322344776819,1
709,674,33,0.0716960253136156,1
709,675,33,0.104983732474186,1
710,673,33,0.058783260964552,1
710,674,33,0.0624389136313875,1
710,675,33,0.0673243017106872,1
710,676,33,0.0761498047925208,1
711,674,33,0.057157322160415,1
711,675,33,0.0577421272826925,1
711,676,33,0.0593778078264712,1
711,677,33,0.0654106985341536,1
712,677,33,0.059523621383444,1
712,678,33,0.0691625302406714,1
713,678,33,0.0643346019138343,1
713,679,33,0.0748191963786581,1
714,678,33,0.0579991747590724,1
714,679,33,0.0661372660178023,1
714,680,33,0.0752048206656594,1
715,679,33,0.060635229357348,1
715,680,33,0.069507778201204,1
715,681,33,0.0796951552559681,1
716,680,33,0.0631816858974426,1
716,681,33,0.074063415469958,1
716,682,33,0.0860833658922872,1
717,681,33,0.0658575743039987,1
717,682,33,0.0752503980904115,1
718,681,33,0.0568654414781856,1
718,682,33,0.0664403037045123,1
718,683,33,0.0755795945888953,1
719,682,33,0.0603112221632738,1
719,683,33,0.0698449650490913,1
719,684,33,0.084799390454869,1
720,683,33,0.0661188145024641,1
720,684,33,0.0756133073767472,1
721,683,33,0.0622171652188665,1
721,684,33,0.0708193807876666,1
721,685,33,0.0765954539995054,1
722,684,33,0.063853854138843,1
722,685,33,0.0707677648996016,1
723,684,33,0.0569078227631763,1
723,685,33,0.0660079992655719,1
723,686,33,0.0729915115717243,1
724,685,33,0.06117602564007,1
724,686,33,0.0663162970199334,1
724,687,33,0.0699605096293204,1
725,685,33,0.0583896168434631,1
725,686,33,0.0622332461655994,1
725,687,33,0.0660921367602493,1
725,688,33,0.0744358306184622,1
726,686,33,0.0579914851534473,1
726,687,33,0.0609714726953426,1
726,688,33,0.0680025143123374,1
726,689,33,0.079906625307596,1
727,688,33,0.0609317922074197,1
727,689,33,0.0716329634711654,1
731,691,33,0.0602402525285358,1
732,691,33,0.0575718237470684,1
732,692,33,0.0672486381142332,1
733,692,33,0.0646048762195219,1
734,692,33,0.0583523776873874,1
734,693,33,0.0685468192724727,1
735,693,33,0.0647822148007831,1
736,693,33,0.0593527517418844,1
736,694,33,0.0694264771331414,1
737,694,33,0.0662117915054483,1
738,694,33,0.0619536782874692,1
739,694,33,0.057136653396829,1
739,695,33,0.0738495158803565,1
740,695,33,0.0672716066831825,1
741,695,33,0.0597346137831888,1
741,696,33,0.0773128340555744,1
742,696,33,0.0654655223558536,1
744,697,33,0.0603156743505798,1
704,666,34,0.0586384262990928,1
704,667,34,0.0591266749777308,1
705,666,34,0.0599019511595878,1
705,667,34,0.0610058518370562,1
705,670,34,0.0596141452607074,1
706,670,34,0.0577313181974847,1
706,671,34,0.0577576421234898,1
707,673,34,0.0621540149223638,1
708,673,34,0.0587792746352556,1
708,674,34,0.0764813128902416,1
709,673,34,0.0584005379704706,1
709,674,34,0.0676310485706627,1
709,675,34,0.0873423854930448,1
709,676,34,0.117999923198295,1
710,660,34,0.0678034396219243,1
710,661,34,0.0669058196916742,1
710,674,34,0.0598677135443581,1
710,675,34,0.0646113746439076,1
710,676,34,0.0716566042909132,1
710,677,34,0.0795424245920947,1
711,676,34,0.0585640895134253,1
711,677,34,0.0646974168491808,1
711,678,34,0.0765405299298793,1
712,678,34,0.0667512727712574,1
712,679,34,0.0812344090887176,1
713,678,34,0.0605266431625772,1
713,679,34,0.0728240385657782,1
713,680,34,0.0844804015540363,1
714,679,34,0.0635257190889884,1
714,680,34,0.0755690331750344,1
714,681,34,0.085243783614309,1
715,679,34,0.0570767876941401,1
715,680,34,0.0699296686497043,1
715,681,34,0.0817880724876006,1
716,680,34,0.0627500242246165,1
716,681,34,0.074895485050416,1
716,682,34,0.0860584395403107,1
717,681,34,0.0651655982517894,1
717,682,34,0.0741130205025643,1
717,683,34,0.0817476312948267,1
718,682,34,0.0651716072304182,1
718,683,34,0.0730063423678494,1
719,682,34,0.0588885743593827,1
719,683,34,0.067989694371671,1
719,684,34,0.0800488948055346,1
720,683,34,0.065437629844652,1
720,684,34,0.0743785890526623,1
721,683,34,0.0617353029228144,1
721,684,34,0.0718861248661749,1
721,685,34,0.0762137216908112,1
722,684,34,0.0639337340451298,1
722,685,34,0.0703228351189101,1
722,686,34,0.0758736925193724,1
723,685,34,0.0636268220709231,1
723,686,34,0.0688223300580645,1
723,687,34,0.0708633778333484,1
724,685,34,0.0583260950399402,1
724,686,34,0.0621488904842593,1
724,687,34,0.0640455753490303,1
724,688,34,0.0707453211580301,1
725,686,34,0.0596470147865927,1
725,687,34,0.0618984004016333,1
725,688,34,0.0678744800199043,1
726,687,34,0.0583686945115935,1
726,688,34,0.0631943171361305,1
726,689,34,0.0700960448254002,1
727,688,34,0.0569420544814691,1
727,689,34,0.0634070845138608,1
727,690,34,0.0761703438234965,1
728,690,34,0.0664171169489004,1
729,690,34,0.0579949289645554,1
704,666,35,0.0573672531115305,1
704,667,35,0.0578384537457956,1
705,670,35,0.0597438071077053,1
706,670,35,0.0593068912641646,1
706,671,35,0.058212968203811,1
709,660,35,0.0689372259752425,1
709,661,35,0.064257741239204,1
710,660,35,0.0880534558267067,1
710,661,35,0.082393204351128,1
711,660,35,0.0595177716221096,1
718,682,35,0.0647936902398525,1
718,683,35,0.0727252176983963,1
719,682,35,0.0583211828915616,1
719,683,35,0.0674027427643877,1
719,684,35,0.0769379716782861,1
720,683,35,0.0636659423498472,1
720,684,35,0.0726426310981049,1
721,683,35,0.0592983701904465,1
721,684,35,0.0702372233900254,1
721,685,35,0.0740842021722806,1
722,684,35,0.0618440129532586,1
722,685,35,0.0676750043377867,1
722,686,35,0.0721951656345769,1
723,685,35,0.0601510318743117,1
723,686,35,0.0647966210174565,1
723,687,35,0.0674429834613094,1
724,686,35,0.0588310674314255,1
724,687,35,0.0612047732071118,1
724,688,35,0.0683858270001018,1
725,687,35,0.0594459410345944,1
725,688,35,0.0654392338114696,1
725,689,35,0.0731812337203265,1
726,688,35,0.0611023846929484,1
726,689,35,0.0661066137401647,1
726,690,35,0.078003766349965,1
727,689,35,0.0592679832749662,1
727,690,35,0.0689903219944516,1
728,690,35,0.0610905790254165,1
728,691,35,0.0734771243195996,1
729,691,35,0.0647494160381397,1
730,692,35,0.070803217283818,1
731,692,35,0.0661338222066941,1
732,692,35,0.061293610560442,1
732,693,35,0.0725025552606668,1
733,693,35,0.0692021222745419,1
734,693,35,0.0605727513116439,1
734,694,35,0.0705695452650286,1
735,694,35,0.0626941743359082,1
737,695,35,0.0605881541106414,1
738,695,35,0.0573819718658559,1
739,696,35,0.0700078148565634,1
740,696,35,0.0628190655610115,1
741,697,35,0.0681342813657834,1
742,697,35,0.0607969233652016,1
746,700,35,0.0719310359370652,1
705,670,36,0.0571210501019793,1
709,660,36,0.0687430575362711,1
709,661,36,0.0589623745237988,1
710,660,36,0.092347068604397,1
710,661,36,0.0811119768862721,1
711,660,36,0.0572651240625875,1
719,682,36,0.0581591881399297,1
719,683,36,0.0666687156556502,1
719,684,36,0.0742255222633897,1
720,683,36,0.0609276879393867,1
720,684,36,0.0692347618198909,1
720,685,36,0.073978434713314,1
721,684,36,0.0649482489541429,1
721,685,36,0.069269712964477,1
722,685,36,0.0613823476658462,1
722,686,36,0.0662294587281883,1
723,686,36,0.0587519187453054,1
723,687,36,0.0636661369487626,1
724,687,36,0.0580440032728471,1
724,688,36,0.0662910050578735,1
725,688,36,0.0634248873661478,1
725,689,36,0.0696638524282595,1
726,688,36,0.0580285532983549,1
726,689,36,0.063078990742564,1
726,690,36,0.0728260317304264,1
727,690,36,0.0635602574479963,1
727,691,36,0.07690095660581,1
728,691,36,0.0661746231126146,1
729,691,36,0.0596983712094372,1
729,692,36,0.0751035171878725,1
730,692,36,0.0679474546131642,1
730,693,36,0.0840627627969898,1
731,692,36,0.0640927744314103,1
731,693,36,0.0771599028958489,1
732,692,36,0.0586366513211073,1
732,693,36,0.0721987391782953,1
732,694,36,0.0785479061958691,1
733,693,36,0.066329458982936,1
733,694,36,0.0743811306324356,1
734,694,36,0.0661408041798998,1
734,695,36,0.0697773920499668,1
735,695,36,0.0628155215019772,1
737,696,36,0.062835747995301,1
738,696,36,0.0616069501957925,1
739,696,36,0.0604541167365163,1
739,697,36,0.071486442281773,1
740,697,36,0.0679204702302343,1
741,697,36,0.0620907702748718,1
741,698,36,0.0695104082350298,1
742,698,36,0.0637434398936551,1
743,698,36,0.0591349424831652,1
745,700,36,0.0703326240340464,1
746,699,36,0.0631697092187427,1
746,700,36,0.072871449937884,1
746,701,36,0.0665857634452754,1
747,700,36,0.0727122739220565,1
709,660,37,0.0582188002743349,1
710,660,37,0.078688784016716,1
710,661,37,0.066888677296312,1
719,682,37,0.0582190538426186,1
719,683,37,0.0662696935281732,1
720,683,37,0.0601373804655523,1
720,684,37,0.0675049779581936,1
721,684,37,0.0623196127023982,1
721,685,37,0.0664417189693513,1
722,685,37,0.0582367151684217,1
722,686,37,0.0627776926522186,1
723,687,37,0.0620062023038058,1
724,688,37,0.0653429132453032,1
725,688,37,0.0622664046413893,1
725,689,37,0.068232524333356,1
726,689,37,0.0615984821945059,1
726,690,37,0.0712776258517182,1
727,690,37,0.0621092040993995,1
727,691,37,0.073794467975057,1
728,691,37,0.063829322881634,1
729,691,37,0.0577678379272673,1
729,692,37,0.0722365267494961,1
730,692,37,0.0664849022377507,1
730,693,37,0.0802937945920466,1
731,692,37,0.0625246315051351,1
731,693,37,0.0751714322093331,1
732,693,37,0.0711442666253284,1
732,694,37,0.0782282568381115,1
733,693,37,0.0636791102097866,1
733,694,37,0.0724585700088586,1
734,694,37,0.0629146431131373,1
734,695,37,0.0685581237003741,1
735,695,37,0.0604524655942041,1
737,696,37,0.0581271441852004,1
740,697,37,0.0616956460226388,1
741,697,37,0.0584429428432086,1
745,699,37,0.0664450094601019,1
745,700,37,0.0720632157760892,1
746,699,37,0.0665722417691263,1
746,700,37,0.074214571651698,1
746,701,37,0.0662871484611873,1
747,699,37,0.0586578567059447,1
747,700,37,0.0664505761684686,1
720,683,38,0.0581753457468414,1
720,684,38,0.064677154974236,1
721,684,38,0.0587827715187952,1
721,685,38,0.0625242599981149,1
723,687,38,0.0609482210734255,1
724,688,38,0.0651342619294796,1
725,688,38,0.0614215269141386,1
725,689,38,0.0673537628070853,1
726,689,38,0.0604466335236802,1
726,690,38,0.0695593881923322,1
727,690,38,0.0609540472470127,1
727,691,38,0.0710487657333813,1
728,691,38,0.062043700925102,1
729,691,38,0.0569578700660447,1
729,692,38,0.0702888156903431,1
730,692,38,0.0653525016645873,1
730,693,38,0.0762149187689875,1
731,692,38,0.0615593265339607,1
731,693,38,0.0730445722093124,1
732,693,38,0.0696676618494511,1
732,694,38,0.077507686539218,1
733,693,38,0.0619133314456845,1
733,694,38,0.0711699300944085,1
734,694,38,0.0613244456431213,1
734,695,38,0.0675172789684191,1
735,695,38,0.0593967075090084,1
740,697,38,0.0591797474091926,1
741,697,38,0.056973768207736,1
745,698,38,0.0576044514985437,1
745,699,38,0.0690866012820601,1
745,700,38,0.071896922157509,1
746,698,38,0.0593502750284162,1
746,699,38,0.0742839019379976,1
746,700,38,0.0759017796294893,1
746,701,38,0.0643782687310537,1
747,699,38,0.0658097855279358,1
747,700,38,0.0662970081395655,1
720,683,39,0.0569780434869371,1
721,684,39,0.0575647356289998,1
721,685,39,0.0618877859153409,1
724,688,39,0.0671284172630986,1
725,688,39,0.0619715519029981,1
725,689,39,0.0688507414997071,1
726,689,39,0.0620681555221322,1
726,690,39,0.0716157974880559,1
727,690,39,0.0627668481853899,1
728,691,39,0.062614654142768,1
729,691,39,0.0574536550299503,1
729,692,39,0.0688452750392665,1
730,692,39,0.0648150902236052,1
731,692,39,0.0620574407879138,1
731,693,39,0.0730417534735081,1
732,692,39,0.0574547577571373,1
732,693,39,0.0684280136861771,1
733,693,39,0.0612414462572519,1
733,694,39,0.0684282908422081,1
734,694,39,0.0602668654044454,1
740,697,39,0.061123755192017,1
741,697,39,0.0587579100331238,1
744,698,39,0.0578449639640549,1
745,698,39,0.0614268400542216,1
745,699,39,0.0714160977223388,1
745,700,39,0.0694202381739762,1
746,698,39,0.067014889435265,1
746,699,39,0.0816564115790176,1
746,700,39,0.0754337161656173,1
746,701,39,0.063136780723489,1
747,698,39,0.0618799135046741,1
747,699,39,0.0734101469110949,1
747,700,39,0.0669158267934731,1
748,699,39,0.0573830981807903,1
724,688,40,0.0662234202648753,1
725,688,40,0.0604884722904825,1
725,689,40,0.0669577363235175,1
726,689,40,0.0611262142146747,1
729,691,40,0.0580583387262786,1
730,692,40,0.0640496324415687,1
731,692,40,0.0627227037162873,1
731,693,40,0.0720698616238956,1
732,692,40,0.0597385116584328,1
732,693,40,0.0672843499636702,1
733,693,40,0.061624251808449,1
733,694,40,0.066981111781108,1
734,694,40,0.060613770404227,1
741,697,40,0.0612273407843568,1
742,697,40,0.0590957160593781,1
745,698,40,0.063835774130525,1
745,699,40,0.0709304554897793,1
746,698,40,0.0717199491863312,1
746,699,40,0.0836681102997031,1
746,700,40,0.0719249974737523,1
747,698,40,0.0665884524484695,1
747,699,40,0.0765660695632861,1
747,700,40,0.0651357479575606,1
723,687,41,0.0656442467172696,1
724,687,41,0.0571087019162592,1
724,688,41,0.0678048784745106,1
725,688,41,0.0610181292595344,1
727,690,41,0.0634842872108272,1
728,690,41,0.057797865129601,1
728,691,41,0.0634966530873578,1
729,691,41,0.0589732071967538,1
731,692,41,0.0642296600260239,1
732,692,41,0.0620821194685435,1
732,693,41,0.067436443758366,1
733,692,41,0.0570838935030192,1
733,693,41,0.0624784290050792,1
733,694,41,0.0674896400255012,1
734,694,41,0.061891094096902,1
735,694,41,0.0576689168119593,1
735,695,41,0.064249632951064,1
736,695,41,0.0574160207791071,1
739,696,41,0.0573930227254736,1
743,697,41,0.0590240387922205,1
744,697,41,0.0574020391418853,1
746,699,41,0.0757671997371759,1
747,698,41,0.0675991048638595,1
747,699,41,0.0727095849188624,1
747,700,41,0.0610570077640486,1
724,687,42,0.0601002946298342,1
726,689,42,0.0640372252864803,1
727,689,42,0.0588045607003787,1
727,690,42,0.0663504756657948,1
728,690,42,0.0615054049435956,1
729,690,42,0.0578606026405257,1
729,691,42,0.0613924078400766,1
730,691,42,0.0575097054145108,1
730,692,42,0.0653329415251252,1
731,691,42,0.0571325727165433,1
731,692,42,0.066276186055622,1
732,692,42,0.064746957015482,1
732,693,42,0.069022189041076,1
733,692,42,0.0600555958486697,1
733,693,42,0.0643368604406399,1
734,693,42,0.0569771707402864,1
734,694,42,0.0639684139306216,1
735,694,42,0.059551708493561,1
735,695,42,0.066840133712335,1
736,695,42,0.0598667228589708,1
739,696,42,0.0590405973908366,1
746,697,42,0.0577209395886655,1
747,699,42,0.0662474856640748,1
725,688,43,0.0658623803075144,1
726,688,43,0.057687421399729,1
726,689,43,0.065133041263556,1
727,689,43,0.0597794069153425,1
728,690,43,0.0627044350059908,1
729,690,43,0.0586058870016699,1
729,691,43,0.0629159168514924,1
730,691,43,0.0577758105858602,1
731,691,43,0.0570352968466107,1
731,692,43,0.0668616162532033,1
732,692,43,0.0646414431247991,1
732,693,43,0.0711246298256875,1
733,692,43,0.0591362633970149,1
733,693,43,0.0657770221469134,1
734,693,43,0.0572975984937053,1
734,694,43,0.066530886551144,1
735,694,43,0.0603856061244359,1
729,690,44,0.0575265116844737,1
730,691,44,0.0587141665557256,1
731,691,44,0.058160349836485,1
731,692,44,0.0679176338036196,1
732,692,44,0.0649521350355132,1
733,692,44,0.0584138591507675,1
733,693,44,0.0668096819305496,1
734,693,44,0.0573960655448774,1
734,694,44,0.0676931374185362,1
735,694,44,0.0602725559484855,1
730,691,45,0.0592556527800566,1
731,691,45,0.0585372407600425,1
731,692,45,0.0686090968223247,1
732,692,45,0.0647814894775531,1
733,692,45,0.057800589514416,1
733,693,45,0.068154030207224,1
734,693,45,0.0580950648488502,1
731,691,46,0.0589137365888324,1
732,692,46,0.0652961446393117,1
733,692,46,0.0586263729602142,1
733,693,46,0.0691910596210506,1
734,693,46,0.0586980620212454,1
733,692,47,0.0580382773471861,1
757,679,57,0.0571876619004006,1
724,675,59,0.0651367740245688,1
725,676,59,0.0754630829110262,1
756,678,59,0.0569944900437534,1
725,675,60,0.0880299624303796,1
726,676,60,0.0684104820929842,1
726,674,61,0.0596117511043547,1
726,675,61,0.070924393438719,1
727,675,61,0.0601784526305669,1
735,683,61,0.0576880405780961,1
726,673,62,0.071157564217878,1
727,674,62,0.0842380079656766,1
727,675,62,0.0783449100424645,1
731,682,62,0.062223286239295,1
732,681,62,0.0645139867321752,1
732,682,62,0.0787127904465472,1
732,683,62,0.0706857797868668,1
733,681,62,0.0643664217849641,1
733,682,62,0.0815024425584101,1
733,683,62,0.0733994144860659,1
734,682,62,0.0713846965337239,1
734,683,62,0.0676201274436552,1
735,682,62,0.0586822818182908,1
735,683,62,0.0602099481701711,1
727,673,63,0.0663315818801944,1
732,681,63,0.0753295408795946,1
732,682,63,0.108527744332973,1
733,681,63,0.0858492221185514,1
733,682,63,0.134243955616162,1
734,681,63,0.0722400413238463,1
734,682,63,0.113090157182144,1
735,682,63,0.0721263483817815,1
735,683,63,0.0735959711844531,1
727,673,64,0.067284733264564,1
728,674,64,0.0572219643819354,1
