x,y,z,signal,cytoplasm.p
28,914,31,0.0590249115388712,1
28,915,31,0.0574134084360918,1
28,922,31,0.0618590619360464,1
28,923,31,0.0658243450649668,1
28,924,31,0.0649827696223404,1
28,925,31,0.061395704227764,1
29,911,31,0.0656171620864136,1
29,912,31,0.06204604790596,1
29,913,31,0.0612933275074743,1
29,925,31,0.0692218239404879,1
29,926,31,0.063797131503484,1
30,909,31,0.0867017422759327,1
30,910,31,0.0717588925571505,1
30,926,31,0.0614507934116214,1
30,927,31,0.0583450065163511,1
31,908,31,0.079111547211867,1
32,907,31,0.0739644235914081,1
33,906,31,0.0782869136687505,1
34,906,31,0.0768216781870797,1
35,905,31,0.0759812467501981,1
36,905,31,0.0714677489920248,1
37,905,31,0.0662453509729427,1
38,905,31,0.0629792145714158,1
39,905,31,0.0656572553599146,1
40,905,31,0.069455543134772,1
41,905,31,0.0691670590881562,1
43,906,31,0.0663173053961312,1
44,907,31,0.0632554094016798,1
45,907,31,0.0617696230951597,1
45,908,31,0.0578742776370323,1
45,946,31,0.0581681337930994,1
46,908,31,0.0601208926301782,1
46,909,31,0.0603571003318041,1
47,909,31,0.0642007296539404,1
48,910,31,0.0632171264877854,1
50,913,31,0.063447513912761,1
51,915,31,0.0601126015369965,1
51,916,31,0.0568467246006901,1
52,916,31,0.0591333208255372,1
52,917,31,0.0571834691783152,1
28,914,32,0.0637290159861712,1
28,915,32,0.0618596457327925,1
28,916,32,0.0582124964488646,1
28,918,32,0.056995227160857,1
28,919,32,0.0586841452503287,1
28,920,32,0.0604739835166935,1
28,921,32,0.0627135693611391,1
28,922,32,0.065116341138456,1
28,923,32,0.0656176515321704,1
28,924,32,0.0631127330151,1
28,925,32,0.060249628658094,1
29,911,32,0.0642491670930545,1
29,912,32,0.061989496281769,1
29,913,32,0.0619320542201169,1
29,914,32,0.0633466703960468,1
29,915,32,0.0620617573456727,1
29,916,32,0.059480078401898,1
29,917,32,0.0578044932865969,1
29,918,32,0.0583617007445142,1
29,919,32,0.0614054518643425,1
29,920,32,0.0674949708563947,1
29,921,32,0.0739984312261015,1
29,922,32,0.0755319237515689,1
29,923,32,0.0719733228710666,1
29,924,32,0.0670263707712712,1
29,925,32,0.064291589656603,1
29,926,32,0.0621565741929476,1
29,927,32,0.0592990660289924,1
30,909,32,0.075015900500466,1
30,910,32,0.0653852532517361,1
30,911,32,0.058876627165367,1
30,914,32,0.0581308238737818,1
30,915,32,0.0573465312755131,1
30,920,32,0.0637974027625781,1
30,921,32,0.0713346669216659,1
30,924,32,0.0607109460262335,1
30,925,32,0.0620572402920616,1
30,926,32,0.0612103399154785,1
30,927,32,0.0597952166029813,1
30,928,32,0.0575933062879368,1
31,908,32,0.0710019853335161,1
31,909,32,0.0636839810796074,1
31,910,32,0.0574498986811902,1
31,929,32,0.0581548833760445,1
32,907,32,0.0734949448626971,1
32,908,32,0.064861263238977,1
32,909,32,0.0576385947627842,1
32,929,32,0.0571835930139886,1
33,907,32,0.0746962747304557,1
33,908,32,0.0645705029747452,1
33,909,32,0.057525361781792,1
34,906,32,0.0780637853730115,1
34,907,32,0.0716007367113944,1
34,908,32,0.0623956065273147,1
35,906,32,0.0723280825907046,1
35,907,32,0.0656259367284153,1
35,908,32,0.0579526125458699,1
36,905,32,0.0737039617886042,1
36,906,32,0.0663469787822552,1
36,907,32,0.0601587745523682,1
37,905,32,0.0677279175519541,1
37,906,32,0.0626288539666524,1
37,907,32,0.0580071415207285,1
38,905,32,0.0661580291323775,1
38,906,32,0.0627790076691315,1
38,907,32,0.0583808068198405,1
39,905,32,0.0701739138762283,1
39,906,32,0.0687166628470241,1
39,907,32,0.0651777931171519,1
39,908,32,0.0571250777098335,1
40,905,32,0.0739857587088558,1
40,906,32,0.0772189371304449,1
40,907,32,0.0773011758114633,1
40,908,32,0.0696223792715405,1
41,906,32,0.0813576255837614,1
41,909,32,0.0639111782617585,1
42,906,32,0.077506754823199,1
42,908,32,0.0801110956952078,1
42,909,32,0.0651699383972956,1
43,906,32,0.0786903938804703,1
43,907,32,0.0761992270200853,1
43,908,32,0.0709238273327834,1
43,909,32,0.0622413485568026,1
44,906,32,0.0859749153270635,1
44,907,32,0.0739640225997038,1
44,908,32,0.0643918611704448,1
44,909,32,0.0597077237512481,1
45,907,32,0.069460685263687,1
45,908,32,0.0625416736525712,1
45,909,32,0.0611702879205353,1
45,910,32,0.0586271513558756,1
46,908,32,0.0653890921576118,1
46,909,32,0.0669341249884538,1
46,910,32,0.0663004283629264,1
47,909,32,0.0705740387308924,1
47,910,32,0.0712242762642254,1
47,911,32,0.0624008017286611,1
48,910,32,0.0680787381177902,1
48,911,32,0.0681527800566162,1
48,912,32,0.061096947717192,1
49,912,32,0.0721964452698688,1
49,913,32,0.061253346275773,1
50,913,32,0.0667403221595658,1
50,914,32,0.0605406130059253,1
51,915,32,0.0617739809314764,1
51,916,32,0.0570357273229992,1
52,916,32,0.0609641545967377,1
52,917,32,0.0577656442667669,1
53,917,32,0.0581457313300857,1
53,918,32,0.0582847752035788,1
28,914,33,0.0668668999086022,1
28,915,33,0.065643957767365,1
28,916,33,0.0615910520541012,1
28,917,33,0.0591689206331744,1
28,918,33,0.0596111496167982,1
28,919,33,0.0621413247143076,1
28,920,33,0.0659802659716647,1
28,921,33,0.0674164944210732,1
28,922,33,0.0647396860923717,1
28,923,33,0.0617569741656613,1
28,924,33,0.0597053649765165,1
28,925,33,0.0588409624914247,1
29,911,33,0.0653056505014802,1
29,912,33,0.0626824571224288,1
29,913,33,0.0632097612136858,1
29,914,33,0.064952005302903,1
29,915,33,0.0633234718465611,1
29,916,33,0.0603539513675374,1
29,917,33,0.0586311553759826,1
29,918,33,0.0589602103479825,1
29,919,33,0.0629426594600123,1
29,920,33,0.0711196646048774,1
29,921,33,0.0759396320669952,1
29,922,33,0.0714708920593547,1
29,923,33,0.0648406770325066,1
29,924,33,0.062081034432167,1
29,925,33,0.0627542464313861,1
29,926,33,0.062123852090483,1
29,927,33,0.0593961767846938,1
30,910,33,0.0638830026975891,1
30,911,33,0.0603423520927946,1
30,912,33,0.0582086339552416,1
30,913,33,0.0588315391863718,1
30,914,33,0.0602119944072508,1
30,915,33,0.0577460310548733,1
30,920,33,0.0640659669565852,1
30,921,33,0.0688824375351634,1
30,922,33,0.0629539933725978,1
30,925,33,0.0591968544229338,1
30,926,33,0.0607781828999588,1
30,927,33,0.0599938018476377,1
30,928,33,0.0592459051434781,1
30,929,33,0.0580812837074806,1
31,909,33,0.0628559450039406,1
31,910,33,0.0589142378284629,1
31,911,33,0.0570061541848013,1
31,929,33,0.0599116634145453,1
31,930,33,0.0578892027841467,1
32,908,33,0.0655231177378633,1
32,909,33,0.0592590671064807,1
32,910,33,0.0569584715536013,1
32,930,33,0.0572233914406481,1
33,907,33,0.0738932888424388,1
33,908,33,0.0642150002410668,1
33,909,33,0.057596508324635,1
34,907,33,0.0721706756559257,1
34,908,33,0.0630866095849472,1
35,906,33,0.0720732169809514,1
35,907,33,0.0675217960220302,1
35,908,33,0.0604369979289014,1
36,906,33,0.0664968966072611,1
36,907,33,0.0624190350573366,1
36,908,33,0.0571134902289644,1
37,906,33,0.0646787058686221,1
37,907,33,0.0613578399963845,1
38,905,33,0.0675550252610621,1
38,906,33,0.0667338944984221,1
38,907,33,0.0635388692581172,1
39,906,33,0.0707829907904943,1
39,907,33,0.0682582113901835,1
39,908,33,0.0612994013524082,1
40,906,33,0.0781349555036017,1
40,907,33,0.076973135112598,1
40,908,33,0.0705183716472258,1
40,909,33,0.0572598698918728,1
41,906,33,0.0851994976187226,1
41,907,33,0.0863554741453286,1
41,908,33,0.0792218199305709,1
41,909,33,0.063594943230425,1
42,905,33,0.0787798032366729,1
42,906,33,0.0896003226049025,1
42,907,33,0.0923069222584645,1
42,908,33,0.0840680759370728,1
42,909,33,0.0665516968412138,1
43,906,33,0.0925558378589572,1
43,907,33,0.0901288060835253,1
43,908,33,0.0792222680977699,1
43,909,33,0.065123069543378,1
44,907,33,0.0863254705307422,1
44,908,33,0.0741652909506174,1
44,909,33,0.0654535161924696,1
45,907,33,0.0762213641209417,1
45,908,33,0.072514036596673,1
45,909,33,0.0703321051036054,1
45,910,33,0.064092680080421,1
46,908,33,0.0729498143314058,1
46,909,33,0.0754790813006435,1
46,910,33,0.0730593145513851,1
46,911,33,0.0594038192148243,1
47,909,33,0.0737941023649736,1
47,910,33,0.075355475607769,1
47,911,33,0.067005365882286,1
48,910,33,0.0703825298104309,1
48,911,33,0.0711289286926359,1
48,912,33,0.0636932333734923,1
49,911,33,0.0746070127976738,1
49,912,33,0.073681229097128,1
49,913,33,0.0636818463884753,1
50,913,33,0.0708280374909317,1
50,914,33,0.0630096722501381,1
51,914,33,0.0672820383644332,1
51,915,33,0.0623260521574156,1
52,915,33,0.0641587965361487,1
52,916,33,0.061922908071095,1
52,917,33,0.0582704987195155,1
53,917,33,0.0601322442335742,1
53,918,33,0.0590670628433256,1
56,931,33,0.0596473744997393,1
57,931,33,0.0574594576157901,1
28,914,34,0.0663170400339739,1
28,915,34,0.0646578189183735,1
28,916,34,0.0625432068561467,1
28,917,34,0.0618973153652567,1
28,918,34,0.0621287229603038,1
28,919,34,0.0637931038956297,1
28,920,34,0.0677129983017765,1
28,921,34,0.0687111727988362,1
28,922,34,0.0629613055742659,1
28,923,34,0.0605032264264289,1
28,924,34,0.0642291646833302,1
28,925,34,0.0647277683830401,1
29,912,34,0.0623618937394628,1
29,913,34,0.0640778728720432,1
29,914,34,0.0647234518252812,1
29,915,34,0.0609864096363307,1
29,916,34,0.0583389385683539,1
29,917,34,0.0580583976956469,1
29,918,34,0.0592901675513173,1
29,919,34,0.0627490925085975,1
29,920,34,0.0699904483776017,1
29,921,34,0.0724066769647626,1
29,922,34,0.0661258672389117,1
29,923,34,0.065464024533899,1
29,924,34,0.0741683278730843,1
29,925,34,0.076743932971925,1
29,926,34,0.0677058453174029,1
29,927,34,0.0587056867605654,1
30,910,34,0.0604347983714642,1
30,911,34,0.0587636418557217,1
30,912,34,0.0588458274643087,1
30,913,34,0.061613177361084,1
30,914,34,0.0624333999954523,1
30,920,34,0.0622797317186231,1
30,921,34,0.0639526926970353,1
30,922,34,0.057853207881742,1
30,924,34,0.063105762835768,1
30,925,34,0.0671456952880078,1
30,926,34,0.0632404665637549,1
30,927,34,0.0589952322558104,1
30,928,34,0.0577351512064236,1
31,909,34,0.06080981406911,1
31,910,34,0.0577710281700918,1
31,913,34,0.0571659552759328,1
31,914,34,0.057491996913213,1
31,929,34,0.0586889984293391,1
31,930,34,0.0576174129656941,1
32,908,34,0.0647543930528234,1
32,909,34,0.0591589901915542,1
32,930,34,0.0570337223644773,1
33,908,34,0.0624849981927068,1
34,907,34,0.0714371497868187,1
34,908,34,0.0625795142962034,1
35,907,34,0.0683646039244539,1
35,908,34,0.0614500503975809,1
36,906,34,0.0672761473245409,1
36,907,34,0.06403685377946,1
36,908,34,0.059621610782733,1
37,906,34,0.0663418012717193,1
37,907,34,0.0639570977088466,1
37,908,34,0.0594848549207296,1
38,906,34,0.069048512967081,1
38,907,34,0.0674666124871836,1
38,908,34,0.0619369722654324,1
39,906,34,0.0711083542800392,1
39,907,34,0.0704660776114255,1
39,908,34,0.0653432493707025,1
40,906,34,0.0757519266707885,1
40,907,34,0.0751497137909916,1
40,908,34,0.0702944177803307,1
40,909,34,0.0579922399613614,1
41,906,34,0.0862332247479248,1
41,907,34,0.0855224138794834,1
41,908,34,0.0770442403768831,1
41,909,34,0.0617179777224105,1
42,906,34,0.100436628073024,1
42,907,34,0.102294104204818,1
42,908,34,0.086933415233137,1
42,909,34,0.0650875051173618,1
43,905,34,0.0885451129348319,1
43,906,34,0.104984947243173,1
43,907,34,0.107398268640477,1
43,908,34,0.0891488118427097,1
43,909,34,0.0668924336450721,1
44,906,34,0.0971591459650375,1
44,907,34,0.0978714310676862,1
44,908,34,0.0889924191810655,1
44,909,34,0.0759826148395425,1
45,907,34,0.0816730822194334,1
45,908,34,0.0900277738648326,1
45,909,34,0.088455054915578,1
45,910,34,0.0705118496350928,1
46,908,34,0.0842464169975949,1
46,909,34,0.0885866922364138,1
46,910,34,0.0778992313507958,1
46,911,34,0.0611700697338727,1
47,909,34,0.07437414865923,1
47,910,34,0.0744301931468536,1
47,911,34,0.0669724786655902,1
48,910,34,0.0681567192104181,1
48,911,34,0.0692993391751063,1
48,912,34,0.0632228465165096,1
49,911,34,0.0699673087974844,1
49,912,34,0.0708060714012433,1
49,913,34,0.0644148356363309,1
50,912,34,0.0731936113907307,1
50,913,34,0.071697358021339,1
50,914,34,0.062778022880681,1
51,914,34,0.0657991592477698,1
51,915,34,0.0602955716929294,1
52,915,34,0.0636959223766863,1
52,916,34,0.0611252589109084,1
52,917,34,0.0569918069374961,1
53,917,34,0.0602914379402122,1
53,918,34,0.0575768774219309,1
56,930,34,0.05692066629159,1
56,931,34,0.0654435444722916,1
56,932,34,0.0569325957947953,1
57,931,34,0.0675434259863193,1
57,932,34,0.0641315880696193,1
28,914,35,0.0665117922696914,1
28,915,35,0.0629799811732036,1
28,916,35,0.062471222948274,1
28,917,35,0.0639369891542594,1
28,918,35,0.0624670243292517,1
28,919,35,0.0620532539627651,1
28,920,35,0.0648705037389882,1
28,921,35,0.0662832623798169,1
28,922,35,0.0624780162195012,1
28,923,35,0.0636584709308848,1
28,924,35,0.0743906895670356,1
28,925,35,0.075285331544187,1
28,926,35,0.0616407278499495,1
29,912,35,0.0628878533291228,1
29,913,35,0.0663990310436455,1
29,914,35,0.0658418353796019,1
29,915,35,0.0594119923692694,1
29,917,35,0.057119540486151,1
29,918,35,0.0575418319263557,1
29,919,35,0.0590735081952798,1
29,920,35,0.0633300587249992,1
29,921,35,0.0645720715599417,1
29,922,35,0.0625269902798667,1
29,923,35,0.0731362518861942,1
29,924,35,0.095430783265116,1
29,925,35,0.098734247276771,1
29,926,35,0.0775432155836132,1
29,927,35,0.0609836970453893,1
30,911,35,0.0594791525828159,1
30,912,35,0.060417520346555,1
30,913,35,0.0657743685253403,1
30,914,35,0.0667475105255605,1
30,915,35,0.057378828798526,1
30,923,35,0.0609975961254955,1
30,924,35,0.0759097051125876,1
30,925,35,0.078961700150103,1
30,926,35,0.0666189867873705,1
30,927,35,0.058036797216042,1
31,910,35,0.0611575505369845,1
31,911,35,0.0589334677394626,1
31,912,35,0.0573109078801286,1
31,913,35,0.0598249430615368,1
31,914,35,0.0598804922064668,1
32,909,35,0.0610574087557529,1
32,910,35,0.0589286794267574,1
32,932,35,0.05748668377313,1
32,933,35,0.0584225335448431,1
33,908,35,0.0615278781698512,1
33,909,35,0.0572129597593974,1
33,933,35,0.0572704666873547,1
34,907,35,0.0686539960993414,1
34,908,35,0.0616345419632158,1
35,907,35,0.0671451409759459,1
35,908,35,0.0616388526240378,1
36,907,35,0.0652174736050749,1
36,908,35,0.0614130883975362,1
37,906,35,0.0673116409873152,1
37,907,35,0.0660669686338628,1
37,908,35,0.0623720954401771,1
38,906,35,0.0689396142346583,1
38,907,35,0.0689735628999833,1
38,908,35,0.0647261997978436,1
39,906,35,0.0687844835174955,1
39,907,35,0.0695901230270854,1
39,908,35,0.0659698460842877,1
40,906,35,0.0705480214456025,1
40,907,35,0.0711482293668775,1
40,908,35,0.0678393401733398,1
40,909,35,0.0575088208739864,1
41,906,35,0.0831798262394441,1
41,907,35,0.0829447153680684,1
41,908,35,0.0739746547768066,1
41,909,35,0.0595709207137501,1
42,906,35,0.104503898724403,1
42,907,35,0.106879597664738,1
42,908,35,0.0868530104994724,1
42,909,35,0.0624121238473729,1
43,905,35,0.0920950158335113,1
43,906,35,0.110062941073184,1
43,907,35,0.117728463608305,1
43,908,35,0.0952487920006967,1
43,909,35,0.0676899766603958,1
44,906,35,0.0908018352777028,1
44,907,35,0.101160960617614,1
44,908,35,0.0972178971466657,1
44,909,35,0.0839695145349114,1
44,910,35,0.0572245649310771,1
45,907,35,0.0834549596210789,1
45,908,35,0.101451078115731,1
45,909,35,0.103001701242687,1
45,910,35,0.0741394741611796,1
46,908,35,0.0895368656676847,1
46,909,35,0.096162274691017,1
46,910,35,0.0768827822465027,1
46,911,35,0.0600081962704375,1
47,909,35,0.0715609500786085,1
47,910,35,0.0684467128728621,1
47,911,35,0.0635620147351714,1
48,910,35,0.0625517338268016,1
48,911,35,0.0640744939272401,1
48,912,35,0.060320739819316,1
49,911,35,0.0634208951399145,1
49,912,35,0.0658300945783751,1
49,913,35,0.0635943594336789,1
50,912,35,0.067943462386931,1
50,913,35,0.0693079604967504,1
50,914,35,0.0615353201041295,1
51,914,35,0.0640942427686807,1
51,915,35,0.0589093433708948,1
52,915,35,0.0628165121873645,1
52,916,35,0.0606032384750502,1
55,931,35,0.0584856956352195,1
56,930,35,0.0606387203439509,1
56,931,35,0.0699162413245445,1
56,932,35,0.0617163855494667,1
57,931,35,0.0824847130168418,1
57,932,35,0.0800681600981552,1
57,933,35,0.0668256213507986,1
57,934,35,0.0617477572533974,1
27,918,36,0.0615105824541315,1
27,919,36,0.058248090359565,1
27,920,36,0.0599420503300256,1
27,921,36,0.0632889216936795,1
28,915,36,0.063217138281659,1
28,916,36,0.0642802203623965,1
28,917,36,0.0673629325438546,1
28,918,36,0.0630057684779572,1
28,919,36,0.060918429748565,1
28,920,36,0.0631539172219144,1
28,921,36,0.06583983042108,1
28,922,36,0.0646096881199745,1
28,923,36,0.068438262562386,1
28,924,36,0.0827166159545824,1
28,925,36,0.0841489170440628,1
28,926,36,0.0677634524932862,1
29,913,36,0.0684868946004155,1
29,914,36,0.0678680228740764,1
29,915,36,0.0591743576089308,1
29,916,36,0.0569171399233662,1
29,917,36,0.0583178924008109,1
29,918,36,0.0577027947140424,1
29,919,36,0.0586212956976043,1
29,920,36,0.0613828842870976,1
29,921,36,0.0624743719125408,1
29,922,36,0.0641537310674126,1
29,923,36,0.0824916360206791,1
29,924,36,0.113526530507496,1
29,925,36,0.118359813252974,1
29,926,36,0.0909619371126125,1
29,927,36,0.0646094463455645,1
30,911,36,0.0583507324420121,1
30,912,36,0.0597999223585709,1
30,913,36,0.0674014867168432,1
30,914,36,0.0694215001184577,1
30,915,36,0.0579025534491278,1
30,923,36,0.067692524137106,1
30,924,36,0.088776933315457,1
30,925,36,0.092011597765127,1
30,926,36,0.0744689301248839,1
30,927,36,0.0582693252290866,1
31,910,36,0.0624969807683435,1
31,911,36,0.0594134783973503,1
31,913,36,0.059658354596115,1
31,914,36,0.0602610097461741,1
32,909,36,0.0614595267750653,1
32,910,36,0.0600065510250622,1
34,908,36,0.0598501406726074,1
35,907,36,0.0648175079677052,1
35,908,36,0.0607104211988558,1
35,909,36,0.0571909052156566,1
36,907,36,0.0646543751072653,1
36,908,36,0.0615880446163184,1
36,909,36,0.0586098674340296,1
37,907,36,0.0654406254885612,1
37,908,36,0.0626108742062605,1
37,909,36,0.0584195084162498,1
38,907,36,0.067012023523966,1
38,908,36,0.0642322251935445,1
38,909,36,0.0576751970496823,1
39,907,36,0.0659531990316192,1
39,908,36,0.0636445010875367,1
40,907,36,0.065592271116058,1
40,908,36,0.0634902784986455,1
41,907,36,0.0785377398767757,1
41,908,36,0.0691073879843827,1
42,906,36,0.103949221052385,1
42,907,36,0.107972229295926,1
42,908,36,0.0850483709216667,1
42,909,36,0.0590411104243407,1
43,905,36,0.0935028210474035,1
43,906,36,0.109589865213007,1
43,907,36,0.121349288966227,1
43,908,36,0.0973316903366566,1
43,909,36,0.0664897377259506,1
44,906,36,0.0843012997886632,1
44,907,36,0.0998985797628639,1
44,908,36,0.0981665904467925,1
44,909,36,0.0845948257162679,1
45,907,36,0.0817915045048352,1
45,908,36,0.102454960847642,1
45,909,36,0.105706791280421,1
45,910,36,0.0708467543684272,1
46,907,36,0.0668730857953359,1
46,908,36,0.086458658745964,1
46,909,36,0.0944650655083636,1
46,910,36,0.0711385937720988,1
46,911,36,0.0574989965772292,1
47,908,36,0.0610483569577203,1
47,909,36,0.0668178197033737,1
47,910,36,0.0615657482981676,1
47,911,36,0.0597142929388758,1
48,910,36,0.0572632488366759,1
48,911,36,0.0589415111612974,1
49,911,36,0.0578500648144121,1
49,912,36,0.0608471298853645,1
49,913,36,0.0613785441415914,1
50,912,36,0.0621936187501079,1
50,913,36,0.0653883314527609,1
50,914,36,0.05938333325628,1
51,914,36,0.0618810810981663,1
51,915,36,0.0569178239680384,1
52,915,36,0.0605081208839971,1
52,916,36,0.0575094400523535,1
56,930,36,0.060081636721707,1
56,931,36,0.0689485775786385,1
56,932,36,0.0625618175887793,1
57,931,36,0.0920612617671016,1
57,932,36,0.0948342255477382,1
57,933,36,0.0873550698041641,1
57,934,36,0.0751714145185227,1
58,932,36,0.110416957778781,1
27,917,37,0.0689147173673659,1
27,918,37,0.0620429697049352,1
27,919,37,0.0579514862309356,1
27,920,37,0.0584128507745697,1
27,921,37,0.0623728207634071,1
27,922,37,0.06269121407362,1
27,923,37,0.0609411801308516,1
28,915,37,0.0646791540358211,1
28,916,37,0.0666109905410303,1
28,917,37,0.0695608388387922,1
28,918,37,0.0637163198811781,1
28,919,37,0.0601940854101008,1
28,920,37,0.0615463002005053,1
28,921,37,0.0659009108927557,1
28,922,37,0.0679582460075615,1
28,923,37,0.0726370466989278,1
28,924,37,0.0817944116946919,1
28,925,37,0.0829948865066103,1
28,926,37,0.0699658758418349,1
29,913,37,0.0691992386724325,1
29,914,37,0.0683462939355996,1
29,915,37,0.0598337118066016,1
29,916,37,0.0583185882393568,1
29,917,37,0.0597477285706967,1
29,918,37,0.0582049660605339,1
29,919,37,0.0582865383876907,1
29,920,37,0.0603356118939989,1
29,921,37,0.063084958442635,1
29,922,37,0.0672343911148541,1
29,923,37,0.0833591049129221,1
29,924,37,0.106974219913097,1
29,925,37,0.11266670994232,1
29,926,37,0.0916039779037531,1
29,927,37,0.0636970958671153,1
30,912,37,0.0585365744061808,1
30,913,37,0.0661182071179707,1
30,914,37,0.0683459047377689,1
30,915,37,0.0577405469036223,1
30,923,37,0.0691763644544725,1
30,924,37,0.08746638038375,1
30,925,37,0.091638622407624,1
30,926,37,0.0763991626632756,1
31,911,37,0.0590371123011706,1
31,913,37,0.0579965624160571,1
31,914,37,0.0585912743922074,1
31,925,37,0.0570957876246035,1
32,910,37,0.0605026603204933,1
35,908,37,0.0591637195348911,1
35,909,37,0.0570149877961713,1
36,907,37,0.0649682631577408,1
36,908,37,0.0618324372662631,1
36,909,37,0.0592040604797389,1
37,907,37,0.0662819296720935,1
37,908,37,0.0635382972552448,1
37,909,37,0.0596828917502609,1
38,907,37,0.0657521134857473,1
38,908,37,0.0634840631272277,1
38,909,37,0.0579785590679179,1
39,907,37,0.0633809257020869,1
39,908,37,0.0613384272803431,1
40,907,37,0.0623054423631979,1
40,908,37,0.0599873800834308,1
41,907,37,0.0743837075938299,1
41,908,37,0.0647061679034352,1
42,906,37,0.0980322346380786,1
42,907,37,0.102581756783341,1
42,908,37,0.0808302743170097,1
42,909,37,0.0583580564375538,1
43,905,37,0.091443923244338,1
43,906,37,0.102249499774643,1
43,907,37,0.114810305449062,1
43,908,37,0.09432963056021,1
43,909,37,0.0675858249621204,1
44,906,37,0.0793211597283937,1
44,907,37,0.0970985844238028,1
44,908,37,0.0979856547340656,1
44,909,37,0.0849306739594949,1
45,907,37,0.0822290808053008,1
45,908,37,0.102260880862723,1
45,909,37,0.102498621767924,1
45,910,37,0.067568069285328,1
46,908,37,0.0836506789544363,1
46,909,37,0.0885737189753898,1
46,910,37,0.0661627702695881,1
47,909,37,0.0630289021611377,1
47,910,37,0.0573333280339528,1
49,913,37,0.0579117998460758,1
50,913,37,0.0605660347005955,1
50,914,37,0.0578134802183244,1
51,913,37,0.0591797533061294,1
51,914,37,0.0601710224901623,1
56,931,37,0.0647163755010863,1
56,932,37,0.0611599446933371,1
57,931,37,0.087295835073716,1
57,932,37,0.0929557563208322,1
57,933,37,0.0934366515192444,1
57,934,37,0.0761018214175425,1
58,932,37,0.108902164439999,1
58,933,37,0.126347143424731,1
58,934,37,0.105843234604773,1
58,935,37,0.074244763968263,1
27,917,38,0.062334938841217,1
27,918,38,0.0573617394755953,1
27,921,38,0.0580858420396495,1
27,922,38,0.0594104237840729,1
27,923,38,0.0589879495388265,1
28,915,38,0.0643131665484606,1
28,916,38,0.0640429865937623,1
28,917,38,0.0657757955840529,1
28,918,38,0.0608856132951111,1
28,919,38,0.0574485305918458,1
28,920,38,0.0592531288910938,1
28,921,38,0.0651821273657213,1
28,922,38,0.0678436508341618,1
28,923,38,0.069748331945273,1
28,924,38,0.0696517224292021,1
28,925,38,0.0717793844126316,1
28,926,38,0.0634500731833448,1
29,913,38,0.0686031350191905,1
29,914,38,0.0678652984892614,1
29,915,38,0.0598194353225384,1
29,916,38,0.0570502337875987,1
29,917,38,0.0577661514033342,1
29,920,38,0.0592082001293929,1
29,921,38,0.0642336404583835,1
29,922,38,0.0676771154411715,1
29,923,38,0.0745384668039725,1
29,924,38,0.082534559823858,1
29,925,38,0.0893005754089431,1
29,926,38,0.0785615281199443,1
29,927,38,0.0587533929795127,1
30,913,38,0.062049497614005,1
30,914,38,0.064419110915532,1
30,923,38,0.062796928460155,1
30,924,38,0.0730044022756326,1
30,925,38,0.0798284732038001,1
30,926,38,0.0705900842960043,1
36,908,38,0.0608625326843621,1
36,909,38,0.0590557053429927,1
37,907,38,0.0650100193674276,1
37,908,38,0.0624781400551746,1
37,909,38,0.0594532532362625,1
38,907,38,0.0631350941995559,1
38,908,38,0.0612605818172623,1
38,909,38,0.0569622220054246,1
39,907,38,0.0599806398846352,1
39,908,38,0.0580685876024876,1
40,907,38,0.0582607098043793,1
41,907,38,0.0679539353467394,1
41,908,38,0.059854987954681,1
42,906,38,0.0883440096981495,1
42,907,38,0.0911619494159815,1
42,908,38,0.0745915274415607,1
42,909,38,0.0575102892112569,1
43,905,38,0.0858547770330444,1
43,906,38,0.0926112808590242,1
43,907,38,0.102463558581539,1
43,908,38,0.089020105299478,1
43,909,38,0.0674515576074589,1
44,906,38,0.0751900842205235,1
44,907,38,0.0927256165672034,1
44,908,38,0.0983657594881949,1
44,909,38,0.0829200425843755,1
45,907,38,0.0824355443575608,1
45,908,38,0.103496666532374,1
45,909,38,0.0964184789054304,1
45,910,38,0.0649208753733822,1
46,908,38,0.0818864805694045,1
46,909,38,0.0808322851724684,1
46,910,38,0.0629943284205088,1
47,909,38,0.0592924496658701,1
50,914,38,0.0569352199316842,1
51,914,38,0.0591177116337506,1
56,931,38,0.0603521115232467,1
56,932,38,0.0616342117347533,1
56,933,38,0.058080269434346,1
57,931,38,0.0742443747704322,1
57,932,38,0.0871699413693518,1
57,933,38,0.0961328961517345,1
57,934,38,0.0831525882882306,1
57,935,38,0.0572558186962712,1
58,933,38,0.132642960854812,1
58,934,38,0.117833771106198,1
58,935,38,0.0769760364055179,1
27,921,39,0.0570946672066059,1
27,922,39,0.0587369464226964,1
27,923,39,0.0570010061589495,1
28,915,39,0.0610263436925373,1
28,916,39,0.0580711173883873,1
28,917,39,0.058527563886706,1
28,920,39,0.0586910859449766,1
28,921,39,0.0655115774324888,1
28,922,39,0.0677599379189361,1
28,923,39,0.0653306888952565,1
28,924,39,0.0616172049689382,1
28,925,39,0.0622022931441835,1
28,926,39,0.057988112105581,1
29,913,39,0.066472713269325,1
29,914,39,0.0645120348460848,1
29,915,39,0.0584535927111219,1
29,920,39,0.0577252089709298,1
29,921,39,0.0639548863575357,1
29,922,39,0.0661361632906153,1
29,923,39,0.0652915214408377,1
29,924,39,0.0651241250950704,1
29,925,39,0.068755069596592,1
29,926,39,0.0649205510418567,1
30,913,39,0.0581642300209186,1
30,914,39,0.0585663008647362,1
30,924,39,0.0610339625349205,1
30,925,39,0.0669633914859366,1
30,926,39,0.0626058795007663,1
36,908,39,0.058158728178857,1
36,909,39,0.0568696695818921,1
37,908,39,0.059457375195106,1
37,909,39,0.0570850964781323,1
38,908,39,0.0578518397923976,1
42,907,39,0.0764578961540933,1
42,908,39,0.0673349103000428,1
43,906,39,0.0811051836150449,1
43,907,39,0.0888937634279149,1
43,908,39,0.0833260348911845,1
43,909,39,0.0669087622631519,1
44,906,39,0.0720443809598571,1
44,907,39,0.0884930017040732,1
44,908,39,0.0965283565293668,1
44,909,39,0.0788909545989644,1
45,906,39,0.0604873400786114,1
45,907,39,0.0836572422451271,1
45,908,39,0.102115745453485,1
45,909,39,0.0881210936921363,1
45,910,39,0.0621405345247725,1
46,907,39,0.0653728932721423,1
46,908,39,0.0803225008805306,1
46,909,39,0.0737212928859448,1
46,910,39,0.0600698959204802,1
47,909,39,0.0584380483856404,1
51,914,39,0.0597472273310662,1
51,915,39,0.0597684739944614,1
56,931,39,0.058144239405068,1
56,932,39,0.0614326426400615,1
57,931,39,0.0631726694810309,1
57,932,39,0.0766940212986036,1
57,933,39,0.0874505883869217,1
57,934,39,0.0787641822510127,1
58,933,39,0.121615948449639,1
58,934,39,0.113811647403182,1
58,935,39,0.0711819480516662,1
59,934,39,0.0950224321835753,1
27,922,40,0.0575413660683462,1
28,920,40,0.0575638157068545,1
28,921,40,0.0640770885794449,1
28,922,40,0.06460359658423,1
28,923,40,0.059272199584799,1
29,914,40,0.0610713727021642,1
29,921,40,0.0603327518796368,1
29,922,40,0.060993438785031,1
29,923,40,0.0570745527550819,1
42,908,40,0.062396939235038,1
43,907,40,0.082045898359642,1
43,908,40,0.0815621667346151,1
43,909,40,0.0670766244669287,1
44,906,40,0.0708563663754586,1
44,907,40,0.0891842170514316,1
44,908,40,0.0971855052726635,1
44,909,40,0.077659739055356,1
45,907,40,0.0867107940739653,1
45,908,40,0.100769698859004,1
45,909,40,0.0831743656759404,1
45,910,40,0.0600432417660128,1
46,908,40,0.0786184512511554,1
46,909,40,0.0702675395422637,1
46,910,40,0.0577053539846263,1
47,909,40,0.0581669426118599,1
51,914,40,0.0591383568095892,1
51,915,40,0.0611548674307273,1
56,932,40,0.0573287579079102,1
57,932,40,0.0651276809479784,1
57,933,40,0.0750028623731368,1
57,934,40,0.0654768916500601,1
58,933,40,0.102252790265393,1
58,934,40,0.0935680529626069,1
58,935,40,0.0596676953440523,1
59,934,40,0.0798620798467891,1
42,908,41,0.0574425452009643,1
43,907,41,0.0753412875777582,1
43,908,41,0.0768034979308356,1
43,909,41,0.0655689959063936,1
44,906,41,0.0687405690289292,1
44,907,41,0.0855929707286434,1
44,908,41,0.0908746919322262,1
44,909,41,0.0750079160479994,1
45,907,41,0.0840946475344247,1
45,908,41,0.0920928280699477,1
45,909,41,0.0780848079528071,1
45,910,41,0.0580550010600334,1
46,908,41,0.072065881191536,1
46,909,41,0.0665797721574571,1
57,932,41,0.0573611379880387,1
57,933,41,0.0617061366732577,1
58,932,41,0.0642923444645171,1
58,933,41,0.0763870208703445,1
58,934,41,0.0675520826895844,1
59,933,41,0.0654865390387125,1
43,907,42,0.0670237879129401,1
43,908,42,0.0685339875379326,1
43,909,42,0.0621924747443631,1
44,907,42,0.0776017898571366,1
44,908,42,0.0811881888978512,1
44,909,42,0.0718686817270345,1
45,908,42,0.0824506228250328,1
45,909,42,0.0749693088025793,1
45,910,42,0.0583359370275079,1
46,909,42,0.06467584585426,1
43,908,43,0.059129599858398,1
43,909,43,0.0570359219219146,1
44,908,43,0.0692896917864539,1
44,909,43,0.0659352487559114,1
45,909,43,0.0700042000342871,1
45,910,43,0.0584496948358779,1
46,909,43,0.0626661285043491,1
28,932,44,0.0648078959606738,1
29,932,44,0.0603388964878127,1
44,909,44,0.0588375245772533,1
45,909,44,0.0634425545888877,1
45,910,44,0.0570597160620199,1
46,909,44,0.0594701125786569,1
27,932,45,0.0582961091161643,1
28,931,45,0.0633316096193853,1
28,932,45,0.0937996256718852,1
28,933,45,0.0736896027474253,1
29,931,45,0.0573928870959266,1
29,932,45,0.083794116045867,1
29,933,45,0.0648900874661976,1
27,932,46,0.0638055110507181,1
28,931,46,0.070942473447037,1
28,932,46,0.111798374200364,1
28,933,46,0.0878514267709421,1
29,931,46,0.0621534429194913,1
29,932,46,0.0976612524452238,1
29,933,46,0.0756019439794775,1
27,932,47,0.0632859614313913,1
28,931,47,0.0729206598757228,1
28,932,47,0.10835686289754,1
28,933,47,0.0871553818323207,1
29,931,47,0.0633449661813032,1
29,932,47,0.0946381406042973,1
29,933,47,0.0754895424665783,1
59,942,47,0.0599051944748438,1
59,943,47,0.0713347494787815,1
60,942,47,0.0618364412863701,1
28,931,48,0.0690285223512304,1
28,932,48,0.0876709569162247,1
28,933,48,0.0731454864892686,1
29,931,48,0.0591246346375879,1
29,932,48,0.0776028513057658,1
29,933,48,0.0663158842343554,1
58,944,48,0.0659439644285448,1
58,945,48,0.0618874615838153,1
59,942,48,0.080192272927597,1
59,943,48,0.104430988997448,1
59,944,48,0.127695430855208,1
60,942,48,0.0861187062347039,1
60,943,48,0.112585780381278,1
60,944,48,0.135030005501606,1
28,932,49,0.0584476368049245,1
58,943,49,0.0628948942716967,1
58,944,49,0.0767856361091803,1
58,945,49,0.0768466988900455,1
58,946,49,0.0692295253399867,1
59,942,49,0.0935557224676973,1
59,943,49,0.131486241314166,1
59,944,49,0.158361754996333,1
60,942,49,0.107507444528931,1
60,943,49,0.154138899563655,1
60,944,49,0.177936754739227,1
60,945,49,0.157111026488757,1
61,943,49,0.0969423450825161,1
61,944,49,0.110410258858544,1
58,943,50,0.0648599423251273,1
58,944,50,0.0792611878808419,1
58,945,50,0.0877338418505701,1
58,946,50,0.0956085228380815,1
58,947,50,0.0671353815454937,1
59,942,50,0.0941629182591148,1
59,943,50,0.141737948052798,1
59,944,50,0.169603380520465,1
59,945,50,0.185606310779138,1
60,942,50,0.115424424244317,1
60,943,50,0.179617841696589,1
60,944,50,0.203186506525362,1
60,945,50,0.19999147538812,1
60,946,50,0.19729368575818,1
61,943,50,0.115768404363431,1
61,944,50,0.127497588624592,1
61,945,50,0.107497396148574,1
58,943,51,0.0668214934950182,1
58,944,51,0.0805908409909382,1
58,945,51,0.0925760820430914,1
58,946,51,0.111827564037668,1
58,947,51,0.0725159884827634,1
59,942,51,0.0865738377161098,1
59,943,51,0.136522366892691,1
59,944,51,0.162550030791445,1
60,943,51,0.177947286668403,1
60,944,51,0.201235162953122,1
60,945,51,0.21916817242983,1
29,937,52,0.0621756566805265,1
29,938,52,0.0678907378747421,1
30,937,52,0.0581835955614653,1
30,938,52,0.0634127101915957,1
30,939,52,0.0582602970188012,1
58,943,52,0.0649687761912449,1
58,944,52,0.0764875400555331,1
58,945,52,0.089547138131641,1
58,946,52,0.108798543466038,1
58,947,52,0.0708881390710938,1
59,942,52,0.0781085667112915,1
59,943,52,0.119027499822384,1
59,944,52,0.140883446524643,1
29,936,53,0.0592468781380549,1
29,937,53,0.0732101817832205,1
29,938,53,0.0831461429362764,1
29,939,53,0.0722258768815828,1
30,936,53,0.0568693098687455,1
30,937,53,0.0679795634341986,1
30,938,53,0.0801425027807595,1
30,939,53,0.0737397444012831,1
58,943,53,0.0583515933947892,1
58,944,53,0.0666792593787006,1
58,945,53,0.0759416900979486,1
58,946,53,0.0870428328960008,1
58,947,53,0.0615821889580471,1
59,942,53,0.0684640970426343,1
59,943,53,0.0910778944784197,1
59,944,53,0.10653766967964,1
59,945,53,0.136345741840786,1
28,929,54,0.0594634195553559,1
28,930,54,0.0577637631439184,1
28,935,54,0.060306180282285,1
28,936,54,0.0621919794016694,1
29,934,54,0.0594931813955323,1
29,935,54,0.0595304854179131,1
29,936,54,0.0633857729841605,1
29,937,54,0.0808023464241871,1
29,938,54,0.0967305978748572,1
29,939,54,0.0896620517396294,1
30,936,54,0.0573931229733997,1
30,937,54,0.0765880061682903,1
30,938,54,0.0947719715856335,1
30,939,54,0.0888270336907569,1
31,938,54,0.0596659911293087,1
39,916,54,0.0574388891001303,1
58,945,54,0.0583490164333949,1
58,946,54,0.0623943268920227,1
59,942,54,0.058697731792783,1
59,943,54,0.0682293458844051,1
59,944,54,0.0752392646736781,1
59,945,54,0.0896689098771616,1
28,929,55,0.0699194020826849,1
28,930,55,0.0667460539821637,1
28,935,55,0.0663716338751376,1
28,936,55,0.0665610140014038,1
28,937,55,0.065391775263869,1
29,930,55,0.0575871380920135,1
29,935,55,0.0600725849236743,1
29,936,55,0.0632261546980707,1
29,937,55,0.0778155950957488,1
29,938,55,0.0937857442825895,1
29,939,55,0.0923393966895823,1
30,937,55,0.0721402769465718,1
30,938,55,0.0910857374044024,1
30,939,55,0.089077382246899,1
30,940,55,0.0572443963296333,1
31,938,55,0.0581017873568353,1
38,914,55,0.0579925171173924,1
38,915,55,0.0587082932066439,1
38,916,55,0.0578914907956364,1
39,915,55,0.0624181328260018,1
39,916,55,0.0649775567301834,1
40,915,55,0.0573829802420537,1
40,916,55,0.0587751467794752,1
27,935,56,0.0633460512176797,1
28,929,56,0.0684291164133641,1
28,930,56,0.0663515783929819,1
28,935,56,0.0837941986029826,1
28,936,56,0.106985848672524,1
28,937,56,0.0960449964113601,1
28,938,56,0.0694894859031602,1
29,935,56,0.0703838507242806,1
29,936,56,0.0913685721855359,1
29,937,56,0.097070627046296,1
29,938,56,0.0926624957553849,1
29,939,56,0.0849553290523773,1
30,937,56,0.0712555713079774,1
30,938,56,0.0826097044898711,1
30,939,56,0.0800933695030996,1
38,914,56,0.0626186581628749,1
38,915,56,0.0612341222617102,1
38,916,56,0.0596653365693207,1
39,915,56,0.0629267082458896,1
39,916,56,0.0662925618491964,1
40,915,56,0.0583749098830114,1
40,916,56,0.0610599680263368,1
44,914,56,0.0607421703067436,1
44,915,56,0.0584343333154381,1
45,915,56,0.067953534355035,1
45,916,56,0.0587346937928277,1
27,935,57,0.067107459549608,1
27,936,57,0.0965460768245382,1
28,930,57,0.0585347227680165,1
28,935,57,0.0954346103771181,1
28,936,57,0.144519863383542,1
28,937,57,0.126192950320524,1
28,938,57,0.0768537988019878,1
29,935,57,0.0782669348467735,1
29,936,57,0.117741413281581,1
29,937,57,0.112941707694408,1
29,938,57,0.0878457008452811,1
29,939,57,0.0699330475945074,1
30,936,57,0.0627549304760583,1
30,937,57,0.0695211229692483,1
30,938,57,0.0711994560571118,1
30,939,57,0.0653826821872786,1
38,915,57,0.0574338000436468,1
39,915,57,0.0575245892830674,1
39,916,57,0.0593417834393823,1
40,916,57,0.0579736764042234,1
44,915,57,0.0661133952175182,1
44,916,57,0.0610104337569724,1
45,915,57,0.0818749815425877,1
45,916,57,0.0689120637457928,1
46,916,57,0.0639923731849582,1
27,935,58,0.0733344715207672,1
27,936,58,0.106064275384874,1
28,931,58,0.0622374035060639,1
28,932,58,0.0627719903143048,1
28,934,58,0.0598318483745636,1
28,935,58,0.109882376867477,1
28,936,58,0.16645373220906,1
28,937,58,0.139035983391584,1
28,938,58,0.076249751974837,1
29,930,58,0.060575263406733,1
29,931,58,0.0641870605543706,1
29,932,58,0.058962333245241,1
29,935,58,0.0901694831537724,1
29,936,58,0.133689643554228,1
29,937,58,0.118257524986737,1
29,938,58,0.0790086692519467,1
30,936,58,0.0692318251453501,1
30,937,58,0.0685883455016232,1
30,938,58,0.0619071986313823,1
44,915,58,0.0674851229718901,1
44,916,58,0.0628044116729912,1
44,918,58,0.0592401025576383,1
44,919,58,0.0688206671218787,1
44,920,58,0.0697042759302229,1
45,916,58,0.0725797343698859,1
45,917,58,0.0634283193833823,1
45,918,58,0.0666102652178003,1
45,919,58,0.0789618888520815,1
45,920,58,0.0820201346426357,1
45,921,58,0.0643433057925941,1
46,916,58,0.068035100785255,1
46,917,58,0.0584403599848774,1
46,918,58,0.0616370658521786,1
46,919,58,0.0717553602919899,1
46,920,58,0.074350236580388,1
46,921,58,0.0603655152606592,1
47,919,58,0.0588174337134766,1
47,920,58,0.0583267319091177,1
27,936,59,0.102959608907601,1
28,930,59,0.0577751855105563,1
28,931,59,0.0640429335213308,1
28,932,59,0.0602872098365058,1
28,934,59,0.0683636073421298,1
28,935,59,0.116999448895872,1
28,936,59,0.156920543635304,1
28,937,59,0.126945812245494,1
28,938,59,0.0706408097466081,1
29,930,59,0.0688155190960269,1
29,931,59,0.0733506468184894,1
29,932,59,0.0628833716571327,1
29,934,59,0.0623708275987588,1
29,935,59,0.099011786608632,1
29,936,59,0.129861812125857,1
29,937,59,0.10997068939343,1
29,938,59,0.0703848414096679,1
30,931,59,0.0581742489165912,1
30,935,59,0.0635877489674935,1
30,936,59,0.0736784811245657,1
30,937,59,0.0689194644015133,1
30,938,59,0.057058401045107,1
32,944,59,0.060799258552186,1
43,919,59,0.0582922348286676,1
43,920,59,0.0576208508798654,1
44,916,59,0.0594145516398532,1
44,917,59,0.0598977820252496,1
44,918,59,0.0762972223163111,1
44,919,59,0.105174474792859,1
44,920,59,0.107478183928385,1
44,921,59,0.0736450160080606,1
45,916,59,0.0700099436507587,1
45,917,59,0.0688931522693819,1
45,918,59,0.0927702858636838,1
45,919,59,0.136391726154179,1
45,920,59,0.14338050442492,1
45,921,59,0.0979828890706928,1
46,916,59,0.0703794103308484,1
46,917,59,0.0645128604172408,1
46,918,59,0.0826596161631925,1
46,919,59,0.118738667856496,1
46,920,59,0.126205015453277,1
46,921,59,0.0896807745140617,1
47,918,59,0.0616035476632421,1
47,919,59,0.07792879269512,1
47,920,59,0.0806369727277522,1
47,921,59,0.0610820166731407,1
27,936,60,0.0900432651178826,1
28,930,60,0.0575420383191447,1
28,931,60,0.0609054152089832,1
28,934,60,0.0710835281759887,1
28,935,60,0.109637571431955,1
28,936,60,0.129086046498243,1
28,937,60,0.101818693157657,1
29,930,60,0.0710577880467298,1
29,931,60,0.076828188405339,1
29,932,60,0.0675347221075596,1
29,933,60,0.0611620086212273,1
29,934,60,0.0689283274975674,1
29,935,60,0.0984788745304505,1
29,936,60,0.11451794711495,1
29,937,60,0.0940778077698606,1
29,938,60,0.0606578618008981,1
30,931,60,0.0600363777315437,1
30,932,60,0.0579840668069163,1
30,935,60,0.0673762596210883,1
30,936,60,0.0736493325658195,1
30,937,60,0.0656081515669388,1
32,944,60,0.0741725264921066,1
32,945,60,0.0642120104940944,1
43,919,60,0.0677307834632531,1
43,920,60,0.0663522329529699,1
44,917,60,0.0614078047421373,1
44,918,60,0.0942915599360414,1
44,919,60,0.14413072452219,1
44,920,60,0.14369661562058,1
44,921,60,0.0874054296446845,1
45,916,60,0.0649156978628463,1
45,917,60,0.0749479913759422,1
45,918,60,0.127449729085287,1
45,919,60,0.204317232368466,1
45,920,60,0.205569104881786,1
45,921,60,0.121227434663591,1
46,917,60,0.0712883464828735,1
46,918,60,0.112167911643695,1
46,919,60,0.174317049799301,1
46,920,60,0.175012900139007,1
46,921,60,0.105196824183442,1
47,918,60,0.0727953322772942,1
47,919,60,0.0978882196468386,1
47,920,60,0.0963553109181172,1
47,921,60,0.0625579433012826,1
28,934,61,0.0636937051284386,1
28,935,61,0.0847147045450664,1
28,936,61,0.0902164463586792,1
28,937,61,0.072658328743944,1
29,930,61,0.0668570343332871,1
29,931,61,0.0722673146566808,1
29,932,61,0.066016620587216,1
29,933,61,0.062999635663655,1
29,934,61,0.0658824534804806,1
29,935,61,0.0815787548179153,1
29,936,61,0.0872261509712066,1
29,937,61,0.0724374884596946,1
30,931,61,0.0599110560300519,1
30,932,61,0.0600301682570627,1
30,933,61,0.0582286127772185,1
30,935,61,0.0615637433396457,1
30,936,61,0.0650905715245129,1
30,937,61,0.0578115814046654,1
32,944,61,0.0700093244723916,1
32,945,61,0.0622429348328096,1
43,918,61,0.0641457937904406,1
43,919,61,0.0844443123006423,1
43,920,61,0.0820418176793563,1
44,917,61,0.0703094431753712,1
44,918,61,0.122820869551926,1
44,919,61,0.188244199324768,1
44,920,61,0.180768168957713,1
44,921,61,0.103225997131919,1
45,916,61,0.0627441390816611,1
45,917,61,0.0916285681303304,1
45,918,61,0.17601566245292,1
45,919,61,0.274257898805356,1
45,920,61,0.258768957354579,1
45,921,61,0.139806948912619,1
46,917,61,0.0878586564154946,1
46,918,61,0.153747602423424,1
46,919,61,0.231089325572524,1
46,920,61,0.213212053942725,1
46,921,61,0.115893891179154,1
47,917,61,0.0656903902479572,1
47,918,61,0.0900141283530101,1
47,919,61,0.119380879658804,1
47,920,61,0.108152628387401,1
47,921,61,0.065650273386709,1
28,935,62,0.065923118756854,1
28,936,62,0.0674668896432146,1
29,930,62,0.0672958371966132,1
29,931,62,0.0723419521861266,1
29,932,62,0.0670269191863963,1
29,933,62,0.0628587165642502,1
29,934,62,0.0602126489672388,1
29,935,62,0.0669300561020417,1
29,936,62,0.0697471702487177,1
29,937,62,0.0587637126189636,1
29,940,62,0.0571124169864615,1
30,930,62,0.0574639687724644,1
30,931,62,0.0665895846603407,1
30,932,62,0.0656898713175163,1
30,933,62,0.0597339120477061,1
30,936,62,0.0573662329414591,1
30,940,62,0.0622408768018562,1
43,918,62,0.0763001177122942,1
43,919,62,0.100103639844159,1
43,920,62,0.0962608537839889,1
43,921,62,0.062946775521919,1
44,917,62,0.083185316287632,1
44,918,62,0.150967479761477,1
44,919,62,0.219583788537544,1
44,920,62,0.204418305865716,1
44,921,62,0.113935353343983,1
45,916,62,0.0629406780892377,1
45,917,62,0.110161243010125,1
45,918,62,0.216052561237802,1
45,919,62,0.317255720335365,2
45,920,62,0.28554534352865,1
45,921,62,0.14918798472231,1
46,916,62,0.0704723283644643,1
46,917,62,0.104349906116048,1
46,918,62,0.19010621609792,1
46,919,62,0.26994084570377,1
46,920,62,0.234296174171171,1
46,921,62,0.121071826294545,1
47,917,62,0.0721028313977071,1
47,918,62,0.103577442773059,1
47,919,62,0.13359360604103,1
47,920,62,0.114238856888703,1
47,921,62,0.0668577950381381,1
29,930,63,0.0633795340249953,1
29,931,63,0.065928396515316,1
29,932,63,0.0623470334586535,1
29,936,63,0.0580655329892101,1
29,939,63,0.064564541171611,1
29,940,63,0.089221639012549,1
29,941,63,0.0664008001246943,1
30,930,63,0.0611998433679227,1
30,931,63,0.0687358043039713,1
30,932,63,0.0660332735368214,1
30,939,63,0.0680033634712408,1
30,940,63,0.0931045655217143,1
30,941,63,0.0699845514407726,1
31,940,63,0.0589172334723721,1
37,951,63,0.0730329965223169,1
38,951,63,0.0622417023730123,1
38,952,63,0.0746323106566706,1
42,919,63,0.0578441973622671,1
43,917,63,0.0637212084418095,1
43,918,63,0.0930892098982113,1
43,919,63,0.117158394931163,1
43,920,63,0.110371905181407,1
43,921,63,0.0730635426550916,1
44,916,63,0.0579873337099196,1
44,917,63,0.102341609927913,1
44,918,63,0.181443733834727,1
44,919,63,0.242727991853358,2
44,920,63,0.220248396905929,1
44,921,63,0.124074110154591,1
45,916,63,0.0692428052417258,1
45,917,63,0.131862442296114,1
45,918,63,0.250001132211871,2
45,919,63,0.340986008408749,2
45,920,63,0.301041149013895,2
45,921,63,0.159034430374301,1
45,922,63,0.0595727841457881,1
46,916,63,0.0727482511336507,1
46,917,63,0.120612053923855,1
46,918,63,0.218379869914517,1
46,919,63,0.291837186423308,2
46,920,63,0.251087465914526,1
46,921,63,0.130738509724238,1
47,917,63,0.078130597667285,1
47,918,63,0.114195561578503,1
47,919,63,0.141728453984504,1
47,920,63,0.121884742624182,1
47,921,63,0.0723015109933527,1
48,919,63,0.059688405386196,1
49,926,63,0.0588349771005432,1
50,926,63,0.0597475044870972,1
29,930,64,0.060400855603076,1
29,931,64,0.0648291190363216,1
29,932,64,0.0642835580286417,1
29,933,64,0.0570374433316165,1
29,939,64,0.0733807270932545,1
29,940,64,0.113320420771446,1
30,930,64,0.0672153381119593,1
30,931,64,0.0781299607981075,1
30,932,64,0.0727868583790708,1
30,939,64,0.0750449134296651,1
30,940,64,0.113449481130887,1
30,941,64,0.080553967444946,1
31,930,64,0.0590829138095221,1
31,931,64,0.0676363027413774,1
31,932,64,0.0592639615640488,1
31,940,64,0.063228696277844,1
37,950,64,0.0620025108213508,1
37,951,64,0.0904082029504875,1
38,951,64,0.0760803211858636,1
38,952,64,0.090389450691371,1
42,918,64,0.0585940931280117,1
42,919,64,0.0683219042048745,1
42,920,64,0.0663650175120154,1
43,917,64,0.073566852110391,1
43,918,64,0.112447225953542,1
43,919,64,0.138233598991124,1
43,920,64,0.127280003449472,1
43,921,64,0.0840906435143177,1
44,916,64,0.066088457071668,1
44,917,64,0.120826914714159,1
44,918,64,0.21690823035945,1
44,919,64,0.278833945372476,2
44,920,64,0.249028538626776,2
44,921,64,0.139551470021436,1
44,922,64,0.0631133757812144,1
45,916,64,0.0800959818461149,1
45,917,64,0.157211097506747,1
45,918,64,0.298018379195305,2
45,919,64,0.394543073726901,2
45,920,64,0.348741659726365,2
45,921,64,0.184269451612237,2
45,922,64,0.0719915679936158,1
46,916,64,0.0809346265111372,1
46,917,64,0.141228523474007,1
46,918,64,0.25417172899037,2
46,919,64,0.332384429709126,2
46,920,64,0.290702285548929,2
46,921,64,0.152085538984272,1
46,922,64,0.0615315283737484,1
47,917,64,0.0900113685865741,1
47,918,64,0.132840637971197,1
47,919,64,0.162677605122806,2
47,920,64,0.142659769011795,1
47,921,64,0.0839780709902504,1
48,918,64,0.0621008127582917,1
48,919,64,0.0674606388901757,1
48,920,64,0.0615196578399115,1
49,925,64,0.0642325672158806,1
49,926,64,0.0778519261235528,1
50,925,64,0.0608312671252942,1
50,926,64,0.0732920902357765,1
29,931,65,0.0628199147199148,1
29,932,65,0.0636341283756543,1
29,933,65,0.0577694477910216,1
29,939,65,0.0751587478982138,1
30,930,65,0.0664574225121272,1
30,931,65,0.0789940566424842,1
30,932,65,0.0723550610766976,1
30,933,65,0.0575102597265727,1
30,939,65,0.0760697243903817,1
30,940,65,0.113987824287888,1
30,941,65,0.0838548957737644,1
31,930,65,0.0630812020938749,1
31,931,65,0.0741976474429986,1
31,932,65,0.0632833313975655,1
31,940,65,0.0647413962040521,1
36,950,65,0.0607403894318212,1
37,950,65,0.0677001017009313,1
37,951,65,0.0970792070893824,1
38,950,65,0.0586170675938979,1
38,951,65,0.0840237191782444,1
38,952,65,0.0985080289861335,1
39,952,65,0.0635066366014094,1
42,918,65,0.0668341247337061,1
42,919,65,0.074990089607965,1
42,920,65,0.0711931876132625,1
42,921,65,0.0582849167300627,1
43,917,65,0.0858560389775259,1
43,918,65,0.128218194305106,1
43,919,65,0.149701183340672,1
43,920,65,0.131079105001612,1
43,921,65,0.0882539280911483,1
44,916,65,0.071531606920947,1
44,917,65,0.132962055900508,1
44,918,65,0.23072319655868,1
44,919,65,0.29020566911693,2
44,920,65,0.246396712132207,2
44,921,65,0.137447973685132,1
44,922,65,0.0680311262498322,1
45,916,65,0.0854041331205656,1
45,917,65,0.170666433116518,1
45,918,65,0.317422532884386,2
45,919,65,0.420449567367691,2
45,920,65,0.360052904486701,2
45,921,65,0.189166244367364,2
45,922,65,0.0790610281540521,1
46,916,65,0.0828694409694451,1
46,917,65,0.148471306401724,1
46,918,65,0.260334193090998,2
46,919,65,0.343610711403629,2
46,920,65,0.297062179094595,2
46,921,65,0.158291263013478,1
46,922,65,0.0689574760563136,1
47,917,65,0.098461537536173,1
47,918,65,0.143269358959565,1
47,919,65,0.174796211298286,2
47,920,65,0.153199258061561,1
47,921,65,0.0935639604884475,1
48,918,65,0.0700321927934148,1
48,919,65,0.074723282701133,1
48,920,65,0.0668830398247034,1
49,925,65,0.0706687140516834,1
49,926,65,0.0819714141505538,1
50,925,65,0.0652084100131686,1
50,926,65,0.0746372110111756,1
29,939,66,0.0664275545270878,1
30,930,66,0.0670244896484227,1
30,931,66,0.0770430256078963,1
30,932,66,0.0679174274108305,1
30,939,66,0.0695280105914647,1
30,940,66,0.0962567907945136,1
30,941,66,0.0771437334950635,1
31,930,66,0.0625731043258702,1
31,931,66,0.0729419478176758,1
31,932,66,0.0626913909817249,1
31,940,66,0.0605305351408844,1
36,950,66,0.0670156088615581,1
37,949,66,0.0568435579456129,1
37,950,66,0.0756364882354223,1
37,951,66,0.0979121671073015,1
38,950,66,0.0649161106484243,1
38,951,66,0.0852529179694573,1
39,951,66,0.061793936165706,1
39,952,66,0.0800823599220397,1
40,952,66,0.0589980156099938,1
42,918,66,0.0664732086120186,1
42,919,66,0.071677691737014,1
42,920,66,0.0671809530733089,1
42,921,66,0.0584586169013003,1
43,916,66,0.0589590722391745,1
43,917,66,0.0890970190465399,1
43,918,66,0.123283036078969,1
43,919,66,0.136708155784428,1
43,920,66,0.113804405964756,1
43,921,66,0.0810058615080326,1
43,922,66,0.0575532012205621,1
44,916,66,0.0746334841470996,1
44,917,66,0.131289189273085,1
44,918,66,0.206851405589145,1
44,919,66,0.25275724254705,2
44,920,66,0.201654482337165,1
44,921,66,0.116680353850176,1
44,922,66,0.067086206989276,1
45,916,66,0.0870422432023179,1
45,917,66,0.164522980740227,1
45,918,66,0.281976375833202,2
45,919,66,0.367361827457893,2
45,920,66,0.298603213802267,2
45,921,66,0.160660322002943,1
45,922,66,0.0774000084727188,1
46,917,66,0.143600401199277,1
46,918,66,0.230628892744909,1
46,919,66,0.297345727405085,2
46,920,66,0.246364656383604,1
46,921,66,0.137760475955452,1
46,922,66,0.0693338657402406,1
47,918,66,0.138206933042783,1
47,919,66,0.161249626488021,1
47,920,66,0.137186232247036,1
47,921,66,0.0891556110108737,1
48,920,66,0.0685214801349181,1
49,925,66,0.0625091874275797,1
49,926,66,0.0679482094210784,1
50,925,66,0.0594654893801829,1
50,926,66,0.0637547384246197,1
30,932,67,0.0607043709416691,1
30,939,67,0.0598837885941542,1
30,940,67,0.0728582054177659,1
30,941,67,0.0654648677958656,1
31,930,67,0.0585227578831903,1
31,931,67,0.0641964897563603,1
31,932,67,0.057141347358545,1
36,949,67,0.0576370261775876,1
37,949,67,0.0598234924150768,1
37,950,67,0.0765573833753368,1
38,950,67,0.0650982847178854,1
38,951,67,0.079727765316633,1
39,951,67,0.0648425699492288,1
39,952,67,0.0949546999671564,1
40,952,67,0.0750021547407174,1
42,918,67,0.0657692558811094,1
42,919,67,0.068669811683917,1
42,920,67,0.0647595882541699,1
42,921,67,0.0587981566269823,1
43,917,67,0.087571888377496,1
43,918,67,0.113264034261486,1
43,919,67,0.121052732013093,1
43,920,67,0.100213440807916,1
43,921,67,0.0765751980214975,1
43,922,67,0.0592244638811676,1
44,917,67,0.12479063515482,1
44,918,67,0.17928335564577,1
44,919,67,0.20786865077991,1
44,920,67,0.162623589181451,1
44,921,67,0.102552048015596,1
44,922,67,0.0692016741073429,1
45,917,67,0.148741551222728,1
45,918,67,0.2321280120256,1
45,919,67,0.286064226794115,2
45,920,67,0.226796992430126,1
45,921,67,0.131567041142598,1
45,922,67,0.0774353547120724,1
46,918,67,0.195265151282848,1
46,919,67,0.236240795235426,1
46,920,67,0.193492673598508,1
46,921,67,0.118815729026978,1
46,922,67,0.0723248392754486,1
47,920,67,0.117649739501636,1
47,921,67,0.0837956492494426,1
47,922,67,0.0585276287530111,1
34,945,68,0.0615099809665749,1
34,946,68,0.0569514954773325,1
35,934,68,0.0698291612583893,1
35,935,68,0.0660724940636716,1
35,944,68,0.0582553848704226,1
35,945,68,0.0702186185543296,1
35,946,68,0.0645583670787509,1
36,934,68,0.0681288561839006,1
36,935,68,0.062129094467324,1
36,945,68,0.0612893588689883,1
36,946,68,0.0614163494036027,1
37,934,68,0.0660289274943783,1
37,949,68,0.0572391244681081,1
37,950,68,0.0704937873175853,1
38,934,68,0.0644166224081901,1
38,950,68,0.0621317834705181,1
38,951,68,0.0858317377008532,1
39,951,68,0.0826483294261016,1
40,951,68,0.0656349826295111,1
40,952,68,0.0949819674030541,1
42,920,68,0.0573792533779777,1
43,920,68,0.0794320162438437,1
43,921,68,0.067036867318827,1
43,922,68,0.0574247718333614,1
44,918,68,0.133194560325805,1
44,919,68,0.143135793340386,1
44,920,68,0.113975216636948,1
44,921,68,0.0826535364213217,1
44,922,68,0.0655731178652372,1
45,918,68,0.162093808376726,1
45,919,68,0.182215513133044,1
45,920,68,0.14562220137275,1
45,921,68,0.0971764534746309,1
45,922,68,0.0703848119249838,1
46,920,68,0.130641682021504,1
46,921,68,0.0915334210545931,1
46,922,68,0.0671362307043971,1
53,942,68,0.0634857378572871,1
53,943,68,0.0671819024801384,1
54,942,68,0.0583765020559552,1
54,943,68,0.0623662456788426,1
32,941,69,0.0575987373667564,1
34,934,69,0.0684059591424363,1
34,935,69,0.066067269377641,1
34,944,69,0.064116521396021,1
34,945,69,0.0721573367848183,1
34,946,69,0.0671971047832838,1
35,933,69,0.0667632789346415,1
35,934,69,0.100170688015905,1
35,935,69,0.0986818588899814,1
35,936,69,0.073238109676043,1
35,943,69,0.0577448398736338,1
35,944,69,0.0766975771515116,1
35,945,69,0.0910490112818308,1
35,946,69,0.0817852478548595,1
35,947,69,0.0622256037354689,1
36,933,69,0.0716382235388169,1
36,934,69,0.104263822632217,1
36,935,69,0.101186871758041,1
36,936,69,0.0758697592625074,1
36,944,69,0.0728706066759175,1
36,945,69,0.0910922358287881,1
36,946,69,0.0875439663816103,1
36,947,69,0.0661304196741438,1
37,933,69,0.0775265036646396,1
37,934,69,0.0961879145723499,1
37,935,69,0.0843812917367498,1
37,936,69,0.062047946719619,1
37,945,69,0.0696639231915015,1
37,946,69,0.0741874752269684,1
37,947,69,0.0615561009095152,1
38,933,69,0.0724700926234226,1
38,934,69,0.0833547529735422,1
38,935,69,0.069733601397074,1
38,946,69,0.0597171647471115,1
38,950,69,0.060035711377682,1
40,951,69,0.0722833838095401,1
49,950,69,0.0579785649648547,1
50,950,69,0.0633105752457159,1
53,942,69,0.0715989145579142,1
53,943,69,0.0748972128529069,1
54,942,69,0.0663635491747449,1
54,943,69,0.0687757737417989,1
32,941,70,0.0577647243446215,1
34,934,70,0.0710751309379441,1
34,935,70,0.0710481052764564,1
34,936,70,0.0610266031577578,1
34,943,70,0.0588089480213796,1
34,944,70,0.0692685571648584,1
34,945,70,0.0760421915923267,1
35,933,70,0.072673955626541,1
35,934,70,0.106612289518275,1
35,935,70,0.108929007296445,1
35,936,70,0.084278260456472,1
35,937,70,0.0616505521467067,1
35,943,70,0.0651416389974528,1
35,944,70,0.0840190900828336,1
35,945,70,0.0972730452998913,1
35,946,70,0.0878749791366375,1
36,933,70,0.0801556234652042,1
36,934,70,0.115358189849853,1
36,935,70,0.116093844513155,1
36,936,70,0.0896823784808792,1
36,937,70,0.0644584611749925,1
36,943,70,0.0604210290239683,1
36,944,70,0.081540159366369,1
36,945,70,0.100575949102548,1
36,946,70,0.0959415641393779,1
36,947,70,0.0709282382415315,1
37,933,70,0.0844919595502213,1
37,934,70,0.106296815191792,1
37,935,70,0.0979609996411832,1
37,936,70,0.0746261778423684,1
37,937,70,0.0571378681658158,1
37,944,70,0.0624605848742344,1
37,945,70,0.0794809549225883,1
37,946,70,0.082198298795053,1
37,947,70,0.0652919931957841,1
38,933,70,0.0758498276160251,1
38,934,70,0.0873156133998407,1
38,935,70,0.07632658906172,1
38,936,70,0.0585482503411024,1
38,945,70,0.0619680432255848,1
38,946,70,0.0657175338481815,1
39,934,70,0.0581510031916109,1
53,942,70,0.0625716477824734,1
53,943,70,0.066118230705718,1
