x,y,z,signal,cytoplasm.p
105,568,15,0.0788304933056558,1
104,568,16,0.0874767295078851,1
105,567,16,0.0850006705996562,1
105,568,16,0.0998263186989602,1
105,569,16,0.0858220962091377,1
106,568,16,0.0879563096893843,1
104,568,17,0.0921318893795035,1
105,567,17,0.0861024601737398,1
105,568,17,0.109261889380447,1
105,569,17,0.0905611459040867,1
106,568,17,0.0919779970190748,1
104,568,18,0.086833981084325,1
104,569,18,0.0806802916256987,1
105,567,18,0.07728362652746,1
105,568,18,0.104107223577784,1
105,569,18,0.0929249212381529,1
105,570,18,0.0764496876180272,1
106,568,18,0.0858992517306094,1
106,569,18,0.0801812161710425,1
104,568,19,0.0779541790081692,1
104,569,19,0.0848248357372865,1
104,570,19,0.0821969130148981,1
105,567,19,0.0673170779630716,1
105,568,19,0.0914582528008327,1
105,569,19,0.100096563519964,1
105,570,19,0.092920504432468,1
105,571,19,0.0814103441990134,1
106,568,19,0.0764611630570966,1
106,569,19,0.0823411343989271,1
106,570,19,0.0805450394825867,1
104,569,20,0.0880939559888489,1
104,570,20,0.0951765958030982,1
105,568,20,0.0763398571695854,1
105,569,20,0.108781642845086,1
105,570,20,0.119536417264608,1
105,571,20,0.0976618775205277,1
106,569,20,0.0859386255778173,1
106,570,20,0.0954693256442309,1
96,536,21,0.057223810123163,1
97,536,21,0.0601871683032003,1
99,564,21,0.0657442174873331,1
100,540,21,0.0797323413396123,1
100,541,21,0.0642664510149006,1
100,564,21,0.0633013701273257,1
101,541,21,0.089463053709395,1
101,565,21,0.0650356356610131,1
103,538,21,0.0715282987393859,1
103,539,21,0.0701590594923558,1
104,538,21,0.0692122060365197,1
104,539,21,0.0671543401973993,1
104,540,21,0.0708163969376311,1
104,569,21,0.0913616373878249,1
104,570,21,0.105755193337914,1
105,539,21,0.0627667302466533,1
105,540,21,0.0669186337354038,1
105,568,21,0.0744230814410378,1
105,569,21,0.120434792002772,1
105,570,21,0.144601476989256,1
105,571,21,0.110113171181094,1
106,569,21,0.0934446772502687,1
106,570,21,0.111754170761893,1
106,571,21,0.0929006199614803,1
107,570,21,0.0762473224368634,1
88,545,22,0.0589185956647796,1
88,546,22,0.0616147223585332,1
96,534,22,0.0610286552917743,1
96,535,22,0.0601580315383278,1
96,536,22,0.0581779286051725,1
97,534,22,0.066956680771825,1
97,535,22,0.0634995602772145,1
97,536,22,0.0607579505096982,1
97,537,22,0.0574654135219875,1
98,534,22,0.0809199136537487,1
98,535,22,0.0700193610588747,1
98,536,22,0.0657336737642827,1
98,537,22,0.0635705888813209,1
98,538,22,0.057408466803029,1
98,564,22,0.0604238536567094,1
99,534,22,0.0978957441382325,1
99,535,22,0.0790862788375543,1
99,536,22,0.072327758259179,1
99,537,22,0.0705523085186772,1
99,538,22,0.0630766732463902,1
99,564,22,0.0686233968941353,1
99,565,22,0.0741531963331809,1
100,535,22,0.0816806479893851,1
100,536,22,0.0746415983321764,1
100,537,22,0.0745558450768078,1
100,538,22,0.0693136923193483,1
100,539,22,0.0625339427683882,1
100,540,22,0.0639425794503734,1
100,564,22,0.0675663827613949,1
100,565,22,0.0752513180125568,1
100,566,22,0.0744725803287811,1
101,535,22,0.0786951232238072,1
101,536,22,0.0713588738473493,1
101,537,22,0.072136267029528,1
101,538,22,0.0712930935170209,1
101,539,22,0.0735227489198463,1
101,540,22,0.0830495982865106,1
101,541,22,0.0720258822690243,1
101,565,22,0.0640451330787681,1
101,566,22,0.0712151006305194,1
102,536,22,0.068001458760645,1
102,537,22,0.0674002247723617,1
102,538,22,0.0670422040466573,1
102,539,22,0.0669786291707029,1
102,540,22,0.0745341266584663,1
102,541,22,0.0669660804891306,1
103,536,22,0.0695108976807866,1
103,537,22,0.0677437331365297,1
103,538,22,0.0683555580233581,1
103,539,22,0.0673526836676456,1
103,540,22,0.0682219511256215,1
103,541,22,0.064068113441591,1
104,537,22,0.0683004688395008,1
104,538,22,0.0686108364186893,1
104,539,22,0.0679189075419746,1
104,540,22,0.067691038109025,1
104,541,22,0.0644266177161154,1
104,570,22,0.101908751176911,1
105,538,22,0.0652523952649767,1
105,539,22,0.0651612581062832,1
105,540,22,0.0657516771124219,1
105,541,22,0.0638588134627162,1
105,568,22,0.0777327372363633,1
105,569,22,0.122984026000113,1
105,570,22,0.149445008610943,1
105,571,22,0.112456236473017,1
106,539,22,0.0587659888365797,1
106,540,22,0.0601073650570923,1
106,541,22,0.059570130524215,1
106,568,22,0.067092451845378,1
106,569,22,0.0986719461391717,1
106,570,22,0.123585572526049,1
106,571,22,0.101231794622805,1
107,568,22,0.0572773955881289,1
107,569,22,0.0727794872080344,1
107,570,22,0.088041608880617,1
108,569,22,0.0645009721925934,1
87,545,23,0.119782425675244,1
87,546,23,0.105574865009681,1
87,547,23,0.0762106847683443,1
88,545,23,0.0583456197977813,1
88,546,23,0.0581477185977971,1
95,535,23,0.0587294985914813,1
95,536,23,0.0599256745364512,1
95,563,23,0.0578660985856504,1
96,533,23,0.0643454994530945,1
96,534,23,0.0588173275686137,1
96,535,23,0.0612368938220199,1
96,536,23,0.061300203335817,1
96,563,23,0.0613704299565146,1
96,564,23,0.06884370645407,1
97,533,23,0.0759784987776358,1
97,534,23,0.0649507197706743,1
97,535,23,0.0630642307096808,1
97,536,23,0.0616532116652167,1
97,537,23,0.0584086403616738,1
97,563,23,0.0589653111983396,1
97,564,23,0.0692866489670501,1
98,533,23,0.100439694480175,1
98,534,23,0.0772774760223472,1
98,535,23,0.0690413187041495,1
98,536,23,0.0664984475016471,1
98,537,23,0.0646408652249898,1
98,564,23,0.066231675976436,1
98,565,23,0.0694216711296257,1
99,533,23,0.123425907064464,1
99,534,23,0.0926980130059065,1
99,535,23,0.0779033651035129,1
99,536,23,0.0711293414782139,1
99,537,23,0.067058845202389,1
99,538,23,0.0582915095054376,1
99,564,23,0.0689664629880411,1
99,565,23,0.0784986078039779,1
99,566,23,0.0716871032481932,1
100,533,23,0.123030411305211,1
100,534,23,0.0944611735300564,1
100,535,23,0.0797806077675584,1
100,536,23,0.0715722721973204,1
100,537,23,0.0669182563314467,1
100,538,23,0.0601138457906674,1
100,564,23,0.0659082230944237,1
100,565,23,0.0776834388444721,1
100,566,23,0.0722594953184454,1
100,567,23,0.0588910569697878,1
101,534,23,0.0923427638405117,1
101,535,23,0.0769524014827069,1
101,536,23,0.0686827023878254,1
101,537,23,0.065803876797233,1
101,538,23,0.0618725423336377,1
101,539,23,0.0581875347152671,1
101,540,23,0.058108356544463,1
101,565,23,0.0601690588101982,1
101,566,23,0.0628419161912242,1
101,567,23,0.0596521864001918,1
102,534,23,0.0886798343536292,1
102,535,23,0.0731559535521402,1
102,536,23,0.0658866520995029,1
102,537,23,0.0639162614213052,1
102,538,23,0.0610676163534041,1
102,539,23,0.0589137483827061,1
102,540,23,0.0604695667110085,1
102,541,23,0.0571126351731242,1
103,535,23,0.0700963927446731,1
103,536,23,0.065309937574555,1
103,537,23,0.0638562129135746,1
103,538,23,0.063336173848491,1
103,539,23,0.0634758133126038,1
103,540,23,0.0625956483153678,1
103,541,23,0.0582094300417135,1
104,536,23,0.0638923198577791,1
104,537,23,0.063010639347778,1
104,538,23,0.0662733083504494,1
104,539,23,0.0690837589585085,1
104,540,23,0.0654195911148919,1
104,541,23,0.058368712202404,1
104,568,23,0.0686343062272691,1
104,569,23,0.0815176684493028,1
105,537,23,0.0606600436675249,1
105,538,23,0.0665466254755408,1
105,539,23,0.0701838738025326,1
105,540,23,0.0667874976541985,1
105,541,23,0.0599975464025242,1
105,568,23,0.079293579754844,1
105,569,23,0.112259031111578,1
105,570,23,0.131642368613653,1
106,538,23,0.0607580920361821,1
106,539,23,0.0623134327126013,1
106,540,23,0.0621207385078372,1
106,541,23,0.0595316294236579,1
106,568,23,0.0695378584759692,1
106,569,23,0.101243494145474,1
106,570,23,0.127223428237534,1
106,571,23,0.108338122432297,1
107,568,23,0.0595622345258009,1
107,569,23,0.0810893739274062,1
107,570,23,0.102725642041971,1
108,569,23,0.0642760335372478,1
108,570,23,0.077537566318131,1
108,571,23,0.0787297854184886,1
109,569,23,0.0580542285613088,1
109,570,23,0.0674627853751815,1
109,571,23,0.0728972136548903,1
110,571,23,0.0677511455861239,1
111,570,23,0.0595554412545738,1
86,546,24,0.13995996262946,1
86,547,24,0.0853925279488859,1
87,543,24,0.0586302177630267,1
87,544,24,0.0790928244374346,1
87,545,24,0.10055329307125,1
87,546,24,0.087050587367931,1
87,547,24,0.06513838978526,1
88,545,24,0.0575655140246613,1
93,537,24,0.0572342418044136,1
94,535,24,0.0629511097704884,1
94,536,24,0.0720213298337922,1
94,537,24,0.0655892518844015,1
95,535,24,0.0681396947537925,1
95,536,24,0.0768926596156914,1
95,537,24,0.0657047198044519,1
95,563,24,0.0798991361978231,1
96,533,24,0.0601285291633719,1
96,535,24,0.0635106229307059,1
96,536,24,0.0676062519512964,1
96,537,24,0.059532973925255,1
96,563,24,0.0919078529554928,1
96,564,24,0.123610717064688,1
97,533,24,0.0680958864100892,1
97,534,24,0.062063921521489,1
97,535,24,0.0622305276777212,1
97,536,24,0.0623488615090705,1
97,537,24,0.059532490376435,1
97,563,24,0.0749411627230941,1
97,564,24,0.102410910729528,1
97,565,24,0.0859936557923063,1
98,532,24,0.0995425345109972,1
98,533,24,0.0832781812488165,1
98,534,24,0.0727560645749493,1
98,535,24,0.0672835774649455,1
98,536,24,0.0658800003547597,1
98,537,24,0.0645215171205059,1
98,564,24,0.0708040546488478,1
98,565,24,0.0720852290412722,1
98,566,24,0.061581711306164,1
99,532,24,0.11883382082917,1
99,533,24,0.101249249555819,1
99,534,24,0.0864153988173858,1
99,535,24,0.0743775040162857,1
99,536,24,0.067964885958431,1
99,537,24,0.0633559580715526,1
99,564,24,0.0667292241244535,1
99,565,24,0.0792650267867176,1
99,566,24,0.070437282868889,1
100,532,24,0.120710084601702,1
100,533,24,0.102861731550112,1
100,534,24,0.0879153377722958,1
100,535,24,0.0752724585310891,1
100,536,24,0.0666338942436745,1
100,537,24,0.0605682106702855,1
100,564,24,0.0608491643285705,1
100,565,24,0.0758025459765294,1
100,566,24,0.0687804028372097,1
101,533,24,0.101436960848963,1
101,534,24,0.0854710574566389,1
101,535,24,0.0731779196418285,1
101,536,24,0.063829287500013,1
101,537,24,0.0587625096438505,1
102,533,24,0.0986141502613098,1
102,534,24,0.0833117053346898,1
102,535,24,0.0708147811769399,1
102,536,24,0.0621542331090264,1
102,537,24,0.0584194140652605,1
103,534,24,0.0792058097470799,1
103,535,24,0.0680041300730286,1
103,536,24,0.0609447418806964,1
103,537,24,0.0586167904378669,1
103,538,24,0.0576883649096217,1
103,539,24,0.0606330710784686,1
103,540,24,0.0602812598272452,1
103,569,24,0.0570902621947946,1
104,535,24,0.0630600438845321,1
104,536,24,0.0580266132061381,1
104,537,24,0.0576609972257979,1
104,538,24,0.0618796717302641,1
104,539,24,0.0700059278367781,1
104,540,24,0.0667657143695519,1
104,568,24,0.0642219173479673,1
104,569,24,0.0707754250205426,1
104,570,24,0.0724037167024744,1
105,537,24,0.0573437891998876,1
105,538,24,0.0651601789668435,1
105,539,24,0.0755401086998877,1
105,540,24,0.0708304670289053,1
105,541,24,0.059723185519614,1
105,568,24,0.0700643900685017,1
105,569,24,0.0919220822640614,1
105,570,24,0.104784828794941,1
105,571,24,0.0898062259481638,1
106,538,24,0.0592671341160629,1
106,539,24,0.0658270753467187,1
106,540,24,0.0639828791166634,1
106,541,24,0.0589539713888173,1
106,568,24,0.0639253957764535,1
106,569,24,0.0952603499968817,1
106,570,24,0.120460950814546,1
106,571,24,0.106805520344291,1
107,569,24,0.0814312606339462,1
107,570,24,0.105780314288806,1
107,571,24,0.100192931261625,1
108,569,24,0.0607162355785692,1
108,570,24,0.0760962429153021,1
108,571,24,0.080970450402374,1
108,572,24,0.0818695386698945,1
109,570,24,0.0636553455543654,1
109,571,24,0.0743672964186346,1
109,572,24,0.0824631420219209,1
110,570,24,0.0582774158264161,1
110,571,24,0.0673651497921023,1
110,572,24,0.0727062590464908,1
111,571,24,0.0625966920731865,1
112,570,24,0.059054938741205,1
112,571,24,0.0634887335011963,1
86,544,25,0.0885642484948423,1
86,545,25,0.113239833232739,1
86,546,25,0.0982707657328152,1
86,547,25,0.0708507819762815,1
86,548,25,0.0571361344663881,1
87,544,25,0.0682870768959619,1
87,545,25,0.0797876192254482,1
87,546,25,0.0729380617363054,1
87,547,25,0.0606521594629844,1
88,545,25,0.0590059469900289,1
93,535,25,0.0597072578932386,1
93,536,25,0.0711963601652765,1
93,537,25,0.0673509027927232,1
93,538,25,0.0588000200590203,1
94,535,25,0.0777153825512753,1
94,536,25,0.09920341346783,1
94,537,25,0.084322387234764,1
94,538,25,0.0612557404321256,1
94,563,25,0.0639148756411504,1
95,535,25,0.0772529447651382,1
95,536,25,0.0975965040788404,1
95,537,25,0.0809130791039638,1
95,562,25,0.0568695280554082,1
95,563,25,0.0995003832065429,1
95,564,25,0.145788695487183,1
96,533,25,0.057068856314105,1
96,535,25,0.0624748790491081,1
96,536,25,0.0715629609340672,1
96,537,25,0.0621084080129276,1
96,563,25,0.125717421334627,1
96,564,25,0.193944272814753,1
96,565,25,0.145871134664053,1
97,532,25,0.0691853454892632,1
97,533,25,0.0627161876010912,1
97,534,25,0.0593057413614829,1
97,535,25,0.0594375909720445,1
97,536,25,0.0609373471219127,1
97,537,25,0.0575379812266063,1
97,563,25,0.0897866127362702,1
97,564,25,0.139855917076048,1
97,565,25,0.108465661382036,1
98,532,25,0.080719028603729,1
98,533,25,0.0726610118502012,1
98,534,25,0.0670871328083581,1
98,535,25,0.0634964702823161,1
98,536,25,0.0622968800109221,1
98,537,25,0.0594512777624248,1
98,564,25,0.0758891660816119,1
98,565,25,0.0756840824125699,1
98,566,25,0.0629391920611568,1
99,532,25,0.0935020898272367,1
99,533,25,0.0852230028089233,1
99,534,25,0.0763728328403337,1
99,535,25,0.0677044654341849,1
99,536,25,0.0620185563864628,1
99,537,25,0.0569676294964969,1
99,564,25,0.0624403937625316,1
99,565,25,0.075536305175633,1
99,566,25,0.0681368347394304,1
100,532,25,0.0969877691869105,1
100,533,25,0.0872944257058138,1
100,534,25,0.0776651170617441,1
100,535,25,0.0677124262989041,1
100,536,25,0.0598482536528221,1
100,565,25,0.0671671542411289,1
100,566,25,0.0625838367508991,1
101,532,25,0.0959872536059297,1
101,533,25,0.0848545091234104,1
101,534,25,0.0751503034846745,1
101,535,25,0.0658579399140821,1
101,536,25,0.0577778568229399,1
102,533,25,0.0836181455539502,1
102,534,25,0.0741697903134179,1
102,535,25,0.064699274384282,1
102,536,25,0.0574311994945051,1
103,533,25,0.0797680885706703,1
103,534,25,0.0722361670363496,1
103,535,25,0.0628962151855464,1
103,539,25,0.0572534068491081,1
103,540,25,0.0583988809312216,1
104,534,25,0.0686162439097616,1
104,535,25,0.0591744283721728,1
104,539,25,0.0670350628561573,1
104,540,25,0.0673833359452832,1
104,569,25,0.0601567636969095,1
104,570,25,0.0626176910652349,1
104,571,25,0.06144928969273,1
105,538,25,0.0597978761214912,1
105,539,25,0.0736939075113106,1
105,540,25,0.0717431595296905,1
105,541,25,0.0582143657778395,1
105,569,25,0.0689659558514738,1
105,570,25,0.0812413026078708,1
105,571,25,0.07695457155546,1
105,572,25,0.0659412931161613,1
106,539,25,0.064231552942746,1
106,540,25,0.0620611204764951,1
106,569,25,0.0771985219351426,1
106,570,25,0.100645308873531,1
106,571,25,0.0944135557651615,1
106,572,25,0.0754850077221567,1
107,569,25,0.0687435882605857,1
107,570,25,0.0909508154897529,1
107,571,25,0.0911015706797885,1
107,572,25,0.0802449620581649,1
108,570,25,0.0671384125710239,1
108,571,25,0.0781912299717617,1
108,572,25,0.0836523065090011,1
108,573,25,0.087606255725336,1
109,571,25,0.0713474337899009,1
109,572,25,0.0819978560152954,1
109,573,25,0.0909934857246481,1
110,571,25,0.0628772270489567,1
110,572,25,0.0689006590699653,1
110,573,25,0.0729584769316077,1
111,553,25,0.0666194231606959,1
111,554,25,0.0642813997497623,1
111,572,25,0.0597173711399005,1
112,552,25,0.0613817461782896,1
112,553,25,0.0803314996061318,1
112,554,25,0.0773168793542392,1
112,572,25,0.0587531571020396,1
113,553,25,0.0718597596616121,1
113,554,25,0.0681973137235495,1
86,544,26,0.0629527255311796,1
86,545,26,0.0698774689648932,1
86,546,26,0.0663355859003014,1
86,547,26,0.0584912623435861,1
87,544,26,0.0572124290350828,1
87,545,26,0.0609740673475474,1
87,546,26,0.0594858515030537,1
93,535,26,0.0647439082991413,1
93,536,26,0.0834441151542502,1
93,537,26,0.0788503836735803,1
93,538,26,0.0635763148069819,1
94,534,26,0.0570529286877296,1
94,535,26,0.0866432328687145,1
94,536,26,0.120773830488824,1
94,537,26,0.106873264354583,1
94,538,26,0.0736299080559045,1
94,563,26,0.0639693987190721,1
95,535,26,0.0811302455965686,1
95,536,26,0.111093560516677,1
95,537,26,0.0976380715865487,1
95,538,26,0.0672576663245185,1
95,563,26,0.105460712106543,1
95,564,26,0.166455171061646,1
96,535,26,0.0617337343376178,1
96,536,26,0.0735393370031465,1
96,537,26,0.0666524342130651,1
96,563,26,0.143435888455619,1
96,564,26,0.231792287618046,1
96,565,26,0.169140105369298,1
97,532,26,0.0647219716941371,1
97,533,26,0.0600053893285068,1
97,534,26,0.0582052668043122,1
97,535,26,0.0589834796607101,1
97,536,26,0.0592349958103443,1
97,563,26,0.0935837034329513,1
97,564,26,0.153950492431966,1
97,565,26,0.115078969890995,1
97,566,26,0.0640137200962795,1
98,532,26,0.0728875249876801,1
98,533,26,0.0677843807220927,1
98,534,26,0.0647483192078895,1
98,535,26,0.0627001125512951,1
98,536,26,0.0590716978356732,1
98,564,26,0.0742421575221845,1
98,565,26,0.0739318253246169,1
98,566,26,0.0624425048659164,1
99,532,26,0.0812478482077511,1
99,533,26,0.0761200075707234,1
99,534,26,0.0702054212097061,1
99,535,26,0.0637101929638127,1
99,565,26,0.0686091263070089,1
99,566,26,0.0657742800712878,1
100,532,26,0.0843167320723449,1
100,533,26,0.0784668115205955,1
100,534,26,0.0709333744735097,1
100,535,26,0.0622918912023647,1
100,565,26,0.0576360354922003,1
100,566,26,0.0571623640414039,1
101,532,26,0.0811202738763906,1
101,533,26,0.074323841891141,1
101,534,26,0.0681888634130734,1
101,535,26,0.0599993862468148,1
102,532,26,0.0786092756174494,1
102,533,26,0.072520800383216,1
102,534,26,0.06756983246944,1
102,535,26,0.059503919717498,1
103,533,26,0.0703207240155253,1
103,534,26,0.0665024279340068,1
103,535,26,0.0585275579897691,1
103,569,26,0.0568918184766221,1
104,533,26,0.0686899084446305,1
104,534,26,0.0644621408635739,1
104,539,26,0.0594469140291713,1
104,540,26,0.0634022313348504,1
104,570,26,0.0598074822315858,1
104,571,26,0.0595721649674211,1
105,534,26,0.0602406712110506,1
105,539,26,0.0635178171936374,1
105,540,26,0.0651455368726968,1
105,570,26,0.0667560728778363,1
105,571,26,0.0687996858206408,1
105,572,26,0.0663829913754704,1
106,569,26,0.0581350814621724,1
106,570,26,0.0767525130150113,1
106,571,26,0.0790701507153267,1
106,572,26,0.0736399859209454,1
107,570,26,0.0694830287573324,1
107,571,26,0.0779438829564656,1
107,572,26,0.080787551009683,1
107,573,26,0.0755982171154015,1
108,571,26,0.0732686204271967,1
108,572,26,0.0877015384306204,1
108,573,26,0.0890985050746208,1
109,571,26,0.0662084774269504,1
109,572,26,0.0827064142538681,1
109,573,26,0.0911610884632045,1
109,574,26,0.0971573945747992,1
110,572,26,0.0657369524611597,1
110,573,26,0.0705871830030844,1
111,552,26,0.0641946558090064,1
111,553,26,0.0892648517656325,1
111,554,26,0.0850234032911323,1
111,573,26,0.0583665126449668,1
112,552,26,0.074905627781762,1
112,553,26,0.10984917711313,1
112,554,26,0.105254791072472,1
112,555,26,0.0641221175890718,1
112,573,26,0.0585040174179474,1
113,552,26,0.0666122996610063,1
113,553,26,0.0852596640651897,1
113,554,26,0.0800585716788711,1
113,572,26,0.0573677012787295,1
87,544,27,0.0570520559410789,1
88,543,27,0.0587828894575318,1
88,544,27,0.0608043063301117,1
88,545,27,0.0579126372111055,1
92,537,27,0.0588462166621394,1
93,535,27,0.0642414656935557,1
93,536,27,0.0818711721213961,1
93,537,27,0.0829074231395612,1
93,538,27,0.0634143613339079,1
94,535,27,0.0820195508458896,1
94,536,27,0.11213056044582,1
94,537,27,0.111330275354871,1
94,538,27,0.0763482485106932,1
94,563,27,0.0638391471783912,1
94,564,27,0.0791906074439345,1
95,535,27,0.0742814311214662,1
95,536,27,0.097440188077375,1
95,537,27,0.0965443313312368,1
95,538,27,0.067532776118406,1
95,563,27,0.100958719272124,1
95,564,27,0.152197333112678,1
95,565,27,0.118841769900015,1
96,535,27,0.0583762720754189,1
96,536,27,0.0649950883233763,1
96,537,27,0.0640961062007187,1
96,562,27,0.0579492159102564,1
96,563,27,0.137134433553929,1
96,564,27,0.211939377036271,1
96,565,27,0.160615776542136,1
96,566,27,0.0793933441321186,1
97,532,27,0.0604235823976153,1
97,563,27,0.0906856951068539,1
97,564,27,0.141727840703073,1
97,565,27,0.111315308929198,1
97,566,27,0.067088070421314,1
98,532,27,0.0669230682318993,1
98,533,27,0.0616031230837904,1
98,534,27,0.0589249230779972,1
98,535,27,0.0576930411805271,1
98,564,27,0.0702809786612972,1
98,565,27,0.0713259335582221,1
98,566,27,0.0626302456437441,1
99,532,27,0.0735119280407649,1
99,533,27,0.0664139856754441,1
99,534,27,0.0615727597560574,1
99,535,27,0.0570646164165249,1
99,565,27,0.0593248946123038,1
99,566,27,0.0610883617771688,1
100,531,27,0.0760057603165966,1
100,532,27,0.0771859260780756,1
100,533,27,0.0692027237620985,1
100,534,27,0.0624819317855557,1
101,532,27,0.0732302903378077,1
101,533,27,0.0661716805411369,1
101,534,27,0.060892760382548,1
102,532,27,0.069002900160708,1
102,533,27,0.0642033361000188,1
102,534,27,0.0604282232868998,1
103,532,27,0.0668330691820137,1
103,533,27,0.0635987998271113,1
103,534,27,0.0603242602906029,1
104,533,27,0.06322407307937,1
104,534,27,0.0595488130975779,1
105,571,27,0.0588668795287885,1
105,572,27,0.0629080562346992,1
106,571,27,0.0616249122653739,1
106,572,27,0.0674153150337074,1
106,573,27,0.0665617216338232,1
107,571,27,0.0612165552868964,1
107,572,27,0.0745782180551374,1
107,573,27,0.074034054621486,1
108,571,27,0.0614732371531929,1
108,572,27,0.0816025666488312,1
108,573,27,0.0832162634121111,1
108,574,27,0.0787560031996307,1
109,572,27,0.0737300380432624,1
109,573,27,0.0809386836036756,1
110,572,27,0.0582578969655118,1
110,573,27,0.0641865887994242,1
111,552,27,0.0696542758028491,1
111,553,27,0.0934840393036029,1
111,554,27,0.0881502363539457,1
112,552,27,0.0800686141622911,1
112,553,27,0.117212139613423,1
112,554,27,0.112393858675239,1
112,555,27,0.0685639321831507,1
112,574,27,0.0570526574286355,1
113,552,27,0.0672706808641003,1
113,553,27,0.08708274336446,1
113,554,27,0.0827117038062038,1
113,555,27,0.0587102686804816,1
113,573,27,0.0574679609986977,1
114,554,27,0.0597426395142132,1
86,543,28,0.0579386250117113,1
87,541,28,0.0590464589460447,1
87,542,28,0.0646381998095431,1
87,543,28,0.0663556944548886,1
87,544,28,0.0623141816235786,1
88,540,28,0.0575412540265464,1
88,541,28,0.0666027112417222,1
88,542,28,0.0725824528577641,1
88,543,28,0.0721139589175036,1
88,544,28,0.066845824256375,1
88,545,28,0.058496787773395,1
88,556,28,0.0636535234008852,1
88,557,28,0.0714806927683646,1
89,541,28,0.064075808944153,1
89,542,28,0.0696556379952566,1
89,543,28,0.0656236664077361,1
89,544,28,0.0575699956966514,1
89,556,28,0.059447438856549,1
89,557,28,0.0667588267473355,1
89,558,28,0.0575986135310829,1
92,537,28,0.0586071017706567,1
93,535,28,0.0572591209808955,1
93,536,28,0.068679128844107,1
93,537,28,0.0760746306418235,1
93,538,28,0.05913729536096,1
94,535,28,0.0678016823347492,1
94,536,28,0.0864618312979781,1
94,537,28,0.096102621278054,1
94,538,28,0.0694021699595319,1
94,563,28,0.0596728492668409,1
94,564,28,0.0697830531093227,1
94,565,28,0.0667970978673563,1
95,535,28,0.0616217279194861,1
95,536,28,0.0743284356049309,1
95,537,28,0.0809264533566921,1
95,538,28,0.0600844436636376,1
95,563,28,0.0833976237042897,1
95,564,28,0.112338156209951,1
95,565,28,0.0956802944562284,1
96,563,28,0.104579603599415,1
96,564,28,0.148962073072388,1
96,565,28,0.121446045905719,1
96,566,28,0.0719629560561211,1
97,563,28,0.0737984130257957,1
97,564,28,0.108734137121991,1
97,565,28,0.0954182640682278,1
97,566,28,0.0664447028193868,1
98,532,28,0.0588925371009319,1
98,564,28,0.061206701505455,1
98,565,28,0.0666707029233616,1
98,566,28,0.0618509949264643,1
99,531,28,0.0648284821671441,1
99,532,28,0.0644077475182623,1
99,533,28,0.0578264063038538,1
100,531,28,0.0692682092455855,1
100,532,28,0.0695646895385416,1
100,533,28,0.0614726002840153,1
101,531,28,0.067421813458093,1
101,532,28,0.0673730929660111,1
101,533,28,0.060614772883488,1
102,532,28,0.063927583540017,1
102,533,28,0.0597199245135475,1
103,532,28,0.0612396241037717,1
103,533,28,0.0589148098313353,1
104,532,28,0.0587091010869894,1
104,533,28,0.0580827579416879,1
105,572,28,0.0596215223286805,1
105,573,28,0.0603862842721713,1
106,572,28,0.0621594754858675,1
106,573,28,0.0629784656604385,1
107,572,28,0.0649886311775485,1
107,573,28,0.0673753868744376,1
108,572,28,0.0676782535499796,1
108,573,28,0.0718704508080832,1
109,572,28,0.0597153013150735,1
109,573,28,0.066984596870774,1
109,574,28,0.0685250182970156,1
111,552,28,0.0687133251807789,1
111,553,28,0.0831215055342045,1
111,554,28,0.0758804798936627,1
112,552,28,0.0745127502624609,1
112,553,28,0.100340578765951,1
112,554,28,0.0958616724392174,1
112,555,28,0.0630782713162708,1
113,552,28,0.0645735634849595,1
113,553,28,0.0787012973166673,1
113,554,28,0.0759746126962654,1
113,555,28,0.0579648368959166,1
113,574,28,0.0590970546640383,1
114,553,28,0.0620579774091652,1
114,554,28,0.0584521656524093,1
86,541,29,0.0568425023939205,1
86,542,29,0.063428054021225,1
86,543,29,0.0650190180930287,1
86,544,29,0.0573347374018549,1
87,540,29,0.064549598333686,1
87,541,29,0.0767710234997178,1
87,542,29,0.0845827900681997,1
87,543,29,0.0830696006962348,1
87,544,29,0.0698692427380166,1
88,539,29,0.061742355659262,1
88,540,29,0.0794606517690858,1
88,541,29,0.0944336643197487,1
88,542,29,0.0993606729791882,1
88,543,29,0.0906492284495028,1
88,544,29,0.0734169106976378,1
88,545,29,0.0581430953993231,1
88,556,29,0.0757887294535389,1
88,557,29,0.0879305754570621,1
89,539,29,0.0595711919728443,1
89,540,29,0.0761497340292788,1
89,541,29,0.0913353311526304,1
89,542,29,0.0945983598684483,1
89,543,29,0.0812818912240654,1
89,544,29,0.0633870467225155,1
89,556,29,0.0718371802904935,1
89,557,29,0.0831254446880063,1
89,558,29,0.0657785317627416,1
90,541,29,0.0661059120046821,1
90,542,29,0.0690651010503813,1
90,543,29,0.0592147339353996,1
90,557,29,0.057279323886472,1
92,537,29,0.057082519516738,1
93,536,29,0.0586047665836724,1
93,537,29,0.0655616542200414,1
94,536,29,0.0650516989169356,1
94,537,29,0.0731207724270179,1
94,538,29,0.0583319094196537,1
94,564,29,0.0594787044156169,1
94,565,29,0.0600854756275827,1
95,536,29,0.0574238283234688,1
95,537,29,0.0615124812677905,1
95,563,29,0.0618914950886064,1
95,564,29,0.0749814152138894,1
95,565,29,0.0715742063926003,1
95,566,29,0.0604135635019426,1
96,563,29,0.0662079761873199,1
96,564,29,0.0872027283381215,1
96,565,29,0.0819509576766937,1
96,566,29,0.0642916073474135,1
97,564,29,0.0724568068247467,1
97,565,29,0.0762766891822722,1
97,566,29,0.066180130851613,1
98,565,29,0.0591444955208283,1
98,566,29,0.0605567942005844,1
99,532,29,0.057365165595893,1
100,531,29,0.0646151368896045,1
100,532,29,0.0620097404659033,1
101,532,29,0.0620109788226374,1
102,532,29,0.0621605723161177,1
102,533,29,0.0579961968059737,1
103,532,29,0.0593854974320963,1
103,533,29,0.0572826084802858,1
106,573,29,0.057440899955589,1
107,573,29,0.0590247405277032,1
108,573,29,0.0588676815121973,1
108,574,29,0.05921547694944,1
109,574,29,0.0583307890016561,1
111,546,29,0.0743765369186458,1
111,552,29,0.0643723423095405,1
111,553,29,0.0663768821489155,1
112,552,29,0.0647835121268855,1
112,553,29,0.0737614510257509,1
112,554,29,0.0679472482203752,1
113,552,29,0.0589168029959836,1
113,553,29,0.0644168700795369,1
113,554,29,0.0626616055538012,1
113,574,29,0.0579996936895133,1
114,552,29,0.0585023191001406,1
114,553,29,0.0574169112165683,1
86,541,30,0.0584955965921555,1
86,542,30,0.0651120068898866,1
86,543,30,0.0650778636256462,1
86,550,30,0.0574063910812652,1
87,539,30,0.0581502306928863,1
87,540,30,0.0756107127245424,1
87,541,30,0.0903073594337733,1
87,542,30,0.099602093572971,1
87,543,30,0.094076445577453,1
87,544,30,0.0734377386785182,1
87,550,30,0.0572093685248685,1
88,539,30,0.073562783223979,1
88,540,30,0.100448752175144,1
88,541,30,0.119862954244582,1
88,542,30,0.122958916843095,1
88,543,30,0.106042680802206,1
88,544,30,0.0774081875241008,1
88,555,30,0.0593115734320069,1
88,556,30,0.0847925264203999,1
88,557,30,0.100309018360042,1
88,558,30,0.0748050673180156,1
89,539,30,0.0695727565481238,1
89,540,30,0.0952703335109333,1
89,541,30,0.115777674348127,1
89,542,30,0.11480672011147,1
89,543,30,0.0926958370362165,1
89,544,30,0.0651134280516625,1
89,555,30,0.0585251933181007,1
89,556,30,0.0830899097466742,1
89,557,30,0.0973279811633911,1
89,558,30,0.0739537501357475,1
90,540,30,0.0658545432784685,1
90,541,30,0.0799042901206117,1
90,542,30,0.0786669240718905,1
90,543,30,0.0632920529671358,1
90,556,30,0.0585795984572858,1
90,557,30,0.0638681777984008,1
94,565,30,0.0568609716000692,1
95,565,30,0.0600867198812536,1
95,566,30,0.0586847467378853,1
96,565,30,0.0622013614281645,1
96,566,30,0.0612707068577979,1
97,565,30,0.0617370602099894,1
97,566,30,0.0647606084242413,1
98,566,30,0.0569736207843152,1
102,532,30,0.057514422963974,1
111,546,30,0.0703898302182253,1
117,570,30,0.0575104248408039,1
86,541,31,0.0599563327110257,1
86,542,31,0.0652597546421394,1
86,543,31,0.0635008870880011,1
86,549,31,0.060295966787697,1
86,550,31,0.0626711880761484,1
86,551,31,0.0593315345631733,1
87,539,31,0.0652999540605033,1
87,540,31,0.0867025619501519,1
87,541,31,0.101134070585673,1
87,542,31,0.107165870360042,1
87,543,31,0.0960217683771903,1
87,544,31,0.0704399659751462,1
87,549,31,0.0604617768574573,1
87,550,31,0.0653304471208465,1
87,551,31,0.0623501942167939,1
87,552,31,0.056918909004415,1
87,555,31,0.0576577774982892,1
88,539,31,0.082247603083881,1
88,540,31,0.115483959718543,1
88,541,31,0.135369480360983,1
88,542,31,0.133893135050326,1
88,543,31,0.109737783976428,1
88,544,31,0.0744550723233355,1
88,550,31,0.0611792217798314,1
88,551,31,0.0598230560417514,1
88,555,31,0.0627527780941157,1
88,556,31,0.0824313221507912,1
88,557,31,0.0962934992262747,1
88,558,31,0.0749599444668947,1
89,539,31,0.0741398338743262,1
89,540,31,0.10533786711852,1
89,541,31,0.125927116408269,1
89,542,31,0.119886553785772,1
89,543,31,0.09177159833312,1
89,544,31,0.0598173596007745,1
89,555,31,0.0619582837951327,1
89,556,31,0.0824549216919812,1
89,557,31,0.096769694566034,1
89,558,31,0.0769129450783835,1
90,540,31,0.0688111494658366,1
90,541,31,0.0816177453642293,1
90,542,31,0.0765923109321755,1
90,543,31,0.0587529448123137,1
90,556,31,0.0620524401854827,1
90,557,31,0.0687249067647112,1
90,558,31,0.060848940244971,1
95,566,31,0.0583049250367238,1
96,566,31,0.057499279630197,1
108,574,31,0.058311853937498,1
111,546,31,0.0721237360387662,1
114,574,31,0.0606099491891618,1
117,570,31,0.0587536878263542,1
117,571,31,0.058248573908385,1
85,549,32,0.0580516515999144,1
86,541,32,0.0581337428575122,1
86,542,32,0.0606633282613387,1
86,543,32,0.0586218028341716,1
86,548,32,0.0622377868069578,1
86,549,32,0.0685800249237573,1
86,550,32,0.0707195456471501,1
86,551,32,0.0662976980811745,1
86,552,32,0.0594801963406346,1
87,539,32,0.0699160997980606,1
87,540,32,0.0911139129685718,1
87,541,32,0.100712769830856,1
87,542,32,0.100154176592784,1
87,543,32,0.0864131874660749,1
87,544,32,0.0627675911994303,1
87,548,32,0.0632643845395337,1
87,549,32,0.0721183049599466,1
87,550,32,0.077308157784669,1
87,551,32,0.0719057675627526,1
87,552,32,0.0633574323057599,1
87,553,32,0.0597832163365341,1
87,554,32,0.0610358790393899,1
87,555,32,0.0615104940000791,1
88,539,32,0.0844729065473265,1
88,540,32,0.116444358438276,1
88,541,32,0.131296088689175,1
88,542,32,0.124645900737287,1
88,543,32,0.0989630779104237,1
88,544,32,0.0652988395394426,1
88,549,32,0.0652968994472259,1
88,550,32,0.0731910462232101,1
88,551,32,0.0698836430577533,1
88,552,32,0.0629519825171391,1
88,553,32,0.0606694551787041,1
88,554,32,0.0632577033101063,1
88,555,32,0.0676629333080976,1
88,556,32,0.0779790758754616,1
88,557,32,0.0856780399393399,1
88,558,32,0.0731481931832731,1
89,539,32,0.0734321071038464,1
89,540,32,0.101719813320907,1
89,541,32,0.116549359295455,1
89,542,32,0.107015687172879,1
89,543,32,0.0793099614453553,1
89,550,32,0.0593764810156846,1
89,551,32,0.0616877854058456,1
89,552,32,0.0606932670096199,1
89,553,32,0.0613155235776989,1
89,554,32,0.0652626146565015,1
89,555,32,0.0700926835714076,1
89,556,32,0.0802667512397484,1
89,557,32,0.0888907324023847,1
89,558,32,0.077706283577748,1
89,559,32,0.0598715406563602,1
90,540,32,0.0629208407937447,1
90,541,32,0.0709698116461766,1
90,542,32,0.0647580019781628,1
90,552,32,0.0573680904765602,1
90,553,32,0.0616572687577551,1
90,554,32,0.0671103726364016,1
90,555,32,0.0688085430197581,1
90,556,32,0.0699379833306333,1
90,557,32,0.0726625863323346,1
90,558,32,0.0673720020326977,1
91,554,32,0.0582772507121849,1
91,555,32,0.0593950917483172,1
94,566,32,0.0575325855294076,1
95,566,32,0.0595993852278241,1
95,567,32,0.0572621225217415,1
102,573,32,0.0578607382700727,1
103,573,32,0.0582509739616744,1
103,574,32,0.0580310771873178,1
106,574,32,0.0585482857227234,1
107,574,32,0.0632706058078884,1
108,574,32,0.0628768791296838,1
108,575,32,0.0699420817017295,1
109,574,32,0.0595908877418534,1
116,572,32,0.0570952215186679,1
85,548,33,0.0609186951107223,1
85,549,33,0.0640132247535859,1
86,547,33,0.0618141154835351,1
86,548,33,0.0701759188347502,1
86,549,33,0.0775962762212014,1
86,550,33,0.0774819582038327,1
86,551,33,0.0706471607475731,1
87,539,33,0.0698916805826513,1
87,540,33,0.0830163100781103,1
87,541,33,0.0854900809748495,1
87,542,33,0.0806675424482742,1
87,543,33,0.0690525110902512,1
87,547,33,0.060839074669656,1
87,548,33,0.0733444668286925,1
87,549,33,0.0853590451415704,1
87,550,33,0.0882896635283326,1
87,551,33,0.0798876076863222,1
87,552,33,0.0708271883320283,1
87,553,33,0.0662586308746818,1
87,554,33,0.0663953395611905,1
87,555,33,0.0656908678998404,1
87,556,33,0.0632174095407532,1
88,539,33,0.0742658691051743,1
88,540,33,0.0951193778250455,1
88,541,33,0.102978231434108,1
88,542,33,0.0949763535191928,1
88,543,33,0.0749184595163021,1
88,548,33,0.0630129391531414,1
88,549,33,0.0781285337393948,1
88,550,33,0.0862505322575182,1
88,551,33,0.0840197505397584,1
88,552,33,0.0790145426010284,1
88,553,33,0.0734067325846708,1
88,554,33,0.0719856887475972,1
88,555,33,0.0722976249119823,1
88,556,33,0.0727528094658196,1
88,557,33,0.0720386432403224,1
88,558,33,0.0672890911008807,1
88,559,33,0.0595562668257299,1
89,539,33,0.0614201116492996,1
89,540,33,0.0785134975694713,1
89,541,33,0.0860538576203945,1
89,542,33,0.0776603110582284,1
89,543,33,0.0582023949960764,1
89,550,33,0.0686849609146309,1
89,551,33,0.0775075155280499,1
89,552,33,0.0811798034536802,1
89,553,33,0.0784338004682262,1
89,554,33,0.0793674388886284,1
89,555,33,0.080175024387372,1
89,556,33,0.0793306832813727,1
89,557,33,0.0781723951555296,1
89,558,33,0.0744935793208295,1
89,559,33,0.0646598120830217,1
90,551,33,0.0641499334400946,1
90,552,33,0.0728161720520482,1
90,553,33,0.0762845851806864,1
90,554,33,0.0838234768943391,1
90,555,33,0.0850235389206794,1
90,556,33,0.0785893970433985,1
90,557,33,0.0741597596238717,1
90,558,33,0.0712229140718179,1
90,559,33,0.0614264449594541,1
91,553,33,0.0604426530913205,1
91,554,33,0.0701112707162929,1
91,555,33,0.0717178439798832,1
91,556,33,0.0646979180888113,1
91,557,33,0.0601860007097081,1
91,558,33,0.0582631039607319,1
102,573,33,0.0574430936160894,1
102,574,33,0.057058401045107,1
103,573,33,0.0572790054518832,1
103,574,33,0.0579648663806008,1
104,574,33,0.0572146403863937,1
105,574,33,0.0587187484756418,1
106,574,33,0.0632099794003485,1
106,575,33,0.0610952965748798,1
107,574,33,0.0668507540955642,1
107,575,33,0.0699677864493675,1
108,574,33,0.0690362119568556,1
108,575,33,0.0775337215153184,1
108,576,33,0.0772647091541123,1
109,574,33,0.0659458691391406,1
109,575,33,0.0745656104041968,1
110,574,33,0.0607579387158245,1
110,575,33,0.0671555785541334,1
115,573,33,0.0588023257613205,1
115,574,33,0.0644754443530603,1
116,572,33,0.057865939368356,1
116,573,33,0.0669550709080707,1
117,572,33,0.060465786774501,1
85,546,34,0.0611866283324887,1
85,547,34,0.0636012883344531,1
85,548,34,0.065582818326321,1
85,549,34,0.0680123857845893,1
86,546,34,0.0699355243079756,1
86,547,34,0.0744329706041001,1
86,548,34,0.0796824414601646,1
86,549,34,0.0880295142631806,1
86,550,34,0.0868535058421661,1
87,538,34,0.0582098546211652,1
87,539,34,0.0640711444671212,1
87,540,34,0.0673737357321255,1
87,541,34,0.0649486558427841,1
87,542,34,0.0591220753670041,1
87,546,34,0.0593804909327284,1
87,547,34,0.0671487086227275,1
87,548,34,0.0829007301162602,1
87,549,34,0.1011435056846,1
87,550,34,0.10363206020197,1
87,551,34,0.0921948450770909,1
87,552,34,0.0852724781089193,1
87,553,34,0.0794579155903971,1
87,554,34,0.0739278920677519,1
87,555,34,0.0709756908921952,1
87,556,34,0.0658372593566225,1
87,557,34,0.0599408001794178,1
88,539,34,0.0617312812118969,1
88,540,34,0.0694053012329882,1
88,541,34,0.0706131177312588,1
88,542,34,0.063347902855844,1
88,548,34,0.0697575193728528,1
88,549,34,0.0930682344939103,1
88,550,34,0.102649441824265,1
88,551,34,0.103875709837874,1
88,552,34,0.105738646533172,1
88,553,34,0.096377778247436,1
88,554,34,0.0853719122577314,1
88,555,34,0.0822829906017923,1
88,556,34,0.0755566849893143,1
88,557,34,0.0680488465450036,1
88,558,34,0.0630157166103879,1
88,559,34,0.0611699930736939,1
89,549,34,0.0631895111326148,1
89,550,34,0.0784985311437991,1
89,551,34,0.09734113133252,1
89,552,34,0.110436287937707,1
89,553,34,0.104312153926468,1
89,554,34,0.0988399675602429,1
89,555,34,0.0994080607635467,1
89,556,34,0.0891935401085584,1
89,557,34,0.0770313732607221,1
89,558,34,0.0708235381281311,1
89,559,34,0.066259244156112,1
89,560,34,0.0570425441819736,1
90,551,34,0.0756464658525371,1
90,552,34,0.0885330890806374,1
90,553,34,0.0905668541389373,1
90,554,34,0.0999728104036684,1
90,555,34,0.106120426017361,1
90,556,34,0.0927688352172238,1
90,557,34,0.0780516494770172,1
90,558,34,0.0707253600268636,1
90,559,34,0.0626076957573096,1
91,552,34,0.0595640095037864,1
91,553,34,0.0665274309461621,1
91,554,34,0.0816215901670418,1
91,555,34,0.0876900099191195,1
91,556,34,0.0760931057449091,1
91,557,34,0.0649192006433228,1
91,558,34,0.059760035477859,1
103,574,34,0.0568937821565862,1
104,574,34,0.0592936644348569,1
105,574,34,0.0621774493493226,1
105,575,34,0.0589319463297607,1
106,574,34,0.0632928667444182,1
106,575,34,0.0622352924026791,1
107,574,34,0.0636453738341874,1
107,575,34,0.0691297432719017,1
108,574,34,0.0681782371329074,1
108,575,34,0.0799759732847061,1
108,576,34,0.0738763823245498,1
109,574,34,0.0672952769876144,1
109,575,34,0.0790420518113361,1
109,576,34,0.0704853252132356,1
110,574,34,0.061765955200452,1
110,575,34,0.0691908886098825,1
111,575,34,0.0596282625274762,1
115,573,34,0.0576650720091468,1
115,574,34,0.0669647831630282,1
116,573,34,0.0654304709633415,1
117,572,34,0.0589087123986541,1
85,546,35,0.0708453332066514,1
85,547,35,0.0749234070463017,1
85,548,35,0.0742511326600384,1
85,549,35,0.0768604682375414,1
85,550,35,0.0726548200665307,1
86,545,35,0.0616981168391702,1
86,546,35,0.086690378878663,1
86,547,35,0.0942395843348298,1
86,548,35,0.0938212497392375,1
86,549,35,0.0989664037827953,1
86,550,35,0.0950789189414612,1
86,551,35,0.0810534674790538,1
87,537,35,0.0606659523982276,1
87,538,35,0.059090992612978,1
87,539,35,0.0587469712153058,1
87,546,35,0.0679269922423673,1
87,547,35,0.0790885019827389,1
87,548,35,0.0926302925833612,1
87,549,35,0.111876237354255,1
87,550,35,0.113728252922545,1
87,551,35,0.104114748069178,1
87,552,35,0.102282852849348,1
87,553,35,0.0952251099023911,1
87,554,35,0.0836459319202889,1
87,555,35,0.075829023222892,1
87,556,35,0.0674587872520114,1
87,557,35,0.0591270877633088,1
88,548,35,0.0748114772883488,1
88,549,35,0.101446832321215,1
88,550,35,0.111113657277391,1
88,551,35,0.118311281462871,1
88,552,35,0.129401650557336,1
88,553,35,0.120622255624569,1
88,554,35,0.104729079154158,1
88,555,35,0.0960780841239081,1
88,556,35,0.0817138359498592,1
88,557,35,0.0679746394919463,1
88,558,35,0.0615904210818605,1
88,559,35,0.0619372671122738,1
88,560,35,0.0568679181916538,1
89,549,35,0.067245848863113,1
89,550,35,0.0843867228155694,1
89,551,35,0.109897083827929,1
89,552,35,0.130660729127462,1
89,553,35,0.126152167105414,1
89,554,35,0.119609669013899,1
89,555,35,0.118934104136885,1
89,556,35,0.100644613034985,1
89,557,35,0.0798240740889256,1
89,558,35,0.0691729383341748,1
89,559,35,0.0661001212127159,1
89,560,35,0.0592263096223951,1
90,550,35,0.0594473916810544,1
90,551,35,0.082024922955341,1
90,552,35,0.0970023994871835,1
90,553,35,0.0997169069330334,1
90,554,35,0.110625202205964,1
90,555,35,0.120021298792317,1
90,556,35,0.103428368210019,1
90,557,35,0.0827166926147612,1
90,558,35,0.0709425619010894,1
90,559,35,0.0630506323733529,1
91,552,35,0.0638242515159609,1
91,553,35,0.0717118703828754,1
91,554,35,0.0883683286656326,1
91,555,35,0.0977878184003865,1
91,556,35,0.0856160159577715,1
91,557,35,0.0713246421290565,1
91,558,35,0.0629410613901316,1
92,555,35,0.0601170832089866,1
105,574,35,0.0578444981060454,1
105,575,35,0.0570284505029521,1
106,575,35,0.059091027994599,1
107,574,35,0.0569089549750475,1
107,575,35,0.0662197287824203,1
107,576,35,0.0628600374781,1
108,574,35,0.0625969751261543,1
108,575,35,0.0772746572865429,1
108,576,35,0.0702681115451361,1
109,574,35,0.0630631751579884,1
109,575,35,0.0769650798968895,1
109,576,35,0.0688612262533892,1
110,574,35,0.0574883113276949,1
110,575,35,0.065795597497925,1
110,576,35,0.0612044075970284,1
111,546,35,0.0612529865626265,1
112,548,35,0.0573493500113174,1
115,574,35,0.0611891817061357,1
116,573,35,0.0573691814098736,1
84,547,36,0.0583619189311769,1
84,548,36,0.061388769430053,1
85,545,36,0.056941264291934,1
85,546,36,0.07458061221149,1
85,547,36,0.0824805438825036,1
85,548,36,0.0807951816459398,1
85,549,36,0.0919756264504696,1
85,550,36,0.0871382512308322,1
86,545,36,0.0653513694527161,1
86,546,36,0.0953336725094146,1
86,547,36,0.10828171233459,1
86,548,36,0.100367020630693,1
86,549,36,0.106108997753786,1
86,550,36,0.101114127145317,1
86,551,36,0.0849454339923781,1
87,546,36,0.0734012838150407,1
87,547,36,0.0893990778417362,1
87,548,36,0.0954201982635078,1
87,549,36,0.112649608825516,1
87,550,36,0.115573298311504,1
87,551,36,0.110755029167193,1
87,552,36,0.114132806376768,1
87,553,36,0.106921949465044,1
87,554,36,0.0925531311649526,1
87,555,36,0.0799951383294006,1
87,556,36,0.0684134659430197,1
87,557,36,0.0579948817890608,1
88,548,36,0.0733606421264147,1
88,549,36,0.0981416699917528,1
88,550,36,0.110037077108252,1
88,551,36,0.12263634260467,1
88,552,36,0.141342747140387,1
88,553,36,0.136601208938096,1
88,554,36,0.12329709437637,1
88,555,36,0.108809087189089,1
88,556,36,0.0869951974402954,1
88,557,36,0.0671337363001184,1
88,558,36,0.059700311301654,1
88,559,36,0.0607256176050643,1
88,560,36,0.058689381730233,1
89,549,36,0.0643897028915653,1
89,550,36,0.0840986515545316,1
89,551,36,0.110489195254938,1
89,552,36,0.134694210330811,1
89,553,36,0.136079176708364,1
89,554,36,0.136549610740841,1
89,555,36,0.132447241521455,1
89,556,36,0.107132529079211,1
89,557,36,0.0795556455244655,1
89,558,36,0.0658027209976145,1
89,559,36,0.0626009791462613,1
89,560,36,0.0573009007783296,1
90,550,36,0.0609435448025201,1
90,551,36,0.0813984795621133,1
90,552,36,0.0969760106948733,1
90,553,36,0.103950919370192,1
90,554,36,0.119502026329021,1
90,555,36,0.127298366510758,1
90,556,36,0.108419405809549,1
90,557,36,0.0840639244935451,1
90,558,36,0.069418486783738,1
90,559,36,0.0612218389422952,1
91,552,36,0.0637120976744085,1
91,553,36,0.0724384555573346,1
91,554,36,0.0879495105212203,1
91,555,36,0.0970268422903401,1
91,556,36,0.0873250367048936,1
91,557,36,0.0737806868336874,1
91,558,36,0.0640715867373834,1
92,555,36,0.0591082883286977,1
107,575,36,0.0620388654369022,1
107,576,36,0.0619796483972645,1
108,575,36,0.0699680164299039,1
108,576,36,0.0673873989347585,1
108,577,36,0.0573351560843698,1
109,575,36,0.0687764165079133,1
109,576,36,0.0659094614511578,1
109,577,36,0.0569466010197644,1
110,575,36,0.0590069848509108,1
110,576,36,0.0583352058073411,1
112,547,36,0.06256269033543,1
84,547,37,0.0600035730719635,1
84,548,37,0.0675956905374355,1
84,549,37,0.084670760571816,1
84,550,37,0.0847344592834439,1
85,546,37,0.0701775758739992,1
85,547,37,0.0812596774630302,1
85,548,37,0.0883914564518763,1
85,549,37,0.109638915933552,1
85,550,37,0.106984114973096,1
85,551,37,0.0803149410075157,1
86,545,37,0.0636186607103516,1
86,546,37,0.0874896143148566,1
86,547,37,0.103132542477051,1
86,548,37,0.100117662759938,1
86,549,37,0.108966641547288,1
86,550,37,0.105956455791891,1
86,551,37,0.0883254225532642,1
86,552,37,0.0787528129568062,1
86,555,37,0.0621132435011275,1
87,546,37,0.0698471410187812,1
87,547,37,0.0885866214731718,1
87,548,37,0.0944162211806083,1
87,549,37,0.106842989480903,1
87,550,37,0.111348508683546,1
87,551,37,0.109755486580789,1
87,552,37,0.113135339512128,1
87,553,37,0.107247059386305,1
87,554,37,0.095725470889276,1
87,555,37,0.0829897797593163,1
87,556,37,0.0681594907707278,1
87,557,37,0.0575665341947327,1
88,548,37,0.069434980516049,1
88,549,37,0.0875958063532748,1
88,550,37,0.101238375604306,1
88,551,37,0.114693109726521,1
88,552,37,0.131952736192841,1
88,553,37,0.132695490768086,1
88,554,37,0.128702568696248,1
88,555,37,0.115099880428991,1
88,556,37,0.0882741545844721,1
88,557,37,0.0660836569650891,1
88,558,37,0.0586786905837618,1
88,559,37,0.0597070691912601,1
88,560,37,0.0590419890679283,1
89,549,37,0.0583806240147988,1
89,550,37,0.0775800124694267,1
89,551,37,0.0990432644574257,1
89,552,37,0.119779029039631,1
89,553,37,0.128957339955012,1
89,554,37,0.139663382088578,1
89,555,37,0.134511983188918,1
89,556,37,0.104835849092386,1
89,557,37,0.0756511539173163,1
89,558,37,0.0624797499189289,1
89,559,37,0.0597863653008009,1
90,550,37,0.0574373028241232,1
90,551,37,0.0738326329502148,1
90,552,37,0.0888178462631772,1
90,553,37,0.102802042755528,1
90,554,37,0.122708238058491,1
90,555,37,0.125870340700479,1
90,556,37,0.104685783843959,1
90,557,37,0.079514950763408,1
90,558,37,0.0650279283645775,1
90,559,37,0.0584636057098577,1
91,552,37,0.0598185330912035,1
91,553,37,0.0718853405735767,1
91,554,37,0.0859293379023114,1
91,555,37,0.09116383053883,1
91,556,37,0.0827032181141068,1
91,557,37,0.070062343831422,1
91,558,37,0.0599543041647565,1
92,555,37,0.0589166025001314,1
107,576,37,0.0593453039106692,1
108,575,37,0.0586813501022718,1
108,576,37,0.0618466252962739,1
109,576,37,0.0597991498598463,1
84,548,38,0.0679583462554876,1
84,549,38,0.087279412104647,1
84,550,38,0.0916183664296161,1
84,551,38,0.068618195795852,1
85,546,38,0.0611715734527641,1
85,547,38,0.0703435333671802,1
85,548,38,0.0872540788640292,1
85,549,38,0.113557713509448,1
85,550,38,0.118133217558379,1
85,551,38,0.087060730099277,1
85,552,38,0.0613570144252284,1
86,546,38,0.0697895869153293,1
86,547,38,0.0817484332782355,1
86,548,38,0.0903081673141189,1
86,549,38,0.103071780439964,1
86,550,38,0.106345464920632,1
86,551,38,0.0888367400487776,1
86,552,38,0.0759220179166867,1
86,553,38,0.0717305164971289,1
86,554,38,0.0668940729935106,1
86,555,38,0.0604693190396617,1
87,546,38,0.057744592202287,1
87,547,38,0.0731237444831797,1
87,548,38,0.0850692224902943,1
87,549,38,0.0952707227087641,1
87,550,38,0.102580152816523,1
87,551,38,0.102500037032763,1
87,552,38,0.101955796938933,1
87,553,38,0.0980641311693871,1
87,554,38,0.0902757695431799,1
87,555,38,0.0798015359963648,1
87,556,38,0.0639041137314373,1
88,548,38,0.0609000843780897,1
88,549,38,0.0745760126007633,1
88,550,38,0.08953040262492,1
88,551,38,0.10262492236093,1
88,552,38,0.113380616702597,1
88,553,38,0.117660719598012,1
88,554,38,0.119795375348521,1
88,555,38,0.109895126044902,1
88,556,38,0.0821647629153059,1
88,557,38,0.0625846269404342,1
89,550,38,0.0682860803136378,1
89,551,38,0.0860712417901666,1
89,552,38,0.101609186785993,1
89,553,38,0.117246212114422,1
89,554,38,0.133139341409338,1
89,555,38,0.128092259322184,1
89,556,38,0.0953813787283619,1
89,557,38,0.0687916011202482,1
89,558,38,0.0573393664972658,1
90,551,38,0.0656284488235045,1
90,552,38,0.0806178076830577,1
90,553,38,0.10237187300772,1
90,554,38,0.122967656103476,1
90,555,38,0.120040003875939,1
90,556,38,0.0942384108444008,1
90,557,38,0.0706686491853783,1
90,558,38,0.0583684527371835,1
91,552,38,0.0568599809146819,1
91,553,38,0.0755712032477875,1
91,554,38,0.088960522649757,1
91,555,38,0.0877460131281853,1
91,556,38,0.0754807501337661,1
91,557,38,0.0633573969241389,1
92,554,38,0.05741419272869,1
92,555,38,0.0586094546484515,1
83,549,39,0.059447887023748,1
84,548,39,0.0643486837989822,1
84,549,39,0.0801435760232624,1
84,550,39,0.0861650797459279,1
84,551,39,0.0686116148143507,1
85,547,39,0.0616333389881026,1
85,548,39,0.0789338842990802,1
85,549,39,0.102210780487423,1
85,550,39,0.111022042466814,1
85,551,39,0.088944064299067,1
85,552,39,0.0646254801168027,1
85,553,39,0.056844725539105,1
86,547,39,0.0638303194639581,1
86,548,39,0.0782450041387062,1
86,549,39,0.0936012645108283,1
86,550,39,0.101012228076911,1
86,551,39,0.090560827469498,1
86,552,39,0.0759124353943395,1
86,553,39,0.0707258848542414,1
86,554,39,0.0676565999979431,1
86,555,39,0.0612695333673689,1
87,547,39,0.0571780498933692,1
87,548,39,0.0726633529341223,1
87,549,39,0.0849234384180056,1
87,550,39,0.0931342389078382,1
87,551,39,0.0949025415609031,1
87,552,39,0.0897551054027924,1
87,553,39,0.086978202468354,1
87,554,39,0.0842208066009462,1
87,555,39,0.0768793620231418,1
87,556,39,0.0625629085220927,1
88,549,39,0.0656927961981835,1
88,550,39,0.0790107036951527,1
88,551,39,0.090204446092232,1
88,552,39,0.0945201605891578,1
88,553,39,0.0996779871499614,1
88,554,39,0.105821144679411,1
88,555,39,0.100190914509229,1
88,556,39,0.0767481315909473,1
88,557,39,0.0607820335997082,1
89,550,39,0.0598276202708572,1
89,551,39,0.0740048411964347,1
89,552,39,0.0859577257562067,1
89,553,39,0.104222555868287,1
89,554,39,0.122124311579801,1
89,555,39,0.118192163338923,1
89,556,39,0.0878059849757372,1
89,557,39,0.0646638750724969,1
90,552,39,0.0720256228038038,1
90,553,39,0.0984699583619649,1
90,554,39,0.119053505313801,1
90,555,39,0.111653958217419,1
90,556,39,0.0839757475971398,1
90,557,39,0.0630472888101708,1
91,553,39,0.0790920755264573,1
91,554,39,0.0951475239045308,1
91,555,39,0.0875236691250446,1
91,556,39,0.0697824929003239,1
91,557,39,0.0570610841513643,1
92,554,39,0.0601187815267934,1
92,555,39,0.0577142347714909,1
84,548,40,0.0571395428958753,1
84,549,40,0.0682854493413971,1
84,550,40,0.0736293419499689,1
84,551,40,0.0648010967925098,1
85,548,40,0.066195380330253,1
85,549,40,0.0852263345782317,1
85,550,40,0.0969791360713927,1
85,551,40,0.0886019240242433,1
85,552,40,0.0688166807925823,1
85,553,40,0.0590299770076074,1
86,548,40,0.0660480453635782,1
86,549,40,0.0847027632479875,1
86,550,40,0.0983271935213327,1
86,551,40,0.0981856729343714,1
86,552,40,0.0833357884246998,1
86,553,40,0.0731522266880642,1
86,554,40,0.0680003855181421,1
86,555,40,0.0598093515605606,1
87,548,40,0.0595674651087683,1
87,549,40,0.0773123681975649,1
87,550,40,0.090369819788667,1
87,551,40,0.0954157224884545,1
87,552,40,0.087620367095168,1
87,553,40,0.0811992633452162,1
87,554,40,0.0783071519559479,1
87,555,40,0.0710881513744628,1
87,556,40,0.0604856063791836,1
88,549,40,0.0590832912134792,1
88,550,40,0.0726019186462369,1
88,551,40,0.0823010352284893,1
88,552,40,0.0845709195343628,1
88,553,40,0.0874476281246335,1
88,554,40,0.0924663400487021,1
88,555,40,0.0875588089716091,1
88,556,40,0.0710716222605308,1
88,557,40,0.0576478706444163,1
89,551,40,0.0643773900874662,1
89,552,40,0.0764210520927851,1
89,553,40,0.0938415705835505,1
89,554,40,0.110498677529359,1
89,555,40,0.106006497197823,1
89,556,40,0.0811524357698564,1
89,557,40,0.060047717541066,1
90,552,40,0.0641938597225345,1
90,553,40,0.090395695547473,1
90,554,40,0.111635135195061,1
90,555,40,0.102871555846869,1
90,556,40,0.076792270163113,1
91,553,40,0.0750189845984276,1
91,554,40,0.0954203574808022,1
91,555,40,0.0862460623794017,1
91,556,40,0.0659979626790888,1
92,554,40,0.0583145547345657,1
84,549,41,0.0587433740838401,1
84,550,41,0.0628938799985621,1
84,551,41,0.0600844790452586,1
85,548,41,0.0570255492100322,1
85,549,41,0.0695258051370906,1
85,550,41,0.0818815448332785,1
85,551,41,0.0824958523305119,1
85,552,41,0.0719129677226209,1
85,553,41,0.0617570567227769,1
85,554,41,0.0573002521152784,1
86,549,41,0.0737492738511989,1
86,550,41,0.092885169986988,1
86,551,41,0.0989909940093726,1
86,552,41,0.0897857340926827,1
86,553,41,0.0755320063086845,1
86,554,41,0.0681611419130399,1
86,555,41,0.0587685127255425,1
87,549,41,0.0676252165001387,1
87,550,41,0.0863674744117758,1
87,551,41,0.0932269092701073,1
87,552,41,0.0881969459905689,1
87,553,41,0.078933200254408,1
87,554,41,0.0744289135115617,1
87,555,41,0.0675374641831851,1
87,556,41,0.0601552658749549,1
88,550,41,0.0665900151367292,1
88,551,41,0.074527303902555,1
88,552,41,0.0783015793506444,1
88,553,41,0.0801783561566804,1
88,554,41,0.0824219165365488,1
88,555,41,0.0780539256946332,1
88,556,41,0.0670210871158724,1
89,551,41,0.0573423149656803,1
89,552,41,0.0690348261767007,1
89,553,41,0.0845270993967858,1
89,554,41,0.0965417248851583,1
89,555,41,0.0920895670638812,1
89,556,41,0.0726445476025744,1
90,553,41,0.0783558016847879,1
90,554,41,0.0970867315807763,1
90,555,41,0.0906952658353275,1
90,556,41,0.0677245209163406,1
91,553,41,0.0635324415969735,1
91,554,41,0.083482280129408,1
91,555,41,0.0775638312747677,1
91,556,41,0.0581061333992784,1
96,575,41,0.0636858622024559,1
97,575,41,0.0598901985644874,1
85,549,42,0.0597935772545428,1
85,550,42,0.0701812968411383,1
85,551,42,0.07435889918059,1
85,552,42,0.070432524040868,1
85,553,42,0.0623000112843783,1
86,549,42,0.0644709921657543,1
86,550,42,0.0847021204818731,1
86,551,42,0.0946297197785054,1
86,552,42,0.0897724188093226,1
86,553,42,0.0758421203195895,1
86,554,42,0.065565428259612,1
86,555,42,0.0569595271052937,1
87,549,42,0.0581039161510306,1
87,550,42,0.078917709001358,1
87,551,42,0.089007373812864,1
87,552,42,0.0862498600067197,1
87,553,42,0.0775260672913142,1
87,554,42,0.0700082217452046,1
87,555,42,0.0643901923373221,1
87,556,42,0.0585880959432566,1
88,550,42,0.0597535193626628,1
88,551,42,0.0682141435812597,1
88,552,42,0.0722016817497731,1
88,553,42,0.0755506878045591,1
88,554,42,0.0746256766027379,1
88,555,42,0.0711296776036132,1
88,556,42,0.063310746256884,1
89,552,42,0.0614914409971843,1
89,553,42,0.076052015889084,1
89,554,42,0.0826538548559105,1
89,555,42,0.0782000989647526,1
89,556,42,0.0632309724954601,1
90,553,42,0.0670837597604919,1
90,554,42,0.0808165285572611,1
90,555,42,0.077208269571721,1
90,556,42,0.0586181821149586,1
91,554,42,0.0657939699433602,1
91,555,42,0.0644951047404485,1
93,572,42,0.0572853446589745,1
93,573,42,0.0698064757424078,1
96,575,42,0.0671279690958996,1
96,576,42,0.0638346242278433,1
97,575,42,0.0612220335412106,1
97,576,42,0.0585433263988501,1
85,550,43,0.0600805870669514,1
85,551,43,0.0652756881654516,1
85,552,43,0.0655213250690673,1
85,553,43,0.0609361382498627,1
86,550,43,0.0702422475802038,1
86,551,43,0.0811733050292946,1
86,552,43,0.080119610871989,1
86,553,43,0.0710858102905416,1
86,554,43,0.0607469822071961,1
87,550,43,0.0637084474705113,1
87,551,43,0.0755260680932976,1
87,552,43,0.0758435237905548,1
87,553,43,0.071554516520528,1
87,554,43,0.0646608086653458,1
87,555,43,0.0594359811082901,1
88,551,43,0.0592528222503787,1
88,552,43,0.0636488412330429,1
88,553,43,0.069364523914815,1
88,554,43,0.068415942656488,1
88,555,43,0.0639894542012278,1
88,556,43,0.0586264319295825,1
89,553,43,0.0649602610144637,1
89,554,43,0.0687164682481088,1
89,555,43,0.0635817458858015,1
90,554,43,0.0636380616325193,1
90,555,43,0.0607866214165612,1
93,572,43,0.0584013045722584,1
93,573,43,0.0754089844125561,1
94,573,43,0.0586056452272599,1
96,575,43,0.0619652362836542,1
96,576,43,0.0608545895104533,1
109,579,43,0.0570307208236313,1
110,579,43,0.0582410081384333,1
111,579,43,0.0577242123886057,1
85,551,44,0.0589144737059361,1
85,552,44,0.0612882030693698,1
85,553,44,0.0583762779723557,1
86,550,44,0.0577579428672681,1
86,551,44,0.0677215665509892,1
86,552,44,0.0695205863479968,1
86,553,44,0.064222961105786,1
87,551,44,0.0622346260488174,1
87,552,44,0.0655207117876371,1
87,553,44,0.06437111574668,1
87,554,44,0.0598003174533385,1
88,553,44,0.0628513277024034,1
88,554,44,0.0636666499822667,1
89,554,44,0.0594648112324475,1
93,573,44,0.0679898594859022,1
93,574,44,0.0632156758413254,1
99,578,44,0.0570740220307673,1
100,578,44,0.0601511144314273,1
100,579,44,0.0705137484487518,1
112,579,44,0.0576231212005446,1
113,579,44,0.0573822372280132,1
114,579,44,0.0576319371211041,1
85,552,45,0.059372294190536,1
85,553,45,0.0573165984241686,1
86,552,45,0.0599268008513856,1
86,553,45,0.058247365036335,1
87,553,45,0.0569347186920537,1
88,554,45,0.0582926594081193,1
93,574,45,0.059922230725343,1
94,575,45,0.0575024816668952,1
99,578,45,0.0607898116593858,1
99,579,45,0.0792870518457743,1
100,578,45,0.0664688330848915,1
100,579,45,0.0869749709469716,1
100,580,45,0.0868135717859595,1
101,578,45,0.058595431732672,1
113,579,45,0.0574410061004519,1
114,579,45,0.0580205924336356,1
85,552,46,0.0578051655373954,1
99,578,46,0.0641946793967537,1
99,579,46,0.0884042528047954,1
99,580,46,0.0954573725532784,1
100,578,46,0.0718276272528304,1
100,579,46,0.101187072253893,1
100,580,46,0.108263809234377,1
100,581,46,0.0785273317832724,1
101,578,46,0.061352438402249,1
101,579,46,0.0780381336978049,1
101,580,46,0.081659365944369,1
102,579,46,0.0582152739061111,1
99,578,47,0.0628481079748947,1
99,579,47,0.0887964403824876,1
99,580,47,0.0990945678078387,1
100,578,47,0.0691715702448304,1
100,579,47,0.102330299603075,1
100,580,47,0.115892181067474,1
100,581,47,0.0847569914790678,1
101,578,47,0.0613040894171873,1
101,579,47,0.0816216137547891,1
101,580,47,0.0903213823495529,1
102,579,47,0.0605258706638526,1
111,580,47,0.0593003810459052,1
112,580,47,0.0616448616026667,1
113,580,47,0.0587248518052599,1
99,578,48,0.0586926545301731,1
99,579,48,0.0812972350536947,1
100,578,48,0.0640753136014593,1
100,579,48,0.093634434780492,1
100,580,48,0.105648671071034,1
101,578,48,0.060310974491927,1
101,579,48,0.0802178538395616,1
102,579,48,0.0624863309004302,1
111,580,48,0.058465492729643,1
112,580,48,0.0615063779381724,1
113,580,48,0.0595882164294699,1
100,578,49,0.0581293496395745,1
100,579,49,0.0788985380597266,1
101,578,49,0.0571039253974276,1
101,579,49,0.0732225063811933,1
102,579,49,0.0632548315018706,1
112,580,49,0.0593161789396704,1
113,580,49,0.060669113156368,1
101,579,50,0.0669207507357254,1
102,579,50,0.063496163641601,1
113,580,50,0.0595429692331803,1
114,580,50,0.0574431820701418,1
101,579,51,0.0625001179387366,1
102,579,51,0.0632621260127281,1
102,580,51,0.0676421407088382,1
103,579,51,0.0579306169714974,1
113,580,51,0.0581618122768186,1
114,580,51,0.0571811870637623,1
101,579,52,0.0594973682206809,1
102,579,52,0.0610891460697671,1
102,580,52,0.0654479494841029,1
103,579,52,0.0577009076942571,1
103,580,52,0.058982860482343,1
107,581,52,0.0571594155729893,1
102,579,53,0.0582091469887457,1
103,579,53,0.0573342420591613,1
103,580,53,0.0600937254422066,1
107,580,53,0.0588306487489106,1
107,581,53,0.0600129492015217,1
108,580,53,0.057933081891092,1
108,581,53,0.0592553933148361,1
103,579,54,0.057055470267503,1
103,580,54,0.0609943881918605,1
104,580,54,0.0579403999896969,1
105,579,54,0.0573990906734708,1
105,580,54,0.0588752944576436,1
106,579,54,0.0575486428883933,1
106,580,54,0.0595409288930374,1
107,580,54,0.060964178184485,1
107,581,54,0.0621175659558232,1
108,580,54,0.0608930257447053,1
108,581,54,0.0656917465434279,1
109,581,54,0.0628251511998191,1
103,579,55,0.0573684560866436,1
104,579,55,0.0588347883985646,1
104,580,55,0.06153630489258,1
105,579,55,0.061971451655072,1
105,580,55,0.0654265318095397,1
106,579,55,0.0640155717344439,1
106,580,55,0.0687696881029913,1
107,579,55,0.0594565909025078,1
107,580,55,0.0658897715790855,1
107,581,55,0.0655191667901878,1
108,580,55,0.0645851863474496,1
108,581,55,0.0726156879937328,1
108,582,55,0.0711288815171413,1
109,580,55,0.0609146910906153,1
109,581,55,0.0724982740845289,1
109,582,55,0.0692046166788206,1
110,581,55,0.0595831214760495,1
113,580,55,0.0586493769107844,1
104,579,56,0.0588257248066583,1
105,579,56,0.0651995351232408,1
105,580,56,0.0706334090908877,1
106,579,56,0.0705313154235657,1
106,580,56,0.0789064399550776,1
107,579,56,0.061696984627299,1
107,580,56,0.0702505976427538,1
107,581,56,0.0684084358559045,1
107,582,56,0.0659931212939521,1
108,580,56,0.0644600238632522,1
108,581,56,0.0739527181718024,1
108,582,56,0.0717798974461357,1
108,583,56,0.0619951809288723,1
109,580,56,0.0620827268530369,1
109,581,56,0.0771134350336357,1
109,582,56,0.0735942256911517,1
109,583,56,0.0589512646948128,1
110,581,56,0.0642011955119499,1
110,582,56,0.0633030094757642,1
104,579,57,0.0583667662132504,1
105,579,57,0.0661508997357512,1
106,579,57,0.0726576446992718,1
107,579,57,0.0628138054933599,1
107,580,57,0.0722664065284091,1
107,582,57,0.0653396581361736,1
107,583,57,0.060608421882523,1
108,580,57,0.062724337167789,1
108,581,57,0.0708953569217726,1
108,582,57,0.0687625056339334,1
108,583,57,0.0618693226061291,1
109,581,57,0.0738355283461979,1
109,582,57,0.0717860066726907,1
109,583,57,0.0607979671230204,1
110,582,57,0.0648854701646604,1
118,577,57,0.0614727771921202,1
84,540,58,0.0602766838042659,1
84,541,58,0.0576829633154862,1
85,538,58,0.0606265785510198,1
85,539,58,0.0626313129893101,1
85,540,58,0.0581074189315071,1
86,538,58,0.0582505847638437,1
98,574,58,0.0653785897131192,1
98,575,58,0.0663914416859465,1
99,574,58,0.061061996572606,1
99,575,58,0.0642354685088005,1
105,579,58,0.0628517817665392,1
106,579,58,0.0676949890567005,1
107,579,58,0.0594554056182051,1
107,583,58,0.0577761879898173,1
108,582,58,0.0654791914554235,1
108,583,58,0.0610793984331886,1
109,582,58,0.0671307288623356,1
109,583,58,0.0623563742065907,1
83,540,59,0.058190677782597,1
83,541,59,0.0579328578074925,1
84,539,59,0.0622172713637294,1
84,540,59,0.0686819534768481,1
84,541,59,0.0659537061681865,1
85,538,59,0.0721197497094697,1
85,539,59,0.07459779588541,1
85,540,59,0.0698697852562049,1
85,541,59,0.0611291508892156,1
86,538,59,0.0693755924652432,1
86,539,59,0.0690769951719655,1
86,540,59,0.0577141463174384,1
98,574,59,0.0786266126117269,1
98,575,59,0.0816549196539998,1
99,574,59,0.0741838368169448,1
99,575,59,0.0812453597004092,1
106,579,59,0.0605393923400017,1
108,583,59,0.0614907628494489,1
84,539,60,0.0641803793249432,1
84,540,60,0.0715164576902331,1
84,541,60,0.0680485045226675,1
85,538,60,0.0750855079427965,1
85,539,60,0.0792806654631883,1
85,540,60,0.0764099068821782,1
85,541,60,0.0657949724226211,1
86,538,60,0.0720728808555521,1
86,539,60,0.0746609108002917,1
86,540,60,0.0639024095166937,1
98,574,60,0.0784872503036451,1
98,575,60,0.0823934874040958,1
99,574,60,0.0720679687071735,1
99,575,60,0.080848171520286,1
103,576,60,0.0577688050249072,1
104,576,60,0.0580333887865548,1
111,578,60,0.0568825131103058,1
84,539,61,0.0610960042072993,1
84,540,61,0.0659908450763361,1
84,541,61,0.0617350788392149,1
85,538,61,0.0678102093054041,1
85,539,61,0.0732095154293588,1
85,540,61,0.071605442466984,1
85,541,61,0.061455982716031,1
86,538,61,0.0656473779907259,1
86,539,61,0.0708688855723468,1
86,540,61,0.0632366984211211,1
98,574,61,0.0629988985465513,1
98,575,61,0.0665994679264662,1
99,575,61,0.0633735840157347,1
103,576,61,0.0686475389535136,1
103,577,61,0.0607667074608894,1
104,576,61,0.0695805169169909,1
104,577,61,0.0600311294577658,1
112,578,61,0.0595510126550151,1
84,540,62,0.0576123121153369,1
85,539,62,0.0633258542090401,1
85,540,62,0.0618646935107182,1
86,539,62,0.0616278253521674,1
103,576,62,0.0698997534891704,1
103,577,62,0.0596723952027051,1
104,576,62,0.0700531033314108,1
104,577,62,0.0588029921151822,1
112,578,62,0.0612662546704919,1
113,578,62,0.0618431755882289,1
103,576,63,0.061118029266356,1
104,576,63,0.0591017899043121,1
112,578,63,0.0617630657014057,1
