x,y,z,signal,cytoplasm.p
465,637,11,0.0651268140982645,1
465,638,11,0.0687424914303355,1
466,636,11,0.059503919717498,1
466,637,11,0.0644638745630016,1
466,638,11,0.0730234906601484,1
466,639,11,0.0742332531475726,1
466,640,11,0.073443228726706,1
467,637,11,0.0587744096623716,1
467,638,11,0.067258822124137,1
499,637,11,0.0752192209853961,1
463,636,12,0.0622311763407724,1
463,637,12,0.0681202053775724,1
463,638,12,0.0699941280661831,1
463,639,12,0.0709259974055365,1
464,635,12,0.0575808106787959,1
464,636,12,0.0709000508834885,1
464,637,12,0.0792668253524505,1
464,638,12,0.0780151061594873,1
464,639,12,0.0698664829715806,1
464,640,12,0.0701973483031871,1
464,641,12,0.0686822424267527,1
464,642,12,0.0587743212083192,1
465,635,12,0.0598265824099752,1
465,636,12,0.0788075896030116,1
465,637,12,0.0906213359383012,1
465,638,12,0.0912996900664354,1
465,639,12,0.0777843177428073,1
465,640,12,0.0780323605966492,1
465,641,12,0.073062180462684,1
466,636,12,0.0714163748783698,1
466,637,12,0.0852793008648306,1
466,638,12,0.0931263723941082,1
466,639,12,0.0817925954381485,1
466,640,12,0.0769433201999901,1
466,641,12,0.0668320902905001,1
467,636,12,0.0594895311916351,1
467,637,12,0.0683777835782669,1
467,638,12,0.0761024700805937,1
467,639,12,0.0682065483266239,1
467,640,12,0.0614850251299142,1
468,638,12,0.0571942192941546,1
470,625,12,0.0658330961192212,1
470,626,12,0.0606735830344844,1
471,624,12,0.0590949848392113,1
471,625,12,0.0632385441623486,1
471,626,12,0.0579688527098972,1
472,623,12,0.062845094640175,1
472,624,12,0.0611990590753245,1
472,626,12,0.0572323901662493,1
472,627,12,0.0723154926305745,1
472,628,12,0.0720391032013951,1
473,623,12,0.0678640837202746,1
473,627,12,0.0740726028975378,1
473,628,12,0.0669859649601183,1
474,627,12,0.0670293015488753,1
474,630,12,0.0593232198822443,1
493,629,12,0.0890202173412778,1
497,638,12,0.0678356840725057,1
498,637,12,0.0717860125696275,1
498,638,12,0.0620069983902778,1
499,636,12,0.0699151385973574,1
499,637,12,0.0829713341409149,1
499,638,12,0.0683524326468387,1
500,637,12,0.0785453646160957,1
459,639,13,0.058159866287665,1
460,638,13,0.0610567070202703,1
460,639,13,0.0650321033958525,1
460,640,13,0.0633234482588138,1
462,637,13,0.0613050565148273,1
462,638,13,0.0664698060794683,1
462,639,13,0.0728881618568577,1
462,640,13,0.0730204183560604,1
462,641,13,0.0681029037649158,1
462,642,13,0.0611769455622154,1
463,636,13,0.0598960542227587,1
463,637,13,0.0681122798944741,1
463,638,13,0.0697349930741656,1
463,639,13,0.0725045779099992,1
463,640,13,0.0723628332394384,1
463,641,13,0.0687429867730292,1
463,642,13,0.0603626493493603,1
464,636,13,0.0738546167307137,1
464,637,13,0.0966859108875664,1
464,638,13,0.0895359044669815,1
464,639,13,0.0753554874016426,1
464,640,13,0.07226171846363,1
464,641,13,0.071916865597865,1
464,642,13,0.0588566955188847,1
465,636,13,0.0873408169078482,1
465,637,13,0.120776861514354,1
465,638,13,0.110266314630546,1
465,639,13,0.0825293941071957,1
465,640,13,0.0762329221171267,1
465,641,13,0.0761018567991635,1
465,642,13,0.0585003436263029,1
466,636,13,0.0768953250311382,1
466,637,13,0.103804569191968,1
466,638,13,0.0996271909361156,1
466,639,13,0.0782394020487185,1
466,640,13,0.0684369947209678,1
466,641,13,0.0640601348860613,1
467,627,13,0.0635295344071168,1
467,628,13,0.0753778957615932,1
467,629,13,0.067319548779603,1
467,636,13,0.0633478085048548,1
467,637,13,0.0726570078300943,1
467,638,13,0.0714709687195335,1
467,639,13,0.0613031753919788,1
468,627,13,0.0703325532708044,1
468,628,13,0.0800838400531838,1
468,629,13,0.0673441213153698,1
469,627,13,0.0604328464853738,1
469,628,13,0.062635629547069,1
470,624,13,0.0644271248526827,1
470,625,13,0.075517222688054,1
470,626,13,0.0633759309965927,1
471,624,13,0.0705819583170539,1
471,625,13,0.0790544589664245,1
471,626,13,0.0643034071180085,1
472,623,13,0.0603881889827671,1
472,624,13,0.0616811218672287,1
472,625,13,0.0582067587293299,1
472,626,13,0.0573438717570032,1
472,627,13,0.0684378910553658,1
472,628,13,0.0629943107296983,1
473,623,13,0.0695107679481764,1
473,627,13,0.0676444287203279,1
473,628,13,0.0600521756253088,1
480,652,13,0.0582711827641877,1
493,627,13,0.102393844994345,1
493,628,13,0.117616244900447,1
493,629,13,0.075010687608309,1
494,626,13,0.0818214432531164,1
494,627,13,0.161904210063797,1
494,628,13,0.190716914669814,1
494,629,13,0.120166127560839,1
495,629,13,0.111749854204134,1
496,638,13,0.0823535887295102,1
497,637,13,0.0660811625608104,1
497,638,13,0.0715078835440836,1
497,639,13,0.0694825157238282,1
498,636,13,0.0716667411253224,1
498,637,13,0.0705886926189127,1
498,638,13,0.0659038121856756,1
499,636,13,0.0657167908341411,1
499,637,13,0.0800060063839766,1
499,638,13,0.0707706367078374,1
500,637,13,0.0740133976517737,1
500,638,13,0.0663919016470192,1
458,639,14,0.0592422549395809,1
459,638,14,0.0646492388752871,1
459,639,14,0.0704290448481388,1
459,640,14,0.0667831634056291,1
459,641,14,0.0586529740422502,1
460,636,14,0.0575701490170089,1
460,637,14,0.059283792962605,1
460,638,14,0.0695582029080296,1
460,639,14,0.0760365364299076,1
460,640,14,0.0727882559530993,1
460,641,14,0.0636102929569911,1
461,637,14,0.0603870803586432,1
461,638,14,0.0672938027534072,1
461,639,14,0.0723841270783282,1
461,640,14,0.0726486459736706,1
461,641,14,0.0671379113313934,1
461,642,14,0.0600299441734632,1
462,637,14,0.0588457625980036,1
462,638,14,0.0630228106253933,1
462,639,14,0.0688814114681552,1
462,640,14,0.0716149955046471,1
462,641,14,0.0676445761437486,1
462,642,14,0.0610804952634388,1
463,637,14,0.062912826856594,1
463,638,14,0.0642589795959381,1
463,639,14,0.0700382961230329,1
463,640,14,0.0748310433247477,1
463,641,14,0.0712227902361445,1
463,642,14,0.0612465824892301,1
464,636,14,0.0691233215076948,1
464,637,14,0.101438529434159,1
464,638,14,0.0897579064477862,1
464,639,14,0.0753425200375555,1
464,640,14,0.0756498742820244,1
464,641,14,0.075026043231812,1
464,642,14,0.0587353896313735,1
465,636,14,0.0879941798177007,1
465,637,14,0.137734847867993,1
465,638,14,0.117649173395701,1
465,639,14,0.080986973619369,1
465,640,14,0.0718351753319716,1
465,641,14,0.073119593039652,1
466,628,14,0.0651251688528892,1
466,629,14,0.0571290109666985,1
466,636,14,0.074512779747145,1
466,637,14,0.110346796024389,1
466,638,14,0.0930735712217406,1
466,639,14,0.0655310019424038,1
467,627,14,0.0843998258092036,1
467,628,14,0.115952235472141,1
467,629,14,0.0879937611351858,1
467,636,14,0.0672800746844691,1
467,637,14,0.0787143590317437,1
467,638,14,0.0648807997906918,1
468,627,14,0.0964270117730221,1
468,628,14,0.12850043349562,1
468,629,14,0.0931612763631996,1
468,636,14,0.0629520120018232,1
468,637,14,0.0667187098860872,1
468,650,14,0.0578990093900935,1
469,627,14,0.067968129273687,1
469,628,14,0.0827689630628143,1
469,629,14,0.0605024362368938,1
469,650,14,0.058318476197557,1
469,651,14,0.0573847198384183,1
470,624,14,0.061677111950185,1
470,625,14,0.0733538370613139,1
470,626,14,0.0572794536190822,1
470,651,14,0.0578799210055777,1
471,624,14,0.0698642185478383,1
471,625,14,0.080620968441198,1
471,626,14,0.060745537457673,1
473,623,14,0.0568965537168959,1
479,653,14,0.0572294004192769,1
480,652,14,0.0641903864267422,1
480,653,14,0.06786161880068,1
481,652,14,0.0686539666146573,1
482,652,14,0.0603515749019953,1
493,627,14,0.0772439165548529,1
493,628,14,0.0863071310572038,1
493,629,14,0.0584271862280012,1
494,626,14,0.063422086321154,1
494,627,14,0.120840041295541,1
494,628,14,0.138961693781411,1
494,629,14,0.093860493853835,1
495,626,14,0.057974897070147,1
495,627,14,0.106994434612547,1
495,628,14,0.125824438944201,1
495,629,14,0.0892616084503765,1
495,638,14,0.0615584773750574,1
496,638,14,0.0723653866130854,1
497,637,14,0.0605681693917277,1
497,638,14,0.0673181217208903,1
497,639,14,0.0643398973631069,1
498,636,14,0.0628769852745468,1
498,637,14,0.065756506703685,1
498,638,14,0.0659273527574973,1
499,636,14,0.0594840411434472,1
499,637,14,0.0692079779328132,1
499,638,14,0.0674918042013175,1
500,637,14,0.0658639312019005,1
500,638,14,0.0654483327849968,1
458,639,15,0.0659648277910461,1
458,640,15,0.0652059156088899,1
458,641,15,0.0604912320569186,1
459,636,15,0.0577919033264668,1
459,637,15,0.0603074363298295,1
459,638,15,0.0734644459054171,1
459,639,15,0.0817490111780448,1
459,640,15,0.0773994010882254,1
459,641,15,0.067414465874804,1
460,634,15,0.0607771096574559,1
460,635,15,0.060768340912391,1
460,636,15,0.0582970821107411,1
460,637,15,0.0633002261215809,1
460,638,15,0.0760503706437087,1
460,639,15,0.0847705485368379,1
460,640,15,0.0812992989815849,1
460,641,15,0.070627358833701,1
460,642,15,0.0593733379483547,1
461,634,15,0.0574068038668432,1
461,635,15,0.0600727146562845,1
461,636,15,0.0601492038238946,1
461,637,15,0.0614602108197374,1
461,638,15,0.0673547122139148,1
461,639,15,0.0736141750284445,1
461,640,15,0.0741076307023025,1
461,641,15,0.0688895492409793,1
461,642,15,0.0604153856554228,1
462,635,15,0.0596981648166482,1
462,636,15,0.0589936282889929,1
462,638,15,0.0585453903267403,1
462,639,15,0.0634811972159288,1
462,640,15,0.0670290951560863,1
462,641,15,0.065456883343399,1
462,642,15,0.059759310154629,1
463,638,15,0.0573463720582187,1
463,639,15,0.0635949255396145,1
463,640,15,0.0728136422661485,1
463,641,15,0.0723681817611424,1
463,642,15,0.0626095297046635,1
464,636,15,0.0615627290665111,1
464,637,15,0.0905895514487925,1
464,638,15,0.0795977437564884,1
464,639,15,0.0678742559363048,1
464,640,15,0.0753302485120141,1
464,641,15,0.07562635729795,1
464,642,15,0.0600085382927736,1
465,636,15,0.0828981118763081,1
465,637,15,0.131045327347455,1
465,638,15,0.110121521243644,1
465,639,15,0.0720494464285933,1
465,640,15,0.0650203508007521,1
465,641,15,0.0647400281147078,1
466,628,15,0.068575549148704,1
466,636,15,0.0667732152731985,1
466,637,15,0.100884111227362,1
466,638,15,0.0793304061253417,1
467,627,15,0.0916685493620316,1
467,628,15,0.137505103209132,1
467,629,15,0.0924220304653683,1
467,636,15,0.0643486307265507,1
467,637,15,0.0785337948260371,1
467,638,15,0.0578795200138734,1
468,627,15,0.108657606675823,1
468,628,15,0.160032038765425,1
468,629,15,0.106283700404285,1
468,636,15,0.0610982804249153,1
468,637,15,0.0700646790184063,1
468,650,15,0.067065815381721,1
469,627,15,0.0653209648464254,1
469,628,15,0.0905610043776029,1
469,629,15,0.0608805891049327,1
469,649,15,0.061282606876319,1
469,650,15,0.0750157707678557,1
469,651,15,0.06130358228062,1
470,625,15,0.059626853159574,1
470,650,15,0.0613325893128823,1
471,625,15,0.066024487100946,1
479,652,15,0.0613512708087569,1
479,653,15,0.0734980171667851,1
480,652,15,0.0806557603684897,1
480,653,15,0.10142125140925,1
480,654,15,0.0767794207377625,1
481,652,15,0.0816534100381716,1
481,653,15,0.10017183202165,1
482,652,15,0.0622350801129532,1
482,653,15,0.0686579470470169,1
493,628,15,0.0572760569834687,1
494,627,15,0.0785200136846675,1
494,628,15,0.0916733907471683,1
494,629,15,0.0691171297240243,1
495,627,15,0.0710235799161842,1
495,628,15,0.0864579039380499,1
495,629,15,0.0701613062252877,1
497,638,15,0.0600971633563779,1
498,636,15,0.0590330552086322,1
498,637,15,0.0673494226615791,1
498,638,15,0.0691753678721484,1
499,636,15,0.0579671484951536,1
499,637,15,0.0665331686656968,1
499,638,15,0.0683761796114494,1
500,637,15,0.0630750338979517,1
500,638,15,0.0663924795468284,1
458,638,16,0.0656594785050992,1
458,639,16,0.073489083307489,1
458,640,16,0.0768317501551838,1
458,641,16,0.0713542093703175,1
459,631,16,0.0586811614002932,1
459,634,16,0.0587239318831146,1
459,635,16,0.0586104099522178,1
459,636,16,0.0573523043766688,1
459,637,16,0.0645321198129246,1
459,638,16,0.0793893401120116,1
459,639,16,0.0918163973622105,1
459,640,16,0.0978607222304046,1
459,641,16,0.0913578692451911,1
459,642,16,0.0692525882599253,1
460,634,16,0.0594316822413417,1
460,635,16,0.0614304430826242,1
460,636,16,0.0620262400951511,1
460,637,16,0.0681333437528276,1
460,638,16,0.0799109005867971,1
460,639,16,0.0922237518614271,1
460,640,16,0.0996613106126087,1
460,641,16,0.0934374888842741,1
460,642,16,0.0714576475392366,1
461,634,16,0.0617249066231847,1
461,635,16,0.0680633353187926,1
461,636,16,0.0664273304434883,1
461,637,16,0.0649145951356593,1
461,638,16,0.0675252575239489,1
461,639,16,0.0741805935016888,1
461,640,16,0.0789208343778774,1
461,641,16,0.0762683745013432,1
461,642,16,0.0634464347733213,1
462,634,16,0.0619197355190809,1
462,635,16,0.0690253910777742,1
462,636,16,0.0643503349412943,1
462,637,16,0.0576270662512833,1
462,639,16,0.0592349427379129,1
462,640,16,0.0632311906821227,1
462,641,16,0.0639072744895777,1
462,642,16,0.0576268303738101,1
463,640,16,0.0675810602371625,1
463,641,16,0.0710383635368148,1
463,642,16,0.0606819566847817,1
463,647,16,0.060573918905136,1
463,648,16,0.0588132822699489,1
464,637,16,0.0709762628950676,1
464,638,16,0.0644847733071239,1
464,639,16,0.0586255414921213,1
464,640,16,0.0700308247040705,1
464,641,16,0.0723984330470756,1
464,642,16,0.0574098525831838,1
464,647,16,0.0663603235502994,1
464,648,16,0.0632759602265292,1
465,636,16,0.0696007964827461,1
465,637,16,0.102005861932612,1
465,638,16,0.0872777491684611,1
465,639,16,0.058751417505675,1
465,647,16,0.0634181058887943,1
465,648,16,0.0619635733474684,1
466,628,16,0.063168559316061,1
466,637,16,0.0810503067209135,1
466,638,16,0.0632937453880057,1
467,627,16,0.0838162885283444,1
467,628,16,0.129743248313971,1
467,629,16,0.0832088686533274,1
467,637,16,0.0700870048212412,1
468,627,16,0.101268320249524,1
468,628,16,0.155458905285099,1
468,629,16,0.100930060159134,1
468,637,16,0.0635141787836138,1
468,650,16,0.0666189101271917,1
469,628,16,0.0822805787546292,1
469,649,16,0.063220865145735,1
469,650,16,0.0808881173703662,1
469,651,16,0.0594896786150558,1
470,650,16,0.0601984727311017,1
479,652,16,0.0620307394579517,1
479,653,16,0.0834246375719037,1
480,652,16,0.0865924130671214,1
480,653,16,0.123284050352104,1
481,652,16,0.0787263769890014,1
481,653,16,0.108306267179546,1
482,652,16,0.0568867353170755,1
495,628,16,0.0598768891780642,1
495,629,16,0.0573344779366344,1
498,637,16,0.0687031824494328,1
498,638,16,0.0688697650179177,1
499,636,16,0.0588204057696385,1
499,637,16,0.0688244352645125,1
499,638,16,0.0696830115760172,1
500,637,16,0.0622242120583772,1
500,638,16,0.0643723128248564,1
457,639,17,0.0616654242213897,1
457,640,17,0.0642044977965742,1
457,641,17,0.0570126761969343,1
458,638,17,0.0658530808381349,1
458,639,17,0.0749280361417125,1
458,640,17,0.0844927379458827,1
458,641,17,0.0827625648863547,1
458,642,17,0.0619572990066822,1
459,630,17,0.0624483192456299,1
459,631,17,0.0626826340305337,1
459,636,17,0.0578968746989614,1
459,637,17,0.0661717218196947,1
459,638,17,0.0764297972501027,1
459,639,17,0.0899601242055293,1
459,640,17,0.112133096128656,1
459,641,17,0.117280520492893,1
459,642,17,0.081869002048643,1
460,630,17,0.0593323778251399,1
460,631,17,0.0586310610249933,1
460,634,17,0.0598865070820324,1
460,635,17,0.0644461365770197,1
460,636,17,0.0653012985621004,1
460,637,17,0.0689654605087802,1
460,638,17,0.0759189102309778,1
460,639,17,0.0890752711435142,1
460,640,17,0.110834048120703,1
460,641,17,0.116020663527106,1
460,642,17,0.081810415981246,1
461,634,17,0.066260659420951,1
461,635,17,0.0757971031038362,1
461,636,17,0.0716167999673168,1
461,637,17,0.0649244135354797,1
461,638,17,0.0638665738315833,1
461,639,17,0.069625433884818,1
461,640,17,0.077956531885964,1
461,641,17,0.0801970671372391,1
461,642,17,0.0628610045757399,1
462,634,17,0.064711038773256,1
462,635,17,0.0731658663029499,1
462,636,17,0.0657908858453986,1
462,640,17,0.057953715273057,1
462,641,17,0.0604468281225955,1
463,640,17,0.0573797841022923,1
463,641,17,0.0623372622343277,1
463,646,17,0.0577741889282322,1
463,647,17,0.0767336369202214,1
463,648,17,0.0725589122859424,1
463,649,17,0.0576103661261833,1
464,641,17,0.0589544195560163,1
464,646,17,0.0675129801014707,1
464,647,17,0.0974028073948154,1
464,648,17,0.0872204191486088,1
464,649,17,0.0589966180359653,1
465,637,17,0.0658539123062278,1
465,638,17,0.0587726110966387,1
465,646,17,0.0580091995516818,1
465,647,17,0.0855538504497193,1
465,648,17,0.0777027336217769,1
466,637,17,0.0575292065846046,1
467,627,17,0.0636835447062821,1
467,628,17,0.0934738258090149,1
467,629,17,0.063382270203684,1
468,627,17,0.0737782455018402,1
468,628,17,0.11066329641788,1
468,629,17,0.0758474806351671,1
469,628,17,0.0604020939598101,1
469,650,17,0.0714945741576603,1
479,653,17,0.0802340055495365,1
480,652,17,0.0781045096187531,1
480,653,17,0.115633565005897,1
481,652,17,0.0643681613813287,1
481,653,17,0.0907757118475499,1
498,637,17,0.0669304806814934,1
498,638,17,0.0663728132625034,1
499,636,17,0.060042026997026,1
499,637,17,0.0707821357346541,1
499,638,17,0.0699793090639316,1
500,636,17,0.0574123469874625,1
500,637,17,0.0607818625885401,1
500,638,17,0.0604117295545888,1
456,640,18,0.0575412540265464,1
457,639,18,0.064455890110535,1
457,640,18,0.0661472908104118,1
457,641,18,0.0586836970831297,1
458,638,18,0.0637770760213282,1
458,639,18,0.0718683043230774,1
458,640,18,0.0848409343748299,1
458,641,18,0.0869643800484266,1
458,642,18,0.0630762781516226,1
459,630,18,0.0604638702700316,1
459,631,18,0.0597001225996754,1
459,636,18,0.0582595775925081,1
459,637,18,0.0646427758325225,1
459,638,18,0.0713100059318467,1
459,639,18,0.0840027024953855,1
459,640,18,0.116416572071937,1
459,641,18,0.130600898806394,1
459,642,18,0.0861811135171662,1
460,630,18,0.0581889263923588,1
460,634,18,0.0574833343130111,1
460,635,18,0.0638021026212309,1
460,636,18,0.0646163044830967,1
460,637,18,0.0651417864208735,1
460,638,18,0.0692634799022486,1
460,639,18,0.0805621464963279,1
460,640,18,0.109771620599953,1
460,641,18,0.123726756987611,1
460,642,18,0.0820277534850189,1
461,634,18,0.0652574607337129,1
461,635,18,0.0755034179589371,1
461,636,18,0.0709315641139032,1
461,637,18,0.0607821987139394,1
461,638,18,0.0585911623504077,1
461,639,18,0.0625669243360733,1
461,640,18,0.0716195715276265,1
461,641,18,0.0772108170484312,1
461,642,18,0.0574583666824767,1
462,634,18,0.0607814262152148,1
462,635,18,0.0677021361441374,1
462,636,18,0.060748020068078,1
463,647,18,0.0774979624903868,1
463,648,18,0.073083297393469,1
463,649,18,0.0579285117650494,1
464,646,18,0.0639174584994815,1
464,647,18,0.105738670120919,1
464,648,18,0.0937846828339603,1
464,649,18,0.0603211820895782,1
465,647,18,0.0851465313321237,1
465,648,18,0.0761981124990247,1
467,628,18,0.0582241782807231,1
468,628,18,0.0633399773727458,1
476,614,18,0.0657746515783081,1
476,653,18,0.0605497709488209,1
477,613,18,0.0598367546260054,1
477,653,18,0.0593498150673435,1
479,653,18,0.0675295387000868,1
480,652,18,0.0608176157165349,1
480,653,18,0.0861938980762116,1
498,637,18,0.0588265503778144,1
498,638,18,0.0593950150881385,1
499,635,18,0.0575492148912657,1
499,636,18,0.0584062933808158,1
499,637,18,0.0652284478045138,1
499,638,18,0.0647138398182498,1
500,635,18,0.0576672951543313,1
456,640,19,0.0575780273246126,1
457,638,19,0.0589162133023007,1
457,639,19,0.0664497564942493,1
457,640,19,0.0690985366822022,1
457,641,19,0.065380565186957,1
457,642,19,0.0584295508996697,1
458,638,19,0.0612280189320921,1
458,639,19,0.0684718986900592,1
458,640,19,0.0813545355888629,1
458,641,19,0.0867460282715191,1
458,642,19,0.0652271563753482,1
459,630,19,0.0568834271355143,1
459,636,19,0.0582467871365258,1
459,637,19,0.0614975384298656,1
459,638,19,0.0656665135507363,1
459,639,19,0.0772310966141865,1
459,640,19,0.108427060033553,1
459,641,19,0.124899728486158,1
459,642,19,0.0833335298978943,1
460,635,19,0.062234914998722,1
460,636,19,0.0621681498799431,1
460,637,19,0.0604126081981763,1
460,638,19,0.0626742898649205,1
460,639,19,0.0718658453004197,1
460,640,19,0.0976100198580527,1
460,641,19,0.112527990400353,1
460,642,19,0.0742736530617887,1
461,634,19,0.0635283078442563,1
461,635,19,0.0731164381784485,1
461,636,19,0.0675179924977754,1
461,640,19,0.0637656418608166,1
461,641,19,0.0690115863486573,1
462,634,19,0.0569198819989918,1
462,635,19,0.0622917201911966,1
463,647,19,0.0683098744537432,1
463,648,19,0.0660527865007888,1
464,647,19,0.0950651554909021,1
464,648,19,0.0881509439863652,1
465,647,19,0.0722838850491705,1
465,648,19,0.0684611721619671,1
475,654,19,0.060117242426281,1
476,614,19,0.0627383659805054,1
476,653,19,0.063521384840419,1
476,654,19,0.0600534611575376,1
477,613,19,0.057028798422225,1
477,653,19,0.0608094425620898,1
479,653,19,0.0568727006074222,1
480,653,19,0.0600045814481613,1
499,635,19,0.0602854525493307,1
499,636,19,0.0597842777851634,1
499,637,19,0.0619253435060054,1
499,638,19,0.0604495466104737,1
500,635,19,0.0598164868541238,1
500,636,19,0.0580382065839441,1
456,640,20,0.0578391908628992,1
456,641,20,0.0595324608917508,1
456,642,20,0.0588960752630293,1
457,638,20,0.058361329237494,1
457,639,20,0.0651437913793954,1
457,640,20,0.0693633327335755,1
457,641,20,0.071603337260536,1
457,642,20,0.0677667488809737,1
457,643,20,0.0571903214189106,1
458,638,20,0.0593697938893204,1
458,639,20,0.0662719992304733,1
458,640,20,0.0760948217535263,1
458,641,20,0.0830381110535675,1
458,642,20,0.0699676095412627,1
459,636,20,0.05819623269709,1
459,637,20,0.0587949840749683,1
459,638,20,0.0613409570662428,1
459,639,20,0.0718160869474558,1
459,640,20,0.0935074737305617,1
459,641,20,0.106609046203019,1
459,642,20,0.0787460550672001,1
460,635,20,0.0630740078309434,1
460,636,20,0.0632475310940761,1
460,637,20,0.058179880491263,1
460,638,20,0.0574505178595572,1
460,639,20,0.0653127445164856,1
460,640,20,0.0828445028235949,1
460,641,20,0.0937421659194226,1
460,642,20,0.0667406641819019,1
461,634,20,0.0639018552046317,1
461,635,20,0.0732814698525473,1
461,636,20,0.0669714113200241,1
461,640,20,0.0569199055867391,1
461,641,20,0.0604363256781029,1
462,635,20,0.0608648030050413,1
464,647,20,0.0680418940564821,1
464,648,20,0.0684185667933769,1
473,614,20,0.0573828799941276,1
475,613,20,0.0596161266314819,1
476,613,20,0.0668077064567118,1
476,653,20,0.0631576499829272,1
476,654,20,0.0585059221285432,1
477,653,20,0.0568945782430582,1
499,635,20,0.0619889891452017,1
499,636,20,0.0631675509398632,1
499,637,20,0.0606328469948691,1
500,635,20,0.0657149509898504,1
500,636,20,0.0659944775894228,1
500,637,20,0.0604438324786864,1
501,636,20,0.0580140645245658,1
456,640,21,0.0595342122819891,1
456,641,21,0.0629395458773665,1
456,642,21,0.0628379239649909,1
456,643,21,0.058362019179103,1
457,639,21,0.0621656967542222,1
457,640,21,0.068303116564137,1
457,641,21,0.07273333778041,1
457,642,21,0.0720127910692637,1
457,643,21,0.0663409049373212,1
457,644,21,0.0576734161747599,1
458,638,21,0.0579003538916905,1
458,639,21,0.0647302097148874,1
458,640,21,0.0730761503060322,1
458,641,21,0.0799729304653023,1
458,642,21,0.0761078186022976,1
458,643,21,0.067652637256394,1
459,636,21,0.0577840427096736,1
459,638,21,0.0576903580742699,1
459,639,21,0.0655598910359295,1
459,640,21,0.0782874679808124,1
459,641,21,0.0883068118206316,1
459,642,21,0.0776321413909959,1
459,643,21,0.0608062110407075,1
460,631,21,0.0602510675106803,1
460,632,21,0.0632827122191985,1
460,633,21,0.0591020139879116,1
460,635,21,0.0632603923133004,1
460,636,21,0.0645068691294225,1
460,639,21,0.0590165791671317,1
460,640,21,0.0695696311716043,1
460,641,21,0.0770735835345447,1
460,642,21,0.0640553701611034,1
461,631,21,0.0598888658567641,1
461,632,21,0.0633980739943859,1
461,633,21,0.0606717137055096,1
461,634,21,0.0615426971721027,1
461,635,21,0.0686199294952798,1
461,636,21,0.0636802247308473,1
472,613,21,0.0595650768493525,1
472,614,21,0.0603699084785969,1
473,613,21,0.0608003376916257,1
473,614,21,0.0573550641431048,1
499,635,21,0.0622555601745607,1
499,636,21,0.0678553326660202,1
499,637,21,0.0636679060298113,1
500,635,21,0.0736036607900782,1
500,636,21,0.079659932852288,1
500,637,21,0.0718823390327306,1
501,636,21,0.0694757814219694,1
456,640,22,0.059459999331995,1
456,641,22,0.063611607973904,1
456,642,22,0.0649981842152116,1
456,643,22,0.0634143790247184,1
456,644,22,0.0627102375918306,1
457,639,22,0.0596442845048408,1
457,640,22,0.0686621397691024,1
457,641,22,0.0751196512070369,1
457,642,22,0.0783808223877537,1
457,643,22,0.0751040302213767,1
457,644,22,0.0697742548795737,1
457,645,22,0.0569676000118127,1
458,638,22,0.05752553279296,1
458,639,22,0.063011535682176,1
458,640,22,0.0736606369937208,1
458,641,22,0.0821306137541287,1
458,642,22,0.0862304178059942,1
458,643,22,0.0770592834627341,1
458,644,22,0.0631484684522843,1
459,631,22,0.0601683629716523,1
459,632,22,0.067150831519986,1
459,633,22,0.0588206416471116,1
459,636,22,0.0580157864301199,1
459,639,22,0.0598728379824626,1
459,640,22,0.0698573191317482,1
459,641,22,0.0794275463657273,1
459,642,22,0.0823730722087935,1
459,643,22,0.0676078382273034,1
460,631,22,0.0708903209377205,1
460,632,22,0.0832381292538733,1
460,633,22,0.0700629099373575,1
460,634,22,0.0569453508691566,1
460,635,22,0.06082651419421,1
460,636,22,0.063397761456734,1
460,640,22,0.0591851607972017,1
460,641,22,0.0650168598141493,1
460,642,22,0.0638234436356153,1
461,631,22,0.0671694540464922,1
461,632,22,0.0764690767463212,1
461,633,22,0.0649726268909943,1
461,635,22,0.0592679419964084,1
472,614,22,0.058091343881711,1
499,635,22,0.0594811221597168,1
499,636,22,0.0695459254855514,1
499,637,22,0.0644043862642698,1
500,635,22,0.0764850987236859,1
500,636,22,0.0883553200229877,1
500,637,22,0.0792850115056314,1
500,638,22,0.0653028081779286,1
456,641,23,0.0595573518621064,1
456,642,23,0.0606995885259007,1
456,643,23,0.0603737532814095,1
456,644,23,0.0649376580555978,1
456,645,23,0.0598946448548566,1
457,639,23,0.0577126543924207,1
457,640,23,0.0678933384238837,1
457,641,23,0.0761301267143221,1
457,642,23,0.0788634984610882,1
457,643,23,0.0729296939829449,1
457,644,23,0.0721609280193472,1
457,645,23,0.0626844266993297,1
458,632,23,0.0586831840496256,1
458,639,23,0.0607500427174104,1
458,640,23,0.0746148616205933,1
458,641,23,0.0871883810908163,1
458,642,23,0.0903449347152482,1
458,643,23,0.0744880892726416,1
458,644,23,0.0602636633677472,1
459,631,23,0.0635879199786616,1
459,632,23,0.0780863706410669,1
459,633,23,0.0676979611128624,1
459,634,23,0.0584890686830857,1
459,636,23,0.0589748347513186,1
459,640,23,0.0668225667375211,1
459,641,23,0.0786024174799172,1
459,642,23,0.0835708462236441,1
459,643,23,0.0670834708105873,1
460,631,23,0.0764840549658671,1
460,632,23,0.0975388261397151,1
460,633,23,0.0798858150175262,1
460,634,23,0.0615533352461424,1
460,635,23,0.0575818131580569,1
460,636,23,0.0586135942981055,1
460,641,23,0.0576263645158006,1
460,642,23,0.0604085157240169,1
461,631,23,0.0697173376452993,1
461,632,23,0.0843288031020341,1
461,633,23,0.0685656246040207,1
462,632,23,0.0582473296547141,1
499,636,23,0.0674880714403047,1
499,637,23,0.0649709167793139,1
499,638,23,0.0584101676683125,1
499,639,23,0.0588286732750729,1
500,636,23,0.0858340375062166,1
500,637,23,0.0805017264815771,1
500,638,23,0.0687645931495709,1
456,644,24,0.0597738520008495,1
456,645,24,0.0577944802878611,1
457,632,24,0.0576862714970473,1
457,633,24,0.0582173673186855,1
457,639,24,0.0570909698272141,1
457,640,24,0.0643189042679953,1
457,641,24,0.0745836668247675,1
457,642,24,0.0749544367278964,1
457,643,24,0.0667599884438908,1
457,644,24,0.0651983321481277,1
457,645,24,0.0602520346083203,1
458,631,24,0.0585538406372164,1
458,632,24,0.0671406062315243,1
458,633,24,0.0674920046971696,1
458,634,24,0.0593927801490802,1
458,636,24,0.0568948495021523,1
458,637,24,0.0571933583413775,1
458,638,24,0.0573713573795636,1
458,639,24,0.0593649407103101,1
458,640,24,0.0716208334721079,1
458,641,24,0.0879250854088743,1
458,642,24,0.0870361339757629,1
458,643,24,0.0672061094058218,1
459,631,24,0.0661263213030475,1
459,632,24,0.0866806784175792,1
459,633,24,0.0827185914284202,1
459,634,24,0.0677845340424502,1
459,635,24,0.0598494684218089,1
459,636,24,0.0611557519712516,1
459,637,24,0.0579738415184546,1
459,640,24,0.061188173329938,1
459,641,24,0.0730121803353102,1
459,642,24,0.0737601949782063,1
459,643,24,0.0580204273194044,1
459,652,24,0.0578764654005959,1
460,631,24,0.0750306841210965,1
460,632,24,0.0990439485020978,1
460,633,24,0.0880732518436419,1
460,634,24,0.065437146295832,1
460,652,24,0.0612930975269379,1
460,653,24,0.0594322129656563,1
461,630,24,0.0572029821422826,1
461,631,24,0.0691019333178157,1
461,632,24,0.0833151432488612,1
461,633,24,0.0707682779331057,1
461,652,24,0.0578437904736259,1
461,653,24,0.0588588537977641,1
461,654,24,0.0614235613573447,1
462,632,24,0.0573168932710101,1
488,650,24,0.0605618655662574,1
499,636,24,0.0613786502864543,1
499,637,24,0.0627406186103741,1
499,638,24,0.0600134858227732,1
456,638,25,0.056866361400331,1
457,632,25,0.0614297000685837,1
457,633,25,0.0612935692818842,1
457,640,25,0.0571216044140412,1
457,641,25,0.064554604833054,1
457,642,25,0.0636890111667226,1
458,631,25,0.0619402155806884,1
458,632,25,0.0711055119564876,1
458,633,25,0.0752101986720476,1
458,634,25,0.0630248686563466,1
458,640,25,0.0633940994589631,1
458,641,25,0.076816217623576,1
458,642,25,0.0739718950103706,1
459,631,25,0.0667663276509821,1
459,632,25,0.0859471997239667,1
459,633,25,0.0912455620832812,1
459,634,25,0.0731511888271823,1
459,635,25,0.061540686316644,1
459,636,25,0.0597970859319561,1
459,641,25,0.0623506954564243,1
459,642,25,0.060285924304277,1
459,651,25,0.0610332784902483,1
459,652,25,0.0673010618826438,1
459,653,25,0.059006218249123,1
460,631,25,0.068512375264454,1
460,632,25,0.0856869679016991,1
460,633,25,0.0858124900990431,1
460,634,25,0.0652628092554169,1
460,651,25,0.0662146220351263,1
460,652,25,0.0759540913561002,1
460,653,25,0.0661031227535619,1
461,630,25,0.0571111373511696,1
461,631,25,0.0655770629159758,1
461,632,25,0.0736700367110264,1
461,633,25,0.068119320837048,1
461,652,25,0.0672478833063191,1
461,653,25,0.0628965277231984,1
461,654,25,0.0629404834903224,1
462,654,25,0.0595013073744828,1
462,655,25,0.0710449916938107,1
463,627,25,0.058753729104912,1
463,628,25,0.0570214626328096,1
463,655,25,0.0639206959178007,1
464,655,25,0.0570365528941553,1
464,656,25,0.0645607494412299,1
486,651,25,0.0586533455492704,1
493,620,25,0.0578462848779046,1
499,637,25,0.059901255321042,1
499,638,25,0.0617195286167966,1
453,640,26,0.0737362003422488,1
454,640,26,0.057921282120497,1
455,637,26,0.0583407784126446,1
455,638,26,0.0587685952826581,1
456,633,26,0.0595408227481745,1
456,637,26,0.0578430710473328,1
456,638,26,0.057901167668973,1
457,631,26,0.0624616168381795,1
457,632,26,0.0623247489343763,1
457,633,26,0.0624037973725703,1
457,634,26,0.0573326204015333,1
458,630,26,0.0593648699470682,1
458,631,26,0.0616667746199236,1
458,632,26,0.0699119483545329,1
458,633,26,0.0765265247049102,1
458,634,26,0.0656718443816297,1
458,641,26,0.0593743109429315,1
459,631,26,0.0630592242103129,1
459,632,26,0.0791635169161417,1
459,633,26,0.0883713714850364,1
459,634,26,0.0725835673788248,1
459,635,26,0.058443756620491,1
459,651,26,0.0668968091721993,1
459,652,26,0.0727388101377874,1
459,653,26,0.0571799781917123,1
460,631,26,0.0606018467979586,1
460,632,26,0.0717709458960292,1
460,633,26,0.0761953232479045,1
460,634,26,0.0610097850939212,1
460,651,26,0.0743349458231902,1
460,652,26,0.0862903601688619,1
460,653,26,0.0680167907964007,1
460,654,26,0.0601570703376246,1
461,631,26,0.058543226150924,1
461,632,26,0.0615834626964022,1
461,633,26,0.0590556817552454,1
461,651,26,0.0570560776519964,1
461,652,26,0.0706712910130777,1
461,653,26,0.0630929900705962,1
461,654,26,0.0638655772492592,1
461,655,26,0.0884066587550217,1
462,654,26,0.0640969966381799,1
462,655,26,0.078826276995823,1
463,627,26,0.0611879020708438,1
463,655,26,0.068935103077984,1
463,656,26,0.0692361888786036,1
464,656,26,0.0624424517934849,1
479,655,26,0.0647914376099838,1
492,619,26,0.0570512185760492,1
492,620,26,0.0598686924358718,1
493,620,26,0.0614551807326222,1
452,642,27,0.0778548922827778,1
452,643,27,0.0609651865606828,1
453,639,27,0.0609191963503528,1
453,640,27,0.0804425271327499,1
453,641,27,0.0887488638961505,1
453,642,27,0.080227571991456,1
453,643,27,0.0646352926196864,1
454,639,27,0.0571458526182824,1
454,640,27,0.0629171552082265,1
454,641,27,0.0692346261903439,1
454,642,27,0.0699339085472844,1
454,643,27,0.0598469445328461,1
455,633,27,0.0635831847383878,1
455,634,27,0.0571003341628987,1
455,637,27,0.0587630344712283,1
455,638,27,0.0588430382131885,1
456,632,27,0.0651165534281819,1
456,633,27,0.0627245966330095,1
456,634,27,0.0583194904706916,1
456,637,27,0.0580983199579798,1
456,638,27,0.0573137384098065,1
457,630,27,0.0680216734600951,1
457,631,27,0.0620435240169971,1
457,632,27,0.0622736224920682,1
457,633,27,0.066774542083985,1
457,634,27,0.0659100629387144,1
457,635,27,0.0598189694645289,1
458,629,27,0.0653677452462905,1
458,630,27,0.0597078711746689,1
458,631,27,0.0595237806007384,1
458,632,27,0.0653635348333945,1
458,633,27,0.0739290832489914,1
458,634,27,0.069838490212453,1
458,635,27,0.0591944543696443,1
459,631,27,0.0585983035409077,1
459,632,27,0.0686585131529525,1
459,633,27,0.0757714573255665,1
459,634,27,0.0671003596376658,1
459,651,27,0.0645640340350437,1
459,652,27,0.0695458606192463,1
460,632,27,0.061839478208837,1
460,633,27,0.0642537136313497,1
460,651,27,0.0713806689258697,1
460,652,27,0.083512472445973,1
460,653,27,0.0676205874047279,1
460,654,27,0.0609604631142827,1
460,655,27,0.0879155323712111,1
461,652,27,0.0654223685721384,1
461,653,27,0.061801802679436,1
461,654,27,0.066166019481781,1
461,655,27,0.0821735847328022,1
462,654,27,0.0660660192270333,1
462,655,27,0.0804044388177708,1
462,656,27,0.0765213884729321,1
463,655,27,0.0658159360330485,1
463,656,27,0.0641670581446463,1
464,656,27,0.0576103602292465,1
479,655,27,0.070998677151955,1
480,611,27,0.0822979924090855,1
481,611,27,0.0609150861853829,1
451,642,28,0.0789879002404346,1
452,640,28,0.0897071692033087,1
452,641,28,0.121433450048652,1
452,642,28,0.12579838627729,1
452,643,28,0.0871962770892305,1
453,639,28,0.0591552161519836,1
453,640,28,0.081052565247719,1
453,641,28,0.12461937631543,1
453,642,28,0.14120586744271,1
453,643,28,0.0982790391351864,1
454,634,28,0.0627009617101985,1
454,635,28,0.0573005174774357,1
454,640,28,0.0639351021344741,1
454,641,28,0.0890890581818206,1
454,642,28,0.10324650667821,1
454,643,28,0.0755330028910087,1
455,633,28,0.0621774611431962,1
455,634,28,0.0569731549263057,1
455,637,28,0.0569551397842929,1
456,632,28,0.0615534354940685,1
456,633,28,0.063744925921736,1
456,634,28,0.063414945130654,1
456,635,28,0.0569648756269977,1
457,631,28,0.0577015799450556,1
457,632,28,0.059961014878868,1
457,633,28,0.0724005441504604,1
457,634,28,0.0777250594246118,1
457,635,28,0.0651845215220739,1
458,632,28,0.0590711258328008,1
458,633,28,0.0715080781429989,1
458,634,28,0.0744309184700836,1
458,635,28,0.0600801094150682,1
459,632,28,0.0588771873743658,1
459,633,28,0.0641823312110336,1
459,634,28,0.0600848387584051,1
459,652,28,0.060024117999876,1
460,651,28,0.0609162773666224,1
460,652,28,0.0704861271966443,1
460,653,28,0.0615964654421103,1
460,654,28,0.0585456910705186,1
460,655,28,0.0718472345677871,1
461,654,28,0.0609276289700184,1
461,655,28,0.0694598950741519,1
461,656,28,0.0712764700520997,1
462,654,28,0.058201581218794,1
462,655,28,0.068904191335126,1
462,656,28,0.0647852340324396,1
463,656,28,0.0576648538224841,1
475,608,28,0.0595510008611415,1
477,610,28,0.0622378870548839,1
478,608,28,0.0679436157072885,1
478,611,28,0.069307559505046,1
479,611,28,0.0856808527782073,1
480,609,28,0.097860156124469,1
480,610,28,0.102165727890049,1
480,611,28,0.0729854554176008,1
481,610,28,0.0711411294549353,1
481,611,28,0.0606717490871306,1
451,641,29,0.0910509159924266,1
451,642,29,0.0905589463466495,1
452,638,29,0.0591920071408603,1
452,639,29,0.0652614057844516,1
452,640,29,0.0864455439584561,1
452,641,29,0.142241947449707,1
452,642,29,0.175682579873066,1
452,643,29,0.11142696153112,1
452,647,29,0.0586066182218367,1
453,638,29,0.0614462114917052,1
453,639,29,0.0624940617846131,1
453,640,29,0.0843437164552748,1
453,641,29,0.16538888694421,1
453,642,29,0.217128988086584,1
453,643,29,0.137483272748991,1
453,647,29,0.0573963191131611,1
453,648,29,0.0640655010985757,1
453,649,29,0.0627637876751756,1
454,634,29,0.0613035056204413,1
454,638,29,0.0595287458215485,1
454,639,29,0.0579683632641404,1
454,640,29,0.0662350372304286,1
454,641,29,0.10851977167438,1
454,642,29,0.140675190303587,1
454,643,29,0.0905017755440915,1
454,648,29,0.0591952917346741,1
454,649,29,0.0583117359987614,1
455,632,29,0.0637913525053914,1
455,633,29,0.0612651696341154,1
455,634,29,0.0575219061768102,1
455,642,29,0.0573841537324827,1
456,631,29,0.0576874862660341,1
456,632,29,0.0602083736880377,1
456,633,29,0.0632205938866409,1
456,634,29,0.0659397540156489,1
456,635,29,0.0570426267390892,1
457,632,29,0.0599168291312076,1
457,633,29,0.0752231247575769,1
457,634,29,0.0849354209936423,1
457,635,29,0.0673903297123625,1
458,633,29,0.068841188462044,1
458,634,29,0.0773046432103188,1
458,635,29,0.0603544585041047,1
459,633,29,0.0573995860161644,1
459,634,29,0.0574041148636491,1
459,655,29,0.0632333725487495,1
460,655,29,0.0612064833187923,1
460,656,29,0.0638032584208494,1
461,655,29,0.0592100753553046,1
461,656,29,0.0575959304248257,1
475,608,29,0.0580890204886004,1
476,608,29,0.0607314850572093,1
477,608,29,0.0584582571881537,1
477,609,29,0.05918570331539,1
478,609,29,0.0697493992908391,1
478,610,29,0.0695257697554696,1
478,611,29,0.0589948017794219,1
479,609,29,0.0802298600029456,1
479,610,29,0.0811574776508453,1
479,611,29,0.0647335886596904,1
480,610,29,0.074995160973638,1
480,611,29,0.0616790992178963,1
481,610,29,0.0641789758539779,1
481,611,29,0.0580337720874486,1
451,640,30,0.0838907373558116,1
451,641,30,0.0903158746105545,1
451,642,30,0.0847771413122128,1
451,643,30,0.0579259819791498,1
452,638,30,0.0594511893083723,1
452,639,30,0.061205044466206,1
452,640,30,0.0775694215708817,1
452,641,30,0.135670212345393,1
452,642,30,0.182942841321544,1
452,643,30,0.108347050394656,1
452,647,30,0.0736740702158175,1
452,648,30,0.099353466922383,1
452,649,30,0.104377763245629,1
453,637,30,0.0570944961954379,1
453,638,30,0.0658162426737636,1
453,639,30,0.0629696084613212,1
453,640,30,0.0829277734685584,1
453,641,30,0.176452507533219,1
453,642,30,0.247408909545046,1
453,643,30,0.147032878394878,1
453,647,30,0.0752928147570231,1
453,648,30,0.100234917451848,1
453,649,30,0.0990148883974041,1
453,650,30,0.0725265675874348,1
454,638,30,0.06037135322812,1
454,639,30,0.0574273605886294,1
454,640,30,0.0647242950872478,1
454,641,30,0.110837928305136,1
454,642,30,0.151962941667595,1
454,643,30,0.0879679915212427,1
454,647,30,0.0632893757578153,1
454,648,30,0.080921694528671,1
454,649,30,0.077401246829453,1
454,650,30,0.0595471560583289,1
455,632,30,0.0597701664153314,1
455,633,30,0.0575268065313151,1
456,632,30,0.0569442953174642,1
456,633,30,0.0596653660540048,1
456,634,30,0.062638424695126,1
457,632,30,0.058199340382799,1
457,633,30,0.0723731587758261,1
457,634,30,0.0822432098659433,1
457,635,30,0.0649341198935004,1
458,633,30,0.0660239209950104,1
458,634,30,0.0754826725351724,1
458,635,30,0.0585069187108673,1
458,655,30,0.0770693436369646,1
465,616,30,0.0585415455239277,1
465,657,30,0.0573208619094961,1
476,608,30,0.0578053601363108,1
478,609,30,0.0593471732396441,1
478,610,30,0.0587615366492737,1
479,610,30,0.0595089733923606,1
481,611,30,0.0572128654084082,1
450,645,31,0.0591254189301862,1
450,646,31,0.0654576676359973,1
451,639,31,0.0649493752690772,1
451,640,31,0.0848745646055662,1
451,641,31,0.0839494590527557,1
451,642,31,0.0745305649086215,1
451,645,31,0.0586084462722537,1
451,646,31,0.0691620938673461,1
451,647,31,0.0846237678822251,1
451,648,31,0.114108121799202,1
451,649,31,0.120188547714663,1
452,638,31,0.0581872162806783,1
452,639,31,0.059678091643682,1
452,640,31,0.0715461959426621,1
452,641,31,0.114825047791135,1
452,642,31,0.153419402507264,1
452,643,31,0.0944181671697619,1
452,646,31,0.0631756769188137,1
452,647,31,0.0972555019128248,1
452,648,31,0.157039602789883,1
452,649,31,0.165277246136162,1
452,650,31,0.111330322530365,1
453,637,31,0.0571281382200478,1
453,638,31,0.0661969548123864,1
453,639,31,0.0644276437831237,1
453,640,31,0.0796322467338754,1
453,641,31,0.157168462653473,1
453,642,31,0.218557249774336,1
453,643,31,0.133840911777768,1
453,644,31,0.057444385045255,1
453,647,31,0.09285377469531,1
453,648,31,0.153038366037116,1
453,649,31,0.155495572438302,1
453,650,31,0.100733326552642,1
453,651,31,0.0616214507634552,1
454,638,31,0.0607498304276845,1
454,639,31,0.059231109728974,1
454,640,31,0.0641386467030037,1
454,641,31,0.103461108003294,1
454,642,31,0.139313009689941,1
454,643,31,0.0835921223717235,1
454,647,31,0.0663782856198808,1
454,648,31,0.0995376518473027,1
454,649,31,0.0983046082532773,1
454,650,31,0.0702850770323934,1
455,642,31,0.0588021075746578,1
456,633,31,0.056960830328333,1
456,634,31,0.0592433399759575,1
457,633,31,0.0647494455228238,1
457,634,31,0.0709128413394708,1
457,635,31,0.0596920909717142,1
457,655,31,0.120097192369307,1
458,633,31,0.0611343991629935,1
458,634,31,0.0671461080735858,1
458,655,31,0.0781883817512732,1
458,656,31,0.110515554562564,1
464,618,31,0.0584301464902894,1
465,616,31,0.0668173302576169,1
470,605,31,0.0936707009419908,1
471,605,31,0.0921058013309717,1
449,644,32,0.0608893814377449,1
449,645,32,0.0769178926083831,1
449,646,32,0.0918293116538662,1
450,639,32,0.0694790424280359,1
450,640,32,0.0931398586886364,1
450,641,32,0.0820994248552396,1
450,642,32,0.0578729980017404,1
450,644,32,0.0581098897480385,1
450,645,32,0.0767917453357353,1
450,646,32,0.0984414466723963,1
450,647,32,0.0963427268549239,1
450,648,32,0.086239740863121,1
450,649,32,0.079557078480115,1
451,639,32,0.0609709242802175,1
451,640,32,0.0778793291889976,1
451,641,32,0.074738013249332,1
451,642,32,0.0649814428115538,1
451,645,32,0.0677024663725998,1
451,646,32,0.0876969742015146,1
451,647,32,0.108202834907564,1
451,648,32,0.149326079188974,1
451,649,32,0.158907021157171,1
451,650,32,0.1146904325172,1
452,636,32,0.0614281904527555,1
452,640,32,0.0643726902288134,1
452,641,32,0.0880376874176257,1
452,642,32,0.107345667963961,1
452,643,32,0.07514808033949,1
452,646,32,0.0690863889923343,1
452,647,32,0.117808579392065,1
452,648,32,0.213996087075773,1
452,649,32,0.233706834304472,1
452,650,32,0.150612554927608,1
452,651,32,0.0863625858511445,1
453,635,32,0.0635143910733397,1
453,638,32,0.061330183362656,1
453,639,32,0.0612104224725941,1
453,640,32,0.0694971755087854,1
453,641,32,0.114678320208953,1
453,642,32,0.148488395724655,1
453,643,32,0.100364956702803,1
453,647,32,0.0997939327218949,1
453,648,32,0.189404232943912,1
453,649,32,0.203255264808789,1
453,650,32,0.126088374042797,1
453,651,32,0.0716480065570163,1
453,652,32,0.0627571064457482,1
454,638,32,0.058640767383014,1
454,639,32,0.0579950999757235,1
454,640,32,0.0588939228810867,1
454,641,32,0.0826111846210152,1
454,642,32,0.102121571627072,1
454,643,32,0.0686622164292812,1
454,647,32,0.058268446585499,1
454,648,32,0.0981860149567075,1
454,649,32,0.103199555267177,1
454,650,32,0.0726698041830134,1
455,656,32,0.153454831303733,1
456,655,32,0.119253494029422,1
457,634,32,0.0586104689215861,1
457,655,32,0.11350368577422,1
457,656,32,0.188168400098767,1
458,655,32,0.0687706375098208,1
458,656,32,0.0973089163666227,1
463,620,32,0.0624771611636609,1
464,618,32,0.0578464323013254,1
465,615,32,0.0861587110541525,1
465,616,32,0.0676873348326964,1
469,605,32,0.102201251037507,1
470,604,32,0.121872748254672,1
470,605,32,0.1200100238491,1
470,606,32,0.0964162262755617,1
471,603,32,0.111255620134614,1
471,604,32,0.126712906828492,1
471,605,32,0.119228219758173,1
471,606,32,0.093832100103003,1
472,605,32,0.0986304434977685,1
472,607,32,0.06056450149702,1
473,607,32,0.0597650006986691,1
474,607,32,0.0624650252676667,1
448,645,33,0.0936490650807649,1
448,646,33,0.135089104602507,1
448,647,33,0.124956020645129,1
449,641,33,0.0593950209850753,1
449,644,33,0.0605216012815884,1
449,645,33,0.108400594581064,1
449,646,33,0.166693419103415,1
449,647,33,0.154513071999334,1
449,648,33,0.0862426539499145,1
450,639,33,0.0618998274603459,1
450,640,33,0.074431596617819,1
450,641,33,0.0701994535096351,1
450,642,33,0.059423220136992,1
450,644,33,0.0578710520125868,1
450,645,33,0.0963703009315368,1
450,646,33,0.144744123891152,1
450,647,33,0.141419289380428,1
450,648,33,0.101328197746087,1
450,649,33,0.081641421565598,1
450,650,33,0.0698929071455118,1
451,636,33,0.0833079666767402,1
451,640,33,0.0633940110049107,1
451,641,33,0.0632426130487607,1
451,642,33,0.0600374745617939,1
451,645,33,0.0710032885565554,1
451,646,33,0.0951538336269379,1
451,647,33,0.120354664425139,1
451,648,33,0.158299565900533,1
451,649,33,0.17141153467262,1
451,650,33,0.120678854424255,1
451,651,33,0.0905293201360202,1
452,635,33,0.10429407391815,1
452,636,33,0.0680440405414879,1
452,641,33,0.0645095463387429,1
452,642,33,0.0711658022386282,1
452,643,33,0.0593837165571739,1
452,646,33,0.0697827523655444,1
452,647,33,0.124096365194184,1
452,648,33,0.222428305749664,1
452,649,33,0.252051591498334,1
452,650,33,0.162095907686237,1
452,651,33,0.103050563261253,1
452,652,33,0.0871460351874466,1
453,634,33,0.0803435411511368,1
453,635,33,0.0678715787269844,1
453,641,33,0.0721857246387135,1
453,642,33,0.0836814963463051,1
453,643,33,0.0662558003450038,1
453,647,33,0.0932629454510699,1
453,648,33,0.17704543273751,1
453,649,33,0.202112320512575,1
453,650,33,0.12917550302994,1
453,651,33,0.0818047549218901,1
453,652,33,0.0707552221149661,1
453,653,33,0.0642195408824252,1
453,656,33,0.174143408597432,1
454,642,33,0.0628745321488259,1
454,648,33,0.0787692359258752,1
454,649,33,0.090271382222179,1
454,650,33,0.0678664248041957,1
454,651,33,0.0573352799200432,1
454,654,33,0.0678794983131458,1
454,656,33,0.217677733440151,1
454,657,33,0.185445041350736,1
455,654,33,0.0596383875680117,1
455,655,33,0.123481821819478,1
455,656,33,0.205031705234678,1
455,657,33,0.188342383322972,1
456,655,33,0.109578531300422,1
456,656,33,0.187663704863312,1
457,655,33,0.0908307715467231,1
457,656,33,0.141800361232197,1
457,657,33,0.131888447787531,1
458,655,33,0.059891318982485,1
458,656,33,0.0755781085608144,1
458,657,33,0.0671831644246198,1
463,620,33,0.0579208516441084,1
464,616,33,0.111863323062599,1
464,617,33,0.0719854056946294,1
464,618,33,0.0573905578058791,1
465,614,33,0.0799013947246286,1
465,615,33,0.0801495437233335,1
465,616,33,0.0657176105083603,1
469,604,33,0.100238797636281,1
469,605,33,0.10858621835857,1
469,606,33,0.0971759286472531,1
470,603,33,0.104606658745587,1
470,604,33,0.124430308726815,1
470,605,33,0.128923267454013,1
470,606,33,0.107276591245945,1
470,607,33,0.074749883783169,1
471,603,33,0.109408805664607,1
471,604,33,0.129212842433942,1
471,605,33,0.127755862663832,1
471,606,33,0.100974004132385,1
471,607,33,0.0707607947202696,1
472,604,33,0.106337480468166,1
472,605,33,0.103178573965939,1
472,606,33,0.0835297622647559,1
472,607,33,0.0654123968519604,1
473,607,33,0.0654206171819001,1
478,610,33,0.0574051940030889,1
447,646,34,0.0941928570073961,1
447,647,34,0.0903249853779554,1
448,645,34,0.103549349766005,1
448,646,34,0.179504879974691,1
448,647,34,0.172742319994588,1
448,648,34,0.0913416703597216,1
449,644,34,0.0591333738979687,1
449,645,34,0.124811026762375,1
449,646,34,0.225204324143578,1
449,647,34,0.214088810510474,1
449,648,34,0.1078096271598,1
450,640,34,0.057007752254682,1
450,641,34,0.0580189530851972,1
450,642,34,0.0590714560612632,1
450,645,34,0.0987112728108849,1
450,646,34,0.162932317412201,1
450,647,34,0.159285757821956,1
450,648,34,0.104587010152072,1
450,649,34,0.075974005311772,1
450,650,34,0.0668234984535401,1
450,651,34,0.0660157301497548,1
451,635,34,0.18040800764394,1
451,636,34,0.0894179539365261,1
451,645,34,0.0658494601189219,1
451,646,34,0.086294393673653,1
451,647,34,0.107979376383362,1
451,648,34,0.141162041408196,1
451,649,34,0.152256679884926,1
451,650,34,0.112113518298384,1
451,651,34,0.0906168542663111,1
451,652,34,0.0845729952561266,1
452,634,34,0.169027084678031,1
452,635,34,0.119790610623563,1
452,636,34,0.0680775174518666,1
452,646,34,0.0628546594717118,1
452,647,34,0.107332812641674,1
452,648,34,0.185455066143346,1
452,649,34,0.212748271654991,1
452,650,34,0.146534056508506,1
452,651,34,0.102313894324816,1
452,652,34,0.0906955017128007,1
452,653,34,0.0795833257459413,1
452,656,34,0.135797845646122,1
453,633,34,0.0850094098600369,1
453,634,34,0.0836272504244143,1
453,635,34,0.0674595007813677,1
453,647,34,0.0735257150790713,1
453,648,34,0.132262726368073,1
453,649,34,0.156904551142623,1
453,650,34,0.112328898019129,1
453,651,34,0.081158556790285,1
453,652,34,0.0729853905512957,1
453,653,34,0.0652003194158391,1
453,654,34,0.0785402460749281,1
453,655,34,0.162704094163042,1
453,656,34,0.256657122749599,1
453,657,34,0.20190906489395,1
454,649,34,0.066806562450967,1
454,650,34,0.0583875116370151,1
454,652,34,0.0585496007396363,1
454,654,34,0.0750781131840128,1
454,655,34,0.183399500109589,1
454,656,34,0.304537560798598,1
454,657,34,0.245696156036911,1
454,658,34,0.120380174573861,1
455,654,34,0.0626161224800384,1
455,655,34,0.125951199498279,1
455,656,34,0.216912476153967,1
455,657,34,0.190559301342247,1
456,655,34,0.0838662355832868,1
456,656,34,0.13385320099412,1
456,657,34,0.135857369326475,1
457,655,34,0.0651877353526458,1
457,656,34,0.0866588125758169,1
457,657,34,0.0883348694460644,1
464,616,34,0.0932078444733389,1
464,617,34,0.0663332448163802,1
465,613,34,0.0608703225379133,1
465,614,34,0.068473042695804,1
465,615,34,0.0687181901536628,1
465,616,34,0.0595873083011982,1
469,604,34,0.105188261831166,1
469,605,34,0.112441199284102,1
469,606,34,0.102806642366255,1
469,608,34,0.058043042072144,1
470,603,34,0.105342549286362,1
470,604,34,0.126861946009911,1
470,605,34,0.133020211491516,1
470,606,34,0.112390627153856,1
470,607,34,0.0802909050930004,1
470,608,34,0.0573359580677785,1
471,603,34,0.104719809169463,1
471,604,34,0.127675864818809,1
471,605,34,0.129748213534781,1
471,606,34,0.102911867307033,1
471,607,34,0.0734141568281386,1
472,604,34,0.101400305489633,1
472,605,34,0.10282390859729,1
472,606,34,0.0847567850862788,1
472,607,34,0.0683419950686512,1
472,608,34,0.0573675184736878,1
473,606,34,0.0760396264248061,1
473,607,34,0.0679152219564565,1
473,608,34,0.0582514280258103,1
474,607,34,0.0649011029441943,1
447,646,35,0.0953913327577294,1
447,647,35,0.0972792017019409,1
448,644,35,0.0571277549191539,1
448,645,35,0.0998562633441784,1
448,646,35,0.186961014076885,1
448,647,35,0.193068778191486,1
448,648,35,0.102790237087996,1
449,644,35,0.0578436017716474,1
449,645,35,0.122267901991589,1
449,646,35,0.235506084082016,1
449,647,35,0.238345789393685,1
449,648,35,0.123288885840304,1
450,645,35,0.0880984435577758,1
450,646,35,0.14949342246231,1
450,647,35,0.15237930078935,1
450,648,35,0.100228312882599,1
450,649,35,0.0705113778801465,1
450,650,35,0.0642732619769382,1
450,651,35,0.0638446608143264,1
451,635,35,0.189392014490802,1
451,636,35,0.0860989279085792,1
451,645,35,0.058720434999575,1
451,646,35,0.0731272708514035,1
451,647,35,0.0888754180574396,1
451,648,35,0.112405157206203,1
451,649,35,0.116390035856206,1
451,650,35,0.0942677363112518,1
451,651,35,0.0806897915909303,1
451,652,35,0.0782742116668206,1
451,654,35,0.0781209266908853,1
451,655,35,0.0787917858123097,1
452,634,35,0.190751152285044,1
452,635,35,0.127011751793117,1
452,636,35,0.0655356959041198,1
452,647,35,0.0807321551851105,1
452,648,35,0.12968969233369,1
452,649,35,0.145528923625988,1
452,650,35,0.113615102498669,1
452,651,35,0.0886313438420836,1
452,652,35,0.0821978919064117,1
452,653,35,0.0789799924481468,1
452,655,35,0.117331104417013,1
452,656,35,0.152672814923081,1
453,633,35,0.0918957347503091,1
453,634,35,0.0910039940660776,1
453,635,35,0.0694972403750905,1
453,648,35,0.0852167520558845,1
453,649,35,0.100669462726783,1
453,650,35,0.0851612736741964,1
453,651,35,0.0720383071149232,1
453,652,35,0.0688267940392442,1
453,653,35,0.065494146087222,1
453,654,35,0.0866880613824892,1
453,655,35,0.180676471590021,1
453,656,35,0.285093425877816,1
453,657,35,0.223328768003466,1
454,652,35,0.0572684440380223,1
454,654,35,0.0786701614902097,1
454,655,35,0.187718286910602,1
454,656,35,0.316640032954914,1
454,657,35,0.258033585744245,1
454,658,35,0.12724565968938,1
455,654,35,0.0630808423807283,1
455,655,35,0.112053157253001,1
455,656,35,0.188927477395154,1
455,657,35,0.165436156789832,1
456,655,35,0.063179704526668,1
456,656,35,0.086525872031942,1
461,623,35,0.0584335195381557,1
462,621,35,0.0581784888141713,1
464,615,35,0.0851772071975086,1
464,616,35,0.0755424556807457,1
464,617,35,0.0618784628582141,1
465,613,35,0.058018958982134,1
465,614,35,0.0600505952462386,1
465,615,35,0.0590766866442306,1
468,604,35,0.0802299956324927,1
468,605,35,0.0778300072093591,1
469,603,35,0.098109814739002,1
469,604,35,0.110024799685773,1
469,605,35,0.110502722828024,1
469,606,35,0.0990394196546131,1
469,608,35,0.0619594160070039,1
470,603,35,0.105922135619546,1
470,604,35,0.125842530746393,1
470,605,35,0.128746901867329,1
470,606,35,0.109537347093607,1
470,607,35,0.0825068029422035,1
470,608,35,0.0609634056857604,1
471,603,35,0.0983622331199712,1
471,604,35,0.120537304352609,1
471,605,35,0.123186408872088,1
471,606,35,0.100992213873313,1
471,607,35,0.0758754026310528,1
471,608,35,0.0585049668247769,1
472,604,35,0.0934881494685728,1
472,605,35,0.0969317600809079,1
472,606,35,0.0844156178060319,1
472,607,35,0.0707734141650839,1
472,608,35,0.0589470306941695,1
473,607,35,0.0675265961286091,1
473,608,35,0.0593571567536957,1
474,608,35,0.0576153962132985,1
447,645,36,0.0677934502109358,1
447,646,36,0.0885671615816358,1
447,647,36,0.0956811672028791,1
448,644,36,0.0573810224590264,1
448,645,36,0.089455322825212,1
448,646,36,0.161150263102451,1
448,647,36,0.178163267876706,1
448,648,36,0.1018158980096,1
449,645,36,0.105545769523366,1
449,646,36,0.196465272278557,1
449,647,36,0.212930628529494,1
449,648,36,0.119374310471177,1
449,649,36,0.0581110514445938,1
450,636,36,0.0837660053480028,1
450,645,36,0.0755791346278226,1
450,646,36,0.118333748792189,1
450,647,36,0.12660908535868,1
450,648,36,0.0865789267725933,1
450,649,36,0.0629340263444945,1
450,650,36,0.0582316791843697,1
450,651,36,0.0585772043009332,1
450,652,36,0.0594070448392698,1
450,654,36,0.0719597540194229,1
450,655,36,0.0679791329578101,1
451,635,36,0.167612503883723,1
451,636,36,0.0787735524836341,1
451,646,36,0.0612261083245595,1
451,647,36,0.0696268609435307,1
451,648,36,0.0801332504868747,1
451,649,36,0.0806951931850658,1
451,650,36,0.0722413386499487,1
451,651,36,0.0671351279772101,1
451,652,36,0.0676106569631077,1
451,653,36,0.0725879311120783,1
451,654,36,0.0844324240759948,1
451,655,36,0.0920815708175409,1
451,656,36,0.087230314208608,1
452,634,36,0.181666142704173,1
452,635,36,0.114957740663663,1
452,636,36,0.0596297957310518,1
452,648,36,0.0775750649394271,1
452,649,36,0.0857946754528824,1
452,650,36,0.0777454805168509,1
452,651,36,0.0703496307998615,1
452,652,36,0.0684631830174258,1
452,653,36,0.0694510850505292,1
452,654,36,0.0881856828412253,1
452,655,36,0.128341770513297,1
452,656,36,0.153355550475279,1
453,633,36,0.0924489146003721,1
453,634,36,0.0896004818221969,1
453,635,36,0.0656178756157699,1
453,649,36,0.0572903216736582,1
453,650,36,0.057783099199781,1
453,651,36,0.0580576075061118,1
453,652,36,0.0592563132369815,1
453,653,36,0.0601108501467582,1
453,654,36,0.0868868117413768,1
453,655,36,0.170855819139721,1
453,656,36,0.248396033182488,1
453,657,36,0.197803664649034,1
454,654,36,0.0735130012832678,1
454,655,36,0.156118784310148,1
454,656,36,0.249900483294072,1
454,657,36,0.215348915147608,1
455,654,36,0.0587305010707422,1
455,655,36,0.0905822038655034,1
455,656,36,0.138880304259296,1
456,656,36,0.06136106562083,1
456,657,36,0.0648436726764158,1
461,623,36,0.0597650478741637,1
464,616,36,0.067380688220647,1
464,617,36,0.0595769768678736,1
468,603,36,0.0842157175444627,1
468,604,36,0.0882963624485705,1
468,605,36,0.0801289693107368,1
468,608,36,0.0579255691935717,1
469,602,36,0.094088764278489,1
469,603,36,0.115162081318665,1
469,604,36,0.12274995298962,1
469,605,36,0.112858242450529,1
469,606,36,0.0950446223568632,1
469,607,36,0.0808322851724684,1
469,608,36,0.0658708306179905,1
470,602,36,0.0942826201798085,1
470,603,36,0.118929127122201,1
470,604,36,0.134531124645865,1
470,605,36,0.129543436506455,1
470,606,36,0.106633176468524,1
470,607,36,0.0831213758015942,1
470,608,36,0.063077575477725,1
471,603,36,0.0988896079744701,1
471,604,36,0.11847235039542,1
471,605,36,0.118925872013072,1
471,606,36,0.0989241935089727,1
471,607,36,0.0765504190929417,1
471,608,36,0.0593666921005483,1
472,604,36,0.0870335157358108,1
472,605,36,0.0901696836496246,1
472,606,36,0.0816621080199945,1
472,607,36,0.0705768869513808,1
472,608,36,0.0597233388399716,1
473,607,36,0.0654168844208873,1
473,608,36,0.060668629607548,1
474,608,36,0.0574664395889958,1
446,647,37,0.0625214294684369,1
447,645,37,0.069271434870031,1
447,646,37,0.0838759006627497,1
447,647,37,0.0901282163898424,1
447,648,37,0.0701674980089582,1
448,644,37,0.0591767694560939,1
448,645,37,0.0805801262567198,1
448,646,37,0.125908293385911,1
448,647,37,0.142097260207668,1
448,648,37,0.0938143031476528,1
449,644,37,0.0571715986444782,1
449,645,37,0.0865147091305245,1
449,646,37,0.141014382109996,1
449,647,37,0.15923347558003,1
449,648,37,0.104328394090496,1
449,649,37,0.0634422951236673,1
449,654,37,0.0583253697167102,1
450,636,37,0.0815424591717323,1
450,645,37,0.0658365281364557,1
450,646,37,0.0889422539394604,1
450,647,37,0.0978811433226437,1
450,648,37,0.0748528560940785,1
450,649,37,0.0596281799703606,1
450,652,37,0.058418087254474,1
450,653,37,0.0662544086679122,1
450,654,37,0.0776411931890285,1
450,655,37,0.0767988511446143,1
451,635,37,0.133122664871985,1
451,636,37,0.0726384855515141,1
451,647,37,0.0569411935286921,1
451,648,37,0.0589338156587355,1
451,649,37,0.0585135409709264,1
451,650,37,0.0573560135499343,1
451,651,37,0.0586296398632175,1
451,652,37,0.0604239539046355,1
451,653,37,0.0693169651192884,1
451,654,37,0.0915136840070261,1
451,655,37,0.10989457173284,1
451,656,37,0.102672899838971,1
452,634,37,0.14604308934199,1
452,635,37,0.0940710852618754,1
452,651,37,0.0571725480513077,1
452,652,37,0.0584713365940406,1
452,653,37,0.0649116761519289,1
452,654,37,0.0943327500397925,1
452,655,37,0.14013615130804,1
452,656,37,0.151600468754585,1
453,633,37,0.0863316741082864,1
453,634,37,0.0802577819988314,1
453,635,37,0.0601397805188418,1
453,653,37,0.0578117642097071,1
453,654,37,0.0850706436520702,1
453,655,37,0.147009668051519,1
453,656,37,0.186991560209659,1
454,654,37,0.0691901986682735,1
454,655,37,0.116916537964055,1
454,656,37,0.164907909188682,1
455,655,37,0.0733055057670627,1
455,656,37,0.0960456273836008,1
459,625,37,0.0592905803368953,1
460,624,37,0.0648117053818653,1
460,625,37,0.0576002882611424,1
461,623,37,0.0582992462865574,1
464,615,37,0.0787671189255536,1
464,616,37,0.0645777385162345,1
464,617,37,0.0586048904193458,1
465,613,37,0.0573695234322097,1
467,608,37,0.0569430038882986,1
468,603,37,0.091008670336983,1
468,604,37,0.0929515459079363,1
468,605,37,0.0805465255106677,1
468,607,37,0.064487910477517,1
468,608,37,0.0616615086553352,1
469,602,37,0.101299503251477,1
469,603,37,0.133427937497753,1
469,604,37,0.135996253982673,1
469,605,37,0.114357408906715,1
469,606,37,0.090526324492111,1
469,607,37,0.0799286621605263,1
469,608,37,0.0688748363835907,1
470,602,37,0.100413747958127,1
470,603,37,0.133959876581358,1
470,604,37,0.142766763033622,1
470,605,37,0.127338335948586,1
470,606,37,0.100963991133649,1
470,607,37,0.0815881899168419,1
470,608,37,0.0642977165739684,1
471,603,37,0.0990428162902267,1
471,604,37,0.113296644322151,1
471,605,37,0.112203411203406,1
471,606,37,0.0950595710917249,1
471,607,37,0.0768111285670925,1
471,608,37,0.0603761651285726,1
472,605,37,0.0817315975235885,1
472,606,37,0.0764934134046149,1
472,607,37,0.0684901968850398,1
472,608,37,0.0592771471147986,1
473,607,37,0.0623222899117186,1
473,608,37,0.0598591688828928,1
487,619,37,0.0833150783825561,1
487,620,37,0.0680969714464658,1
488,620,37,0.0855011082467199,1
446,646,38,0.0660077692850356,1
446,647,38,0.065467061456366,1
447,645,38,0.0693833469371735,1
447,646,38,0.0835857772676954,1
447,647,38,0.0862853890511149,1
447,648,38,0.0704230653541941,1
448,644,38,0.0576350860853709,1
448,645,38,0.0730468720146757,1
448,646,38,0.100487082264533,1
448,647,38,0.109553139090436,1
448,648,38,0.0830546283736258,1
448,649,38,0.0612314627432003,1
449,645,38,0.0695634983573021,1
449,646,38,0.0957665784359116,1
449,647,38,0.107397018489869,1
449,648,38,0.0841358966075441,1
449,649,38,0.0630248745532834,1
449,653,38,0.0569527987003717,1
449,654,38,0.0621510605570124,1
449,655,38,0.0593560186448877,1
450,636,38,0.0723749868262431,1
450,646,38,0.0653799047300321,1
450,647,38,0.0713715758492792,1
450,648,38,0.0628352703434178,1
450,652,38,0.0587877544304158,1
450,653,38,0.071802453229507,1
450,654,38,0.0929346452869841,1
450,655,38,0.0957432088752579,1
450,656,38,0.0765239772282,1
451,635,38,0.0976851527301921,1
451,636,38,0.0620977758358248,1
451,652,38,0.0578850336498086,1
451,653,38,0.0753377199309766,1
451,654,38,0.112088468110734,1
451,655,38,0.133662328942836,1
451,656,38,0.112000497607117,1
452,634,38,0.109438880042435,1
452,635,38,0.0721372164363575,1
452,653,38,0.0665266112719429,1
452,654,38,0.103567347217207,1
452,655,38,0.141210820869646,1
452,656,38,0.134133883393311,1
453,633,38,0.0800003276338102,1
453,634,38,0.0696640470271749,1
453,654,38,0.0783839418673363,1
453,655,38,0.111933685312844,1
454,654,38,0.0633115954157874,1
454,655,38,0.0819462342302936,1
454,656,38,0.0955873882164861,1
455,655,38,0.0608821635870661,1
455,656,38,0.0662643332125955,1
455,657,38,0.0656742739196033,1
464,615,38,0.0751603577619681,1
464,616,38,0.0592174229385936,1
468,603,38,0.0948898277650996,1
468,604,38,0.0973273914697082,1
468,605,38,0.0807953703479183,1
468,607,38,0.0637386869625709,1
468,608,38,0.0639014778006747,1
469,602,38,0.10154856627539,1
469,603,38,0.150256651202225,1
469,604,38,0.155421035156783,1
469,605,38,0.12150114688345,1
469,606,38,0.0876124416120697,1
469,607,38,0.0763788123342784,1
469,608,38,0.0690341067504076,1
470,602,38,0.0990971152845489,1
470,603,38,0.148345902143117,1
470,604,38,0.157682309934886,1
470,605,38,0.130156953814153,1
470,606,38,0.0961800480586199,1
470,607,38,0.077331273777039,1
470,608,38,0.0630454902444379,1
471,603,38,0.0987220111328506,1
471,604,38,0.110025259646846,1
471,605,38,0.10534525008343,1
471,606,38,0.0889400779697705,1
471,607,38,0.0736321547888363,1
471,608,38,0.0589237790722524,1
472,606,38,0.069537174431297,1
472,607,38,0.0641684557186748,1
473,607,38,0.0579995285752821,1
475,622,38,0.0632183294628985,1
475,623,38,0.0626886430091625,1
476,622,38,0.0592350193980916,1
476,623,38,0.0577911190338685,1
486,619,38,0.0613814808161323,1
487,620,38,0.0968351977403315,1
446,646,39,0.073501195615736,1
446,647,39,0.072900846167977,1
447,645,39,0.0700698447350686,1
447,646,39,0.0884372284755437,1
447,647,39,0.0896265521799183,1
447,648,39,0.0728496430654901,1
448,645,39,0.0685991133082731,1
448,646,39,0.0891715799158068,1
448,647,39,0.0932784484979936,1
448,648,39,0.0770718911136747,1
448,649,39,0.0640481346196141,1
448,650,39,0.058855787390613,1
449,645,39,0.0594963185659253,1
449,646,39,0.071419783307857,1
449,647,39,0.0766218486887524,1
449,648,39,0.0701535812380416,1
449,649,39,0.0624930534084153,1
449,650,39,0.0577997344585758,1
449,652,39,0.0587780834540161,1
449,653,39,0.0620334579458299,1
449,654,39,0.0682203353649303,1
449,655,39,0.0662932694816158,1
450,652,39,0.0645126776121991,1
450,653,39,0.0815853416963534,1
450,654,39,0.10912171919202,1
450,655,39,0.111461116589234,1
450,656,39,0.0842923777232408,1
451,635,39,0.0679718679316367,1
451,652,39,0.0613306963961602,1
451,653,39,0.0872894604850037,1
451,654,39,0.13256735033079,1
451,655,39,0.146076312684085,1
451,656,39,0.11023511983472,1
452,634,39,0.0820901489736075,1
452,635,39,0.0579611100318406,1
452,653,39,0.0710454693456938,1
452,654,39,0.107245290305257,1
452,655,39,0.125705580285474,1
452,656,39,0.104810126653937,1
453,633,39,0.0729496551141114,1
453,634,39,0.0609136178481125,1
453,654,39,0.0710662619449532,1
453,655,39,0.082327129173958,1
453,656,39,0.0779100817145613,1
454,654,39,0.0579821974779414,1
454,655,39,0.0625884599493731,1
454,656,39,0.06082748129185,1
464,614,39,0.0779157663616645,1
464,615,39,0.0691406820897197,1
464,619,39,0.0604812426459301,1
464,620,39,0.0643311581027261,1
464,621,39,0.0573142455463738,1
465,619,39,0.0603104673553597,1
465,620,39,0.062389762662917,1
467,608,39,0.0571971323809482,1
468,603,39,0.0891220810280635,1
468,604,39,0.0944254321959353,1
468,607,39,0.0617003576751652,1
468,608,39,0.0641713216299737,1
469,602,39,0.0934511461899702,1
469,603,39,0.141921330994309,1
469,604,39,0.153636268256091,1
469,605,39,0.116286627171972,1
469,606,39,0.0818476079618271,1
469,607,39,0.068949697996636,1
469,608,39,0.0653935738296019,1
470,602,39,0.090899022693583,1
470,603,39,0.140015240515296,1
470,604,39,0.153749961198156,1
470,605,39,0.120221865407748,1
470,606,39,0.0876622648313386,1
470,607,39,0.0704982630926386,1
470,608,39,0.0612176403232729,1
471,603,39,0.0915034882032486,1
471,604,39,0.101520190215368,1
471,605,39,0.0918845187764601,1
471,606,39,0.0796401486292264,1
471,607,39,0.0683944070431881,1
471,608,39,0.058161316934125,1
472,607,39,0.0608305005235065,1
486,620,39,0.0621999461633255,1
487,621,39,0.0573365241737141,1
446,645,40,0.0664323310459194,1
446,646,40,0.0793117777018986,1
446,647,40,0.0786802747368716,1
447,645,40,0.0706591079415888,1
447,646,40,0.0925527891426165,1
447,647,40,0.093609178200053,1
447,648,40,0.0741255691841366,1
447,649,40,0.0639325310700166,1
448,645,40,0.065284162063675,1
448,646,40,0.0841134882475936,1
448,647,40,0.0870442835424607,1
448,648,40,0.0736921973996301,1
448,649,40,0.0669104016115904,1
448,650,40,0.0634880081779663,1
448,651,40,0.0583027844486548,1
449,646,40,0.0596488723216939,1
449,647,40,0.0624025118403415,1
449,648,40,0.0621789294804667,1
449,649,40,0.0624748318736135,1
449,650,40,0.0603707399466898,1
449,651,40,0.0592179713537187,1
449,652,40,0.0637838987772395,1
449,653,40,0.0677454432482102,1
449,654,40,0.0732920076786609,1
449,655,40,0.069623983238358,1
450,651,40,0.0576445093904237,1
450,652,40,0.0711699949607137,1
450,653,40,0.0940003102260527,1
450,654,40,0.123032239355628,1
450,655,40,0.11858573669677,1
450,656,40,0.0854481065785001,1
451,652,40,0.0664181076342876,1
451,653,40,0.101582391105042,1
451,654,40,0.149103493411423,1
451,655,40,0.149824582640758,1
451,656,40,0.103689036405612,1
452,653,40,0.0749778475671078,1
452,654,40,0.107359891375593,1
452,655,40,0.111190388219411,1
452,656,40,0.0842186660128772,1
453,633,40,0.0651773803315739,1
453,654,40,0.0653289728866393,1
453,655,40,0.0681264679244849,1
453,656,40,0.0607415924069343,1
454,655,40,0.0570257791905685,1
463,620,40,0.057293435256304,1
464,613,40,0.0685248413889107,1
464,614,40,0.0690164513215413,1
464,615,40,0.061576085628429,1
464,619,40,0.0662325369292131,1
464,620,40,0.0778298303012542,1
464,621,40,0.0647938730448942,1
465,619,40,0.0675958851363509,1
465,620,40,0.0779752251757122,1
465,621,40,0.0604554612381133,1
467,608,40,0.0570790992933771,1
468,606,40,0.0610003146133737,1
468,607,40,0.05983159480628,1
468,608,40,0.062972928436756,1
469,603,40,0.110316603707824,1
469,604,40,0.126306643262589,1
469,606,40,0.0739575064845076,1
469,607,40,0.062837057115277,1
469,608,40,0.0608809193333952,1
470,603,40,0.110499538482136,1
470,604,40,0.127438631050175,1
470,605,40,0.101605247632191,1
470,606,40,0.0771849648773725,1
470,607,40,0.064406066891266,1
470,608,40,0.0583655573412004,1
471,606,40,0.0695406831087104,1
471,607,40,0.063744790292189,1
471,608,40,0.0573284394733215,1
472,607,40,0.0582202745085422,1
486,620,40,0.0695749148270032,1
487,621,40,0.0646081549163989,1
446,645,41,0.066278084869281,1
446,646,41,0.0788959964799533,1
446,647,41,0.0786575361484586,1
446,648,41,0.0671633684076846,1
447,645,41,0.0697434551785154,1
447,646,41,0.0889803304605659,1
447,647,41,0.0901450403506158,1
447,648,41,0.0736695413683328,1
447,649,41,0.0674502131058619,1
447,650,41,0.0653306829983197,1
448,645,41,0.0623550002203096,1
448,646,41,0.0761375273700426,1
448,647,41,0.0785712934473332,1
448,648,41,0.0695139346032536,1
448,649,41,0.0684345474921837,1
448,650,41,0.0664440836410198,1
448,651,41,0.0622301738615114,1
448,652,41,0.0599134148047836,1
449,649,41,0.0604624314174453,1
449,650,41,0.0605800222347541,1
449,651,41,0.0618316883552858,1
449,652,41,0.0685934109703594,1
449,653,41,0.0729625811996407,1
449,654,41,0.0755331680052399,1
450,651,41,0.0573490728552864,1
450,652,41,0.0749102038047414,1
450,653,41,0.0999714187265768,1
450,654,41,0.121139759006816,1
450,655,41,0.107731410189699,1
451,652,41,0.069185180375032,1
451,653,41,0.106683347607065,1
451,654,41,0.143237798553656,1
451,655,41,0.131254361964172,1
451,656,41,0.0890756013719766,1
452,653,41,0.0742068761491361,1
452,654,41,0.0984871892113795,1
452,655,41,0.0937470603769907,1
453,654,41,0.0612381734573118,1
453,655,41,0.0628113641615127,1
453,656,41,0.057784408319757,1
463,620,41,0.0593835868245637,1
464,613,41,0.0615970374449828,1
464,614,41,0.0619251607009637,1
464,619,41,0.0659287326407153,1
464,620,41,0.0826874673958363,1
464,621,41,0.0687934763461598,1
465,619,41,0.0683088542836717,1
465,620,41,0.08465989251724,1
465,621,41,0.0663485178827676,1
468,607,41,0.0585158584671002,1
468,608,41,0.0600997344208354,1
469,607,41,0.0594425856775387,1
469,608,41,0.0575325560447235,1
470,607,41,0.0599625834640645,1
471,607,41,0.0593820654148618,1
486,619,41,0.0840330953078026,1
486,620,41,0.0723187064611463,1
487,620,41,0.126494283792491,1
487,621,41,0.0686672406194595,1
488,621,41,0.0873889771909314,1
445,646,42,0.0656550204208564,1
445,647,42,0.0648563275028511,1
446,645,42,0.0644425689302381,1
446,646,42,0.0747692847053367,1
446,647,42,0.0739264237304815,1
446,648,42,0.065661589608484,1
446,649,42,0.0650174848894532,1
446,650,42,0.0631888624695636,1
447,645,42,0.0655834021230671,1
447,646,42,0.0790346924341734,1
447,647,42,0.0790160227321726,1
447,648,42,0.0697051132952526,1
447,649,42,0.0694079666484349,1
447,650,42,0.0675263189725781,1
447,651,42,0.0626961380158723,1
447,652,42,0.0600132086667422,1
448,645,42,0.0570010120558864,1
448,646,42,0.0643939486860823,1
448,647,42,0.065280989511661,1
448,648,42,0.0630778054582613,1
448,649,42,0.0673901940828154,1
448,650,42,0.0677424417073642,1
448,651,42,0.066794001975521,1
448,652,42,0.066031663673067,1
448,653,42,0.061015935599034,1
449,650,42,0.0592025449669739,1
449,651,42,0.0644778444063497,1
449,652,42,0.0709807563609314,1
449,653,42,0.0731414470875406,1
449,654,42,0.0728256897080903,1
450,652,42,0.0727549264661412,1
450,653,42,0.0951696610053872,1
450,654,42,0.111847248012803,1
450,655,42,0.0970462726971919,1
451,652,42,0.0661606945478243,1
451,653,42,0.101161573899044,1
451,654,42,0.131580285662716,1
451,655,42,0.116544665333739,1
452,653,42,0.069468893799753,1
452,654,42,0.0918054703382662,1
452,655,42,0.0863513875681061,1
453,654,42,0.0587434625378925,1
453,655,42,0.0617308271477611,1
453,656,42,0.0574218410557574,1
461,627,42,0.0569430687546037,1
463,614,42,0.0592077991376886,1
464,613,42,0.0570403682122837,1
464,614,42,0.0576067572008439,1
464,619,42,0.0588852838686321,1
464,620,42,0.0744609692601646,1
464,621,42,0.0652852647908621,1
465,619,42,0.0616853086923774,1
465,620,42,0.0767503783238792,1
465,621,42,0.0639579173830659,1
468,607,42,0.0579838781049377,1
468,608,42,0.0570243993073505,1
469,607,42,0.0580665472623447,1
486,620,42,0.0698683405066818,1
486,621,42,0.0580192656228491,1
487,621,42,0.0689846255534747,1
446,646,43,0.0678728701561499,1
446,647,43,0.0670978239548293,1
446,648,43,0.062486820346187,1
446,649,43,0.0640123107283774,1
446,650,43,0.0624170654804357,1
446,651,43,0.058249263849994,1
447,645,43,0.0593050278321266,1
447,646,43,0.0671512737902481,1
447,647,43,0.0668837061785651,1
447,648,43,0.0644865011096148,1
447,649,43,0.0682137661773027,1
447,650,43,0.0672285767351406,1
447,651,43,0.0656347172673538,1
447,652,43,0.0664115089619759,1
448,648,43,0.0570560717550595,1
448,649,43,0.0637195042270658,1
448,650,43,0.0668503648977334,1
448,651,43,0.0728756190722222,1
448,652,43,0.075414509842365,1
448,653,43,0.0678031329812092,1
449,650,43,0.0572617746024686,1
449,651,43,0.0682570437966914,1
449,652,43,0.0757771419726697,1
449,653,43,0.0732910228902105,1
449,654,43,0.0693898925370538,1
450,652,43,0.0689672413837025,1
450,653,43,0.0829476933211671,1
450,654,43,0.0948472223965095,1
451,652,43,0.0603852287204789,1
451,653,43,0.0859596953331076,1
451,654,43,0.110579760410759,1
451,655,43,0.102758546949477,1
452,653,43,0.0623362656520036,1
452,654,43,0.0834571120030215,1
452,655,43,0.081959814875811,1
453,654,43,0.0594576641450107,1
453,655,43,0.0629815674492106,1
453,656,43,0.05721607923898,1
461,627,43,0.0584934029316551,1
464,620,43,0.0618574402784184,1
464,621,43,0.0584089823840098,1
465,615,43,0.0590295111495979,1
465,616,43,0.058600019549525,1
465,620,43,0.0615491189363096,1
469,607,43,0.0571432638630144,1
484,645,43,0.0729055932021244,1
484,646,43,0.077132676738509,1
485,644,43,0.0623524527435994,1
485,645,43,0.101508986035393,1
486,620,43,0.065445496358382,1
486,621,43,0.0579635100851301,1
487,621,43,0.0670253623950734,1
446,646,44,0.0621307456096362,1
446,647,44,0.0613403496817494,1
446,648,44,0.0592816818592202,1
446,649,44,0.0617061307763209,1
446,650,44,0.0618392836099217,1
446,651,44,0.0604191655919303,1
446,652,44,0.0623870972474703,1
447,646,44,0.057336771845061,1
447,647,44,0.0574127833607879,1
447,648,44,0.0592348071083658,1
447,649,44,0.064863987623792,1
447,650,44,0.067094002739764,1
447,651,44,0.0708097569867615,1
447,652,44,0.0740318668579224,1
447,653,44,0.0696769613188306,1
448,649,44,0.0587867224664707,1
448,650,44,0.0668632438077682,1
448,651,44,0.0809084500085529,1
448,652,44,0.0858590935908033,1
448,653,44,0.0723808837630722,1
448,654,44,0.05810970104606,1
449,651,44,0.0726673982327871,1
449,652,44,0.0801246173713569,1
449,653,44,0.0717537799129197,1
449,654,44,0.065089462900389,1
450,652,44,0.0655722687063338,1
450,653,44,0.0712417076094922,1
450,654,44,0.0794757774120524,1
451,653,44,0.0699052966097897,1
451,654,44,0.0895062369777944,1
451,655,44,0.0907956375970954,1
452,654,44,0.0739790067161865,1
452,655,44,0.0773157235546207,1
453,654,44,0.0588441527342492,1
453,655,44,0.0637538420902216,1
464,615,44,0.0666779089801668,1
464,616,44,0.0666959300191165,1
465,614,44,0.0593461766573199,1
465,615,44,0.076407636561499,1
465,616,44,0.0780194757896777,1
465,617,44,0.0601262293580085,1
466,615,44,0.0614484464307634,1
466,616,44,0.0614195691311114,1
469,607,44,0.0574525169211423,1
484,642,44,0.0599388070147696,1
484,644,44,0.0589517128620118,1
484,645,44,0.102119212852341,1
485,641,44,0.0814688948847894,1
485,642,44,0.0933766383931347,1
485,643,44,0.0662462060287829,1
485,644,44,0.0836982082652788,1
486,641,44,0.0751091723502916,1
486,642,44,0.0853314238894629,1
486,643,44,0.0618667633355452,1
446,647,45,0.0579157920723091,1
446,648,45,0.0575349148194551,1
446,649,45,0.0592527986626313,1
446,650,45,0.060762337830699,1
446,651,45,0.0636697281832915,1
446,652,45,0.067054670171114,1
447,649,45,0.0602255042895262,1
447,650,45,0.0642745828907879,1
447,651,45,0.0721211472834982,1
447,652,45,0.0763383593476308,1
447,653,45,0.0688616508328409,1
448,650,45,0.0645773316275932,1
448,651,45,0.0819954618589428,1
448,652,45,0.0884313492295251,1
448,653,45,0.0734198827537997,1
448,654,45,0.0602052895900761,1
449,651,45,0.0719213059912973,1
449,652,45,0.0800599515620891,1
449,653,45,0.0714995393784704,1
449,654,45,0.0656018831230895,1
450,652,45,0.0652407841963603,1
450,653,45,0.0681258841277388,1
450,654,45,0.0725825707965007,1
451,653,45,0.0607453428587576,1
451,654,45,0.0722132279520844,1
452,654,45,0.0634301828154203,1
452,655,45,0.0674546358084837,1
453,655,45,0.0613795702085997,1
464,614,45,0.0578176257649153,1
464,615,45,0.0814100965276666,1
464,616,45,0.0859722440146799,1
464,617,45,0.0627245730452621,1
465,614,45,0.063987755883421,1
465,615,45,0.0933676278736599,1
465,616,45,0.09925303029431,1
465,617,45,0.0699551846953638,1
466,615,45,0.0691096465111882,1
466,616,45,0.0706485642185384,1
468,607,45,0.0569890471710601,1
469,607,45,0.0600875808340307,1
484,641,45,0.0714933652856104,1
484,642,45,0.0856112925113714,1
484,643,45,0.059756963173771,1
484,644,45,0.0697225210527721,1
484,645,45,0.124423480073967,1
485,641,45,0.118539139101947,1
485,642,45,0.137892897568886,1
485,643,45,0.0896943197779582,1
485,644,45,0.100795456679074,1
486,641,45,0.101820662734558,1
486,642,45,0.116795992781395,1
486,643,45,0.0774695392548706,1
487,641,45,0.0600477234380029,1
487,642,45,0.066254585576017,1
445,652,46,0.0664125173381737,1
446,648,46,0.0573811227069525,1
446,650,46,0.0608856958522267,1
446,651,46,0.067529739195939,1
446,652,46,0.0715678318038881,1
446,653,46,0.066843996205958,1
447,649,46,0.0576248843846565,1
447,650,46,0.0623558081006551,1
447,651,46,0.0728669328842729,1
447,652,46,0.0772704055950891,1
447,653,46,0.0674224857088915,1
448,650,46,0.0622582314869442,1
448,651,46,0.0803872433499772,1
448,652,46,0.0868215385476156,1
448,653,46,0.0728465176889706,1
448,654,46,0.0601711522227725,1
449,651,46,0.0724282361658098,1
449,652,46,0.0809768957543281,1
449,653,46,0.073182389519945,1
449,654,46,0.0650620775257548,1
450,651,46,0.0591389936787668,1
450,652,46,0.0695275211457078,1
450,653,46,0.071411639638096,1
451,653,46,0.0608665190136585,1
451,654,46,0.0648705627083565,1
452,654,46,0.057936048050317,1
452,655,46,0.0641776726309387,1
453,655,46,0.0613894239900411,1
453,656,46,0.0602859655828348,1
462,634,46,0.059003942031507,1
463,616,46,0.0600142229398768,1
464,614,46,0.0579954596888701,1
464,615,46,0.092456787011039,1
464,616,46,0.103050527879632,1
464,617,46,0.0715888661775574,1
465,614,46,0.0653098196358184,1
465,615,46,0.106711452407993,1
465,616,46,0.118246615653603,1
465,617,46,0.0786997582161549,1
466,615,46,0.0728990652930546,1
466,616,46,0.0766219902152363,1
468,607,46,0.0569599163031244,1
469,607,46,0.0613383506201643,1
470,607,46,0.0575286522725426,1
484,641,46,0.0856626194495318,1
484,642,46,0.103599108118969,1
484,643,46,0.0698470584616656,1
484,644,46,0.0728790333986462,1
485,640,46,0.063247743383802,1
485,641,46,0.140968173713003,1
485,642,46,0.166023149675673,1
485,643,46,0.10549967906511,1
486,640,46,0.0586839447544766,1
486,641,46,0.117589425631748,1
486,642,46,0.135954892867754,1
487,641,46,0.0660867410630507,1
445,651,47,0.0670716297614345,1
445,652,47,0.0681166790093486,1
446,650,47,0.0632915104489475,1
446,651,47,0.0734511483128675,1
446,652,47,0.074936126739042,1
446,653,47,0.0647826039986138,1
447,650,47,0.0622725551465021,1
447,651,47,0.0741599070472924,1
447,652,47,0.0764872157240075,1
447,653,47,0.064820273631078,1
448,650,47,0.0593677004767461,1
448,651,47,0.0756562783554207,1
448,652,47,0.080724064587781,1
448,653,47,0.0691678433807544,1
448,654,47,0.0593634369914187,1
449,651,47,0.073559952694301,1
449,652,47,0.0809731158178207,1
449,653,47,0.0717788242036328,1
449,654,47,0.0619480408158606,1
450,651,47,0.0619936477252967,1
450,652,47,0.0718193833351433,1
450,653,47,0.0697451122177643,1
451,653,47,0.0581051427138911,1
451,654,47,0.0589086652231594,1
452,655,47,0.0633509987476793,1
453,655,47,0.0597806039935188,1
462,634,47,0.0599108319464524,1
463,615,47,0.0588960811599662,1
463,616,47,0.0646204854113085,1
464,614,47,0.058609195183231,1
464,615,47,0.0941382336815482,1
464,616,47,0.108914630564456,1
464,617,47,0.0767583156008512,1
465,614,47,0.0664651474993733,1
465,615,47,0.109736203597358,1
465,616,47,0.125044557254681,1
465,617,47,0.0837141358916541,1
466,615,47,0.0707754073297321,1
466,616,47,0.0762838834452037,1
469,607,47,0.058177256354374,1
479,647,47,0.0799576927805359,1
479,648,47,0.0872561663796667,1
479,649,47,0.0616659549457043,1
480,647,47,0.0854139927989438,1
480,648,47,0.0921322844742711,1
481,647,47,0.0617247002303957,1
484,641,47,0.0904904593223165,1
484,642,47,0.11033931870849,1
484,643,47,0.0779038840339539,1
484,644,47,0.074596138846161,1
485,640,47,0.0651386610443541,1
485,641,47,0.139230476162081,1
485,642,47,0.16715591585892,1
485,643,47,0.111888373250249,1
486,640,47,0.0608876713260645,1
486,641,47,0.117175814482556,1
486,642,47,0.137656182730693,1
487,641,47,0.0675878181267687,1
445,651,48,0.0724219441342132,1
445,652,48,0.0688916072719327,1
446,650,48,0.0701675156997687,1
446,651,48,0.0835819678465038,1
446,652,48,0.0779541023479904,1
446,653,48,0.0625702384145713,1
447,650,48,0.0643021982459585,1
447,651,48,0.0770473539595289,1
447,652,48,0.0743090405797,1
447,653,48,0.0614650816895583,1
448,650,48,0.0569384632469402,1
448,651,48,0.0717780104263504,1
448,652,48,0.0741134981544475,1
448,653,48,0.0637850250921738,1
449,651,48,0.074737152296555,1
449,652,48,0.0797557521788238,1
449,653,48,0.0674628089629288,1
450,651,48,0.0636525386124347,1
450,652,48,0.07106699316512,1
450,653,48,0.063848228461108,1
452,655,48,0.0648608209687148,1
453,655,48,0.0603184812925104,1
463,616,48,0.0608846461974712,1
464,615,48,0.0811152143045912,1
464,616,48,0.0952907899847935,1
464,617,48,0.0691531010386817,1
465,614,48,0.0583104150849116,1
465,615,48,0.0941313932348265,1
465,616,48,0.108849988342935,1
465,617,48,0.0740230214526788,1
466,615,48,0.0580665944378394,1
466,616,48,0.0636582173626011,1
478,648,48,0.0611107052708142,1
479,647,48,0.101691684932232,1
479,648,48,0.114063552750647,1
479,649,48,0.0708636137108216,1
480,647,48,0.107181355716156,1
480,648,48,0.119128573319635,1
481,647,48,0.0693121178372149,1
484,641,48,0.0845842348177229,1
484,642,48,0.105926617291536,1
484,643,48,0.0803195995876107,1
485,640,48,0.0594485415837361,1
485,641,48,0.120663510594625,1
485,642,48,0.150807625597914,1
486,641,48,0.103045444720086,1
445,651,49,0.0733972149286287,1
445,652,49,0.0661793996314462,1
446,650,49,0.0745189243553209,1
446,651,49,0.086209654691419,1
446,652,49,0.0750129107534936,1
446,653,49,0.0597026523855751,1
447,650,49,0.0643842954004931,1
447,651,49,0.0749437750661094,1
447,652,49,0.0685599045752965,1
447,653,49,0.0582490161786472,1
448,651,49,0.0661723409980618,1
448,652,49,0.0656775408226066,1
448,653,49,0.0585658703883477,1
449,651,49,0.0688235330331777,1
449,652,49,0.0706267750369549,1
449,653,49,0.0603869093474752,1
450,651,49,0.0585397646490054,1
450,652,49,0.0619866775459647,1
461,656,49,0.0639863406185821,1
462,655,49,0.0596986070869104,1
462,656,49,0.0682001324593538,1
464,615,49,0.061141764437093,1
464,616,49,0.0692798497988861,1
465,615,49,0.0671100011293813,1
465,616,49,0.075437348678704,1
478,648,49,0.0647739119137277,1
479,647,49,0.10449544251699,1
479,648,49,0.121079857922506,1
479,649,49,0.0751839101276635,1
480,647,49,0.109535153433107,1
480,648,49,0.126152096342173,1
484,641,49,0.0677640834655269,1
484,642,49,0.0853047107656271,1
484,643,49,0.072299429374652,1
485,641,49,0.0905522474264117,1
485,642,49,0.11615888772638,1
486,641,49,0.0798860744827466,1
445,651,50,0.068075087913893,1
446,650,50,0.0707263742999982,1
446,651,50,0.0776994608218367,1
446,652,50,0.0679390337873723,1
447,651,50,0.0668632968801996,1
447,652,50,0.0623113275061533,1
448,652,50,0.0581762008026816,1
449,651,50,0.0581235234659874,1
449,652,50,0.0595817180050842,1
460,656,50,0.0576759105790386,1
461,655,50,0.0691156495928802,1
461,656,50,0.0811989567045011,1
462,655,50,0.0747827356182438,1
462,656,50,0.0854836886953268,1
478,648,50,0.0604703510036068,1
479,647,50,0.0876909003565807,1
479,648,50,0.105217663958196,1
480,647,50,0.0923802388740606,1
484,642,50,0.065785661159368,1
485,641,50,0.0653668901904503,1
446,651,51,0.066678280487187,1
461,655,51,0.0796458568640769,1
461,656,51,0.0921684032123493,1
462,655,51,0.0830687633312051,1
462,656,51,0.0957991649088291,1
463,655,51,0.0585780298720893,1
479,647,51,0.0665638032525239,1
479,648,51,0.0804892367693731,1
480,647,51,0.0707070146563883,1
484,624,51,0.0597961306281898,1
461,613,52,0.059895594261686,1
461,655,52,0.0804395314888407,1
462,655,52,0.0803560308633408,1
465,608,52,0.0583382722144923,1
483,623,52,0.0570327434729637,1
483,624,52,0.057114262727689,1
483,643,52,0.0583463156363271,1
484,623,52,0.0577669003143114,1
484,624,52,0.0602472168109309,1
454,652,53,0.0581571360059132,1
454,653,53,0.0655076559694975,1
455,653,53,0.0623100891494192,1
465,608,53,0.0582380065975873,1
448,634,54,0.0620626536800707,1
454,652,54,0.0604716837113301,1
455,653,54,0.0616382157548603,1
447,634,55,0.0699934322276372,1
447,635,55,0.062046218917128,1
448,633,55,0.0580501773657072,1
448,634,55,0.0568989419763117,1
484,626,55,0.0581237003740922,1
485,629,55,0.0638947199110685,1
451,647,56,0.0618425976884196,1
452,646,56,0.057640705866169,1
452,647,56,0.0986501746483987,1
452,648,56,0.0900596644992043,1
453,647,56,0.0922506713780519,1
453,648,56,0.0850749484159554,1
462,611,56,0.0580598011666122,1
463,610,56,0.0705403259430405,1
463,611,56,0.0570806737755105,1
464,610,56,0.0699020650884074,1
465,610,56,0.0584415865477379,1
479,641,56,0.0658877784144373,1
479,642,56,0.0583251397361739,1
482,635,56,0.0623284757984523,1
482,636,56,0.0763011083976815,1
451,647,57,0.079218676863241,1
451,648,57,0.0695871568678604,1
452,646,57,0.0782422207845228,1
452,647,57,0.144401334953277,1
452,648,57,0.126722978796597,1
452,649,57,0.0611856612348488,1
453,646,57,0.0716852280222816,1
453,647,57,0.134943556407692,1
453,648,57,0.120016380747001,1
453,649,57,0.0594502811801007,1
454,647,57,0.0675067647300529,1
454,648,57,0.0638510825785333,1
459,613,57,0.0664554706260367,1
459,614,57,0.0578464264043885,1
460,612,57,0.0607145608485098,1
460,613,57,0.0596200363005996,1
461,612,57,0.0580861250926173,1
462,611,57,0.0647899338910923,1
463,610,57,0.079793044407331,1
463,611,57,0.0647063389146032,1
464,610,57,0.0787397630356034,1
464,611,57,0.0584896229951476,1
465,610,57,0.0673460967892075,1
479,641,57,0.0687366357720642,1
479,642,57,0.0621808754696203,1
480,641,57,0.0571873670535592,1
484,626,57,0.0592289219654104,1
451,647,58,0.0838687299875655,1
451,648,58,0.0731752011539503,1
452,646,58,0.0858214003705918,1
452,647,58,0.162400071687882,1
452,648,58,0.141821979402613,1
453,646,58,0.0793916752989959,1
453,647,58,0.153188525636532,1
453,648,58,0.135816479966502,1
453,649,58,0.065777482107986,1
454,647,58,0.0748260545161903,1
454,648,58,0.070340124937693,1
459,613,58,0.0639104883201495,1
460,612,58,0.0609556865954512,1
460,613,58,0.062000918648407,1
461,612,58,0.0597605426144263,1
461,613,58,0.0583708292027256,1
462,611,58,0.0711277787899542,1
462,612,58,0.0602442093731481,1
463,611,58,0.0739207213925678,1
463,612,58,0.0586973897704469,1
464,610,58,0.083615668840482,1
464,611,58,0.0669705090886893,1
465,610,58,0.0748506093611466,1
465,611,58,0.0585713427457251,1
479,641,58,0.060263327242348,1
451,647,59,0.0768376647828234,1
452,646,59,0.0803735801473442,1
452,647,59,0.141589250893716,1
452,648,59,0.126528839842309,1
453,646,59,0.076825464020524,1
453,647,59,0.136877433253044,1
453,648,59,0.123542690001428,1
454,647,59,0.0730348658512917,1
454,648,59,0.0694079253698771,1
459,613,59,0.0600012496788528,1
460,612,59,0.0589235019162214,1
460,613,59,0.0612329841529022,1
461,612,59,0.0583360195846235,1
461,613,59,0.0576294368198886,1
462,611,59,0.0733282148707915,1
462,612,59,0.0634900485181092,1
463,610,59,0.0872138145793602,1
463,611,59,0.0850036544496917,1
463,612,59,0.0690784340245518,1
464,610,59,0.087951869295952,1
464,611,59,0.084814810944677,1
464,612,59,0.0659873717805437,1
465,611,59,0.0731256491937755,1
466,611,59,0.0594791643766895,1
452,646,60,0.0635709957699621,1
452,647,60,0.1005783432589,1
453,646,60,0.0626012504053554,1
453,647,60,0.099471087224376,1
454,647,60,0.0599514441503943,1
456,645,60,0.0654268207594443,1
460,613,60,0.0575450339630539,1
462,611,60,0.0715212106213173,1
462,612,60,0.0618392541252375,1
463,610,60,0.0904217659051944,1
463,611,60,0.092133151323985,1
463,612,60,0.0724927722424673,1
464,610,60,0.0928393566847629,1
464,611,60,0.0999372282868417,1
464,612,60,0.076036489254413,1
465,610,60,0.0800066668409015,1
465,611,60,0.0827193462363343,1
465,612,60,0.0631968646128406,1
466,611,60,0.0605991872794487,1
456,645,61,0.0687890418496643,1
462,612,61,0.0570931988693355,1
463,611,61,0.091677300416286,1
463,612,61,0.0706230894514367,1
464,611,61,0.103656379169453,1
464,612,61,0.0794032863676124,1
465,610,61,0.0773792512550805,1
465,611,61,0.083651999868286,1
465,612,61,0.0666114210174188,1
466,611,61,0.0587113773046055,1
456,645,62,0.058217762413453,1
457,621,62,0.0601631854611164,1
463,612,62,0.0670438551889695,1
464,611,62,0.0945364597225534,1
464,612,62,0.074871331197164,1
465,611,62,0.0760454997738879,1
465,612,62,0.0634522845346557,1
456,621,63,0.062581772823009,1
456,622,63,0.0634658828709836,1
457,621,63,0.0611296698196566,1
457,622,63,0.0589162545808585,1
463,611,63,0.0797415523549394,1
463,612,63,0.064175797405027,1
464,611,63,0.0804878509892182,1
464,612,63,0.0662674350013676,1
465,612,63,0.0568773355997699,1
447,631,64,0.0568685314730841,1
455,622,64,0.0569163674246416,1
456,621,64,0.0682839220347583,1
456,622,64,0.0715708982110392,1
457,621,64,0.0625829227256906,1
457,622,64,0.0619666810331773,1
463,612,64,0.0619521981563251,1
464,611,64,0.0705923958952413,1
464,612,64,0.0586097259075457,1
447,630,65,0.057817460650684,1
455,622,65,0.0594064020731554,1
456,621,65,0.0653367627401905,1
456,622,65,0.0703616782418033,1
456,623,65,0.057917348863632,1
457,621,65,0.0592111191131233,1
457,622,65,0.060240382261146,1
456,621,66,0.0585228581311164,1
456,622,66,0.0628605092330463,1
456,623,66,0.0573954994389418,1
459,618,66,0.0591281786966222,1
460,618,66,0.0588945774410747,1
459,617,67,0.0589923014782064,1
459,618,67,0.0656196152121345,1
459,619,67,0.0571069387321473,1
459,621,67,0.0569316345940921,1
460,617,67,0.0611347411853296,1
460,618,67,0.0689650595170758,1
460,619,67,0.0594215572008062,1
466,612,67,0.0586109642642798,1
475,617,67,0.0576334526338692,1
475,618,67,0.0571710030538585,1
459,618,68,0.0605153092499917,1
459,621,68,0.0604782470020209,1
460,618,68,0.0651329292217562,1
460,619,68,0.0587599798579508,1
476,617,68,0.0610061525808345,1
