x,y,z,signal,cytoplasm.p
456,390,9,0.0735392544460309,1
457,389,9,0.0804092507182233,1
457,390,9,0.076463114943187,1
458,388,9,0.087043617188599,1
458,389,9,0.0845799713323954,1
454,392,10,0.0693918798047652,1
455,390,10,0.0708772651195809,1
455,391,10,0.0701559518066469,1
456,389,10,0.080318207910519,1
456,390,10,0.0762181267026226,1
457,388,10,0.0868828136182066,1
457,389,10,0.0825777430922574,1
458,387,10,0.091908537000165,1
458,388,10,0.0908345691740411,1
459,386,10,0.107448050581188,1
450,399,11,0.0889353368325599,1
450,400,11,0.0814975716885893,1
450,401,11,0.0749745334886099,1
451,395,11,0.0822121212149803,1
451,396,11,0.0946087856527621,1
451,400,11,0.0850036721405022,1
451,401,11,0.0780413888069346,1
451,402,11,0.074559395032779,1
451,403,11,0.0707330201478046,1
451,404,11,0.0742355588498728,1
452,394,11,0.0789495229755509,1
452,395,11,0.0916616971214362,1
452,396,11,0.0998606978406738,1
452,402,11,0.0709812281158777,1
452,403,11,0.0678847347930501,1
452,404,11,0.0727635359939117,1
452,405,11,0.0869725119243139,1
452,406,11,0.102818955170354,1
453,392,11,0.0713074879398207,1
453,393,11,0.0761195888882085,1
453,394,11,0.0875040205315301,1
453,404,11,0.0718363783070847,1
453,406,11,0.109382399181486,1
454,390,11,0.0706806435548886,1
454,391,11,0.0716832407545702,1
454,392,11,0.0739570936989296,1
454,393,11,0.0781056654183716,1
455,389,11,0.0757589381286783,1
455,390,11,0.0742320088939016,1
455,391,11,0.075003788192219,1
455,392,11,0.077101381694757,1
456,388,11,0.085365266409925,1
456,389,11,0.0805471623798452,1
456,390,11,0.0797220452879087,1
456,391,11,0.0796483630622293,1
457,387,11,0.0931415098309485,1
457,388,11,0.0898393077637749,1
457,389,11,0.0865772874241548,1
457,390,11,0.0855199725476362,1
458,386,11,0.0959921362696242,1
458,387,11,0.0949194068002343,1
458,388,11,0.094918003329269,1
458,389,11,0.0928156097201521,1
458,412,11,0.128916356244049,1
459,385,11,0.106273156681234,1
459,386,11,0.111322432428888,1
459,387,11,0.112767193745888,1
459,388,11,0.106962485008807,1
464,383,11,0.137841700363336,1
471,388,11,0.0697553551970365,1
472,389,11,0.0779582478945813,1
450,396,12,0.0913951437828878,1
450,397,12,0.106284997730387,1
450,399,12,0.099512731392263,1
450,400,12,0.0874868014759891,1
450,401,12,0.0771462750748368,1
450,402,12,0.0751130348439147,1
450,403,12,0.0737824441208625,1
450,404,12,0.0774418295487107,1
451,394,12,0.0743859071512672,1
451,395,12,0.0813177445999862,1
451,396,12,0.0933641486809307,1
451,400,12,0.0887057395971194,1
451,401,12,0.0775238146614455,1
451,402,12,0.0758215223192454,1
451,403,12,0.0730358860213631,1
451,404,12,0.0753917004907101,1
451,405,12,0.0858675026227216,1
452,393,12,0.0721128267056324,1
452,394,12,0.079977217538377,1
452,395,12,0.0876915195349477,1
452,396,12,0.0955520419771325,1
452,397,12,0.104593201935743,1
452,399,12,0.102492630480106,1
452,400,12,0.0837384548591373,1
452,401,12,0.0715633029564033,1
452,402,12,0.0692646651865512,1
452,403,12,0.0677607399023448,1
452,404,12,0.0720222910344954,1
452,405,12,0.0855661691507552,1
452,406,12,0.100554507840237,1
453,391,12,0.0743967869997169,1
453,392,12,0.0751990239767564,1
453,393,12,0.0794141898038094,1
453,394,12,0.0879969690688208,1
453,395,12,0.094083280127238,1
453,396,12,0.0973451825281215,1
453,397,12,0.0974094178610008,1
453,400,12,0.0729135127882859,1
453,401,12,0.062643496060799,1
453,402,12,0.0608142485656055,1
453,403,12,0.0618648350372021,1
453,404,12,0.0678028027527467,1
453,405,12,0.0826886290923916,1
454,390,12,0.0750730123336557,1
454,391,12,0.0760261165425306,1
454,392,12,0.0780203190516442,1
454,393,12,0.0811171838814921,1
454,394,12,0.0866452555180468,1
454,398,12,0.0826498213511194,1
454,399,12,0.0738663103564458,1
454,400,12,0.0635918001630951,1
454,401,12,0.0578837658083903,1
454,402,12,0.0572450567865582,1
454,403,12,0.0592252717615132,1
454,404,12,0.0639072509018303,1
454,405,12,0.0760303977186686,1
455,388,12,0.0793678398803327,1
455,389,12,0.0766683873142076,1
455,390,12,0.0777703714872065,1
455,391,12,0.0792943699443791,1
455,392,12,0.0806592926336503,1
455,393,12,0.0817318923704299,1
455,394,12,0.0841220977753641,1
455,395,12,0.0888054980774571,1
455,397,12,0.0848008941737604,1
455,398,12,0.073674294299417,1
455,399,12,0.0642674534941615,1
455,400,12,0.0568576516246344,1
455,404,12,0.063246811667783,1
455,405,12,0.0702810848061601,1
456,387,12,0.0918395369423279,1
456,388,12,0.0844232012667941,1
456,389,12,0.0816170141440624,1
456,390,12,0.0826364294075805,1
456,391,12,0.0833737293162582,1
456,392,12,0.082520071050069,1
456,393,12,0.0818074734097683,1
456,394,12,0.081514454618731,1
456,395,12,0.0822537476920569,1
456,396,12,0.0814167246846625,1
456,397,12,0.0742025949729982,1
456,398,12,0.0654936212598442,1
456,399,12,0.0579265127034644,1
456,404,12,0.0652106744369109,1
456,405,12,0.066056884871885,1
456,406,12,0.077192400914714,1
456,408,12,0.114249848778952,1
457,386,12,0.0974369978345504,1
457,387,12,0.0948815484657916,1
457,388,12,0.0921478641813736,1
457,389,12,0.0897297780591115,1
457,390,12,0.0891316458596003,1
457,391,12,0.088597000081991,1
457,392,12,0.0855109502342877,1
457,393,12,0.0833804931028012,1
457,394,12,0.081354223051211,1
457,395,12,0.0770392928468835,1
457,396,12,0.0711806743133111,1
457,397,12,0.0659877609783745,1
457,398,12,0.0604831591503995,1
457,406,12,0.0623466501577596,1
457,407,12,0.0771540472375776,1
458,385,12,0.105035059412346,1
458,386,12,0.0986867415536758,1
458,387,12,0.0980334847886863,1
458,388,12,0.0973293846343564,1
458,389,12,0.095988863469684,1
458,390,12,0.0950583858074223,1
458,392,12,0.0880415970867434,1
458,393,12,0.0827158847344156,1
458,394,12,0.077740715791893,1
458,395,12,0.0713548521364319,1
458,396,12,0.0646482658807103,1
458,397,12,0.0614599277667696,1
458,407,12,0.063551642023289,1
458,411,12,0.125084797951602,1
458,412,12,0.129359499252882,1
459,384,12,0.110653106511039,1
459,385,12,0.108583340653398,1
459,386,12,0.1124972555656,1
459,387,12,0.113367395770226,1
459,388,12,0.105183591457197,1
459,389,12,0.101314493264896,1
459,393,12,0.0776947137876893,1
459,394,12,0.0697395573032713,1
459,395,12,0.0643826737428651,1
459,396,12,0.0588383206637252,1
459,408,12,0.0719595299358234,1
459,412,12,0.12741898245666,1
460,383,12,0.131411208689953,1
460,388,12,0.12272577554862,1
460,393,12,0.0740188818030248,1
460,394,12,0.0641006645328876,1
460,395,12,0.060077909857631,1
460,408,12,0.0652722974267749,1
461,393,12,0.0707368826414276,1
461,394,12,0.0586672269385661,1
461,408,12,0.059404002019866,1
462,382,12,0.189381081569921,1
462,393,12,0.0673996527694893,1
462,409,12,0.0659932923051202,1
463,382,12,0.14423360248211,1
463,383,12,0.237472924804243,1
463,393,12,0.0637760617481936,1
463,409,12,0.0586260309378781,1
463,410,12,0.0831644647190043,1
464,382,12,0.10005322103427,1
464,383,12,0.125268310625723,1
464,384,12,0.133403382652797,1
464,392,12,0.0735242349479272,1
464,393,12,0.0623666761552312,1
464,409,12,0.058451139585401,1
464,410,12,0.0700328237656555,1
465,383,12,0.0922722010944149,1
465,392,12,0.0692105313064602,1
465,393,12,0.0623403168476051,1
466,383,12,0.0917605710612495,1
466,392,12,0.0708514129485222,1
466,393,12,0.0637362279399131,1
467,393,12,0.0669796493407744,1
468,393,12,0.0698716015127483,1
468,394,12,0.0587585704900487,1
468,403,12,0.0579074066281381,1
469,393,12,0.0784744303629786,1
469,394,12,0.0613786031109597,1
470,389,12,0.0666742057038381,1
470,394,12,0.0731174642454567,1
471,389,12,0.0724125680046549,1
449,396,13,0.0900366015792657,1
449,397,13,0.0963348013718256,1
449,398,13,0.0942055943909469,1
449,399,13,0.0932188953329566,1
449,400,13,0.0837320566826777,1
449,401,13,0.0737121998093544,1
449,402,13,0.0694529661733777,1
449,403,13,0.0705459987962701,1
450,395,13,0.0819121735231688,1
450,396,13,0.091420600859179,1
450,397,13,0.104922003339459,1
450,398,13,0.106362129664111,1
450,399,13,0.103174740957,1
450,400,13,0.0882406304985987,1
450,401,13,0.0774422187465414,1
450,402,13,0.0754070089387184,1
450,403,13,0.0748962575491406,1
450,404,13,0.0760685685907632,1
450,405,13,0.0848676946741603,1
451,393,13,0.0725655935153697,1
451,394,13,0.0765502068032158,1
451,395,13,0.0810329638296991,1
451,396,13,0.0897812936992504,1
451,397,13,0.103655187988213,1
451,399,13,0.107749419434775,1
451,400,13,0.0885807599179637,1
451,401,13,0.0764555727609826,1
451,402,13,0.0760261165425306,1
451,403,13,0.0749055216368991,1
451,404,13,0.0745952837903208,1
451,405,13,0.0831524113801257,1
451,406,13,0.0922732861307914,1
451,407,13,0.0968157673334797,1
452,392,13,0.0727404907647836,1
452,393,13,0.075971693712535,1
452,394,13,0.0806767770513485,1
452,395,13,0.0847833213020097,1
452,396,13,0.0906606508161408,1
452,397,13,0.099957678863765,1
452,398,13,0.106752554057692,1
452,399,13,0.101130721125554,1
452,400,13,0.0805804211035613,1
452,401,13,0.0678048312990159,1
452,402,13,0.0666727727481886,1
452,403,13,0.0665295951219784,1
452,404,13,0.069178003802911,1
452,405,13,0.0806930525969968,1
452,406,13,0.0949570056694566,1
452,407,13,0.104230976694079,1
453,390,13,0.0783402573593064,1
453,391,13,0.076881290321485,1
453,392,13,0.0784138629248071,1
453,393,13,0.0824408633945806,1
453,394,13,0.0877671595436545,1
453,395,13,0.0900795371763183,1
453,396,13,0.0916325013871954,1
453,397,13,0.0920553589333356,1
453,398,13,0.0907177567523937,1
453,399,13,0.0824290459331752,1
453,400,13,0.0677066708885589,1
453,401,13,0.0591486764490401,1
453,402,13,0.0578449875518022,1
453,403,13,0.0587508572966762,1
453,404,13,0.063014195200686,1
453,405,13,0.075413265588694,1
453,406,13,0.0954484563847928,1
454,389,13,0.0766780936722282,1
454,390,13,0.0786557022011048,1
454,391,13,0.0788765247945436,1
454,392,13,0.0801461588815936,1
454,393,13,0.08271749459817,1
454,394,13,0.0864034044478755,1
454,395,13,0.0883254815226325,1
454,396,13,0.0894743404464859,1
454,397,13,0.0846807912613623,1
454,398,13,0.0763213761695631,1
454,399,13,0.0676855362669635,1
454,400,13,0.0587886507648138,1
454,404,13,0.0572942077550286,1
454,405,13,0.066530609395113,1
454,406,13,0.0881773209848017,1
455,388,13,0.0788369681422941,1
455,389,13,0.0782559547503978,1
455,390,13,0.0806598174610281,1
455,391,13,0.0815345749671918,1
455,392,13,0.0817891398331667,1
455,393,13,0.0822582765395416,1
455,394,13,0.083574301828626,1
455,395,13,0.084930084265812,1
455,396,13,0.0857887018558745,1
455,397,13,0.0782806275340907,1
455,398,13,0.0670994868910151,1
455,399,13,0.0583440865942057,1
455,405,13,0.0596197414537582,1
455,406,13,0.076574732163488,1
455,407,13,0.103247155341261,1
456,387,13,0.0903691357439948,1
456,388,13,0.0848489247242333,1
456,389,13,0.083574543603036,1
456,390,13,0.0847542965789369,1
456,391,13,0.0844782963475883,1
456,392,13,0.082173661392981,1
456,393,13,0.0803325079823296,1
456,394,13,0.0790190360668922,1
456,395,13,0.0769984624562789,1
456,396,13,0.0737083255218577,1
456,397,13,0.0667022338445867,1
456,398,13,0.0587780303815846,1
456,406,13,0.0624928706033736,1
456,407,13,0.0809785527935771,1
456,408,13,0.0978331304629812,1
457,386,13,0.10216457209043,1
457,387,13,0.0964629064275007,1
457,388,13,0.0931383962483027,1
457,389,13,0.0918522094595736,1
457,390,13,0.0907381955354433,1
457,391,13,0.0885484977765718,1
457,392,13,0.0827457350286445,1
457,393,13,0.0779662854194793,1
457,394,13,0.0746872170354863,1
457,395,13,0.0700501548629962,1
457,396,13,0.0635103162899908,1
457,397,13,0.0581009323009951,1
457,407,13,0.0626288362758419,1
457,408,13,0.0780602413139772,1
457,409,13,0.0989637855428432,1
458,385,13,0.116948711651394,1
458,386,13,0.10364137736216,1
458,387,13,0.101574819438153,1
458,388,13,0.0986535241085176,1
458,389,13,0.0975161524176073,1
458,390,13,0.0953012924292861,1
458,391,13,0.0924129079040937,1
458,392,13,0.0834916444650926,1
458,393,13,0.0751086888014716,1
458,394,13,0.0692172243297612,1
458,395,13,0.0641622226564464,1
458,396,13,0.0574620699588054,1
458,408,13,0.0664307093882914,1
458,409,13,0.0895951686821139,1
458,410,13,0.114888604976279,1
458,411,13,0.122937286878806,1
458,412,13,0.132257242216822,1
458,413,13,0.142775867904086,1
459,384,13,0.117197869026297,1
459,385,13,0.113202906614316,1
459,386,13,0.113691762677447,1
459,387,13,0.113243324219342,1
459,388,13,0.104125704577806,1
459,389,13,0.0997586454519096,1
459,390,13,0.0968969386689321,1
459,391,13,0.0942938243597837,1
459,392,13,0.0824635312197517,1
459,393,13,0.0693800210648019,1
459,394,13,0.0609867634525405,1
459,408,13,0.0595941487479199,1
459,409,13,0.0894552343711596,1
459,410,13,0.121075281899527,1
459,411,13,0.126097148684799,1
459,412,13,0.130433932937015,1
460,383,13,0.130464137047454,1
460,384,13,0.128486835159292,1
460,385,13,0.124645098753878,1
460,386,13,0.136072949543072,1
460,387,13,0.138197497943856,1
460,388,13,0.117093198397581,1
460,389,13,0.103178184768108,1
460,390,13,0.0959677701266464,1
460,391,13,0.0927051070209119,1
460,392,13,0.080386040374864,1
460,393,13,0.0649965566606468,1
460,409,13,0.0809796496238273,1
460,410,13,0.112196488199569,1
460,411,13,0.123391480747256,1
460,412,13,0.136306774882219,1
461,383,13,0.184352893268368,1
461,388,13,0.124815980189311,1
461,389,13,0.107841965961371,1
461,390,13,0.0966415659226116,1
461,391,13,0.0906211177516386,1
461,392,13,0.0764973171767957,1
461,393,13,0.0599748078141112,1
461,409,13,0.0663709144488445,1
461,410,13,0.0934213371742992,1
461,411,13,0.129156514893351,1
461,412,13,0.167947921650561,1
462,383,13,0.239923833276896,1
462,386,13,0.134653828107405,1
462,388,13,0.117268408184646,1
462,389,13,0.106593383938801,1
462,390,13,0.0972478123071996,1
462,391,13,0.0899482064961977,1
462,392,13,0.0733403507667858,1
462,409,13,0.0592671223221892,1
462,410,13,0.0881854115821312,1
462,411,13,0.153889176082817,1
463,382,13,0.1298827462516,1
463,383,13,0.185442423110784,1
463,384,13,0.195525005701159,1
463,385,13,0.141307754717243,1
463,386,13,0.114056912799778,1
463,387,13,0.110893159015478,1
463,388,13,0.105825685320769,1
463,389,13,0.0997502010383704,1
463,390,13,0.0935972310060372,1
463,391,13,0.0859807297067769,1
463,392,13,0.0686320948759582,1
463,410,13,0.071185645431058,1
463,411,13,0.118461853847865,1
464,382,13,0.0994298676359407,1
464,383,13,0.116178123534316,1
464,384,13,0.12452836299241,1
464,385,13,0.107841388061562,1
464,389,13,0.0930644191757818,1
464,390,13,0.0865877721778369,1
464,391,13,0.0771422828486036,1
464,392,13,0.0631741790968591,1
464,410,13,0.0649240479253963,1
465,382,13,0.0916963239344966,1
465,383,13,0.0945666756268656,1
465,384,13,0.0985900789651735,1
465,390,13,0.0806811938570335,1
465,391,13,0.0706694806534712,1
465,392,13,0.0600069932953243,1
465,409,13,0.0571151826498343,1
466,383,13,0.0928680216946891,1
466,391,13,0.0700605216779418,1
466,392,13,0.0610983688789678,1
467,391,13,0.0706121211489346,1
467,392,13,0.0642836287918837,1
468,390,13,0.0697512037535088,1
468,391,13,0.0701638065265032,1
468,392,13,0.0671573299443716,1
468,393,13,0.0583220615351491,1
469,389,13,0.0634897772590151,1
469,390,13,0.0670225908347638,1
469,391,13,0.074291273109034,1
469,392,13,0.0831833644015416,1
469,393,13,0.0675277519282276,1
470,389,13,0.0662746705428569,1
470,390,13,0.0735283981853286,1
470,391,13,0.106600000301923,1
470,393,13,0.113032945101028,1
470,394,13,0.0639257495926632,1
448,397,14,0.0874416840123098,1
448,398,14,0.0841278826703934,1
448,399,14,0.0835767431604732,1
448,400,14,0.0798012824280812,1
448,401,14,0.074321323899115,1
448,402,14,0.0710688683910316,1
449,395,14,0.0894583774384895,1
449,396,14,0.0912615722667721,1
449,397,14,0.0935318339766027,1
449,398,14,0.0940067791657542,1
449,399,14,0.0935503267704987,1
449,400,14,0.0856731749664559,1
449,401,14,0.0766236295636748,1
449,402,14,0.0726839804191505,1
449,403,14,0.0738752088341209,1
449,404,14,0.0773550148447129,1
450,394,14,0.0817267030660203,1
450,395,14,0.0847801959254903,1
450,396,14,0.0893370538601679,1
450,397,14,0.0966970030257419,1
450,398,14,0.100278236349794,1
450,399,14,0.0995969042685614,1
450,400,14,0.0867119616674575,1
450,401,14,0.0765344089094507,1
450,402,14,0.0758696118390867,1
450,403,14,0.0768414859978886,1
450,404,14,0.0773974315113245,1
450,405,14,0.0847424732205946,1
450,406,14,0.0911927137354189,1
450,407,14,0.094280220126519,1
451,392,14,0.0765576841191151,1
451,393,14,0.077962122182078,1
451,394,14,0.0801016841840286,1
451,395,14,0.081632971255122,1
451,396,14,0.0856888608184212,1
451,397,14,0.0944636148619036,1
451,398,14,0.101924153975908,1
451,399,14,0.102299387860217,1
451,400,14,0.0851260335797058,1
451,401,14,0.0734019324780919,1
451,402,14,0.0749462694703881,1
451,403,14,0.0764943863991917,1
451,404,14,0.0753700823202946,1
451,405,14,0.0810827988428417,1
451,406,14,0.0890245633837208,1
451,407,14,0.0930356303301822,1
451,408,14,0.0987028696759034,1
452,391,14,0.0782064027902229,1
452,392,14,0.0779192573482673,1
452,393,14,0.0810280516813205,1
452,394,14,0.081855203216463,1
452,395,14,0.0822017720908453,1
452,396,14,0.0847641090818205,1
452,397,14,0.0910561583692677,1
452,398,14,0.0954319449616713,1
452,399,14,0.0918922142790221,1
452,400,14,0.0738078776094063,1
452,401,14,0.0626215004864265,1
452,402,14,0.0633568544059506,1
452,403,14,0.0650957195503647,1
452,404,14,0.0664133723940139,1
452,405,14,0.074683637594831,1
452,406,14,0.0874189808055178,1
452,407,14,0.0966879748154565,1
452,408,14,0.103069374489738,1
452,409,14,0.112773090682717,1
453,390,14,0.0820747992470414,1
453,391,14,0.0809201259434745,1
453,392,14,0.0825073277695813,1
453,393,14,0.0857353640622554,1
453,394,14,0.0863802530738845,1
453,395,14,0.0850587436335491,1
453,396,14,0.0839840268964478,1
453,397,14,0.0830506420443293,1
453,398,14,0.0790282234944719,1
453,399,14,0.0719021881220974,1
453,400,14,0.0601482367262547,1
453,404,14,0.057039253691223,1
453,405,14,0.0659579224780193,1
453,406,14,0.083173551898658,1
453,407,14,0.0997450589094554,1
454,389,14,0.0809832349614194,1
454,390,14,0.0832108205394178,1
454,391,14,0.0823416474324312,1
454,392,14,0.0822736144722341,1
454,393,14,0.0843397124351679,1
454,394,14,0.0844451732534193,1
454,395,14,0.0827454637695503,1
454,396,14,0.0801561541895189,1
454,397,14,0.0752782021475606,1
454,398,14,0.0667594695134499,1
454,399,14,0.0592097274360317,1
454,406,14,0.0717466092377355,1
454,407,14,0.0917735797038945,1
455,388,14,0.0810636514889577,1
455,389,14,0.0818179581634504,1
455,390,14,0.0838720322721898,1
455,391,14,0.0833746551353404,1
455,392,14,0.082290385360576,1
455,393,14,0.082952976976566,1
455,394,14,0.0817065768206226,1
455,395,14,0.0783817246190885,1
455,396,14,0.0741746140077441,1
455,397,14,0.067498479533808,1
455,398,14,0.0583412855492119,1
455,406,14,0.0598546046537871,1
455,407,14,0.0776615258272152,1
455,408,14,0.0970975878414786,1
456,387,14,0.0883200976193075,1
456,388,14,0.0862508801767911,1
456,389,14,0.0855333232126172,1
456,390,14,0.0858799923349256,1
456,391,14,0.0840795277883949,1
456,392,14,0.0801846717760243,1
456,393,14,0.0776148574691498,1
456,394,14,0.0743182633889007,1
456,395,14,0.0694492098246176,1
456,396,14,0.0632133229635306,1
456,397,14,0.0570588256245587,1
456,407,14,0.0617826907071729,1
456,408,14,0.0781180136040917,1
456,409,14,0.108792870612809,1
457,386,14,0.100868342818281,1
457,387,14,0.0956755945975756,1
457,388,14,0.0938161547858171,1
457,389,14,0.0923529419534787,1
457,390,14,0.0903547472181318,1
457,391,14,0.086286250003892,1
457,392,14,0.0781074344994204,1
457,393,14,0.0709946790287849,1
457,394,14,0.0659531577530614,1
457,395,14,0.0612368053679674,1
457,408,14,0.0636487409851168,1
457,409,14,0.0849205725067067,1
457,410,14,0.115084029462795,1
458,385,14,0.112470872670226,1
458,386,14,0.102325924075948,1
458,387,14,0.100866385035254,1
458,388,14,0.098022557764742,1
458,389,14,0.095667816537898,1
458,390,14,0.0920352975542431,1
458,391,14,0.0866635890946485,1
458,392,14,0.075884194963865,1
458,393,14,0.065617840234149,1
458,394,14,0.0590400548726483,1
458,409,14,0.0766470993722546,1
458,410,14,0.105973368206717,1
458,411,14,0.123826002434444,1
458,412,14,0.133629895790276,1
458,413,14,0.141597766070497,1
459,384,14,0.114161960832451,1
459,385,14,0.109092411415979,1
459,386,14,0.109125599376453,1
459,387,14,0.10760751554692,1
459,388,14,0.100041250252507,1
459,389,14,0.0941352793161969,1
459,390,14,0.0888582874559511,1
459,391,14,0.083661075254066,1
459,392,14,0.0723572960157559,1
459,393,14,0.0598191286818233,1
459,409,14,0.0746799048338182,1
459,410,14,0.107730714351153,1
459,411,14,0.126702433868684,1
459,412,14,0.136003837443435,1
459,413,14,0.150945307279,1
460,384,14,0.123632748020681,1
460,385,14,0.121811632401375,1
460,386,14,0.124388640971181,1
460,387,14,0.121707704786699,1
460,388,14,0.107517799550002,1
460,389,14,0.0956389569290565,1
460,390,14,0.0857371626279883,1
460,391,14,0.0788528839747958,1
460,392,14,0.067937076004345,1
460,409,14,0.0670517099088258,1
460,410,14,0.0975134634144132,1
460,411,14,0.120872828264311,1
460,412,14,0.140112929170807,1
460,413,14,0.16386910479687,1
461,383,14,0.149893576801658,1
461,384,14,0.148595849707554,1
461,385,14,0.135969800324058,1
461,386,14,0.132489840993108,1
461,387,14,0.128340367042331,1
461,388,14,0.11403386757065,1
461,389,14,0.101705825786748,1
461,390,14,0.0876825679848412,1
461,391,14,0.0758554709845705,1
461,392,14,0.0623638338316795,1
461,409,14,0.0587778357826693,1
461,410,14,0.0832691648324048,1
461,411,14,0.116269455291925,1
461,412,14,0.151091150320657,1
461,413,14,0.168128297154289,1
462,383,14,0.172858666558226,1
462,384,14,0.173702659744952,1
462,385,14,0.145120006438512,1
462,386,14,0.127392021661478,1
462,387,14,0.118892908136197,1
462,388,14,0.108100794312673,1
462,389,14,0.0992891077538303,1
462,390,14,0.0874572106469808,1
462,391,14,0.0744923291702217,1
462,392,14,0.0581846098345999,1
462,410,14,0.0770992234158775,1
462,411,14,0.120888938695728,1
462,412,14,0.169887565700132,1
463,383,14,0.143356610036888,1
463,384,14,0.148946564128528,1
463,385,14,0.127024135360458,1
463,386,14,0.110445310251056,1
463,387,14,0.102260821893355,1
463,388,14,0.0948062740671683,1
463,389,14,0.0884519531268059,1
463,390,14,0.0815031089122718,1
463,391,14,0.0713484893415933,1
463,410,14,0.0660359212614576,1
464,383,14,0.108977267827454,1
464,384,14,0.11558053974993,1
464,385,14,0.105360393417207,1
464,386,14,0.0957304066254019,1
464,389,14,0.0819224106055041,1
464,390,14,0.0748330246955223,1
464,391,14,0.065044333642836,1
465,383,14,0.0949609978956899,1
465,384,14,0.0985640852676308,1
465,390,14,0.0720700975013688,1
465,391,14,0.0607170434589148,1
466,383,14,0.0919673353572878,1
466,391,14,0.0597156846159674,1
467,383,14,0.0926487440986994,1
467,391,14,0.0581481431772488,1
468,390,14,0.0609028441445257,1
468,391,14,0.059454409035881,1
469,389,14,0.0595049988569378,1
469,390,14,0.0617714570425135,1
469,391,14,0.0659457040249094,1
469,392,14,0.0704911631806964,1
469,393,14,0.058036555441632,1
470,390,14,0.0720050365973335,1
448,396,15,0.0916615791826997,1
448,397,15,0.0868988827710659,1
448,398,15,0.0841725460699369,1
448,399,15,0.0835836543704369,1
448,400,15,0.0814277165749119,1
448,401,15,0.0770229406410565,1
448,402,15,0.0729139019861166,1
448,403,15,0.0725804596931159,1
449,395,15,0.092041029376841,1
449,396,15,0.0899213813305622,1
449,397,15,0.0878645533523237,1
449,398,15,0.0884428010808472,1
449,399,15,0.088219749445287,1
449,400,15,0.0835875345548704,1
449,401,15,0.0769905487670543,1
449,402,15,0.0741716832301401,1
449,403,15,0.074511193471138,1
449,404,15,0.0766969107976499,1
449,405,15,0.0830379872178941,1
450,393,15,0.0880842732185755,1
450,394,15,0.0874186741648027,1
450,395,15,0.0873254671812821,1
450,396,15,0.0862416455737168,1
450,397,15,0.0873778024956403,1
450,398,15,0.0904682927367759,1
450,399,15,0.0910629162588738,1
450,400,15,0.0825214214486028,1
450,401,15,0.0738067748822193,1
450,402,15,0.0739272905801954,1
450,403,15,0.0760104483813758,1
450,404,15,0.0759145759824084,1
450,405,15,0.0804814351219482,1
450,406,15,0.0854721012144576,1
450,407,15,0.0891952148386178,1
451,392,15,0.0864852185494422,1
451,393,15,0.087329406335084,1
451,394,15,0.0848202361265598,1
451,395,15,0.0825611432150836,1
451,396,15,0.0818170441382419,1
451,397,15,0.0848878032287475,1
451,398,15,0.0896353975851619,1
451,399,15,0.0909105040295892,1
451,400,15,0.079154329488562,1
451,401,15,0.0687654305146007,1
451,402,15,0.0706407094986821,1
451,403,15,0.0740848626292054,1
451,404,15,0.0727448191164162,1
451,405,15,0.0754477390813969,1
451,406,15,0.0810444156810212,1
451,407,15,0.0869390821894298,1
451,408,15,0.0934028679681505,1
451,409,15,0.0970430234849991,1
452,390,15,0.0828998632665464,1
452,391,15,0.0842441584707894,1
452,392,15,0.0876276262244046,1
452,393,15,0.0890541719035397,1
452,394,15,0.083905662502926,1
452,395,15,0.0800891944718246,1
452,396,15,0.0787925465171606,1
452,397,15,0.0799352726267117,1
452,398,15,0.0801484822747042,1
452,399,15,0.0779952511731838,1
452,400,15,0.0667137859438349,1
452,401,15,0.058501894520689,1
452,402,15,0.0599249728009686,1
452,403,15,0.0627493991493126,1
452,404,15,0.0625821679177765,1
452,405,15,0.0668623356794965,1
452,406,15,0.0757730848801313,1
452,407,15,0.086160108628181,1
452,408,15,0.0943107780531673,1
452,409,15,0.0999593889754454,1
453,389,15,0.085290811685521,1
453,390,15,0.0849085368586385,1
453,391,15,0.0853411951137887,1
453,392,15,0.0881286712559617,1
453,393,15,0.0896933408864445,1
453,394,15,0.0850040318536488,1
453,395,15,0.0804810400271806,1
453,396,15,0.0764777039649022,1
453,397,15,0.0718093762333443,1
453,398,15,0.0653590767491518,1
453,399,15,0.0600562504086577,1
453,406,15,0.0688583131665956,1
453,407,15,0.0829033896347701,1
453,408,15,0.092657247481607,1
454,389,15,0.0897697651877495,1
454,390,15,0.0901517333739168,1
454,391,15,0.0868253302779967,1
454,392,15,0.0854615398005967,1
454,393,15,0.0858681512857728,1
454,394,15,0.0819752530564295,1
454,395,15,0.0765792256293518,1
454,396,15,0.07019721267364,1
454,397,15,0.0632559224351839,1
454,406,15,0.0579014448250039,1
454,407,15,0.0718986440630631,1
454,408,15,0.0877022932385345,1
455,388,15,0.0862916398041538,1
455,389,15,0.0906980256017635,1
455,390,15,0.0912097853675391,1
455,391,15,0.0872558007695833,1
455,392,15,0.0836548009132798,1
455,393,15,0.0826277255288208,1
455,394,15,0.0781215399723155,1
455,395,15,0.0705112894260941,1
455,396,15,0.0621657616205273,1
455,407,15,0.0599392905635896,1
455,408,15,0.0753055580375107,1
456,387,15,0.0890881559504857,1
456,388,15,0.0892501271143703,1
456,389,15,0.0911380609248869,1
456,390,15,0.090981621087748,1
456,391,15,0.0862729288235951,1
456,392,15,0.0786216297001063,1
456,393,15,0.0733684555677132,1
456,394,15,0.0677124557835883,1
456,395,15,0.0608808957456478,1
456,408,15,0.062618793792422,1
456,409,15,0.0927268018515061,1
457,386,15,0.0987743464472088,1
457,387,15,0.096836701459223,1
457,388,15,0.0965277904234312,1
457,389,15,0.0964149643310803,1
457,390,15,0.0932530327002602,1
457,391,15,0.0852327563424386,1
457,392,15,0.0727635654785959,1
457,393,15,0.0629696025643844,1
457,409,15,0.0725034928736226,1
457,410,15,0.102047152284289,1
457,411,15,0.129030827581776,1
458,386,15,0.0990610967943968,1
458,387,15,0.100537972829368,1
458,388,15,0.099389626939019,1
458,389,15,0.0964715041613976,1
458,390,15,0.0896018145299203,1
458,391,15,0.0794504146867505,1
458,392,15,0.0666123881150588,1
458,409,15,0.0667525406126757,1
458,410,15,0.09769923461534,1
458,411,15,0.125805226724012,1
458,412,15,0.138233209793293,1
458,413,15,0.143276718336728,1
458,414,15,0.149173808486173,1
459,385,15,0.10380138484608,1
459,386,15,0.102289044633019,1
459,387,15,0.101036429105657,1
459,388,15,0.0958674042618153,1
459,389,15,0.0886253761420126,1
459,390,15,0.0796934215565404,1
459,391,15,0.071263762153233,1
459,392,15,0.0611274230867247,1
459,409,15,0.0642215694286944,1
459,410,15,0.0970939966069497,1
459,411,15,0.128317663835539,1
459,412,15,0.143277543907884,1
459,413,15,0.151455368726968,1
460,384,15,0.11796260738204,1
460,385,15,0.114891069895873,1
460,386,15,0.110757670994893,1
460,387,15,0.104272561892598,1
460,388,15,0.0959752061639879,1
460,389,15,0.0855456949860846,1
460,390,15,0.07400576111858,1
460,391,15,0.065006829124603,1
460,409,15,0.0586740496944773,1
460,410,15,0.0880971698194207,1
460,411,15,0.120427904380556,1
460,412,15,0.14410686551578,1
460,413,15,0.160099853538959,1
461,384,15,0.127287020804299,1
461,385,15,0.12361043401172,1
461,386,15,0.117556390991632,1
461,387,15,0.108580250658499,1
461,388,15,0.100882259589198,1
461,389,15,0.090970027709942,1
461,390,15,0.0760443085926484,1
461,391,15,0.0620430404681772,1
461,410,15,0.0774524440350031,1
461,411,15,0.108657323622855,1
461,412,15,0.139879033068418,1
462,384,15,0.135650587339626,1
462,385,15,0.12731297912022,1
462,386,15,0.117245115284172,1
462,387,15,0.105036061891607,1
462,388,15,0.0969852276071372,1
462,389,15,0.0883968108705171,1
462,390,15,0.0751910984936582,1
462,391,15,0.0598875331490407,1
462,410,15,0.0718507727298845,1
462,411,15,0.101225048527073,1
463,384,15,0.125138837480704,1
463,385,15,0.117259598161024,1
463,386,15,0.104639905675429,1
463,387,15,0.0920309927903579,1
463,388,15,0.0839273042610888,1
463,389,15,0.0770983683600373,1
463,390,15,0.0692220775087716,1
463,391,15,0.0577172834878315,1
464,383,15,0.106903857662852,1
464,384,15,0.111978737910218,1
464,385,15,0.105389465315774,1
464,386,15,0.0925202675360041,1
464,387,15,0.0827637206859732,1
464,388,15,0.0777223586275441,1
464,389,15,0.0712045922890899,1
464,390,15,0.0639071270661569,1
465,383,15,0.0975214360730062,1
465,384,15,0.098932225136934,1
465,385,15,0.0936248522581447,1
465,390,15,0.0624734578873323,1
466,383,15,0.0930922114390573,1
466,384,15,0.0888760136480593,1
469,389,15,0.0576206798686974,1
469,390,15,0.0593784859742065,1
469,391,15,0.0598696064610803,1
447,398,16,0.0922736281531275,1
447,399,16,0.0849837758756409,1
447,400,16,0.0806916373321578,1
447,401,16,0.0750795402427255,1
448,395,16,0.0939423197492755,1
448,396,16,0.0892944131099567,1
448,397,16,0.0849521859850474,1
448,398,16,0.0847420250533956,1
448,399,16,0.0856033670282731,1
448,400,16,0.0830892198050652,1
448,401,16,0.0796323528787383,1
448,402,16,0.0750836739954427,1
448,403,16,0.0733442368481561,1
448,404,16,0.076043424052124,1
449,394,16,0.0944333576790336,1
449,395,16,0.0918331977352366,1
449,396,16,0.0861109694535842,1
449,397,16,0.0828591802993625,1
449,398,16,0.0837482378773367,1
449,399,16,0.0845503687095134,1
449,400,16,0.0807011019157685,1
449,401,16,0.0773311381474919,1
449,402,16,0.0762893793903284,1
449,403,16,0.0765461791953616,1
449,404,16,0.0764580376805772,1
449,405,16,0.0795358966830249,1
449,406,16,0.0838913565341787,1
450,392,16,0.0981371470412049,1
450,393,16,0.0945687631425031,1
450,394,16,0.091940899389483,1
450,395,16,0.0883836548044514,1
450,396,16,0.0832044577445792,1
450,397,16,0.0819202228419405,1
450,398,16,0.0839876888942187,1
450,399,16,0.084863873459095,1
450,400,16,0.0775614135306678,1
450,401,16,0.0716348504909507,1
450,402,16,0.0731145983341578,1
450,403,16,0.0761033605180549,1
450,404,16,0.0743505255302927,1
450,405,16,0.0753707014986617,1
450,406,16,0.07900479496445,1
450,407,16,0.0840700337201,1
450,408,16,0.0903932424217521,1
451,391,16,0.0953910732925089,1
451,392,16,0.0992708508374075,1
451,393,16,0.0958391520374672,1
451,394,16,0.0885617069150689,1
451,395,16,0.0826134726325049,1
451,396,16,0.0784103306596464,1
451,397,16,0.077898116829735,1
451,398,16,0.07934595634776,1
451,399,16,0.0796339804333032,1
451,400,16,0.0711070097784422,1
451,401,16,0.0634676224673482,1
451,402,16,0.0655673506610183,1
451,403,16,0.0699094834349383,1
451,404,16,0.0686856862378609,1
451,405,16,0.0682350895008767,1
451,406,16,0.0719981430781803,1
451,407,16,0.0798477031147998,1
451,408,16,0.0878855346535616,1
451,409,16,0.0877992152922574,1
452,390,16,0.0848717340758882,1
452,391,16,0.0919009948179606,1
452,392,16,0.0991178371205663,1
452,393,16,0.0957921475540025,1
452,394,16,0.0849461593156081,1
452,395,16,0.07732054135201,1
452,396,16,0.0730085478222235,1
452,397,16,0.0700017822901872,1
452,398,16,0.0670537856305896,1
452,399,16,0.0649331527958604,1
452,400,16,0.0587471127417897,1
452,403,16,0.0592031995269619,1
452,404,16,0.0586031272352339,1
452,405,16,0.0589348830043016,1
452,406,16,0.0645236753993854,1
452,407,16,0.0751325419109453,1
452,408,16,0.0850021448338635,1
452,409,16,0.0876361649889331,1
452,410,16,0.116003220387966,1
453,389,16,0.0879756457452469,1
453,390,16,0.0864048550943354,1
453,391,16,0.0881704982288904,1
453,392,16,0.0920788051541681,1
453,393,16,0.0900023934487202,1
453,394,16,0.0815137823679324,1
453,395,16,0.0741148072744235,1
453,396,16,0.0677442638608444,1
453,397,16,0.0603073360819035,1
453,407,16,0.0673053784404027,1
453,408,16,0.0780338643155407,1
453,409,16,0.0966924623843835,1
454,388,16,0.0918485887403605,1
454,389,16,0.0987841884347765,1
454,390,16,0.0945353864800505,1
454,391,16,0.0877764413222234,1
454,392,16,0.085007682057546,1
454,393,16,0.0821845530353044,1
454,394,16,0.0757375676296097,1
454,395,16,0.0674553316470295,1
454,396,16,0.059023331159801,1
454,408,16,0.0705352250926833,1
454,409,16,0.115710873847727,1
455,388,16,0.0932083044344116,1
455,389,16,0.0989761691101843,1
455,390,16,0.0951324985094903,1
455,391,16,0.0873105833127255,1
455,392,16,0.0806091097012348,1
455,393,16,0.0754406804480125,1
455,394,16,0.0683539599534774,1
455,395,16,0.0587505919345189,1
455,408,16,0.0603798684049012,1
455,409,16,0.105036014716112,1
456,387,16,0.0921920971045285,1
456,388,16,0.093778656164521,1
456,389,16,0.0954355951655685,1
456,390,16,0.0922785049198852,1
456,391,16,0.0842178522355948,1
456,392,16,0.0728759080221268,1
456,393,16,0.0635041893726254,1
456,409,16,0.0776012414420115,1
456,410,16,0.1207443811863,1
457,386,16,0.0941072688662587,1
457,387,16,0.0977750515321516,1
457,388,16,0.100605221496967,1
457,389,16,0.100480925862484,1
457,390,16,0.0940107772889243,1
457,391,16,0.0807776913313047,1
457,392,16,0.0641837464758726,1
457,409,16,0.0611972074371601,1
457,410,16,0.088409442109205,1
457,411,16,0.118405656039883,1
458,386,16,0.091966020340375,1
458,387,16,0.0970379992948207,1
458,388,16,0.0989238514866366,1
458,389,16,0.0955569128469533,1
458,390,16,0.084664828253366,1
458,391,16,0.0699120662932695,1
458,409,16,0.0569068910471573,1
458,410,16,0.0873308215999229,1
458,411,16,0.119943341287436,1
458,412,16,0.13327556065009,1
458,413,16,0.134669053998298,1
458,414,16,0.139843804767801,1
459,386,16,0.0904932249856893,1
459,387,16,0.0901504950171827,1
459,388,16,0.0868738915527842,1
459,389,16,0.080072099251957,1
459,390,16,0.0692424219408319,1
459,391,16,0.0594760390001701,1
459,410,16,0.086545331923478,1
459,411,16,0.123061417399058,1
459,412,16,0.139430193618609,1
459,413,16,0.139488089744397,1
460,385,16,0.0979912273393691,1
460,386,16,0.0922257980985068,1
460,387,16,0.0855369557257039,1
460,388,16,0.0806877453538506,1
460,389,16,0.0733686737543759,1
460,390,16,0.0628233762218335,1
460,410,16,0.0805535369685574,1
460,411,16,0.116534522602393,1
460,412,16,0.138827337972697,1
460,413,16,0.144199659713722,1
460,414,16,0.15581438443103,1
461,385,16,0.100726592250783,1
461,386,16,0.0956340211929305,1
461,387,16,0.0871696936980049,1
461,388,16,0.084129551503516,1
461,389,16,0.0780796009575871,1
461,390,16,0.0653368452973061,1
461,410,16,0.0715470863801233,1
461,411,16,0.0995036029340516,1
461,412,16,0.124564334307067,1
461,413,16,0.139220427781724,1
461,414,16,0.152981106780506,1
462,384,16,0.10297008186741,1
462,385,16,0.1024096251973,1
462,386,16,0.0973313954898151,1
462,387,16,0.0876599355412912,1
462,388,16,0.0842156055026629,1
462,389,16,0.078449439144697,1
462,390,16,0.0661113548773753,1
462,410,16,0.0670737113801351,1
462,411,16,0.0859717309811757,1
462,412,16,0.110307463455739,1
462,414,16,0.145729903026997,1
463,384,16,0.102901016943268,1
463,385,16,0.100736687806635,1
463,386,16,0.091796990543106,1
463,387,16,0.0809019987596619,1
463,388,16,0.0753679771138466,1
463,389,16,0.0700451129820074,1
463,390,16,0.0621411654970132,1
464,383,16,0.101825132612674,1
464,384,16,0.104043784331377,1
464,385,16,0.100229527651586,1
464,386,16,0.0876870791415154,1
464,387,16,0.0769345514549253,1
464,388,16,0.0706362750021866,1
464,389,16,0.0638909458714979,1
464,390,16,0.0573205788565283,1
465,383,16,0.0985582237124227,1
465,384,16,0.097391780122945,1
465,385,16,0.0919701010206607,1
465,386,16,0.0810045346972461,1
465,389,16,0.0658206240978276,1
466,384,16,0.0875837353235857,1
466,385,16,0.0825760447744507,1
467,384,16,0.0802838936351106,1
469,388,16,0.0578353814417076,1
469,390,16,0.0571198353329925,1
470,387,16,0.0644070929582743,1
447,398,17,0.100731781555193,1
447,399,17,0.0916464004673016,1
447,400,17,0.0839294330552841,1
447,401,17,0.0773256539962409,1
447,402,17,0.0720669485371021,1
448,394,17,0.0962147810165432,1
448,395,17,0.0933630105721227,1
448,396,17,0.0906624198971895,1
448,397,17,0.0866173394190979,1
448,398,17,0.0883655158267652,1
448,399,17,0.0887820872382456,1
448,400,17,0.0846174522628811,1
448,401,17,0.0815716608029099,1
448,402,17,0.0771756713049298,1
448,403,17,0.074087256785558,1
448,404,17,0.0753148575068902,1
448,405,17,0.0790227275493472,1
449,393,17,0.105124232891076,1
449,394,17,0.0998017874417512,1
449,395,17,0.0944018562424926,1
449,396,17,0.0873766290052113,1
449,397,17,0.0831368493638337,1
449,398,17,0.0832506366568878,1
449,399,17,0.083047858690146,1
449,400,17,0.0794703581271064,1
449,401,17,0.0781520802081534,1
449,402,17,0.0777964241541174,1
449,403,17,0.0772207651808619,1
449,404,17,0.0762060320851861,1
449,405,17,0.0772607758972472,1
449,406,17,0.0800602699966779,1
449,407,17,0.0836524362416114,1
450,392,17,0.119359709655588,1
450,393,17,0.109136650236071,1
450,394,17,0.0990225780030292,1
450,395,17,0.0928150554080902,1
450,396,17,0.0862097667332187,1
450,397,17,0.0830266238206244,1
450,398,17,0.0822365581212001,1
450,399,17,0.0805260218613129,1
450,400,17,0.0738006479648539,1
450,401,17,0.0702830248983769,1
450,402,17,0.0724630634747224,1
450,403,17,0.0750523081884487,1
450,404,17,0.0733928276076278,1
450,405,17,0.07216490255477,1
450,406,17,0.0747035279627555,1
450,407,17,0.0796088299977271,1
450,408,17,0.086205927827343,1
451,391,17,0.111057954812103,1
451,392,17,0.119414551168098,1
451,393,17,0.109498722157377,1
451,394,17,0.0943657257105408,1
451,395,17,0.0858835128062126,1
451,396,17,0.0798523499010211,1
451,397,17,0.0757901034398201,1
451,398,17,0.0726827479593532,1
451,399,17,0.0696909606468628,1
451,400,17,0.0631798106715309,1
451,401,17,0.0589614192200325,1
451,402,17,0.0615200293469317,1
451,403,17,0.0652481199857756,1
451,404,17,0.0649846566421257,1
451,405,17,0.0632926485577555,1
451,406,17,0.0664825847415769,1
451,407,17,0.0742249325697067,1
451,408,17,0.0827029527519495,1
451,409,17,0.0824796062695478,1
452,390,17,0.0863314854063079,1
452,391,17,0.099489544636651,1
452,392,17,0.109299995386237,1
452,393,17,0.101660726013879,1
452,394,17,0.086028306193114,1
452,395,17,0.0757354388354144,1
452,396,17,0.0687660437960309,1
452,397,17,0.0624246548381347,1
452,398,17,0.0574796428305561,1
452,406,17,0.0583497240658143,1
452,407,17,0.0673530787624132,1
452,408,17,0.0774640610005564,1
452,409,17,0.0805966907522727,1
452,410,17,0.106572237523332,1
453,389,17,0.091106382580241,1
453,390,17,0.087682196477821,1
453,391,17,0.0900801563546854,1
453,392,17,0.0941456166464583,1
453,393,17,0.0892074273947909,1
453,394,17,0.078398165278968,1
453,395,17,0.0680798349480404,1
453,396,17,0.0591664380227693,1
453,407,17,0.0584315440643179,1
453,408,17,0.0696336129362,1
453,409,17,0.0868809501861686,1
453,410,17,0.119620896781622,1
453,411,17,0.150927781582744,1
454,388,17,0.0983722284278965,1
454,389,17,0.10546772946137,1
454,390,17,0.0972909837817254,1
454,391,17,0.0891378140555235,1
454,392,17,0.0847735382838102,1
454,393,17,0.0773629344308744,1
454,394,17,0.0679781658601701,1
454,395,17,0.057795347137575,1
454,408,17,0.0624379347398739,1
454,409,17,0.0963336396752703,1
454,410,17,0.15012938351158,1
455,388,17,0.107752037674727,1
455,389,17,0.113927097632422,1
455,390,17,0.102178288365495,1
455,391,17,0.088874816569883,1
455,392,17,0.078450093704685,1
455,393,17,0.0668841897273851,1
455,394,17,0.0570038779671853,1
455,409,17,0.0876239406388864,1
455,410,17,0.141545212569477,1
456,387,17,0.101241430217584,1
456,388,17,0.117454067343773,1
456,389,17,0.1190728472666,1
456,390,17,0.102238047923321,1
456,391,17,0.082943695197997,1
456,392,17,0.0681638073284866,1
456,409,17,0.0672845681503328,1
456,410,17,0.101483263596945,1
456,411,17,0.139929746725148,1
457,387,17,0.104766336001045,1
457,388,17,0.125505556188231,1
457,389,17,0.125677381133557,1
457,390,17,0.104598403034026,1
457,391,17,0.0775052982798022,1
457,392,17,0.0578080491395048,1
457,410,17,0.0810052423296656,1
457,411,17,0.111472073097863,1
457,412,17,0.133769252201421,1
457,414,17,0.136994829471437,1
458,386,17,0.0854280451994075,1
458,387,17,0.0944583371034416,1
458,388,17,0.106563274179352,1
458,389,17,0.102455031610884,1
458,390,17,0.0841715141059918,1
458,391,17,0.0629570008103807,1
458,410,17,0.0788615878535556,1
458,411,17,0.112007408817081,1
458,412,17,0.126442720976857,1
458,413,17,0.128729576666925,1
459,386,17,0.0801250950232401,1
459,387,17,0.0806626538876429,1
459,388,17,0.0811633627938007,1
459,389,17,0.0745231170774064,1
459,390,17,0.0631262959698069,1
459,410,17,0.0778781439046949,1
459,411,17,0.114830826789227,1
459,412,17,0.132496693233704,1
459,413,17,0.1316399744573,1
460,386,17,0.0772368166429107,1
460,387,17,0.0718821503307521,1
460,388,17,0.068927442957043,1
460,389,17,0.0626691477360056,1
460,410,17,0.0749317040364202,1
460,411,17,0.110986248060262,1
460,412,17,0.131782585977575,1
460,413,17,0.134284597304789,1
461,385,17,0.0830529064680717,1
461,386,17,0.0774281604491409,1
461,387,17,0.0707979631131033,1
461,388,17,0.0690847614377694,1
461,389,17,0.0641245648178559,1
461,410,17,0.0680842871353464,1
461,411,17,0.0941319711346357,1
461,412,17,0.114898205189436,1
461,413,17,0.127338135452733,1
462,385,17,0.0848664445235525,1
462,386,17,0.079542347931916,1
462,387,17,0.0728361154924041,1
462,388,17,0.0715359411695164,1
462,389,17,0.0663204779481453,1
462,410,17,0.065871951035988,1
462,411,17,0.0813999891779415,1
462,412,17,0.0996143002322072,1
462,413,17,0.118456570192466,1
463,385,17,0.0886491997668021,1
463,386,17,0.0813275983814277,1
463,387,17,0.0732046976319694,1
463,388,17,0.0696686761225857,1
463,389,17,0.0636399958277993,1
464,384,17,0.0963754489573885,1
464,385,17,0.0927376581122084,1
464,386,17,0.083780558988097,1
464,387,17,0.0743904065140678,1
464,388,17,0.0678070780319478,1
464,389,17,0.0593815995568523,1
465,384,17,0.0934253883699008,1
465,385,17,0.0876294955533794,1
465,386,17,0.0791926065055196,1
465,387,17,0.0729667798186631,1
465,388,17,0.0685532705213638,1
465,389,17,0.0593319827303723,1
466,385,17,0.0788923285852456,1
466,386,17,0.0732617976712855,1
466,389,17,0.0601989032074902,1
467,385,17,0.0718570116890497,1
470,388,17,0.0621418495416854,1
470,389,17,0.063506029216916,1
446,398,18,0.135227541091507,1
447,397,18,0.132166016604076,1
447,398,18,0.116774799190431,1
447,399,18,0.103939219847523,1
447,400,18,0.0897709681628626,1
447,401,18,0.0809755866343521,1
447,402,18,0.0757790938587602,1
447,403,18,0.0731489833728082,1
448,394,18,0.104555815356246,1
448,395,18,0.103296324000542,1
448,396,18,0.102941458136041,1
448,397,18,0.100495491296451,1
448,398,18,0.101060960362866,1
448,399,18,0.0972229803062124,1
448,400,18,0.0885890628050191,1
448,401,18,0.0845088778619839,1
448,402,18,0.079991812457029,1
448,403,18,0.0755501806679918,1
448,404,18,0.0748897060523235,1
448,405,18,0.0774023731443873,1
448,406,18,0.0800488417331031,1
449,392,18,0.136346414091584,1
449,393,18,0.127149575000686,1
449,394,18,0.113074129307842,1
449,395,18,0.105920743942454,1
449,396,18,0.0984592023491887,1
449,397,18,0.0939553283919204,1
449,398,18,0.091487708000294,1
449,399,18,0.0868979097764891,1
449,400,18,0.0823181835207883,1
449,401,18,0.0815406547090626,1
449,402,18,0.080531954179763,1
449,403,18,0.077719221457151,1
449,404,18,0.0763002120632835,1
449,405,18,0.0767231698573498,1
449,406,18,0.0789540695138461,1
449,407,18,0.0824915121850057,1
450,391,18,0.138875409801728,1
450,393,18,0.136754564677273,1
450,394,18,0.110589348830043,1
450,395,18,0.10197397129824,1
450,396,18,0.0952681634381802,1
450,397,18,0.0902094113130422,1
450,398,18,0.0844292928025386,1
450,399,18,0.0775624042160551,1
450,400,18,0.0718338662119955,1
450,401,18,0.0701611057294355,1
450,402,18,0.0724389037245336,1
450,403,18,0.0735685504281978,1
450,404,18,0.0729478978269363,1
450,405,18,0.0716038326032297,1
450,406,18,0.0734897673521612,1
450,407,18,0.0779378857717104,1
450,408,18,0.0834072416082579,1
450,409,18,0.0863599086418241,1
451,390,18,0.0989626651248457,1
451,391,18,0.130637589547345,1
451,392,18,0.147836689854051,1
451,393,18,0.130878184569971,1
451,394,18,0.101612536246112,1
451,395,18,0.0908549725754697,1
451,396,18,0.0834740421086578,1
451,397,18,0.0759090918311574,1
451,398,18,0.0676872051000861,1
451,399,18,0.0610190963571743,1
451,402,18,0.0593112432035444,1
451,403,18,0.062388830946898,1
451,404,18,0.0631486689481365,1
451,405,18,0.0618612143179891,1
451,406,18,0.0644873030930236,1
451,407,18,0.0710291643153614,1
451,408,18,0.0785321141990408,1
451,409,18,0.0807643701510078,1
451,410,18,0.108447923396054,1
452,390,18,0.0911893524814263,1
452,391,18,0.108524512811591,1
452,392,18,0.119075984436993,1
452,393,18,0.107321407965846,1
452,394,18,0.0861037162212844,1
452,395,18,0.0743793261697659,1
452,396,18,0.0649286416391862,1
452,407,18,0.0630948888842552,1
452,408,18,0.0725874003877637,1
452,409,18,0.0789282468274716,1
452,410,18,0.100884795272034,1
452,411,18,0.159320184139165,1
453,389,18,0.096176215049681,1
453,390,18,0.0924077716721156,1
453,391,18,0.0949261293082195,1
453,392,18,0.097214193870337,1
453,393,18,0.0888767094866051,1
453,394,18,0.074542694907679,1
453,395,18,0.061736452825496,1
453,408,18,0.0646700668561675,1
453,409,18,0.081542812987942,1
453,410,18,0.109879345841947,1
453,411,18,0.137732925466587,1
454,388,18,0.107853193729094,1
454,389,18,0.115975375052259,1
454,390,18,0.104153821172607,1
454,391,18,0.0921811700805842,1
454,392,18,0.0845130057177643,1
454,393,18,0.0723999662506511,1
454,394,18,0.0588244215836191,1
454,408,18,0.0568508229717863,1
454,409,18,0.0828089855730733,1
454,410,18,0.121718449005602,1
454,411,18,0.147376115499952,1
455,388,18,0.13619835380168,1
455,389,18,0.153088230534943,1
455,390,18,0.125824415356454,1
455,391,18,0.0930239897768816,1
455,392,18,0.0756441660471738,1
455,393,18,0.0589935457318773,1
455,409,18,0.0724969413768055,1
455,410,18,0.109782954512539,1
455,411,18,0.146784511209511,1
456,387,18,0.110125106581236,1
456,388,18,0.161774819475893,1
456,389,18,0.180900472632411,1
456,390,18,0.138153518588985,1
456,391,18,0.0868713676638214,1
456,392,18,0.0631751815761201,1
456,409,18,0.0578241241893009,1
456,410,18,0.0846410577010079,1
456,411,18,0.118977057424748,1
456,412,18,0.162818836759862,1
457,387,18,0.108299320587961,1
457,388,18,0.155833950467429,1
457,389,18,0.168984933373577,1
457,390,18,0.127074601345841,1
457,391,18,0.0769448887851867,1
457,410,18,0.0725583166953226,1
457,411,18,0.10103218331114,1
457,412,18,0.122621517705482,1
457,413,18,0.140426445714262,1
457,414,18,0.134140122352476,1
458,387,18,0.0883475419633101,1
458,388,18,0.108114133183781,1
458,389,18,0.10871775543148,1
458,390,18,0.0852626243274779,1
458,391,18,0.0587816157191767,1
458,410,18,0.0687926920535615,1
458,411,18,0.099441413838252,1
458,412,18,0.114789501055929,1
458,413,18,0.120367260282206,1
458,414,18,0.126821882221094,1
458,415,18,0.142817299782247,1
459,386,18,0.0743902060182156,1
459,387,18,0.0735571870309282,1
459,388,18,0.075357097265397,1
459,389,18,0.070174786622879,1
459,390,18,0.0600088626242992,1
459,410,18,0.0679069426571484,1
459,411,18,0.102617704510251,1
459,412,18,0.120539840035446,1
459,413,18,0.122139124685115,1
459,414,18,0.126848206147099,1
459,415,18,0.142618160225529,1
460,386,18,0.0706656417475954,1
460,387,18,0.0657937753444448,1
460,388,18,0.0624100658164196,1
460,410,18,0.0664545919824492,1
460,411,18,0.100289511293011,1
460,412,18,0.119211484251452,1
460,413,18,0.122520184743011,1
460,414,18,0.126184659227343,1
460,415,18,0.141433524585934,1
461,386,18,0.0704922953925676,1
461,387,18,0.0650167831539705,1
461,388,18,0.0617219817425175,1
461,410,18,0.06177495982299,1
461,411,18,0.0861080681606643,1
461,412,18,0.103894544654106,1
461,413,18,0.115695494636476,1
461,414,18,0.125967227372581,1
461,415,18,0.142679712452151,1
461,416,18,0.161972260714805,1
462,386,18,0.0730444365797653,1
462,387,18,0.0678194380115416,1
462,388,18,0.0649398812007824,1
462,389,18,0.0583303349375203,1
462,410,18,0.0615758143693349,1
462,411,18,0.0767732289540919,1
462,412,18,0.0918815762049824,1
462,413,18,0.109419101716311,1
462,414,18,0.126364904998461,1
462,415,18,0.146446746461814,1
462,416,18,0.163656779689402,1
463,385,18,0.0834523708658109,1
463,386,18,0.0780013309150546,1
463,387,18,0.0716811001665012,1
463,388,18,0.0680037467721347,1
463,389,18,0.0605458848674505,1
463,414,18,0.127242133321156,1
463,415,18,0.15481582073614,1
464,385,18,0.0884601675598089,1
464,386,18,0.0825454927447392,1
464,387,18,0.0753596978145386,1
464,388,18,0.0693156265146282,1
464,389,18,0.0596967023763146,1
464,415,18,0.155867079458535,1
465,385,18,0.085086795362045,1
465,386,18,0.079418482773821,1
465,387,18,0.0743031495398078,1
465,388,18,0.0690063262810057,1
465,389,18,0.0581489923361522,1
466,385,18,0.0780238277290576,1
466,386,18,0.0737474929762765,1
466,387,18,0.0715860828233741,1
466,388,18,0.0677198564393088,1
467,386,18,0.069375910899832,1
467,388,18,0.0642644047778209,1
468,386,18,0.067182503967695,1
468,388,18,0.0607791323067883,1
469,387,18,0.0625389905463139,1
469,388,18,0.0577803099486608,1
470,388,18,0.0622413957322972,1
470,389,18,0.0607041822396906,1
446,398,19,0.144947922027965,1
447,395,19,0.125088536609552,1
447,397,19,0.15831809407605,1
447,398,19,0.141889440359938,1
447,399,19,0.12019956319266,1
447,400,19,0.0955293446672774,1
447,401,19,0.0841580337084005,1
447,402,19,0.0787597949300119,1
447,403,19,0.0761552594590877,1
447,404,19,0.0750276943741241,1
448,393,19,0.116553522532856,1
448,394,19,0.113310714413425,1
448,395,19,0.118179980267434,1
448,399,19,0.113772763001731,1
448,400,19,0.0941594095817015,1
448,401,19,0.0874582544047995,1
448,402,19,0.0824004398926172,1
448,403,19,0.0775041012016259,1
448,404,19,0.0752461110173367,1
448,405,19,0.0763886543218461,1
448,406,19,0.0798034053253397,1
449,393,19,0.16220553174189,1
449,399,19,0.0989529115913304,1
449,400,19,0.0885493410385383,1
449,401,19,0.0862454608918452,1
449,402,19,0.0830384176942826,1
449,403,19,0.0784472572780702,1
449,404,19,0.076405944140629,1
449,405,19,0.076604370167991,1
449,406,19,0.0796609117438016,1
449,407,19,0.0836063162986711,1
449,408,19,0.0877296491284846,1
450,395,19,0.111407407288595,1
450,397,19,0.102206758776505,1
450,398,19,0.0896030528866544,1
450,399,19,0.0786055782380575,1
450,400,19,0.0728124216002249,1
450,401,19,0.0721507204216961,1
450,402,19,0.0727422539488955,1
450,403,19,0.0730166796981108,1
450,404,19,0.0737925042950929,1
450,405,19,0.0735954345632016,1
450,406,19,0.0755466837844521,1
450,407,19,0.0791719967113019,1
450,408,19,0.0829366424615494,1
450,409,19,0.0867653171518871,1
451,390,19,0.101362093338981,1
451,394,19,0.11061161566351,1
451,395,19,0.0945412126536376,1
451,396,19,0.0902307818121108,1
451,397,19,0.0791048070130713,1
451,398,19,0.0657338801570718,1
451,399,19,0.0569568381020997,1
451,402,19,0.0588135004566116,1
451,403,19,0.0624606910190973,1
451,404,19,0.0647130673195252,1
451,405,19,0.064722284231789,1
451,406,19,0.066873427817672,1
451,407,19,0.0715016092032974,1
451,408,19,0.0773414224053219,1
451,409,19,0.0819213845384958,1
451,410,19,0.102165598157438,1
452,390,19,0.0960486878938151,1
452,391,19,0.114020398966932,1
452,393,19,0.110014326725965,1
452,394,19,0.0843182770697942,1
452,395,19,0.0727614779629584,1
452,396,19,0.0636399309614941,1
452,406,19,0.0569478629642458,1
452,407,19,0.0627945637884866,1
452,408,19,0.0709555174713029,1
452,409,19,0.0793993177291264,1
452,410,19,0.0991279680580387,1
452,411,19,0.142401860582638,1
453,389,19,0.101737162109058,1
453,390,19,0.0981514058344576,1
453,391,19,0.098036704516195,1
453,392,19,0.0956788556036421,1
453,393,19,0.0843628638091589,1
453,394,19,0.068759828424613,1
453,408,19,0.0623282576117896,1
453,409,19,0.0779926152424212,1
453,410,19,0.102797419557054,1
453,411,19,0.129427773987489,1
453,412,19,0.147039199911159,1
454,388,19,0.118005631433145,1
454,390,19,0.119231687157028,1
454,391,19,0.0979426778584552,1
454,392,19,0.0812102021630342,1
454,393,19,0.0664154776004619,1
454,409,19,0.0743148254747294,1
454,410,19,0.103618886445093,1
454,411,19,0.128802781240721,1
454,412,19,0.149748783414757,1
455,387,19,0.1046504847801,1
455,388,19,0.160711212567778,1
455,391,19,0.106573582024929,1
455,392,19,0.0697593356293961,1
455,409,19,0.0636359092505767,1
455,410,19,0.091049211777683,1
455,411,19,0.123153268087108,1
455,412,19,0.165512321625917,1
456,387,19,0.107472487487408,1
456,388,19,0.188159436754786,1
456,391,19,0.104124808243408,1
456,392,19,0.0581757939140404,1
456,410,19,0.0748379427408377,1
456,411,19,0.103591229811365,1
456,412,19,0.139694624059899,1
456,413,19,0.175448860678782,1
457,387,19,0.0997624194914803,1
457,388,19,0.154566816681595,1
457,391,19,0.0818188427039748,1
457,410,19,0.0649081320928946,1
457,411,19,0.0889055690954467,1
457,412,19,0.108360896402331,1
457,413,19,0.12574912326702,1
457,414,19,0.1286667271142,1
458,387,19,0.0813920224162854,1
458,388,19,0.0966490550323846,1
458,389,19,0.10365978759894,1
458,390,19,0.0821991656447668,1
458,391,19,0.0589822177162286,1
458,410,19,0.0598836765523545,1
458,411,19,0.0844690027751456,1
458,412,19,0.100505421738072,1
458,413,19,0.108616929605576,1
458,414,19,0.118192387422522,1
458,415,19,0.13502689191896,1
459,387,19,0.0705214498482506,1
459,388,19,0.0720633573025732,1
459,389,19,0.069905632735189,1
459,390,19,0.0613261439609281,1
459,410,19,0.0582473532424614,1
459,411,19,0.0856994340261558,1
459,412,19,0.103358182867879,1
459,413,19,0.1075808849802,1
459,414,19,0.113720704843404,1
459,415,19,0.129145428652112,1
460,387,19,0.0631697976727951,1
460,388,19,0.0610726641313298,1
460,410,19,0.0572840414359353,1
460,411,19,0.0834499590186478,1
460,412,19,0.10102296050194,1
460,413,19,0.106145688494737,1
460,414,19,0.111166906616958,1
460,415,19,0.125408693103877,1
461,386,19,0.0663848783952557,1
461,387,19,0.0624440911419234,1
461,388,19,0.0587408325040668,1
461,411,19,0.0734994796071187,1
461,412,19,0.088992124334224,1
461,413,19,0.100659614842279,1
461,414,19,0.111432870261823,1
461,415,19,0.127433984263953,1
461,416,19,0.147457304526215,1
462,386,19,0.0702010338887053,1
462,387,19,0.0662929215623429,1
462,388,19,0.0617678422202373,1
462,411,19,0.06898602902444,1
462,412,19,0.0813057561274127,1
462,413,19,0.0980776174639152,1
462,414,19,0.115061267286634,1
462,415,19,0.134013173096419,1
462,416,19,0.150430882097777,1
463,386,19,0.0763755572251487,1
463,387,19,0.0717532197039209,1
463,389,19,0.0587546018515627,1
463,414,19,0.119444189172601,1
463,415,19,0.144868313380772,1
463,416,19,0.153774822683827,1
464,386,19,0.0792877181996359,1
464,387,19,0.0747351945135277,1
464,415,19,0.145922685685813,1
465,386,19,0.076622827580266,1
465,387,19,0.0734133784324772,1
465,389,19,0.0580049773449122,1
466,386,19,0.0730423018886332,1
466,387,19,0.0716279569717975,1
467,386,19,0.0696223203021722,1
467,387,19,0.0690071164705408,1
467,388,19,0.0637597331301139,1
468,386,19,0.0675155806506123,1
468,387,19,0.0671996345691835,1
468,388,19,0.0623055308172503,1
469,387,19,0.0652881424960347,1
469,388,19,0.0607448770007481,1
470,388,19,0.0651723443475219,1
470,389,19,0.0623739824599624,1
471,388,19,0.074838762415057,1
446,397,20,0.187496762581681,1
446,398,20,0.147428173658279,1
447,395,20,0.136430339296536,1
448,393,20,0.116710888189077,1
450,410,20,0.0962587544744777,1
452,389,20,0.0978156224575357,1
455,387,20,0.0977061635161142,1
456,387,20,0.096105516674037,1
457,387,20,0.0844273762980691,1
458,387,20,0.0729592907088901,1
459,387,20,0.0672603435338389,1
460,387,20,0.0626711291067801,1
461,387,20,0.0636927616185459,1
462,386,20,0.07238879155536,1
463,386,20,0.0799919244988288,1
465,386,20,0.0764421926113174,1
466,386,20,0.0735611084939195,1
467,386,20,0.0701160354412508,1
468,387,20,0.0688283154489461,1
469,387,20,0.0688170876812235,1
470,388,20,0.0730037418187078,1
471,387,20,0.0780002163939939,1
