x,y,z,signal,cytoplasm.p
89,566,1,0.0595180074995827,1
89,567,1,0.0606260242389578,1
88,566,2,0.064506680427444,1
88,567,2,0.0652861729191337,1
89,565,2,0.0614536652198571,1
89,566,2,0.071227843911007,1
89,567,2,0.0785595644399802,1
89,568,2,0.0640398789080534,1
90,566,2,0.0623452466867942,1
90,567,2,0.0691962135438392,1
87,564,3,0.112044653870094,1
88,566,3,0.0704359973366603,1
88,567,3,0.0725763200434618,1
89,565,3,0.0659291395293565,1
89,566,3,0.0815103267629506,1
89,567,3,0.0906935380328366,1
89,568,3,0.0691519570329369,1
90,566,3,0.0691007716212604,1
90,567,3,0.0753523620251232,1
90,568,3,0.0609415929164297,1
86,564,4,0.116793091488475,1
87,563,4,0.105856585269754,1
87,564,4,0.163440975389205,1
87,565,4,0.112661497050163,1
87,566,4,0.0578002062135221,1
88,564,4,0.119501306902728,1
88,565,4,0.0911118903192394,1
88,566,4,0.0760168642486458,1
88,567,4,0.07794234975289,1
88,568,4,0.0578407476542221,1
89,565,4,0.0651806767192614,1
89,566,4,0.0873290820035584,1
89,567,4,0.0983076392788075,1
89,568,4,0.0725998075428521,1
90,566,4,0.0716264650467797,1
90,567,4,0.0772189784090027,1
90,568,4,0.0614840993108321,1
95,576,4,0.063014089055823,1
86,564,5,0.116521596516863,1
86,565,5,0.0734541852353345,1
87,563,5,0.106049686363159,1
87,564,5,0.173160365640276,1
87,565,5,0.114434163436482,1
87,566,5,0.0582173378340013,1
88,564,5,0.113079000177663,1
88,565,5,0.0825835987505287,1
88,566,5,0.0742858420302144,1
88,567,5,0.0757551699860445,1
89,565,5,0.0610528150419631,1
89,566,5,0.0866071318214468,1
89,567,5,0.096328715733018,1
89,568,5,0.0712094513650371,1
90,566,5,0.0708958699552767,1
90,567,5,0.0761712283640208,1
90,568,5,0.0615263980387071,1
95,575,5,0.0621205498058587,1
95,576,5,0.0603902411167836,1
96,576,5,0.0663606655726355,1
86,564,6,0.095231531666598,1
86,565,6,0.061914487245303,1
87,563,6,0.0938720341592096,1
87,564,6,0.148861388772968,1
87,565,6,0.103223166602241,1
88,563,6,0.0585603626493494,1
88,564,6,0.094015654055682,1
88,565,6,0.0736156964381464,1
88,566,6,0.0688957233338394,1
88,567,6,0.0692400277844793,1
89,565,6,0.0590851369547067,1
89,566,6,0.0843741505462498,1
89,567,6,0.0921361410709573,1
89,568,6,0.0679809020388588,1
89,569,6,0.0671041277802996,1
89,570,6,0.0752364577317475,1
89,571,6,0.0583025898497394,1
90,566,6,0.0704770577078012,1
90,567,6,0.0762525942983886,1
90,568,6,0.0610522961115221,1
90,569,6,0.0673834715748303,1
90,570,6,0.0766167360445216,1
90,571,6,0.0616483466923326,1
95,576,6,0.0582514398196839,1
96,575,6,0.0608285250496687,1
96,576,6,0.0600024880355869,1
86,564,7,0.0772429730449602,1
86,565,7,0.0590034997612448,1
87,563,7,0.0806165280477658,1
87,564,7,0.114974617696868,1
87,565,7,0.0909831248066394,1
88,564,7,0.0797586239870596,1
88,565,7,0.072948564180798,1
88,566,7,0.0681572676255432,1
88,567,7,0.0654108459575743,1
89,565,7,0.0632731473876617,1
89,566,7,0.0841975785667764,1
89,567,7,0.0903853405264012,1
89,568,7,0.0691620054132937,1
89,569,7,0.0746542531586117,1
89,570,7,0.0903819026122298,1
89,571,7,0.0636765686300133,1
90,566,7,0.0723758595728938,1
90,567,7,0.0807068042536823,1
90,568,7,0.0662445489895339,1
90,569,7,0.0770924832170819,1
90,570,7,0.0949891852537329,1
90,571,7,0.0703283841364662,1
91,570,7,0.0627293259763464,1
94,575,7,0.0571299190949702,1
94,576,7,0.0588086944530959,1
94,577,7,0.058393520615644,1
95,575,7,0.0569999388133835,1
95,576,7,0.0598890899403636,1
95,577,7,0.0604173316445764,1
96,574,7,0.0589580756568504,1
96,575,7,0.0573424093166696,1
96,576,7,0.0582520354103037,1
96,577,7,0.057763326770593,1
97,575,7,0.0613649811868845,1
87,564,8,0.0816618367609003,1
87,565,8,0.0751254184112558,1
88,564,8,0.0667692407377757,1
88,565,8,0.0708321476559016,1
88,566,8,0.066261142969771,1
88,567,8,0.0597436950659056,1
89,565,8,0.0635831906353247,1
89,566,8,0.0780740106614731,1
89,567,8,0.0822133006023461,1
89,568,8,0.063825041705496,1
89,569,8,0.070527128598417,1
89,570,8,0.0878768543625491,1
89,571,8,0.0590409512070464,1
90,566,8,0.0699094716410647,1
90,567,8,0.0791051018599127,1
90,568,8,0.0651580973481428,1
90,569,8,0.0758388475196493,1
90,570,8,0.0969238758763674,1
90,571,8,0.0704135535950888,1
91,570,8,0.0655015054643847,1
94,574,8,0.0600464261119005,1
94,575,8,0.0625644771072892,1
94,576,8,0.0624003948400199,1
94,577,8,0.0607530383613196,1
95,574,8,0.0614616850539447,1
95,575,8,0.0638020200641153,1
95,576,8,0.0637786387095879,1
95,577,8,0.061664722485907,1
96,573,8,0.057666546243354,1
96,574,8,0.0617526870925865,1
96,575,8,0.0619217168898555,1
96,576,8,0.0606684291116958,1
96,577,8,0.058585460012494,1
97,574,8,0.0629509918317518,1
97,575,8,0.0619807393305778,1
97,576,8,0.0600804809220884,1
87,564,9,0.057711504489739,1
87,565,9,0.0608366628224929,1
88,565,9,0.0639130711784806,1
88,566,9,0.0608986750101876,1
89,565,9,0.0590170804067622,1
89,566,9,0.0670262174509137,1
89,567,9,0.0679232830691018,1
89,569,9,0.0600685868005042,1
89,570,9,0.0670991035901212,1
90,566,9,0.0661718633461786,1
90,567,9,0.0707774771545591,1
90,568,9,0.0592051101344945,1
90,569,9,0.0657886568032772,1
90,570,9,0.0778117090143784,1
90,571,9,0.060233860249013,1
91,570,9,0.0595851795070029,1
93,574,9,0.0578812006408697,1
93,575,9,0.0570172640137873,1
94,574,9,0.065237411148494,1
94,575,9,0.068928032650726,1
94,576,9,0.0652610165866209,1
94,577,9,0.0581386196242698,1
95,574,9,0.066984355096364,1
95,575,9,0.0742123485065135,1
95,576,9,0.0691969506609428,1
95,577,9,0.0589214026067103,1
96,574,9,0.0651229162230205,1
96,575,9,0.0703900012293934,1
96,576,9,0.0647379523929439,1
97,574,9,0.0610324234344081,1
97,575,9,0.0629663533521916,1
97,576,9,0.0594643394775012,1
88,565,10,0.0576430941255847,1
90,566,10,0.0624967861694281,1
90,567,10,0.058605090915198,1
90,570,10,0.0577763825887326,1
91,566,10,0.0600350804054413,1
93,574,10,0.0577271667539571,1
94,573,10,0.0577512321531566,1
94,574,10,0.069895177466191,1
94,575,10,0.0787355997982021,1
94,576,10,0.07061086510139,1
95,574,10,0.0737956119808018,1
95,575,10,0.092448814352446,1
95,576,10,0.0823594443877814,1
95,577,10,0.0594121338957533,1
96,574,10,0.0676645490687888,1
96,575,10,0.0820293102763418,1
96,576,10,0.0736262401611968,1
96,577,10,0.0578851456916083,1
97,575,10,0.0635444890389154,1
97,576,10,0.0598462251065529,1
70,578,11,0.0596464368867834,1
70,579,11,0.0585878482719097,1
73,577,11,0.0593515487667712,1
74,576,11,0.0582668544125552,1
74,577,11,0.0589897893831172,1
75,575,11,0.0581984263575904,1
75,577,11,0.0596016260638192,1
76,575,11,0.0666083015378362,1
76,576,11,0.0692468446434538,1
90,566,11,0.0608101796791934,1
91,566,11,0.0669948162622988,1
94,574,11,0.0692563210209381,1
94,575,11,0.0847458285776503,1
94,576,11,0.0767929306200379,1
95,574,11,0.076904093776203,1
95,575,11,0.107311159089637,1
95,576,11,0.0991803446509547,1
95,577,11,0.0670609798935211,1
96,574,11,0.0667893669831734,1
96,575,11,0.0885174091256088,1
96,576,11,0.0834278160208546,1
96,577,11,0.0623620057812625,1
97,575,11,0.0632817333276849,1
97,576,11,0.0611425369358176,1
76,575,12,0.0597034012965524,1
86,566,12,0.0588591309537951,1
87,565,12,0.0579684753059402,1
87,566,12,0.0631419405432145,1
90,566,12,0.0579123836428219,1
91,565,12,0.0601797204719852,1
91,566,12,0.0751814334141953,1
91,567,12,0.0589017481162589,1
92,565,12,0.0591633539248077,1
92,566,12,0.07217470326378,1
92,567,12,0.0569060065066329,1
94,574,12,0.0623821438205339,1
94,575,12,0.0808451876702505,1
94,576,12,0.0785294546805309,1
94,577,12,0.0577842726902099,1
95,574,12,0.0728283138449792,1
95,575,12,0.110160157973748,1
95,576,12,0.112832637950817,1
95,577,12,0.0783899803306493,1
96,574,12,0.0618894547484636,1
96,575,12,0.088275263208596,1
96,576,12,0.0933584581368906,1
96,577,12,0.0716795787567993,1
97,575,12,0.0624871269869021,1
97,576,12,0.06403733732828,1
54,593,13,0.0569177414109228,1
86,565,13,0.0614991129119989,1
86,566,13,0.0730771763730404,1
87,565,13,0.0575845434398087,1
87,566,13,0.0685748533101582,1
91,565,13,0.0628433550438105,1
91,566,13,0.0824164736638555,1
91,567,13,0.0646970748268447,1
92,565,13,0.0743592058213051,1
92,566,13,0.0991355161371799,1
92,567,13,0.0756738158455505,1
93,565,13,0.064427012810883,1
93,566,13,0.0800744285420045,1
93,567,13,0.0634737316939031,1
94,575,13,0.0712105128136663,1
94,576,13,0.0735930109221649,1
95,574,13,0.0667144522976966,1
95,575,13,0.0979550496319226,1
95,576,13,0.110023809000386,1
95,577,13,0.0802806739076019,1
96,574,13,0.0591117675214269,1
96,575,13,0.0826014074997526,1
96,576,13,0.0957532218739937,1
96,577,13,0.0756421669855887,1
97,576,13,0.0655729881326269,1
97,577,13,0.0577764474550377,1
78,573,14,0.0630193255357273,1
86,566,14,0.0729935106333093,1
87,566,14,0.06242871782761,1
91,565,14,0.058083583512844,1
91,566,14,0.0793768798844917,1
91,567,14,0.0624153140901975,1
92,565,14,0.0800879502181536,1
92,566,14,0.113543324983585,1
92,567,14,0.0845302778457367,1
93,565,14,0.0706997083516571,1
93,566,14,0.0942143041666435,1
93,567,14,0.0705584708176636,1
94,576,14,0.0577399218283184,1
95,575,14,0.074073387190136,1
95,576,14,0.0879209221714729,1
95,577,14,0.0670552303801128,1
96,575,14,0.0697871278926716,1
96,576,14,0.0844665614432984,1
96,577,14,0.0677489224409393,1
97,576,14,0.0607076732262934,1
53,594,15,0.0585954612173561,1
77,573,15,0.0645992859234079,1
78,572,15,0.0670346559675161,1
78,573,15,0.0755686203894564,1
79,572,15,0.0568585125774115,1
79,573,15,0.0598105545356738,1
86,566,15,0.0668242886430752,1
86,567,15,0.0642392425483712,1
91,566,15,0.0760711101705366,1
91,567,15,0.060814679041994,1
92,565,15,0.0843573855548447,1
92,566,15,0.118295088474338,1
92,567,15,0.0890868291396992,1
93,565,15,0.0766110808821025,1
93,566,15,0.102092570491747,1
93,567,15,0.0764332882367055,1
94,566,15,0.0631225101363627,1
95,576,15,0.0596146936758325,1
96,575,15,0.0569983997128711,1
96,576,15,0.0652545535438562,1
97,595,15,0.0569905862715725,1
99,579,15,0.0658385802704722,1
53,594,16,0.059311915454343,1
77,572,16,0.0574881874920214,1
77,573,16,0.0645352392925072,1
78,572,16,0.0696160105797651,1
78,573,16,0.0765822035824505,1
85,567,16,0.0644301028057814,1
86,566,16,0.0573631016680028,1
86,567,16,0.0689081010042436,1
91,566,16,0.0671172366708706,1
92,565,16,0.0800143977250844,1
92,566,16,0.104789546344404,1
92,567,16,0.0805699481437528,1
93,565,16,0.0749035697508087,1
93,566,16,0.0942531649803472,1
93,567,16,0.0717417324709779,1
94,566,16,0.0658670801661672,1
97,594,16,0.0576077773709153,1
97,595,16,0.0704733249467884,1
98,594,16,0.0710770533393504,1
98,595,16,0.084707474900514,1
78,572,17,0.0587759015873894,1
78,573,17,0.0593407337846267,1
85,567,17,0.0653003609491445,1
86,567,17,0.0684453919590124,1
91,566,17,0.0583116652355194,1
92,566,17,0.082867996219922,1
92,567,17,0.066521740402122,1
93,566,17,0.0774685839511043,1
93,567,17,0.0624037973725703,1
97,595,17,0.0698430308538114,1
98,594,17,0.0684523385505971,1
98,595,17,0.0848688209890946,1
50,587,18,0.0598431645963386,1
51,586,18,0.0614981222266116,1
98,595,18,0.064933477127386,1
99,575,18,0.0588792689930664,1
50,586,19,0.0660262856666789,1
51,585,19,0.0632518004763404,1
51,586,19,0.0663648406039105,1
51,587,19,0.0582724741933533,1
52,586,19,0.0581358598578338,1
77,570,19,0.0652449297429511,1
77,571,19,0.0586979558763825,1
78,570,19,0.064867714487868,1
78,571,19,0.0571564906923221,1
92,566,19,0.0574573347185317,1
50,585,20,0.0654811138568297,1
50,586,20,0.063308122119995,1
51,585,20,0.0710901917146056,1
51,586,20,0.0729452324114896,1
51,587,20,0.0578322855498724,1
52,585,20,0.0637909986891817,1
52,586,20,0.0685143979137864,1
76,569,20,0.0595322603958986,1
76,570,20,0.0827199477238909,1
76,571,20,0.0673783117551048,1
77,569,20,0.0843984695137329,1
77,570,20,0.114597720876374,1
77,571,20,0.0876829984612297,1
78,569,20,0.0766901647019174,1
78,570,20,0.100331025728288,1
78,571,20,0.0765645422566473,1
79,570,20,0.0631083987665306,1
86,563,20,0.060411481883242,1
50,585,21,0.0621399448310896,1
50,586,21,0.059978263419093,1
51,584,21,0.0578608797965566,1
51,585,21,0.0729104463811348,1
51,586,21,0.072113876360388,1
52,585,21,0.0694167235996261,1
52,586,21,0.0700949892737078,1
55,600,21,0.0632150389721479,1
76,569,21,0.0779200239500551,1
76,570,21,0.108761192268163,1
76,571,21,0.0791649085932334,1
77,569,21,0.119942857738616,1
77,570,21,0.163674057714311,1
77,571,21,0.112910972859655,1
78,569,21,0.0998747797258217,1
78,570,21,0.133524482147519,1
78,571,21,0.0926060738638042,1
79,569,21,0.0608783305781272,1
79,570,21,0.0680618787753959,1
85,563,21,0.10308227698752,1
85,564,21,0.0702232771344246,1
86,563,21,0.082534972609436,1
50,584,22,0.0571509770563869,1
50,585,22,0.0617686383067092,1
50,586,22,0.0596783511089025,1
51,584,22,0.0612153287240359,1
51,585,22,0.0742537803846746,1
51,586,22,0.0703413573974902,1
52,584,22,0.0579299329268252,1
52,585,22,0.0732085601255925,1
52,586,22,0.0685371188113889,1
54,600,22,0.0572875442164117,1
55,600,22,0.0732225889383089,1
76,569,22,0.0832294843444819,1
76,570,22,0.116376343168889,1
76,571,22,0.0821493954979293,1
77,569,22,0.133334954597832,1
77,570,22,0.185691403577582,1
77,571,22,0.125033765860283,1
78,569,22,0.105869440592041,1
78,570,22,0.14616679528279,1
78,571,22,0.0982967240487368,1
79,569,22,0.0592995790624965,1
79,570,22,0.0660091963437482,1
84,563,22,0.0731041961375913,1
85,563,22,0.120410048455838,1
85,564,22,0.0780707968309012,1
86,563,22,0.0941616209330124,1
86,564,22,0.0611511110819671,1
43,592,23,0.0597303326070509,1
45,591,23,0.0574273664855662,1
49,585,23,0.0580452121448971,1
49,586,23,0.0572322663305759,1
50,582,23,0.0620106309033645,1
50,583,23,0.0633132701458468,1
50,584,23,0.0607135052968174,1
50,585,23,0.0622880935750467,1
50,586,23,0.0610332607994378,1
51,583,23,0.0582486623624374,1
51,584,23,0.0614840521353374,1
51,585,23,0.0693228561591807,1
51,586,23,0.0641329915405846,1
52,584,23,0.0583208762508464,1
52,585,23,0.0683484227297949,1
52,586,23,0.060431077404325,1
55,600,23,0.065204152424778,1
76,569,23,0.0787203680103726,1
76,570,23,0.105531215883272,1
76,571,23,0.075967554062881,1
77,569,23,0.121885273348497,1
77,570,23,0.168250587830251,1
77,571,23,0.117036540628527,1
78,569,23,0.0962187437580924,1
78,570,23,0.132247925056632,1
78,571,23,0.0918030231094822,1
79,570,23,0.0594593152873228,1
84,563,23,0.0608687480557799,1
85,563,23,0.102582617736118,1
85,564,23,0.0714139217526489,1
86,563,23,0.0845361276070712,1
86,564,23,0.0603232283266578,1
101,585,23,0.0634033930314058,1
42,592,24,0.0674966396895173,1
43,591,24,0.0569728836672116,1
43,592,24,0.0663501159526483,1
43,593,24,0.0666900389792242,1
44,590,24,0.0600607379775847,1
44,591,24,0.0588173039808664,1
45,590,24,0.0583358013979609,1
45,591,24,0.0581698203170325,1
46,590,24,0.0572239398557732,1
46,591,24,0.0608984627204617,1
48,585,24,0.0584575377618606,1
49,582,24,0.0645875510191181,1
49,583,24,0.0632234656948766,1
49,584,24,0.0655204641162902,1
49,585,24,0.0641257088236007,1
49,586,24,0.0593105473649986,1
50,581,24,0.065473996254077,1
50,582,24,0.0814957849167301,1
50,583,24,0.0755976097309081,1
50,584,24,0.0694404528734264,1
50,585,24,0.0687842476400223,1
50,586,24,0.0617296418634585,1
51,581,24,0.0569630298857702,1
51,582,24,0.0686091970702508,1
51,583,24,0.0656643021994253,1
51,584,24,0.0657660892260322,1
51,585,24,0.0682029099166003,1
51,586,24,0.0575423626506703,1
52,584,24,0.0576958304316473,1
52,585,24,0.0607005143449829,1
76,569,24,0.0627814548979155,1
76,570,24,0.0785050590528689,1
76,571,24,0.059632856241266,1
77,569,24,0.0893645925551597,1
77,570,24,0.117748454224155,1
77,571,24,0.0876787467697759,1
78,569,24,0.0713395083068026,1
78,570,24,0.0923633441500452,1
78,571,24,0.068868721260099,1
85,563,24,0.0692179850346122,1
85,564,24,0.0571977397654416,1
86,563,24,0.0639397725084428,1
101,584,24,0.078120042150361,1
101,585,24,0.108627886114205,1
101,586,24,0.079378908430761,1
43,590,25,0.0582197260934171,1
43,592,25,0.067160007153692,1
44,589,25,0.0602347329956637,1
44,590,25,0.0653488396668165,1
44,591,25,0.0596574464678433,1
45,589,25,0.0600896565557945,1
45,590,25,0.064721735816664,1
45,591,25,0.0583698915897698,1
46,590,25,0.0626028897537939,1
48,585,25,0.0568951561428674,1
49,582,25,0.069396302507387,1
49,583,25,0.062137202755464,1
49,584,25,0.0644979647548106,1
49,585,25,0.064579136090263,1
49,595,25,0.0621414898285388,1
50,581,25,0.0717430297970803,1
50,582,25,0.0870162730925226,1
50,583,25,0.0754759028516926,1
50,584,25,0.0732741989294371,1
50,585,25,0.0733966370288194,1
50,586,25,0.0581155861890154,1
51,581,25,0.0584668313343032,1
51,582,25,0.0706921425817054,1
51,583,25,0.0649930538801703,1
51,584,25,0.0685486591167634,1
51,585,25,0.0682015241364455,1
77,570,25,0.0629392097519673,1
93,566,25,0.0581307766982871,1
93,567,25,0.0601786295386718,1
94,567,25,0.0589607410722971,1
101,584,25,0.0864668790759038,1
101,585,25,0.138813480171149,1
101,586,25,0.0930757059128727,1
43,589,26,0.0620079242093599,1
43,590,26,0.0587704881993802,1
44,589,26,0.0651619421509554,1
44,590,26,0.0673822862905276,1
45,589,26,0.0639730725107166,1
45,590,26,0.070696571181264,1
45,591,26,0.0578229035233773,1
46,589,26,0.0611258486045913,1
46,590,26,0.0663838759159948,1
47,592,26,0.0573814588323518,1
49,582,26,0.0667060078841574,1
49,583,26,0.0590738207329317,1
49,584,26,0.061796418776111,1
49,585,26,0.0630002666358957,1
49,595,26,0.0627709642472966,1
50,580,26,0.0593597985813951,1
50,581,26,0.0701982977100166,1
50,582,26,0.0777763097025934,1
50,583,26,0.0682955036186907,1
50,584,26,0.0703378841016979,1
50,585,26,0.0714541624495706,1
51,582,26,0.0642231085292068,1
51,583,26,0.0602778396038844,1
51,584,26,0.0640974801869999,1
51,585,26,0.062946498365888,1
53,577,26,0.0572897732585331,1
93,566,26,0.059628132794866,1
93,567,26,0.0642096694101733,1
94,567,26,0.0613033523000837,1
94,568,26,0.0572489015893707,1
100,576,26,0.0616692808180759,1
100,577,26,0.062608167512256,1
100,578,26,0.0585628688475017,1
101,584,26,0.0757231614129363,1
101,585,26,0.131275390440905,1
101,586,26,0.0853394142388663,1
43,588,27,0.0581576077608595,1
43,589,27,0.0643881343063688,1
44,588,27,0.0605067822793369,1
44,589,27,0.0699671790648741,1
44,590,27,0.0674058504500967,1
45,588,27,0.0593510121455198,1
45,589,27,0.0700405782375858,1
45,590,27,0.0740200434995801,1
46,589,27,0.060319843484918,1
46,590,27,0.0644075116407892,1
49,581,27,0.0583079914438749,1
49,582,27,0.0586128689748756,1
50,580,27,0.060121901006376,1
50,581,27,0.0611786733647063,1
50,582,27,0.0614891352948841,1
50,584,27,0.0590382975854733,1
50,585,27,0.0600096233291501,1
52,578,27,0.0610456207790316,1
53,577,27,0.0600744542526491,1
53,578,27,0.0583196555849228,1
93,567,27,0.0614831145223816,1
100,577,27,0.0834331704394954,1
100,578,27,0.0777065961153999,1
100,579,27,0.0629496650209653,1
101,585,27,0.093250933390749,1
101,586,27,0.0669059081457266,1
43,588,28,0.0618763517548293,1
43,589,28,0.0664495736892076,1
44,587,28,0.0579174726993054,1
44,588,28,0.0699318328255206,1
44,589,28,0.0794257477999944,1
44,590,28,0.0710930635228414,1
45,587,28,0.0596442196385357,1
45,588,28,0.0698590351403655,1
45,589,28,0.0801633366585767,1
45,590,28,0.0762266064977828,1
46,588,28,0.0597465020078362,1
46,589,28,0.063423707978782,1
46,590,28,0.0615936938818007,1
49,596,28,0.058554406743152,1
50,580,28,0.068165246181073,1
52,578,28,0.0623616165834318,1
53,577,28,0.0577448044920129,1
53,578,28,0.0596350263140192,1
81,561,28,0.0570911762200031,1
82,561,28,0.0633881966251972,1
99,576,28,0.0593932872856475,1
99,577,28,0.062162978266344,1
100,577,28,0.0987408400521459,1
100,579,28,0.0774892998901849,1
100,580,28,0.0574945679776705,1
43,587,29,0.0614168447462963,1
43,588,29,0.0693513560548757,1
43,589,29,0.0718701441673681,1
43,590,29,0.0612603400428523,1
44,586,29,0.0579411017251795,1
44,587,29,0.0690659561062215,1
44,588,29,0.0843551977912811,1
44,589,29,0.0931344747853114,1
44,590,29,0.0796926608516894,1
45,586,29,0.0585849587728635,1
45,587,29,0.070737077240343,1
45,588,29,0.0876350917464302,1
45,589,29,0.095797891170474,1
45,590,29,0.0810762650368351,1
46,587,29,0.0621961780206917,1
46,588,29,0.0744579972040028,1
46,589,29,0.0766735943094276,1
46,590,29,0.064329784116445,1
48,596,29,0.059347656788464,1
49,596,29,0.0722801463912209,1
50,580,29,0.0823837456644541,1
50,596,29,0.0590355967884055,1
52,578,29,0.0571005464526245,1
81,560,29,0.0642086020646072,1
81,561,29,0.0671982664798391,1
82,560,29,0.0739470865971306,1
82,561,29,0.0729030457254143,1
83,561,29,0.0599852100106777,1
99,577,29,0.0611093371814699,1
42,588,30,0.0588323824483384,1
42,589,30,0.056949649736105,1
43,587,30,0.0688378154141777,1
43,588,30,0.0805417371979624,1
43,589,30,0.0828104833950279,1
43,590,30,0.0725151511177337,1
44,586,30,0.0610042537671755,1
44,587,30,0.0830069929179204,1
44,588,30,0.106041902406545,1
44,589,30,0.113655119111991,1
44,590,30,0.0925667353982173,1
44,591,30,0.0618702661160217,1
45,586,30,0.063556129592216,1
45,587,30,0.0869116732270482,1
45,588,30,0.113691090426649,1
45,589,30,0.120012665676799,1
45,590,30,0.0903103491807456,1
45,591,30,0.0576335057063007,1
46,586,30,0.0578455713485483,1
46,587,30,0.073643518186106,1
46,588,30,0.0934724341319233,1
46,589,30,0.0955383551867522,1
46,590,30,0.0701682351260619,1
47,587,30,0.0568745404517129,1
47,588,30,0.0597463427905418,1
48,596,30,0.0645566687609441,1
49,595,30,0.0585402894763831,1
49,596,30,0.0805960479861583,1
49,597,30,0.0599165873567976,1
50,580,30,0.0853202550911086,1
50,596,30,0.0581209759892772,1
81,559,30,0.0631740198795647,1
81,560,30,0.069991509826231,1
81,561,30,0.0672617705925516,1
82,560,30,0.080461603723392,1
82,561,30,0.0731643507901848,1
83,561,30,0.0610302946402128,1
90,610,30,0.0757687093530041,1
42,588,31,0.0605095184580256,1
42,589,31,0.0608767384051833,1
42,590,31,0.0643087497427756,1
43,587,31,0.0710885110876093,1
43,588,31,0.0846266102057767,1
43,589,31,0.0875425570137082,1
43,590,31,0.0820364750545891,1
43,591,31,0.067293637639176,1
44,586,31,0.0602556199459124,1
44,587,31,0.0870245288040833,1
44,588,31,0.113822639293432,1
44,589,31,0.118251946484496,1
44,590,31,0.0946611681426149,1
44,591,31,0.0666474395075709,1
45,586,31,0.0631473952097814,1
45,587,31,0.0923835588494954,1
45,588,31,0.12413217139461,1
45,589,31,0.13001960236153,1
45,590,31,0.0948376398741622,1
45,591,31,0.0616485825698058,1
46,587,31,0.0779248830260023,1
46,588,31,0.0993601894303682,1
46,589,31,0.103948902617797,1
46,590,31,0.0758519269255362,1
47,587,31,0.0590060413410182,1
47,588,31,0.0624618350248421,1
47,589,31,0.0617651296292959,1
48,596,31,0.0683586775029407,1
49,580,31,0.148420498394005,1
49,595,31,0.0593172168005523,1
49,596,31,0.0805114505304082,1
49,597,31,0.0593850020894027,1
50,579,31,0.139886899582148,1
50,580,31,0.0809104903486958,1
81,559,31,0.0683993015007563,1
81,560,31,0.0692573411910095,1
81,561,31,0.0638486707313702,1
82,560,31,0.0784944032880188,1
82,561,31,0.0675522831854366,1
83,561,31,0.0585180580245375,1
42,588,32,0.0610829130075387,1
42,589,32,0.0634721749025802,1
42,590,32,0.0747973128460853,1
43,587,32,0.0694981956788568,1
43,588,32,0.0830196890229134,1
43,589,32,0.0866255066766062,1
43,590,32,0.0867108825280178,1
43,591,32,0.0802229193082978,1
44,586,32,0.060565156057008,1
44,587,32,0.0863362619251395,1
44,588,32,0.114382978024805,1
44,589,32,0.113747665638587,1
44,590,32,0.0903423400630434,1
44,591,32,0.0674818855535709,1
45,586,32,0.0622134501486641,1
45,587,32,0.090010955800996,1
45,588,32,0.121978657240122,1
45,589,32,0.123777741903435,1
45,590,32,0.0937603579695403,1
46,587,32,0.0747984214702092,1
46,588,32,0.0939035650804347,1
46,589,32,0.0989651300444403,1
46,590,32,0.0807891078010058,1
47,588,32,0.0589445362898908,1
47,589,32,0.0602780342027997,1
48,596,32,0.0651363081665593,1
49,580,32,0.110606839144678,1
49,596,32,0.0694722491568088,1
50,579,32,0.100420729931332,1
50,580,32,0.0662513894362557,1
57,606,32,0.0637978568267139,1
57,607,32,0.0614178059469995,1
80,560,32,0.0593268641892047,1
80,561,32,0.0574400625905593,1
81,560,32,0.0711248362184765,1
81,561,32,0.0674872694568959,1
82,560,32,0.0759492027954689,1
82,561,32,0.0683279662559348,1
83,561,32,0.0584388267813019,1
89,610,32,0.0714404284836956,1
43,587,33,0.0660930036099632,1
43,588,33,0.0734320245467308,1
43,589,33,0.0765840847052989,1
43,590,33,0.0804148587051478,1
44,586,33,0.0697737477430064,1
44,587,33,0.082488498850286,1
44,588,33,0.0984220457502286,1
44,589,33,0.095075716904763,1
44,590,33,0.0804045803442547,1
45,586,33,0.0660337629825782,1
45,587,33,0.0806011134548945,1
45,588,33,0.101206626496418,1
45,589,33,0.098926186673621,1
45,590,33,0.0823211673708238,1
46,587,33,0.0656727996853961,1
46,588,33,0.0799056405191456,1
46,589,33,0.0829552060186873,1
46,590,33,0.0758021921603197,1
54,578,33,0.0601127017849226,1
80,560,33,0.0602786238964826,1
80,561,33,0.0596955996491275,1
81,560,33,0.068602462768392,1
81,561,33,0.0679255474928442,1
81,562,33,0.0588023198643837,1
82,561,33,0.0666906522606544,1
82,562,33,0.0611091779641755,1
83,561,33,0.059193050898679,1
83,562,33,0.0600683391291573,1
89,610,33,0.0610540475017604,1
89,611,33,0.0647787061233698,1
90,610,33,0.0579333708409966,1
43,587,34,0.0625012914291656,1
43,588,34,0.0632754059144672,1
43,589,34,0.0665053115361162,1
44,586,34,0.0802892893323092,1
44,587,34,0.0789983908910536,1
44,588,34,0.0815480848494672,1
44,589,34,0.0809442856936633,1
44,590,34,0.0729347476578075,1
45,587,34,0.0741396746570318,1
45,588,34,0.0848901561065423,1
45,589,34,0.0867253359201859,1
45,590,34,0.0749680645489084,1
46,587,34,0.0598427105322028,1
46,588,34,0.0704923307741886,1
46,589,34,0.0757770358278068,1
46,590,34,0.068686270034607,1
53,578,34,0.0600836888557235,1
53,579,34,0.0621469503920425,1
54,578,34,0.0640204720889488,1
54,579,34,0.0639296061893494,1
61,569,34,0.061608966948188,1
80,560,34,0.0574451929256006,1
80,561,34,0.0595322368081513,1
81,561,34,0.0624782049214797,1
81,562,34,0.0617357157083924,1
82,561,34,0.0609426307773116,1
82,562,34,0.0651593946742452,1
82,563,34,0.059159237862901,1
83,562,34,0.0608428781939107,1
43,587,35,0.061566632838692,1
44,586,35,0.0815773631408237,1
44,587,35,0.0756573280101763,1
44,588,35,0.0700202397024623,1
44,589,35,0.0709965896363175,1
45,587,35,0.0704211547466615,1
45,588,35,0.0750138424695126,1
45,589,35,0.0810040511484261,1
45,590,35,0.0708550867401667,1
46,588,35,0.0659671629780305,1
46,589,35,0.0745027667484092,1
46,590,35,0.0641536013348023,1
46,594,35,0.0570880921220415,1
46,595,35,0.057506385439076,1
47,589,35,0.0569882333937777,1
48,600,35,0.115326570474575,1
49,600,35,0.064563503310729,1
49,601,35,0.113936143533518,1
50,602,35,0.0583520533558618,1
52,579,35,0.0611020603614228,1
53,578,35,0.0655379190493043,1
53,579,35,0.0776079344653125,1
53,580,35,0.0577473637625967,1
54,578,35,0.0603731164122319,1
54,579,35,0.0681132764767982,1
60,569,35,0.0678462867649244,1
61,568,35,0.0827680903161636,1
61,569,35,0.0594034948832987,1
77,612,35,0.06983790051877,1
81,562,35,0.0590008461396717,1
81,563,35,0.0617847664289368,1
82,562,35,0.0626054844059987,1
82,563,35,0.0663347308444612,1
44,587,36,0.0728681299624492,1
45,589,36,0.0791198383050486,1
45,590,36,0.071323657340606,1
45,595,36,0.077340349162819,1
46,588,36,0.0685548744881813,1
46,589,36,0.0835197610598937,1
46,590,36,0.0681871356105825,1
46,594,36,0.0609402130332116,1
46,595,36,0.0668516858115832,1
46,596,36,0.0582436617600064,1
47,588,36,0.0601932952205657,1
47,589,36,0.0777018549781893,1
47,590,36,0.0616462237950742,1
47,595,36,0.0640072039810834,1
47,600,36,0.152710378410682,1
48,600,36,0.125124095138631,1
48,601,36,0.227381260931152,1
49,600,36,0.0669014736492311,1
49,601,36,0.126260057461639,1
49,602,36,0.159780664142274,1
50,602,36,0.0596205375402301,1
52,579,36,0.0672702503877118,1
53,578,36,0.0627167713978373,1
53,579,36,0.0841826357288515,1
53,580,36,0.0625631974719973,1
54,579,36,0.0626365435722775,1
76,612,36,0.0729845767740133,1
77,611,36,0.0694250618683024,1
77,612,36,0.101396920647893,1
77,613,36,0.0596016791362507,1
78,612,36,0.0605311897008725,1
81,563,36,0.0661436406065146,1
82,562,36,0.0573520331175746,1
82,563,36,0.0677762075676475,1
89,611,36,0.0582005846364699,1
45,589,37,0.0771049139599176,1
45,590,37,0.0713546870222007,1
45,595,37,0.0724318627819597,1
46,588,37,0.0698887321142368,1
46,589,37,0.0951033381568704,1
46,590,37,0.0762183979617167,1
46,594,37,0.0631258713903552,1
46,595,37,0.0780654306183868,1
46,596,37,0.0703785375841976,1
47,588,37,0.068526003085466,1
47,589,37,0.0997143358685759,1
47,590,37,0.0770283953076234,1
47,594,37,0.065029084164196,1
47,595,37,0.0809294725883486,1
47,596,37,0.0679756655589546,1
48,589,37,0.0635046021582034,1
48,595,37,0.0640737332223892,1
48,600,37,0.117535126637426,1
48,601,37,0.218981970752514,1
49,600,37,0.0639313045071562,1
49,601,37,0.11699067425387,1
49,602,37,0.147484147382661,1
52,579,37,0.0665948683157395,1
53,579,37,0.0791722620734592,1
53,580,37,0.0615666977049971,1
76,612,37,0.0757282858510407,1
77,611,37,0.0730671633743046,1
77,612,37,0.112195084728604,1
77,613,37,0.0662920783003764,1
78,612,37,0.0642407698550099,1
81,563,37,0.0581468458511464,1
82,563,37,0.0587805896521685,1
90,611,37,0.0581995821572089,1
45,589,38,0.0747305300364959,1
45,590,38,0.0702125211216483,1
46,588,38,0.0674331060921207,1
46,589,38,0.101793277359923,1
46,590,38,0.0854251851850454,1
46,594,38,0.0599522048552453,1
46,595,38,0.0845464236587747,1
46,596,38,0.0839084163724252,1
47,588,38,0.0668163808507874,1
47,589,38,0.106815686663384,1
47,590,38,0.0875959124981378,1
47,594,38,0.0620494386446367,1
47,595,38,0.0852878573201696,1
47,596,38,0.0773524025016976,1
48,589,38,0.0605514869574382,1
48,595,38,0.0639271412697549,1
48,600,38,0.0985971258046842,1
48,601,38,0.188590844859329,1
49,601,38,0.0973890262534458,1
49,602,38,0.122430138517631,1
52,579,38,0.057473297726528,1
53,579,38,0.0611713788538487,1
77,612,38,0.0880060857331586,1
45,589,39,0.079437630127705,1
45,590,39,0.0754772886318474,1
46,588,39,0.0723298870533743,1
46,589,39,0.10400723511691,1
46,590,39,0.0972639699141113,1
46,591,39,0.0646670004490164,1
46,595,39,0.0817037462909447,1
46,596,39,0.0908311253629329,1
46,597,39,0.0703689609587872,1
47,588,39,0.0654336140306714,1
47,589,39,0.0973189706439163,1
47,590,39,0.0921440665540556,1
47,591,39,0.0598832401790291,1
47,595,39,0.0774913579211382,1
47,596,39,0.0806860293452334,1
47,597,39,0.0635754656480785,1
48,600,39,0.079981705107304,1
48,601,39,0.143401792366873,1
49,601,39,0.0764166529779106,1
49,602,39,0.0955199095683508,1
45,589,40,0.0768550135709745,1
45,590,40,0.0752433099723429,1
45,591,40,0.0598147177730751,1
46,588,40,0.0726265324605615,1
46,589,40,0.0954756648513222,1
46,590,40,0.0958937989510623,1
46,591,40,0.0691472630712209,1
46,595,40,0.0681397773109081,1
46,596,40,0.0815572840709206,1
46,597,40,0.0695802928333913,1
47,588,40,0.0613343878786152,1
47,589,40,0.0795617842357046,1
47,590,40,0.083995820770106,1
47,591,40,0.0618642099618982,1
47,595,40,0.0631266674768272,1
47,596,40,0.0728521079850846,1
47,597,40,0.0646573825450481,1
47,598,40,0.0579768194715533,1
47,599,40,0.0615327077611142,1
48,600,40,0.0676573901874783,1
48,601,40,0.107556282959749,1
49,601,40,0.0648452412616124,1
49,602,40,0.0788837131605383,1
45,589,41,0.0690553416199291,1
45,590,41,0.0685335511646073,1
45,591,41,0.059202297295627,1
46,588,41,0.0667412538755848,1
46,589,41,0.0813975478460943,1
46,590,41,0.0805293477336845,1
46,591,41,0.0633593193255452,1
46,596,41,0.0647042455020289,1
46,597,41,0.061681180836597,1
47,589,41,0.065412408645834,1
47,590,41,0.0669326802389307,1
47,596,41,0.0606376765861321,1
47,597,41,0.0591440945291239,1
47,598,41,0.0571779732331905,1
47,599,41,0.0620218881557712,1
48,600,41,0.0594876087902288,1
45,589,42,0.0580632862562782,1
45,590,42,0.0584724570120381,1
46,588,42,0.0576095169672799,1
46,589,42,0.0674561041457542,1
46,590,42,0.064417076472326,1
47,589,42,0.0583985389088855,1
47,599,42,0.0575438368848775,1
54,577,42,0.0576067984794017,1
51,578,43,0.0588188961538102,1
53,577,43,0.0628601907984575,1
53,578,43,0.0590313097153308,1
54,576,43,0.0573184559592698,1
54,577,43,0.0652494291057517,1
54,578,43,0.0568840522108182,1
94,596,43,0.060758475337076,1
95,596,43,0.0625356823647528,1
48,600,44,0.06035803794476,1
50,579,44,0.0579160987130242,1
51,578,44,0.0634121735703443,1
51,579,44,0.0656240025331354,1
53,577,44,0.0642216401919363,1
53,578,44,0.0615131240339048,1
54,577,44,0.0656228998059483,1
54,578,44,0.0584217020767502,1
90,580,44,0.0582022593665293,1
94,596,44,0.0580994403759774,1
95,595,44,0.0604796563699231,1
95,596,44,0.0676208527668852,1
48,600,45,0.0609024608436318,1
50,579,45,0.0609857668702163,1
51,578,45,0.0594816410901578,1
51,579,45,0.0679109112956344,1
90,580,45,0.0722678866595532,1
90,581,45,0.0730785562562584,1
47,590,46,0.058082374640794,1
50,579,46,0.0599748726804163,1
51,579,46,0.0611724815810358,1
90,580,46,0.071656781199018,1
90,581,46,0.079270257369685,1
45,591,47,0.0667186980922136,1
47,590,47,0.0648399517092767,1
47,591,47,0.0616879564170136,1
48,590,47,0.059041481931361,1
90,580,47,0.0577097707903112,1
90,581,47,0.0665878509609129,1
46,591,48,0.0574851033940598,1
47,590,48,0.0681622800218479,1
47,591,48,0.0645310465704217,1
48,590,48,0.0640141623665417,1
48,591,48,0.0596453636442805,1
87,611,48,0.0588129874231075,1
87,612,48,0.0714848854904501,1
88,611,48,0.0702866220298426,1
46,590,49,0.0589450611172686,1
46,591,49,0.0586065356647211,1
47,589,49,0.0571810278464679,1
47,590,49,0.0671888785564072,1
47,591,49,0.0627908899968421,1
48,590,49,0.0629970410114502,1
48,591,49,0.0574166812360319,1
87,611,49,0.058806205945754,1
47,590,50,0.0643272602274821,1
47,591,50,0.061674004264476,1
48,590,50,0.060480588085942,1
47,590,51,0.061001718084339,1
48,590,51,0.0599541095658411,1
48,591,51,0.0569881685274726,1
51,599,51,0.0573657493926391,1
47,590,52,0.058671920900282,1
47,591,52,0.0639647401389771,1
48,589,52,0.0630211712769548,1
48,590,52,0.0628524952958956,1
48,591,52,0.0582951243277138,1
49,588,52,0.0616291934415118,1
49,589,52,0.0699338024024215,1
49,590,52,0.0617490604764366,1
50,588,52,0.0571122223875461,1
50,589,52,0.061386941379636,1
51,583,52,0.0585291088841552,1
83,611,52,0.0659728063465759,1
48,588,53,0.0603326693225212,1
48,589,53,0.0695455068030366,1
48,590,53,0.0646224137096516,1
48,591,53,0.0592419247111185,1
49,587,53,0.0596931406264698,1
49,588,53,0.0709251954221277,1
49,589,53,0.0839050610153695,1
49,590,53,0.070850074343862,1
50,588,53,0.0635068960666299,1
50,589,53,0.0708559771776279,1
50,590,53,0.0582138173627144,1
51,583,53,0.0576518097982181,1
49,587,54,0.0666692463799648,1
49,588,54,0.0752605821003153,1
49,589,54,0.0850080181829452,1
49,590,54,0.0748986870871142,1
49,591,54,0.0620552707151607,1
50,586,54,0.0591626816740092,1
50,587,54,0.0647488086536463,1
50,588,54,0.0690430583005141,1
50,589,54,0.071918003706673,1
50,590,54,0.0623175192898239,1
51,586,54,0.0594376381475391,1
51,587,54,0.0656825532189114,1
51,588,54,0.0643379572708901,1
52,586,54,0.0651911025035752,1
52,587,54,0.070541894528237,1
52,588,54,0.0591950145786431,1
53,586,54,0.0624123007554778,1
53,587,54,0.0665129893478677,1
88,605,54,0.0573078591637879,1
49,586,55,0.0627113462159545,1
49,587,55,0.0675005257708877,1
49,588,55,0.072943734589535,1
49,589,55,0.075584194199622,1
49,590,55,0.0729035410681079,1
50,585,55,0.0599593401488085,1
50,586,55,0.0692809053505786,1
50,587,55,0.073814098877761,1
50,588,55,0.07242049938469,1
50,589,55,0.0679257126070754,1
50,590,55,0.0660043195769905,1
50,591,55,0.0641590383105587,1
51,585,55,0.05955881430244,1
51,586,55,0.0845984346416073,1
51,587,55,0.0998198674500692,1
51,588,55,0.086857509862273,1
51,589,55,0.0624552363525304,1
52,585,55,0.0588439935169548,1
52,586,55,0.110078107994708,1
52,587,55,0.138576022318915,1
52,588,55,0.10825292348899,1
52,589,55,0.0603304284865262,1
53,586,55,0.11172646695267,1
53,587,55,0.14024895970958,1
53,588,55,0.10468639712539,1
54,586,55,0.0679950016148172,1
54,587,55,0.0814359722864726,1
54,588,55,0.0621704968608011,1
88,605,55,0.0614066666333293,1
89,605,55,0.0585178988072431,1
49,586,56,0.0621578538282395,1
49,587,56,0.068746613389179,1
50,585,56,0.0625773265326398,1
50,586,56,0.0773778124024942,1
50,587,56,0.0841574440147176,1
50,588,56,0.077368571902483,1
50,589,56,0.0667202725743469,1
50,590,56,0.0665178248360675,1
51,585,56,0.0712257092198749,1
51,586,56,0.117859080759069,1
51,587,56,0.14838946871241,1
51,588,56,0.120925287414342,1
51,589,56,0.0775421305472367,1
51,590,56,0.0576655083824721,1
52,585,56,0.0812381477466672,1
52,586,56,0.178169884239828,1
52,587,56,0.240061609308971,1
52,588,56,0.185379172566355,1
52,589,56,0.097011386418911,1
53,585,56,0.081200442732582,1
53,586,56,0.190104576749482,1
53,587,56,0.254828553402141,2
53,588,56,0.193141051049263,1
53,589,56,0.0970068516744895,1
54,586,56,0.11259288029322,1
54,587,56,0.144268724637864,1
54,588,56,0.109971090385134,1
54,589,56,0.0625097712243258,1
88,605,56,0.0578930770716434,1
50,585,57,0.0669592046607879,1
50,586,57,0.0861704872370002,1
50,587,57,0.0999384076742075,1
50,588,57,0.0918988542298917,1
50,589,57,0.0755621219650707,1
51,585,57,0.0847936645292079,1
51,586,57,0.144732471543978,1
51,587,57,0.190657839156661,1
51,588,57,0.1624726393925,1
51,589,57,0.107503753046476,1
51,590,57,0.0704718330217706,1
52,585,57,0.105754497499369,1
52,586,57,0.232125205083669,1
52,587,57,0.32100902627609,2
52,588,57,0.264990225709267,1
52,589,57,0.153733945117728,1
52,590,57,0.0782877628276539,1
53,585,57,0.108573881966724,1
53,586,57,0.256393506085592,2
53,587,57,0.351188275229006,2
53,588,57,0.28433996246529,2
53,589,57,0.16463976367719,1
53,590,57,0.0865729885572064,1
54,585,57,0.074313940934205,1
54,586,57,0.166004645087904,1
54,587,57,0.216375736963783,2
54,588,57,0.172965825694284,1
54,589,57,0.110624128963461,1
54,590,57,0.0742176144711019,1
55,586,57,0.0717163225701813,1
55,587,57,0.0845765629029082,1
55,588,57,0.0693049353681571,1
50,585,58,0.0723458500613706,1
50,586,58,0.0985393653084433,1
50,587,58,0.1207988688826,1
50,588,58,0.114080052379895,1
50,589,58,0.092529826470604,1
51,585,58,0.0956582163247403,1
51,586,58,0.162646221625001,1
51,587,58,0.214916764029025,2
51,588,58,0.196892694053803,1
51,589,58,0.140615560478371,1
51,590,58,0.0899570047259467,1
52,585,58,0.1230832478592,1
52,586,58,0.256791643672544,2
52,587,58,0.35061403152059,2
52,588,58,0.312001242979933,2
52,589,58,0.210827662917504,1
52,590,58,0.124118136684957,1
52,591,58,0.0712683204854019,1
53,585,58,0.125476036122465,1
53,586,58,0.287763205057817,2
53,587,58,0.393433718382866,2
53,588,58,0.339896820588669,2
53,589,58,0.23346022440628,2
53,590,58,0.15290416354876,1
53,591,58,0.0883724683152867,1
54,585,58,0.0907883784678588,1
54,586,58,0.208943851065831,1
54,587,58,0.279587220083023,2
54,588,58,0.235350499300718,2
54,589,58,0.170678168020808,1
54,590,58,0.131676158061683,1
54,591,58,0.0833480717441148,1
55,586,58,0.0958374773074077,1
55,587,58,0.124038846472353,1
55,588,58,0.104493425764594,1
55,589,58,0.0817224985500612,1
55,590,58,0.0717002062418274,1
58,576,58,0.0619563908784105,1
58,577,58,0.0736543744468084,1
59,576,58,0.0615113313651088,1
59,577,58,0.0729203237503235,1
50,587,59,0.1294918383092,1
50,588,59,0.126577560334391,1
51,585,59,0.101487544773083,1
51,586,59,0.17061627377185,1
51,587,59,0.216269804390586,2
51,588,59,0.209348711160769,2
51,589,59,0.156221166927374,1
51,590,59,0.106321841791695,1
52,584,59,0.0591646925294679,1
52,585,59,0.135411466551206,1
52,586,59,0.260378396529469,2
52,587,59,0.337168024864882,2
52,588,59,0.315387499984668,2
52,589,59,0.238140127824833,2
52,590,59,0.171630240265738,1
52,591,59,0.102412502902472,1
53,585,59,0.136888472318788,1
53,586,59,0.289539857773432,2
53,587,59,0.382570334180825,2
53,588,59,0.343094352027126,2
53,589,59,0.268251632767457,2
53,590,59,0.223207857210722,1
53,591,59,0.138647976742104,1
54,585,59,0.105078779301997,1
54,586,59,0.232854750520416,1
54,587,59,0.316514475375949,2
54,588,59,0.274882785407261,2
54,589,59,0.212824601605307,1
54,590,59,0.187505773101156,1
54,591,59,0.120685918954576,1
55,585,59,0.0588987878539707,1
55,586,59,0.115979738785512,1
55,587,59,0.161483145186453,1
55,588,59,0.140567913228792,1
55,589,59,0.103189931466272,1
55,590,59,0.0882005077404136,1
55,591,59,0.0574845019065033,1
56,587,59,0.0576150777787098,1
58,576,59,0.0801744818691837,1
58,577,59,0.0914993603474683,1
59,576,59,0.0798534703190186,1
59,577,59,0.0919920140379176,1
50,587,60,0.130931386734043,1
50,588,60,0.131784201738266,1
51,586,60,0.176006616551824,1
51,587,60,0.216272658508011,2
51,588,60,0.213656989620353,2
51,589,60,0.162808965287611,1
52,585,60,0.145158619580868,1
52,586,60,0.263730003133396,2
52,587,60,0.323897888453166,2
52,588,60,0.307492397904917,2
52,589,60,0.246703022618857,2
52,590,60,0.207591990091637,1
53,585,60,0.14734154765626,1
53,586,60,0.292147011484308,2
53,587,60,0.371549525353196,2
53,588,60,0.341708430345807,2
53,589,60,0.28979564330533,2
53,590,60,0.282728730621604,1
53,591,60,0.18677906998796,1
54,585,60,0.115501567971915,1
54,586,60,0.24849437050105,2
54,587,60,0.342948320283491,2
54,588,60,0.311283491416843,2
54,589,60,0.246514792395273,2
54,590,60,0.229675452410635,1
54,591,60,0.150939870303243,1
54,592,60,0.0614984170734531,1
55,585,60,0.0701169730542066,1
55,586,60,0.139859962374712,1
55,587,60,0.208032090281065,2
55,588,60,0.193728669010408,2
55,589,60,0.135820678585524,1
55,590,60,0.104942619030613,1
55,591,60,0.0658021136131211,1
56,586,60,0.0588993952384641,1
56,587,60,0.0867509522137714,1
56,588,60,0.085414364305964,1
56,589,60,0.0586700161896863,1
56,595,60,0.0592147044507154,1
58,576,60,0.0913420477636787,1
58,577,60,0.0847129177732072,1
59,576,60,0.088041160713418,1
59,577,60,0.0862520477702833,1
76,605,60,0.0576341543693519,1
76,606,60,0.0574987842875033,1
77,606,60,0.0575224958704931,1
77,607,60,0.0572128772022818,1
78,579,60,0.0711347607631599,1
50,587,61,0.118993769343722,1
50,588,61,0.12177150964319,1
51,586,61,0.161760749384619,1
51,587,61,0.198541324270858,1
51,588,61,0.195846471315459,1
51,589,61,0.155443585043217,1
52,585,61,0.140018589975415,1
52,586,61,0.241005402254592,1
52,587,61,0.292190318588381,2
52,588,61,0.276423702176196,2
52,589,61,0.234137994737668,2
52,590,61,0.217436973303293,1
53,585,61,0.146893498395986,1
53,586,61,0.27302892999468,2
53,587,61,0.344243216847916,2
53,588,61,0.325337401496388,2
53,589,61,0.2958201898474,2
53,590,61,0.305480905577021,2
53,591,61,0.213378607026526,1
54,585,61,0.115935806606135,1
54,586,61,0.236286980044671,2
54,587,61,0.331684392544272,2
54,588,61,0.321745412159559,2
54,589,61,0.26993214182501,2
54,590,61,0.24963207831736,1
55,586,61,0.150663504461811,1
55,587,61,0.231818375666578,2
55,588,61,0.234917263145758,2
55,589,61,0.17382309878275,1
59,577,61,0.0656942586385171,1
76,606,61,0.067669337381494,1
51,586,62,0.145606197086196,1
51,587,62,0.179328561563502,1
51,588,62,0.175703761670156,1
51,589,62,0.145239218913448,1
52,585,62,0.13193016271866,1
52,586,62,0.217123114737502,1
52,587,62,0.263852211252242,2
52,588,62,0.250459678019701,2
52,589,62,0.222893927881689,2
52,590,62,0.214212410306411,1
53,585,62,0.142822382941794,1
53,586,62,0.255144605628433,2
53,587,62,0.325033827188426,2
53,588,62,0.317713181106818,2
53,589,62,0.299827677353206,2
53,590,62,0.296866801783573,2
53,591,62,0.210256013861293,1
54,585,62,0.113920009514354,1
54,586,62,0.223538557428098,2
54,587,62,0.319115944439722,2
54,588,62,0.33077944861848,2
54,589,62,0.292267025942654,2
54,590,62,0.249742846378757,1
54,591,62,0.162419319289692,1
55,586,62,0.154026468566072,1
55,587,62,0.240598159797176,2
55,588,62,0.258598182064009,2
55,589,62,0.203155370698904,1
55,590,62,0.134728601266398,1
51,586,63,0.127015065871615,1
51,587,63,0.158432718734134,1
51,588,63,0.157337315542637,1
51,589,63,0.133684194784598,1
52,585,63,0.114999821204875,1
52,586,63,0.184292284551639,1
52,587,63,0.230752586891836,1
52,588,63,0.226960667808754,2
52,589,63,0.207954014837448,1
52,590,63,0.197572764190554,1
53,585,63,0.12791466717264,1
53,586,63,0.222271447230011,1
53,587,63,0.291362176367851,2
53,588,63,0.297657746126585,2
53,589,63,0.285211836369344,2
53,590,63,0.263226782132149,1
53,591,63,0.181485507735224,1
54,585,63,0.10876266650237,1
54,586,63,0.201394215133276,1
54,587,63,0.289638242267488,2
54,588,63,0.313408511572573,2
54,589,63,0.285989264933143,2
54,590,63,0.226899976534909,1
54,591,63,0.140268396013369,1
55,586,63,0.145908049488603,1
55,587,63,0.222617927650341,1
55,588,63,0.244534129253119,2
55,589,63,0.202279062298354,1
55,590,63,0.130381426611489,1
56,587,63,0.107502361369384,1
56,588,63,0.116828001354503,1
51,587,64,0.138887097530523,1
51,588,64,0.143969844291619,1
52,586,64,0.155393142645581,1
52,587,64,0.20583583512844,1
52,588,64,0.213565681450492,1
52,589,64,0.195490980375655,1
53,585,64,0.111201722131996,1
53,586,64,0.189563980962612,1
53,587,64,0.261690040394489,1
53,588,64,0.278180399657581,2
53,589,64,0.264499317512119,1
53,590,64,0.229520292208788,1
54,585,64,0.10296695649089,1
54,586,64,0.178003401919269,1
54,587,64,0.256998626155245,1
54,588,64,0.280472208774585,2
54,589,64,0.257348196570474,1
54,590,64,0.198350121991112,1
55,586,64,0.133624435226772,1
55,587,64,0.193711155108026,1
55,588,64,0.210154704486569,1
55,589,64,0.180853639160114,1
56,588,64,0.107277688076196,1
51,588,65,0.124527702535485,1
52,587,65,0.178336838315333,1
52,588,65,0.191343110391695,1
52,589,65,0.17201963859231,1
53,586,65,0.153574126335786,1
53,587,65,0.229472055265526,1
53,588,65,0.250748368459106,1
53,589,65,0.231295458896322,1
53,590,65,0.185114753918939,1
54,586,65,0.146054777070785,1
54,587,65,0.216738044762562,1
54,588,65,0.235987415653754,1
54,589,65,0.213503386209829,1
55,587,65,0.158470470923714,1
55,588,65,0.16945835125609,1
52,587,66,0.144428083458734,1
52,588,66,0.159398849276465,1
53,586,66,0.123179816096713,1
53,587,66,0.198620649865083,1
53,588,66,0.229316824300437,1
53,589,66,0.200198269168842,1
54,586,66,0.118162855562882,1
54,587,66,0.189339307669424,1
54,588,66,0.218142105421568,1
54,589,66,0.18726011850673,1
55,587,66,0.131109132203946,1
55,588,66,0.145993637629741,1
53,587,67,0.169250802667453,1
53,588,67,0.210842476022819,1
54,587,67,0.171783761119146,1
54,588,67,0.219394213812362,1
54,589,67,0.181586899667064,1
55,588,67,0.142752610385232,1
54,588,68,0.187600466112757,1
