x,y,z,signal,cytoplasm.p
853,292,25,0.061962653425323,1
853,293,25,0.0624249850665972,1
853,298,25,0.061449183547867,1
853,299,25,0.0577685691474341,1
854,289,25,0.0679924246534229,1
854,290,25,0.0644315180706204,1
854,291,25,0.0620648591344448,1
854,292,25,0.0634907738413392,1
854,297,25,0.057599751639891,1
855,288,25,0.107539217224566,1
855,289,25,0.118460497552394,1
855,290,25,0.10059913585816,1
856,287,25,0.100226107428225,1
856,288,25,0.144560752743514,1
856,289,25,0.158725631380309,1
856,290,25,0.125024590226577,1
857,287,25,0.097954277133198,1
857,288,25,0.138576930447187,1
857,289,25,0.145797328602701,1
869,300,25,0.061617488021906,1
848,295,26,0.0648616111582499,1
849,294,26,0.0681335147639956,1
849,295,26,0.0716061913779613,1
850,294,26,0.0621804508901686,1
850,295,26,0.0620714696006302,1
852,291,26,0.0606083747070284,1
852,292,26,0.0637824422338427,1
853,290,26,0.0574074230452103,1
853,291,26,0.0642206259188017,1
853,292,26,0.0662564549049919,1
853,293,26,0.0588782193383109,1
854,287,26,0.0624662282427798,1
854,288,26,0.0755011299474474,1
854,289,26,0.0786164580865072,1
854,290,26,0.0716356406804858,1
854,291,26,0.0649092348200816,1
854,292,26,0.0621309107238674,1
854,298,26,0.0655650980311496,1
854,299,26,0.060375115473817,1
855,286,26,0.0653981793372654,1
855,287,26,0.100770453666918,1
855,288,26,0.139766059552646,1
855,289,26,0.145890806845315,1
855,290,26,0.110949109152112,1
855,291,26,0.0723054796318387,1
855,298,26,0.0608444880576651,1
856,286,26,0.0758212451632145,1
856,287,26,0.132084261471877,1
856,288,26,0.191516114724387,1
856,289,26,0.199021075463525,1
856,290,26,0.140955341978463,1
856,291,26,0.077468112196158,1
857,286,26,0.0728911987793246,1
857,287,26,0.123198922172039,1
857,288,26,0.171588879150818,1
857,289,26,0.170451843585307,1
857,290,26,0.115223114614846,1
857,291,26,0.0639421548709217,1
858,286,26,0.0574708269099966,1
858,287,26,0.0860347633389419,1
858,288,26,0.110127925317041,1
858,289,26,0.104190016570864,1
858,290,26,0.0718661519411348,1
859,287,26,0.0594590912037233,1
859,288,26,0.064600524280142,1
859,289,26,0.0582412558097801,1
864,302,26,0.0713805509871331,1
864,303,26,0.0753151700445422,1
865,301,26,0.0688199182109014,1
866,301,26,0.0710594450859788,1
867,301,26,0.0765532437256828,1
877,297,26,0.057039737240043,1
881,283,26,0.0676490460218651,1
882,284,26,0.0583371400026211,1
848,294,27,0.0621091274392207,1
848,295,27,0.0725595963306146,1
848,296,27,0.058263858768646,1
849,294,27,0.0658095260627153,1
849,295,27,0.0728537650243336,1
849,296,27,0.0575838417043261,1
850,294,27,0.0578228917295036,1
850,295,27,0.0577114750050549,1
851,291,27,0.059288245149911,1
851,292,27,0.0663596454025641,1
851,293,27,0.0610871588020557,1
852,290,27,0.0591527807170732,1
852,291,27,0.0678461806200615,1
852,292,27,0.0693335237179045,1
852,293,27,0.0585102150985548,1
853,289,27,0.0579738474153915,1
853,290,27,0.0641007647808137,1
853,291,27,0.0669691468962818,1
853,292,27,0.0631104685913577,1
854,287,27,0.0689420496695687,1
854,288,27,0.0820012644447826,1
854,289,27,0.0843937460673328,1
854,290,27,0.0750859914916165,1
854,291,27,0.0654527849723028,1
854,292,27,0.0576905998486799,1
855,287,27,0.118356581731592,1
855,288,27,0.153170492803709,1
855,289,27,0.149028696664683,1
855,290,27,0.105173778954314,1
855,291,27,0.0682805312960816,1
856,286,27,0.0961240153648699,1
856,287,27,0.159535953057741,1
856,288,27,0.211778933179025,1
856,289,27,0.202187046496073,1
856,290,27,0.132057583729663,1
856,291,27,0.0733492138628399,1
857,285,27,0.063014089055823,1
857,286,27,0.0923686219085073,1
857,287,27,0.14432374305848,1
857,288,27,0.181947084568584,1
857,289,27,0.165445863147853,1
857,290,27,0.105000397217665,1
857,291,27,0.0609492589343075,1
858,286,27,0.0713656730155133,1
858,287,27,0.0972205330774283,1
858,288,27,0.11313334634748,1
858,289,27,0.0995606852825572,1
858,290,27,0.0679348646530341,1
859,286,27,0.0581117295923292,1
859,287,27,0.0665671350218323,1
859,288,27,0.0667634086672517,1
859,289,27,0.0573607075116502,1
860,286,27,0.0578599893590954,1
860,287,27,0.0614055815969528,1
862,305,27,0.0681383915307533,1
863,305,27,0.0739510729264271,1
864,302,27,0.0570228425160276,1
864,303,27,0.0619524812092929,1
864,304,27,0.0645902341253753,1
865,301,27,0.0571260448074735,1
865,302,27,0.0791521299311247,1
865,303,27,0.0854197776939731,1
866,301,27,0.0585804476161892,1
866,302,27,0.0791520768586933,1
866,303,27,0.08551369820685,1
867,301,27,0.0616719521304595,1
867,302,27,0.0763991980448965,1
868,301,27,0.0680213137469486,1
869,301,27,0.0680134767179027,1
881,282,27,0.0753679358352888,1
881,283,27,0.0741681391711058,1
882,283,27,0.0817630046091402,1
882,284,27,0.0597565798728771,1
848,294,28,0.0579591699396239,1
848,295,28,0.0695386899440621,1
848,296,28,0.0594112906337867,1
849,295,28,0.0646220716873155,1
851,291,28,0.0649736293702553,1
851,292,28,0.0693887013558143,1
851,293,28,0.0590624809234094,1
852,289,28,0.0589187136035162,1
852,290,28,0.0678984569650514,1
852,291,28,0.0735015612258194,1
852,292,28,0.0712263696767997,1
853,288,28,0.0630539995242823,1
853,289,28,0.0700712599999075,1
853,290,28,0.0724448773215415,1
853,291,28,0.0686947026542726,1
853,292,28,0.0603355293368833,1
854,286,28,0.0626981547682678,1
854,287,28,0.0765815018469678,1
854,288,28,0.0879535204382641,1
854,289,28,0.0884351114752221,1
854,290,28,0.0780083659606917,1
854,291,28,0.0651693074250549,1
855,286,28,0.0955030738137038,1
855,287,28,0.128445120228163,1
855,288,28,0.147371574858594,1
855,289,28,0.132222108267194,1
855,290,28,0.0930757412944937,1
855,291,28,0.0655733891243313,1
856,286,28,0.127280074212714,1
856,287,28,0.177486912810156,1
856,288,28,0.203250759549051,1
856,289,28,0.17196905466819,1
856,290,28,0.107736847165456,1
856,291,28,0.0667881816988707,1
857,285,28,0.0961202590161098,1
857,286,28,0.126843370658899,1
857,287,28,0.163177783304649,1
857,288,28,0.175311568195527,1
857,289,28,0.140648536149119,1
857,290,28,0.0860210706516247,1
858,284,28,0.0712304444601486,1
858,285,28,0.0850509537799978,1
858,286,28,0.0987310688278201,1
858,287,28,0.110337042490874,1
858,288,28,0.110088781450369,1
858,289,28,0.0889167084091168,1
858,290,28,0.0615735558425293,1
859,284,28,0.060457472093572,1
859,285,28,0.0685666919495868,1
859,286,28,0.0741066459138521,1
859,287,28,0.0738971218513778,1
859,288,28,0.067487505334369,1
860,285,28,0.0607835550094101,1
860,286,28,0.0655700632519597,1
860,287,28,0.0628470406293287,1
861,285,28,0.0576381996680166,1
861,286,28,0.0596590209499767,1
862,305,28,0.0598867606503161,1
863,305,28,0.0608553738030516,1
863,306,28,0.0707108771500114,1
864,305,28,0.0636911576517284,1
865,302,28,0.0585563586292424,1
865,303,28,0.0625147777236937,1
865,304,28,0.0620273723070223,1
866,302,28,0.0626941861297819,1
866,303,28,0.0674680041642753,1
867,302,28,0.0618731379242575,1
868,302,28,0.0662393302004402,1
869,301,28,0.0580606149438947,1
881,282,28,0.0695136633441595,1
881,283,28,0.0675848224828595,1
882,283,28,0.0703243329408647,1
848,295,29,0.0585484803216388,1
851,290,29,0.0607448003405693,1
851,291,29,0.0675486978478445,1
851,292,29,0.0659819289078505,1
852,288,29,0.0631774165151783,1
852,289,29,0.0691171945903294,1
852,290,29,0.0750629167778043,1
852,291,29,0.0762505303704984,1
852,292,29,0.069423835305442,1
853,287,29,0.0628755759066446,1
853,288,29,0.0803878153528496,1
853,289,29,0.0838522834307492,1
853,290,29,0.0788444218704461,1
853,291,29,0.0705033285613748,1
853,292,29,0.0602961083141809,1
854,286,29,0.0667269420099006,1
854,287,29,0.0819275822191032,1
854,288,29,0.0952500716359886,1
854,289,29,0.091534700689885,1
854,290,29,0.0776299772151796,1
854,291,29,0.0625272143634662,1
855,286,29,0.109131307611304,1
855,287,29,0.127081111564101,1
855,288,29,0.131010959999615,1
855,289,29,0.110102509519307,1
855,290,29,0.0811211643138518,1
855,291,29,0.0603048298837511,1
856,285,29,0.126041729272479,1
856,286,29,0.157177838783031,1
856,287,29,0.179318041428198,1
856,288,29,0.173331011198236,1
856,289,29,0.13074393490612,1
856,290,29,0.084665311802186,1
856,291,29,0.0586284663727885,1
857,284,29,0.110957305894304,1
857,285,29,0.143559299549578,1
857,286,29,0.16593625241456,1
857,287,29,0.174614774345928,1
857,288,29,0.156459025771312,1
857,289,29,0.112064101967756,1
857,290,29,0.0712046394645846,1
858,283,29,0.0779139383112475,1
858,284,29,0.107535561123732,1
858,285,29,0.12745202889065,1
858,286,29,0.130995557200617,1
858,287,29,0.122609865358308,1
858,288,29,0.10399488693119,1
858,289,29,0.078420491081803,1
859,283,29,0.0679942527038399,1
859,284,29,0.0866852839252427,1
859,285,29,0.0960232779930186,1
859,286,29,0.0925583145724254,1
859,287,29,0.0801958523682523,1
859,288,29,0.0668676900981373,1
860,283,29,0.0576270013849782,1
860,284,29,0.0704454973018919,1
860,285,29,0.0770663479930554,1
860,286,29,0.0738021104051875,1
860,287,29,0.0616660728844409,1
861,284,29,0.063634517573485,1
861,285,29,0.0707313336238715,1
861,286,29,0.0668904050988029,1
861,305,29,0.0640626823627714,1
862,306,29,0.0671323682107741,1
863,306,29,0.0612790628172847,1
881,281,29,0.0574718588739417,1
881,282,29,0.0612948135355552,1
881,283,29,0.0585048547829772,1
882,283,29,0.059426876237826,1
884,287,29,0.0595557832769099,1
851,290,30,0.0614221519894425,1
851,291,30,0.0659453325178892,1
851,292,30,0.0589257840307743,1
852,288,30,0.068582312935247,1
852,289,30,0.0722257176642884,1
852,290,30,0.0753707958496509,1
852,291,30,0.0742327990834367,1
852,292,30,0.0634324059606049,1
853,287,30,0.066830680922598,1
853,288,30,0.090577904998555,1
853,289,30,0.0886525079483632,1
853,290,30,0.0767115528917965,1
853,291,30,0.0668717884692335,1
854,286,30,0.0646538031043929,1
854,287,30,0.0817735424352538,1
854,288,30,0.0987385520406562,1
854,289,30,0.0901287707019044,1
854,290,30,0.0704161305564831,1
855,285,30,0.0985196813333078,1
855,286,30,0.11301754230203,1
855,287,30,0.118813582541972,1
855,288,30,0.115216333137492,1
855,289,30,0.0932766912108185,1
855,290,30,0.0684903325145869,1
856,284,30,0.124682449951754,1
856,285,30,0.160999832243941,1
856,286,30,0.177117398954572,1
856,287,30,0.168268443754969,1
856,288,30,0.14028803281301,1
856,289,30,0.0989906166054156,1
856,290,30,0.0678243678507307,1
857,284,30,0.160176183489275,1
857,285,30,0.198547315558676,1
857,286,30,0.20294551051103,1
857,287,30,0.175850560015579,1
857,288,30,0.134699517573957,1
857,289,30,0.0895110075996891,1
857,290,30,0.0607477900875417,1
858,283,30,0.106987075235384,1
858,284,30,0.154781795410636,1
858,285,30,0.177686689236052,1
858,286,30,0.164985548258974,1
858,287,30,0.131094236541515,1
858,288,30,0.0988309098652734,1
858,289,30,0.0694982605451619,1
859,282,30,0.0620831986079832,1
859,283,30,0.086943870502135,1
859,284,30,0.116971627147912,1
859,285,30,0.126254632279757,1
859,286,30,0.111124908632861,1
859,287,30,0.0843296050854428,1
859,288,30,0.065901760051659,1
860,283,30,0.0669022343540821,1
860,284,30,0.0850530589864458,1
860,285,30,0.0917759384786262,1
860,286,30,0.0811346506083799,1
860,287,30,0.0604818972059181,1
861,283,30,0.0571204014389281,1
861,284,30,0.0741371802527531,1
861,285,30,0.0825352025899724,1
861,286,30,0.0736821077407156,1
861,305,30,0.0634476141606871,1
862,284,30,0.0593689329365434,1
862,285,30,0.0629148612998,1
884,285,30,0.0627707873391917,1
884,286,30,0.0648692830730646,1
884,287,30,0.0576233099025232,1
885,280,30,0.0636556462981437,1
885,281,30,0.0604145659812036,1
885,287,30,0.0658692561358571,1
886,279,30,0.0578427703035545,1
886,280,30,0.0721583746457002,1
886,281,30,0.0662356210271747,1
887,280,30,0.0683557762100208,1
887,281,30,0.0627781172316703,1
851,290,31,0.0577929883628433,1
851,291,31,0.0600571408461189,1
852,288,31,0.0678106987511609,1
852,289,31,0.0695787065573843,1
852,290,31,0.0689019917776887,1
852,291,31,0.0651924057266144,1
853,287,31,0.067592983843431,1
853,288,31,0.0901201198955761,1
853,289,31,0.0846982167096923,1
853,290,31,0.0695170658767099,1
853,291,31,0.0584197324998493,1
854,286,31,0.0635950611691616,1
854,287,31,0.0793366686722542,1
854,288,31,0.0959415700363147,1
854,289,31,0.0847603114545026,1
854,290,31,0.0633426722728766,1
855,284,31,0.0822284970085547,1
855,285,31,0.10061670872991,1
855,286,31,0.108479578152953,1
855,287,31,0.10641509595071,1
855,288,31,0.102340489509915,1
855,289,31,0.0831406410942148,1
855,290,31,0.061038084493764,1
856,283,31,0.097044544894701,1
856,284,31,0.142523219542581,1
856,285,31,0.175281706107424,1
856,286,31,0.175300658862393,1
856,287,31,0.145092220072173,1
856,288,31,0.1123731014576,1
856,289,31,0.0808524055209293,1
856,290,31,0.0590214205522684,1
857,283,31,0.130031266502578,1
857,284,31,0.192850544353315,1
857,285,31,0.229603745658793,1
857,286,31,0.215812862549573,1
857,287,31,0.161797817529527,1
857,288,31,0.113393743283979,1
857,289,31,0.0758112793399733,1
858,282,31,0.0823139907987028,1
858,283,31,0.13509865764017,1
858,284,31,0.192686184930015,1
858,285,31,0.216598735526912,1
858,286,31,0.18939545830191,1
858,287,31,0.134285564402428,1
858,288,31,0.0944647588676485,1
858,289,31,0.0646044457431334,1
859,282,31,0.0732652414823937,1
859,283,31,0.110687273363027,1
859,284,31,0.148492889190519,1
859,285,31,0.158120723600381,1
859,286,31,0.131927851119423,1
859,287,31,0.0908319981095836,1
859,288,31,0.0664902507594547,1
860,282,31,0.0586020716835415,1
860,283,31,0.0807457358306279,1
860,284,31,0.102715853126834,1
860,285,31,0.109690679245037,1
860,286,31,0.0924917322586881,1
860,287,31,0.0641012129480127,1
861,283,31,0.0638049685325298,1
861,284,31,0.0814527431748145,1
861,285,31,0.0893657188700941,1
861,286,31,0.0771141013874973,1
861,305,31,0.0580860189477544,1
862,284,31,0.0610937928559884,1
862,285,31,0.0634980683521968,1
879,279,31,0.0580475709196287,1
880,278,31,0.058242051896252,1
880,279,31,0.0643845194840926,1
880,280,31,0.0617619393864714,1
881,278,31,0.0632101975870112,1
881,279,31,0.0673010677795806,1
881,280,31,0.0639765045279511,1
881,281,31,0.0574433294935626,1
882,277,31,0.0584053380770495,1
882,278,31,0.0627938502591303,1
882,279,31,0.0615167624439284,1
882,280,31,0.0593950327789489,1
883,278,31,0.0582765489767022,1
883,281,31,0.0587769276543976,1
884,280,31,0.0627542582252598,1
884,281,31,0.0613161014775082,1
884,282,31,0.057878635473349,1
884,285,31,0.0613493602012242,1
884,286,31,0.0636212848472406,1
885,279,31,0.0683350956525612,1
885,280,31,0.0823210671228977,1
885,281,31,0.0729456275062571,1
885,282,31,0.0600551830630917,1
885,283,31,0.0615668923039125,1
885,284,31,0.0712079948216403,1
885,285,31,0.0799757256133593,1
885,286,31,0.080469918404321,1
885,287,31,0.0652167011063503,1
886,279,31,0.0736805568463295,1
886,280,31,0.0920941902623552,1
886,281,31,0.0787890378397473,1
886,282,31,0.0661855619304326,1
886,286,31,0.0850671408715937,1
887,279,31,0.0621036727726538,1
887,280,31,0.0771151746300002,1
887,281,31,0.0682048087302593,1
852,288,32,0.0603183810445843,1
852,289,32,0.0621725843764386,1
852,290,32,0.0615144095661336,1
853,287,32,0.0621439901297543,1
853,288,32,0.0785510374693253,1
853,289,32,0.0742862666096661,1
853,290,32,0.0622899157285269,1
854,285,32,0.0587736253697733,1
854,286,32,0.0658706478129488,1
854,287,32,0.0754141206445342,1
854,288,32,0.0870118268021534,1
854,289,32,0.0769843569833838,1
854,290,32,0.0588230652881484,1
855,284,32,0.0876101477036432,1
855,285,32,0.107216395314794,1
855,286,32,0.108724819961801,1
855,287,32,0.0978163595746393,1
855,288,32,0.0920363236212514,1
855,289,32,0.0759279325443263,1
855,290,32,0.0568570560340147,1
856,283,32,0.103868786834037,1
856,284,32,0.154957134930312,1
856,285,32,0.188153268558863,1
856,286,32,0.17504953191059,1
856,287,32,0.129529448972296,1
856,288,32,0.0947547466331557,1
856,289,32,0.0708705544054694,1
857,282,32,0.0835608980912134,1
857,283,32,0.146418441165035,1
857,284,32,0.216443952729022,1
857,285,32,0.25450334912989,1
857,286,32,0.224080438747196,1
857,287,32,0.148638284064977,1
857,288,32,0.0944891721861209,1
857,289,32,0.0652799988262737,1
858,282,32,0.0913721044506966,1
858,283,32,0.157502583094209,1
858,284,32,0.22599536283758,1
858,285,32,0.255390224841238,1
858,286,32,0.213025687151179,1
858,287,32,0.134954465740826,1
858,288,32,0.0850844955566817,1
858,289,32,0.0584295921782275,1
859,282,32,0.0822174343550633,1
859,283,32,0.132565168464163,1
859,284,32,0.181151965194297,1
859,285,32,0.195322658210805,1
859,286,32,0.157041088817964,1
859,287,32,0.0985750122915751,1
859,288,32,0.0662123104358893,1
860,282,32,0.0637892237111961,1
860,283,32,0.0927722849252688,1
860,284,32,0.120116699436338,1
860,285,32,0.127967480138881,1
860,286,32,0.104817261947501,1
860,287,32,0.0694688584181321,1
861,283,32,0.0663729253043032,1
861,284,32,0.0812936850977236,1
861,285,32,0.0863924184545629,1
861,286,32,0.0738128369332796,1
861,306,32,0.0696644775035634,1
878,278,32,0.0586848823674324,1
878,279,32,0.0591476503820319,1
879,278,32,0.0611093017998489,1
879,279,32,0.0681922128731924,1
879,280,32,0.0631206938798193,1
880,278,32,0.0629252988779875,1
880,279,32,0.0741773560833697,1
880,280,32,0.0705317223122069,1
880,281,32,0.0593602231608468,1
881,277,32,0.0568782673157889,1
881,278,32,0.0654744562151497,1
881,279,32,0.0730813514043154,1
881,280,32,0.0691753265935906,1
881,281,32,0.0590887458800461,1
882,277,32,0.058316370991109,1
882,278,32,0.0630581214831258,1
882,279,32,0.0632004912289905,1
882,280,32,0.0608611174195231,1
882,281,32,0.0574519920937645,1
883,278,32,0.0576370851469559,1
883,281,32,0.0581936085602011,1
884,280,32,0.0650880535324869,1
884,281,32,0.0611038176485979,1
884,282,32,0.0568505811973763,1
884,285,32,0.0591482695603989,1
884,286,32,0.0603907305625404,1
885,279,32,0.0767874582626605,1
885,280,32,0.090522184842457,1
885,281,32,0.0753645863751699,1
885,282,32,0.0589297467723234,1
885,283,32,0.0587561409520751,1
885,284,32,0.0692531543658609,1
885,285,32,0.0793610878876635,1
885,286,32,0.0783593811254431,1
885,287,32,0.0627764955740423,1
886,279,32,0.0800354910681221,1
886,280,32,0.0974185168345281,1
886,281,32,0.0790234528725772,1
886,282,32,0.0611704294470192,1
886,283,32,0.0724467407535795,1
886,284,32,0.0930520415053776,1
886,285,32,0.0892292696488058,1
886,286,32,0.0765263713845526,1
886,287,32,0.0590321058018027,1
887,280,32,0.0736011663857995,1
887,281,32,0.0636578694433282,1
887,286,32,0.0690688515022046,1
853,287,33,0.057984733160778,1
853,288,33,0.0660429975856525,1
853,289,33,0.0633733009627669,1
854,285,33,0.0666532597842212,1
854,286,33,0.0710227661389018,1
854,287,33,0.0734232322139186,1
854,288,33,0.075239441581783,1
854,289,33,0.0676823401272021,1
855,284,33,0.0936652403784871,1
855,285,33,0.114678037155986,1
855,286,33,0.11391129384172,1
855,287,33,0.0972200790132925,1
855,288,33,0.0821115194726761,1
855,289,33,0.0669040918891833,1
856,283,33,0.110317948209421,1
856,284,33,0.160112626304131,1
856,285,33,0.187443548623735,1
856,286,33,0.171568192696422,1
856,287,33,0.125078063649743,1
856,288,33,0.0854578365242681,1
856,289,33,0.0623177433734234,1
857,282,33,0.0862979023510663,1
857,283,33,0.157066103623993,1
857,284,33,0.224593259961601,1
857,285,33,0.250403798646309,1
857,286,33,0.21278695556059,1
857,287,33,0.136703072624881,1
857,288,33,0.0822240860998066,1
858,282,33,0.0931782359535201,1
858,283,33,0.16692378883758,1
858,284,33,0.235372530256711,1
858,285,33,0.25552995865634,1
858,286,33,0.203704517044176,1
858,287,33,0.121324781296766,1
858,288,33,0.0728036410612863,1
859,282,33,0.0826754612324522,1
859,283,33,0.137365322218535,1
859,284,33,0.188128572187423,1
859,285,33,0.200019639158416,1
859,286,33,0.154639867935033,1
859,287,33,0.092335404463349,1
859,288,33,0.0621467911747481,1
860,282,33,0.0653235948802511,1
860,283,33,0.0946217353260388,1
860,284,33,0.120568098156731,1
860,285,33,0.125748132581633,1
860,286,33,0.0994383120494799,1
860,287,33,0.0662487417116194,1
860,306,33,0.0579274267286729,1
861,283,33,0.0652100552585439,1
861,284,33,0.0728938700917082,1
861,285,33,0.0731470491775283,1
861,286,33,0.0618821484437323,1
861,307,33,0.0635379729237192,1
877,278,33,0.0616754902925569,1
877,279,33,0.0568969841932844,1
878,277,33,0.056901206400054,1
878,278,33,0.0661481635570625,1
878,279,33,0.0680037231843874,1
878,280,33,0.0595700007916048,1
879,278,33,0.0657700873492024,1
879,279,33,0.0761904582750205,1
879,280,33,0.0713436066778988,1
880,278,33,0.0649763891366913,1
880,279,33,0.0774384211192235,1
880,280,33,0.0738566275861724,1
880,281,33,0.0586898416913056,1
881,277,33,0.0578605436711574,1
881,278,33,0.0641355095326107,1
881,279,33,0.0701355955807129,1
881,280,33,0.0664891185475835,1
881,281,33,0.0568483698460654,1
882,278,33,0.0595024926587854,1
882,279,33,0.0592023031925639,1
882,280,33,0.0573423798319854,1
884,280,33,0.060036230308123,1
884,281,33,0.0570127056816184,1
884,283,33,0.0574001992975946,1
884,284,33,0.0576208921584232,1
885,279,33,0.069683400773848,1
885,280,33,0.0794010809132383,1
885,281,33,0.0667856224282869,1
885,283,33,0.0573551349063467,1
885,284,33,0.0644597585010949,1
885,285,33,0.0684246111536267,1
885,286,33,0.0645333168911009,1
886,279,33,0.0704198279358749,1
886,280,33,0.0819196154574471,1
886,281,33,0.0667797313883946,1
886,283,33,0.0596816769812741,1
886,284,33,0.0726567601587474,1
886,285,33,0.0709266578624614,1
886,286,33,0.0613595383141912,1
887,283,33,0.068298009816843,1
887,286,33,0.0581199676130794,1
889,288,33,0.0588052624358614,1
854,284,34,0.0569808209441836,1
854,285,34,0.0723936329404967,1
854,286,34,0.0787647483569483,1
854,287,34,0.0739332700741401,1
854,288,34,0.0651316554834012,1
854,289,34,0.0573294006740246,1
855,283,34,0.065934092956293,1
855,284,34,0.0981109646416837,1
855,285,34,0.125668830575155,1
855,286,34,0.132266736285117,1
855,287,34,0.109319007110574,1
855,288,34,0.0771071724867232,1
856,282,34,0.0616404153122975,1
856,283,34,0.112175660218689,1
856,284,34,0.16506745671153,1
856,285,34,0.190900368374567,1
856,286,34,0.182540045154496,1
856,287,34,0.137138714730067,1
856,288,34,0.0837851055263922,1
857,282,34,0.0816549432417471,1
857,283,34,0.158516278329002,1
857,284,34,0.225580878941737,1
857,285,34,0.237685049415859,1
857,286,34,0.199139580306043,1
857,287,34,0.131111502772551,1
857,288,34,0.0745538696029701,1
858,282,34,0.0844674872623806,1
858,283,34,0.158383573662601,1
858,284,34,0.220700031503795,1
858,285,34,0.225219443889608,1
858,286,34,0.169598792703612,1
858,287,34,0.0998275924373153,1
858,288,34,0.0590665144282005,1
859,282,34,0.0715060436997929,1
859,283,34,0.119236121653524,1
859,284,34,0.161793064598443,1
859,285,34,0.167743333324213,1
859,286,34,0.12385719723027,1
859,287,34,0.0749855194819225,1
860,282,34,0.0587443234906696,1
860,283,34,0.0809720779569388,1
860,284,34,0.0991003468059312,1
860,285,34,0.101725804608725,1
860,286,34,0.0787826101786036,1
860,287,34,0.0571914536307817,1
861,284,34,0.057674619149873,1
861,310,34,0.0741910900492446,1
862,310,34,0.0644056128271302,1
877,277,34,0.0582132984322734,1
877,278,34,0.0655297694826065,1
877,279,34,0.061987220064153,1
878,278,34,0.0672226856952484,1
878,279,34,0.0713799023240819,1
878,280,34,0.063513276552279,1
879,278,34,0.066202279746343,1
879,279,34,0.0764115934061113,1
879,280,34,0.0710054940109294,1
880,278,34,0.0637995197628997,1
880,279,34,0.0717419978331352,1
880,280,34,0.0666894198008571,1
881,277,34,0.0570027634461246,1
881,278,34,0.0609580984426143,1
881,279,34,0.061947645721093,1
881,280,34,0.0571372430905119,1
883,283,34,0.0569118090924727,1
884,283,34,0.0586618017566833,1
884,284,34,0.0576374212723552,1
885,279,34,0.0571907577922359,1
885,280,34,0.0629371635148876,1
885,281,34,0.0570831504889787,1
885,284,34,0.0568707192366477,1
886,280,34,0.0620134555361056,1
887,284,34,0.0606699682122082,1
888,283,34,0.0578474701622073,1
888,287,34,0.0569255548522213,1
854,284,35,0.058098626598695,1
854,285,35,0.073828487403624,1
854,286,35,0.081827770666334,1
854,287,35,0.0736142045131286,1
854,288,35,0.0598885533191121,1
855,283,35,0.0655065237576263,1
855,284,35,0.100115245015838,1
855,285,35,0.126245928400997,1
855,286,35,0.135840822521732,1
855,287,35,0.111006274057733,1
855,288,35,0.0715148773111629,1
856,282,35,0.0574118752325162,1
856,283,35,0.108134241738368,1
856,284,35,0.163192372326364,1
856,285,35,0.184250770116362,1
856,286,35,0.179224020667395,1
856,287,35,0.136515420301106,1
856,288,35,0.0776339576475392,1
857,282,35,0.0733021739977543,1
857,283,35,0.146782718540715,1
857,284,35,0.211366383478462,1
857,285,35,0.212424459059832,1
857,286,35,0.176168581818772,1
857,287,35,0.120045346500706,1
857,288,35,0.0665790822158481,1
858,282,35,0.0717208514176661,1
858,283,35,0.135087288345964,1
858,284,35,0.187750330865332,1
858,285,35,0.181512586469144,1
858,286,35,0.134058862562971,1
858,287,35,0.0840450778834394,1
859,282,35,0.0595782918847865,1
859,283,35,0.0946578776518643,1
859,284,35,0.125179939130403,1
859,285,35,0.124898525511045,1
859,286,35,0.0924358646791694,1
859,287,35,0.0615030520658008,1
860,283,35,0.0645136447098391,1
860,284,35,0.0744684465760639,1
860,285,35,0.074053549894643,1
860,286,35,0.0588692265096465,1
860,310,35,0.0790700563643375,1
861,309,35,0.0684134954277039,1
861,310,35,0.0810045995635512,1
861,311,35,0.0721283710311138,1
862,309,35,0.0583959737413649,1
862,310,35,0.0644658736245867,1
862,311,35,0.0589124628504774,1
877,277,35,0.0571620043282573,1
877,278,35,0.0628055438848624,1
877,279,35,0.0614257432239714,1
878,278,35,0.0643798078315661,1
878,279,35,0.0676116535454318,1
878,280,35,0.0605703040828598,1
879,277,35,0.0573632785761077,1
879,278,35,0.0647092520013968,1
879,279,35,0.0695850162797914,1
879,280,35,0.0631545953696497,1
880,277,35,0.0572345366512551,1
880,278,35,0.0610289914171736,1
880,279,35,0.0624744072941618,1
880,280,35,0.0568488062193908,1
881,278,35,0.0575222658899567,1
887,286,35,0.0580734407814979,1
888,287,35,0.0581091231462507,1
889,279,35,0.0602713411794987,1
854,284,36,0.0605280702212899,1
854,285,36,0.0762320080919182,1
854,286,36,0.0844236907125509,1
854,287,36,0.0745018586201375,1
854,288,36,0.0573747422213035,1
855,283,36,0.0671485435084963,1
855,284,36,0.105136675427785,1
855,285,36,0.12812828960621,1
855,286,36,0.134502324006392,1
855,287,36,0.106376105404396,1
855,288,36,0.0652124906934543,1
856,283,36,0.104873955098176,1
856,284,36,0.163546294680972,1
856,285,36,0.182920598075825,1
856,286,36,0.173954635855659,1
856,287,36,0.126563124633034,1
856,288,36,0.0673859600821722,1
857,282,36,0.0647964441093517,1
857,283,36,0.127824444039155,1
857,284,36,0.187777386011503,1
857,285,36,0.18799447584393,1
857,286,36,0.155857514626998,1
857,287,36,0.104758740746409,1
858,282,36,0.0599049585973706,1
858,283,36,0.106630404908214,1
858,284,36,0.147034918735021,1
858,285,36,0.139541162175858,1
858,286,36,0.106833872816565,1
858,287,36,0.0720023240063921,1
859,283,36,0.0716634801192559,1
859,284,36,0.0896461653918118,1
859,285,36,0.0857570412020392,1
859,286,36,0.0682428498697437,1
860,310,36,0.078659317023381,1
861,309,36,0.0667800911015412,1
861,310,36,0.0812120596981353,1
861,311,36,0.0739360475313866,1
862,309,36,0.0569754193500481,1
862,310,36,0.0641726720285076,1
862,311,36,0.0600481303266441,1
877,278,36,0.0572975690090212,1
878,277,36,0.0576093223683646,1
878,278,36,0.0612031515494838,1
878,279,36,0.060224094921624,1
879,277,36,0.0590186548888956,1
879,278,36,0.0620116569703728,1
879,279,36,0.0592426559312853,1
880,277,36,0.0569532645583812,1
880,278,36,0.0576926873643174,1
887,286,36,0.0569464653902173,1
889,278,36,0.0581898286236936,1
889,279,36,0.0621088502831898,1
890,279,36,0.0577379227667333,1
842,298,37,0.080618037663594,1
846,301,37,0.0578454711006222,1
853,286,37,0.05805487722436,1
854,284,37,0.0617405629904659,1
854,285,37,0.0765424287435383,1
854,286,37,0.0841902250865505,1
854,287,37,0.0752211964592338,1
855,283,37,0.0664289815858005,1
855,284,37,0.104620587310377,1
855,285,37,0.124915791742081,1
855,286,37,0.125370775800066,1
855,287,37,0.0957987285355038,1
855,288,37,0.0596313230376905,1
856,283,37,0.097095058055579,1
856,284,37,0.15477890591159,1
856,285,37,0.174446216303606,1
856,286,37,0.158306547873739,1
856,287,37,0.106895625539039,1
856,288,37,0.0575274787821137,1
857,283,37,0.103062663775627,1
857,284,37,0.153819261999771,1
857,285,37,0.160200750128105,1
857,286,37,0.134126700924253,1
857,287,37,0.0874815649960849,1
858,283,37,0.0804553411764795,1
858,284,37,0.108046825546814,1
858,285,37,0.106338919320752,1
858,286,37,0.0887457149318838,1
858,287,37,0.0653728284058372,1
859,284,37,0.0644714285390797,1
859,285,37,0.0621130783868962,1
860,310,37,0.0688906932467242,1
861,309,37,0.0602703092155536,1
861,310,37,0.071215802366002,1
861,311,37,0.0680913988411623,1
862,310,37,0.0606296449581709,1
862,311,37,0.0581498650828029,1
874,277,37,0.0569592322584523,1
875,277,37,0.0578637751925397,1
878,277,37,0.058343662014754,1
878,278,37,0.0597937187810267,1
879,277,37,0.058558581774427,1
879,278,37,0.0597724780145684,1
888,284,37,0.0672914557725492,1
888,286,37,0.0801752779556556,1
889,279,37,0.0598178018710367,1
889,287,37,0.0638860750016771,1
890,284,37,0.0603343381556438,1
894,297,37,0.056903346988123,1
895,297,37,0.0601717301225817,1
842,298,38,0.0827547455481193,1
843,301,38,0.110603890676264,1
843,302,38,0.0822055343365422,1
844,301,38,0.0775434868427074,1
844,302,38,0.0696721376245044,1
845,301,38,0.0658333319966943,1
846,302,38,0.0573955407174996,1
854,284,38,0.0609962162422775,1
854,285,38,0.073622920185762,1
854,286,38,0.0783607256270402,1
854,287,38,0.071219735622867,1
855,283,38,0.063479257123712,1
855,284,38,0.0987409167123247,1
855,285,38,0.118309158565612,1
855,286,38,0.111091496588787,1
855,287,38,0.0825007408911432,1
856,283,38,0.0848372428923749,1
856,284,38,0.13701998580395,1
856,285,38,0.160137582140792,1
856,286,38,0.136309086481456,1
856,287,38,0.0851254615768334,1
857,283,38,0.0780419667067438,1
857,284,38,0.117792280258669,1
857,285,38,0.132468659196018,1
857,286,38,0.111044556971628,1
857,287,38,0.070303481372237,1
858,283,38,0.0578652966022416,1
858,284,38,0.0749283840609855,1
858,285,38,0.0792641540400669,1
858,286,38,0.0725874534601952,1
858,287,38,0.0576519159430811,1
861,310,38,0.0606380186084682,1
862,310,38,0.0601074888927657,1
863,310,38,0.0575786641937901,1
874,277,38,0.0624342904329135,1
874,278,38,0.0606953486283206,1
875,277,38,0.0625584327470394,1
875,278,38,0.0609620847719107,1
878,277,38,0.0571294945155185,1
878,278,38,0.057758668190498,1
879,278,38,0.0582227040465158,1
888,285,38,0.0757393072259743,1
888,286,38,0.0698082919989512,1
889,284,38,0.0607542708211168,1
889,286,38,0.0817551911678416,1
889,287,38,0.0585639656777519,1
890,285,38,0.0662647872767314,1
890,286,38,0.0702472010071402,1
895,297,38,0.0573120695766839,1
842,298,39,0.0828659558797791,1
842,301,39,0.114472387381008,1
843,299,39,0.0921481472343414,1
843,300,39,0.101399479918477,1
843,301,39,0.0924578956351628,1
843,302,39,0.0719699026477058,1
844,300,39,0.0754719813887013,1
844,301,39,0.0699967816877562,1
844,302,39,0.0664591562115549,1
844,303,39,0.0596534247569259,1
845,300,39,0.0632037758228043,1
845,301,39,0.0622226788548017,1
845,302,39,0.0664538017929141,1
847,292,39,0.059091163624146,1
854,284,39,0.0576077950617258,1
854,285,39,0.0671086861124685,1
854,286,39,0.0680155288519192,1
854,287,39,0.0630625795673686,1
855,283,39,0.0576734161747599,1
855,284,39,0.0837512099334986,1
855,285,39,0.101345982907563,1
855,286,39,0.089862594767313,1
855,287,39,0.0681169148868217,1
856,283,39,0.0705235019822671,1
856,284,39,0.109567244563331,1
856,285,39,0.13321301773808,1
856,286,39,0.10809620649582,1
856,287,39,0.0675795211366501,1
857,283,39,0.0612074032409376,1
857,284,39,0.0887533573620143,1
857,285,39,0.106277602971603,1
857,286,39,0.0883550782485777,1
857,287,39,0.0583126854055908,1
858,284,39,0.0570690921915782,1
858,285,39,0.0637690679811143,1
858,286,39,0.061284812330693,1
861,310,39,0.0589514828814754,1
862,309,39,0.0626207456785124,1
862,310,39,0.0657939994280443,1
862,311,39,0.0569803609831109,1
863,309,39,0.0591745522078462,1
863,310,39,0.0627693307957949,1
871,278,39,0.059723910842844,1
872,278,39,0.0574783749891378,1
873,277,39,0.0603710465874049,1
873,278,39,0.0600435543036647,1
874,277,39,0.0697784004261646,1
874,278,39,0.069318911108442,1
875,277,39,0.0663487714510512,1
875,278,39,0.0661110600305339,1
879,278,39,0.0570469079152271,1
888,285,39,0.0570312456510091,1
889,285,39,0.0641684969972326,1
889,286,39,0.0645848030465557,1
890,285,39,0.0582842798608851,1
890,286,39,0.0636012824375163,1
890,287,39,0.060720658281191,1
891,286,39,0.060606800224895,1
842,298,40,0.077088891982553,1
842,301,40,0.0960827603948136,1
842,302,40,0.0725981505036031,1
843,299,40,0.0770561521892779,1
843,300,40,0.0805720769379481,1
843,301,40,0.072733060624379,1
843,302,40,0.0626718544300101,1
844,300,40,0.0659293754068297,1
844,301,40,0.0621100237736188,1
844,302,40,0.0618130186532849,1
844,303,40,0.0570152944368864,1
845,296,40,0.0571348017586647,1
845,302,40,0.0583227750645054,1
847,291,40,0.0595700066885416,1
847,292,40,0.0606117536518315,1
847,307,40,0.0581031908278007,1
848,307,40,0.0612977207254119,1
854,285,40,0.0585284720149777,1
854,286,40,0.0580387078235746,1
855,284,40,0.0682674165085737,1
855,285,40,0.0802893483016775,1
855,286,40,0.0702110704751884,1
856,283,40,0.0574052293847098,1
856,284,40,0.082568408241257,1
856,285,40,0.100418441919843,1
856,286,40,0.081087481010684,1
857,284,40,0.0660327899880014,1
857,285,40,0.0801665976646432,1
857,286,40,0.0678209358334962,1
861,309,40,0.0571934350015563,1
861,310,40,0.0578312182043063,1
862,309,40,0.0690569809683676,1
862,310,40,0.0736646881893224,1
862,311,40,0.0588403433130576,1
863,309,40,0.0672314426464396,1
863,310,40,0.0745598608907884,1
863,311,40,0.059746301511984,1
864,310,40,0.0572927865932528,1
870,278,40,0.0612569080256178,1
870,279,40,0.0598101889255904,1
871,278,40,0.0648670186493222,1
871,279,40,0.0601449934109987,1
872,277,40,0.0582801343142943,1
872,278,40,0.0626598600604997,1
873,277,40,0.0654057569010908,1
873,278,40,0.0670564687368469,1
874,276,40,0.0595648055902584,1
874,277,40,0.0742649373891553,1
874,278,40,0.0763057905655238,1
874,279,40,0.0582054024338593,1
875,277,40,0.067367402421971,1
875,278,40,0.0693283521043054,1
876,277,40,0.0571760390379105,1
876,278,40,0.0578131205051778,1
891,286,40,0.0576453349615798,1
891,288,40,0.0572683084084753,1
894,285,40,0.0627737181167958,1
896,289,40,0.0711491905675806,1
842,298,41,0.0691047402597464,1
842,301,41,0.0857313364544012,1
842,302,41,0.0707724352735702,1
842,303,41,0.066874601308101,1
843,298,41,0.0580615761445978,1
843,299,41,0.0651083507890526,1
843,300,41,0.0661273119884348,1
843,301,41,0.0630894931870566,1
843,302,41,0.0619046747424194,1
843,303,41,0.0589196807011562,1
844,297,41,0.0589294637193556,1
844,299,41,0.059804233019393,1
844,302,41,0.0584769268901546,1
845,297,41,0.0577933834576109,1
847,291,41,0.0582905070261766,1
847,307,41,0.057759841680927,1
848,307,41,0.062597606098395,1
849,308,41,0.0569271470251652,1
853,305,41,0.0575032069901251,1
853,306,41,0.0587369228349491,1
854,305,41,0.0574922092029389,1
854,306,41,0.0587049673342723,1
855,284,41,0.0576940672475354,1
855,285,41,0.0634839982609226,1
856,284,41,0.0643730971174546,1
856,285,41,0.0733450211407544,1
856,286,41,0.0602741481214293,1
856,308,41,0.0592447906224174,1
857,285,41,0.0615819353897635,1
861,310,41,0.0574975400338324,1
862,309,41,0.0675599197186302,1
862,310,41,0.0758974925564146,1
862,311,41,0.0596742350469958,1
863,309,41,0.0708031111389551,1
863,310,41,0.0819988879792405,1
863,311,41,0.063256093446352,1
864,310,41,0.0601492568963261,1
870,278,41,0.0615830617046978,1
870,279,41,0.0619454520605926,1
871,277,41,0.05687467608126,1
871,278,41,0.0653226513703585,1
871,279,41,0.0614617853018708,1
872,277,41,0.0598292950009166,1
872,278,41,0.0638001212504563,1
873,276,41,0.0574905521636899,1
873,277,41,0.0666024163948808,1
873,278,41,0.0682450199424968,1
874,276,41,0.0589446542286274,1
874,277,41,0.0700597845608381,1
874,278,41,0.0722576613710916,1
875,277,41,0.0624234931415794,1
875,278,41,0.0643467613975759,1
892,285,41,0.0608661946821329,1
892,286,41,0.0649093881404392,1
893,284,41,0.0574152070018247,1
893,285,41,0.0662372190970554,1
894,285,41,0.0583402182036459,1
894,286,41,0.0602441798884639,1
895,287,41,0.060373664827357,1
895,288,41,0.0627203508384925,1
896,288,41,0.0992667819509954,1
896,289,41,0.08046346715543,1
896,290,41,0.0580476593736811,1
841,298,42,0.0743505373241663,1
842,298,42,0.0571322130033967,1
842,299,42,0.0841356194515132,1
842,302,42,0.0704808730259296,1
843,301,42,0.0584999308407249,1
843,302,42,0.0637625872475392,1
843,303,42,0.062875870753486,1
845,306,42,0.0583862084139759,1
847,307,42,0.0586872293482904,1
848,307,42,0.0626363961488568,1
848,308,42,0.0643229495666601,1
849,308,42,0.0595758505529393,1
853,305,42,0.0612736258415283,1
853,306,42,0.0628031792131939,1
854,305,42,0.0600079839807116,1
854,306,42,0.0612206477610557,1
856,308,42,0.0597363710703639,1
857,308,42,0.0573483416351196,1
862,309,42,0.06102728720243,1
862,310,42,0.070438078955361,1
863,309,42,0.0670543222518411,1
863,310,42,0.0783230088190813,1
863,311,42,0.0609278117750601,1
864,310,42,0.0569599870663664,1
868,300,42,0.0568772884242753,1
869,300,42,0.0579713058356181,1
870,278,42,0.0602749677956486,1
870,279,42,0.0622857289033783,1
871,278,42,0.0637130647720485,1
871,279,42,0.0608268562165461,1
872,277,42,0.0605305587286317,1
872,278,42,0.0633154402185999,1
873,276,42,0.0585249869253117,1
873,277,42,0.0662302725054707,1
873,278,42,0.0669572232900133,1
874,276,42,0.0582628739801955,1
874,277,42,0.0653561754562318,1
874,278,42,0.0662857272994114,1
875,277,42,0.0580726682827733,1
875,278,42,0.0585188187293884,1
892,285,42,0.0642870077366868,1
892,286,42,0.0665695822506164,1
892,287,42,0.0591562893944865,1
893,285,42,0.0682372300889456,1
893,286,42,0.0689494857069102,1
893,287,42,0.060371217598573,1
895,288,42,0.0648189468202915,1
895,289,42,0.0586371112821799,1
841,298,43,0.0592227301817398,1
841,299,43,0.10516761075839,1
842,299,43,0.0661126934820355,1
842,300,43,0.075702746217634,1
842,301,43,0.0688706790431262,1
843,302,43,0.0636052451790654,1
843,303,43,0.0634950491205403,1
843,304,43,0.0585007564118809,1
846,307,43,0.0576455944268003,1
847,307,43,0.0598081544823843,1
847,308,43,0.0615431984117332,1
848,307,43,0.0598199188713584,1
848,308,43,0.0623636746143851,1
849,308,43,0.0581080852853688,1
853,305,43,0.0621389187640813,1
853,306,43,0.0634128753058269,1
853,307,43,0.0570505640160612,1
854,305,43,0.0595030174861632,1
854,306,43,0.0603913733286548,1
856,308,43,0.05774373124951,1
857,308,43,0.057992357900098,1
862,310,43,0.060215986633484,1
863,309,43,0.0570533591641182,1
863,310,43,0.063855163258819,1
868,300,43,0.0664052169303792,1
868,301,43,0.0636819348425277,1
869,300,43,0.0636468126867737,1
869,301,43,0.0638322713500485,1
870,278,43,0.0571936001157875,1
870,279,43,0.058975064731855,1
870,301,43,0.0570015663679483,1
871,278,43,0.060090434951456,1
871,279,43,0.0575999698265536,1
872,277,43,0.0595809573002332,1
872,278,43,0.0606781118819692,1
873,276,43,0.0581750096214421,1
873,277,43,0.0634069842659347,1
873,278,43,0.0625739004123421,1
874,276,43,0.0568907216463719,1
874,277,43,0.0608644963643262,1
874,278,43,0.0600663046859513,1
892,285,43,0.0598874505919251,1
892,286,43,0.0604506198529766,1
893,285,43,0.061110575538204,1
893,286,43,0.0638508054225023,1
893,287,43,0.0575990145227873,1
894,286,43,0.0576533488987305,1
894,287,43,0.0595559365972674,1
895,287,43,0.0623559024516444,1
895,288,43,0.0650353702988558,1
895,289,43,0.0572280028452484,1
896,289,43,0.0760774257898805,1
896,290,43,0.0589251117799758,1
841,299,44,0.0726662955056001,1
841,300,44,0.0962232785025139,1
842,300,44,0.0578375574113976,1
842,301,44,0.0625409247415939,1
843,302,44,0.0586791446478977,1
843,305,44,0.058194127490642,1
846,307,44,0.0596645109981646,1
846,308,44,0.0644746423696515,1
847,307,44,0.0626963738933455,1
847,308,44,0.0671367850164591,1
848,307,44,0.0587970421059216,1
848,308,44,0.0621467439992535,1
852,306,44,0.0569973441611787,1
853,305,44,0.0601345381420007,1
853,306,44,0.0615555524943901,1
854,306,44,0.0569951505006782,1
856,308,44,0.0583628742349432,1
857,308,44,0.0614633892686883,1
857,309,44,0.0618300372129737,1
858,308,44,0.0587702051464125,1
858,309,44,0.0600756690216359,1
858,310,44,0.057967514105237,1
868,300,44,0.0706307082938199,1
868,301,44,0.0692905704300414,1
869,300,44,0.0649510441021999,1
869,301,44,0.0667811584471073,1
870,301,44,0.058471737585745,1
872,277,44,0.0577846441972302,1
872,278,44,0.0572756500948275,1
873,276,44,0.0572217638860833,1
873,277,44,0.0602141408922565,1
873,278,44,0.0580603024062427,1
874,277,44,0.057919383306838,1
894,286,44,0.0579358947299594,1
894,287,44,0.0645963020733724,1
894,288,44,0.0569327373212792,1
895,287,44,0.0639766519513719,1
895,288,44,0.0619097225203451,1
841,300,45,0.0692154552487125,1
842,301,45,0.0589249171810604,1
846,307,45,0.0588290211943458,1
846,308,45,0.0669950108612141,1
847,307,45,0.0608196973352356,1
847,308,45,0.0686091439978194,1
848,308,45,0.0606315142871457,1
852,306,45,0.058952290761821,1
852,307,45,0.0569562896869746,1
853,305,45,0.0589657593655387,1
853,306,45,0.0605783475046947,1
856,308,45,0.0615745406309798,1
857,307,45,0.0570079999260288,1
857,308,45,0.067681031007226,1
857,309,45,0.0693534199827659,1
857,310,45,0.0650708639616301,1
858,308,45,0.0641933113074094,1
858,309,45,0.066314622289874,1
858,310,45,0.0625339722530724,1
859,309,45,0.0577702320836199,1
868,300,45,0.0682169682140009,1
868,301,45,0.0689905460780511,1
869,300,45,0.063066394885497,1
869,301,45,0.0660441710760815,1
869,302,45,0.0593492489614079,1
870,301,45,0.0585821754186802,1
870,302,45,0.0573134966353965,1
873,276,45,0.0571900619536901,1
873,277,45,0.0582736712715296,1
894,287,45,0.0608489343480342,1
895,287,45,0.0586175157610969,1
841,300,46,0.0619841241723177,1
842,301,46,0.0592534473256825,1
846,308,46,0.0623706094120962,1
847,308,46,0.0645697422698942,1
848,308,46,0.0571467489526804,1
851,307,46,0.0571246531303818,1
852,306,46,0.0593843829110356,1
853,306,46,0.0581894571166734,1
856,308,46,0.0626494814516805,1
856,309,46,0.0641817238265402,1
856,310,46,0.061432277029978,1
857,307,46,0.0570312397540723,1
857,308,46,0.0703943118902155,1
857,309,46,0.0728722696121033,1
857,310,46,0.0673131859847644,1
857,311,46,0.0581723206182481,1
858,308,46,0.0652542645939516,1
858,309,46,0.0678208827610647,1
858,310,46,0.0625146126094625,1
859,315,46,0.0573364357196617,1
860,315,46,0.0603170188521768,1
868,300,46,0.0581501422388339,1
868,301,46,0.0625975471290268,1
869,301,46,0.0611930677875061,1
869,302,46,0.0585785546994671,1
870,302,46,0.0570542496015794,1
841,300,47,0.0649293787562898,1
842,301,47,0.0575222246113989,1
847,308,47,0.0601275030963636,1
856,308,47,0.0605551253674617,1
856,309,47,0.0631475839117599,1
856,310,47,0.0609528560657732,1
857,308,47,0.0671873394558948,1
857,309,47,0.0707120506404404,1
857,310,47,0.0660622451874627,1
857,311,47,0.0580983553396008,1
858,308,47,0.0623534729136708,1
858,309,47,0.0656414161875917,1
858,310,47,0.060553185275245,1
859,315,47,0.0585693200963927,1
859,316,47,0.0584639477321938,1
860,315,47,0.0612922188833504,1
841,300,48,0.071167188018783,1
842,301,48,0.0602416618964379,1
843,292,48,0.0590503804090361,1
850,307,48,0.0575187690064171,1
851,307,48,0.0609446829113281,1
852,307,48,0.0594520089825916,1
853,283,48,0.0570159372030008,1
856,308,48,0.0573429518348578,1
856,309,48,0.0612626457451525,1
856,310,48,0.059751891808098,1
857,308,48,0.0617841118689487,1
857,309,48,0.0663817825034205,1
857,310,48,0.0628339199448839,1
857,311,48,0.0569980812782823,1
858,308,48,0.058116187676572,1
858,309,48,0.0610495186542756,1
859,315,48,0.0607314496755883,1
859,316,48,0.0604443101305695,1
860,315,48,0.0622178315727282,1
860,316,48,0.064321675828305,1
860,317,48,0.0599000759336762,1
861,315,48,0.059185255148191,1
872,273,48,0.05728167086733,1
841,300,49,0.0723953784337981,1
842,300,49,0.0602145713686451,1
842,303,49,0.066881017175371,1
843,304,49,0.0614247525385841,1
850,307,49,0.0578349509653191,1
850,308,49,0.0572110255641175,1
851,307,49,0.0619295598158382,1
851,308,49,0.0607684706450013,1
852,307,49,0.0594705430550454,1
852,308,49,0.0590581997472714,1
856,309,49,0.0589796466517712,1
856,310,49,0.0569930099126093,1
857,309,49,0.060773070255728,1
857,310,49,0.057898714543252,1
859,315,49,0.0606853356295848,1
859,316,49,0.0613335976890801,1
860,315,49,0.0617549161347079,1
860,316,49,0.0641809336370051,1
860,317,49,0.0592526689300211,1
861,315,49,0.0589327777978536,1
861,316,49,0.0628606507595302,1
861,317,49,0.0602358121351034,1
862,315,49,0.0583969231481944,1
864,315,49,0.0587101035662504,1
869,274,49,0.0601984078647965,1
870,272,49,0.0580615761445978,1
870,273,49,0.0607233060058273,1
870,274,49,0.056985255440679,1
871,273,49,0.0590221989479299,1
872,273,49,0.0581387552538169,1
888,299,49,0.0584438155898593,1
840,300,50,0.0765309592014057,1
841,304,50,0.0745751693387968,1
842,303,50,0.0684928976821075,1
842,304,50,0.0714524759256375,1
843,303,50,0.0582549367032236,1
843,304,50,0.060713623235554,1
843,305,50,0.0589502445247413,1
850,307,50,0.0571997211362161,1
851,307,50,0.0609586409608025,1
851,308,50,0.0590040540733068,1
852,307,50,0.0598660034326777,1
852,308,50,0.0604229042498799,1
853,307,50,0.0596228019639725,1
853,308,50,0.0612692208297169,1
853,309,50,0.0581364259637694,1
854,307,50,0.0595609077150143,1
854,308,50,0.0611440878302037,1
854,309,50,0.0587297049842703,1
857,309,50,0.0569160195053687,1
859,315,50,0.0577713466046806,1
859,316,50,0.0587900129572214,1
860,315,50,0.0591428030999584,1
860,316,50,0.0614010822341522,1
860,317,50,0.0571712566221421,1
861,315,50,0.0577910600645002,1
861,316,50,0.0606269205733559,1
861,317,50,0.0579859007542701,1
862,315,50,0.0586654755483279,1
862,316,50,0.0620290057585239,1
862,317,50,0.0601153318187484,1
863,315,50,0.0595347548001773,1
864,315,50,0.0571288163677832,1
869,274,50,0.0626749267340981,1
870,272,50,0.0771299936322517,1
870,273,50,0.0733929750310486,1
870,274,50,0.0586201575887963,1
871,272,50,0.0700473891996234,1
871,273,50,0.0672034734750592,1
872,273,50,0.0598859763577178,1
887,299,50,0.057567731272909,1
888,299,50,0.0580276805517042,1
840,300,51,0.0652780115585623,1
840,301,51,0.0816796690978715,1
841,300,51,0.071337668462512,1
841,304,51,0.0699790908772689,1
842,304,51,0.0718758995777133,1
843,303,51,0.0662416005211194,1
843,304,51,0.0635555163107857,1
843,305,51,0.0591557409793614,1
848,308,51,0.0593557120041726,1
849,308,51,0.0604048301384988,1
850,307,51,0.0569952684394148,1
850,308,51,0.0574918082112345,1
851,307,51,0.0584464692114324,1
851,308,51,0.058069849546969,1
852,307,51,0.0592853851355489,1
852,308,51,0.0624992864706437,1
852,309,51,0.0595929162881226,1
853,307,51,0.0632721625992112,1
853,308,51,0.0649072298615597,1
853,309,51,0.0611892701601882,1
854,307,51,0.0654390274186805,1
854,308,51,0.063902604115609,1
854,309,51,0.0603232519144052,1
855,308,51,0.0570051399116667,1
860,315,51,0.057633906698005,1
860,316,51,0.0588173216716769,1
861,315,51,0.0579907126547227,1
861,316,51,0.0590699287546245,1
862,315,51,0.0588863630080718,1
862,316,51,0.0596617689225391,1
862,317,51,0.0585312435752873,1
863,315,51,0.0590606056974977,1
863,316,51,0.0608397174357703,1
864,315,51,0.0570064195469586,1
870,274,51,0.0612463996841884,1
871,272,51,0.102162012819846,1
871,273,51,0.0842516298897518,1
871,274,51,0.0578582556596677,1
872,272,51,0.0713611854465863,1
872,273,51,0.0648563333997879,1
886,299,51,0.0576421859973131,1
887,299,51,0.0614420541512407,1
888,299,51,0.0587157882133536,1
840,300,52,0.0650606150854211,1
840,301,52,0.0714047991913743,1
840,302,52,0.0715526059129954,1
841,300,52,0.0713993445248074,1
841,301,52,0.0750383501389743,1
841,304,52,0.0696687115042067,1
842,300,52,0.0682530397765844,1
842,305,52,0.0665250308928727,1
843,301,52,0.0651385372086807,1
843,304,52,0.0678417284327555,1
843,305,52,0.0578380999295859,1
844,302,52,0.0573294242617719,1
844,303,52,0.0607227811784495,1
849,308,52,0.0573501755824735,1
851,308,52,0.0579308174673496,1
852,307,52,0.0582699444074536,1
852,308,52,0.0643832221579902,1
852,309,52,0.0621627777704918,1
853,307,52,0.0639244286788135,1
853,308,52,0.0661554521709832,1
853,309,52,0.0627987624075089,1
853,310,52,0.058058946110772,1
854,306,52,0.0600050708939181,1
854,307,52,0.0672240950631505,1
854,308,52,0.0637309442845143,1
854,309,52,0.060487074716454,1
854,310,52,0.0575877277856964,1
861,316,52,0.0569461823372495,1
862,315,52,0.0577323383675562,1
862,316,52,0.0575593930042327,1
863,274,52,0.0569359747395983,1
863,315,52,0.0580441919748256,1
863,316,52,0.0587968593008799,1
864,274,52,0.0591741335253313,1
864,315,52,0.0573052822023936,1
871,274,52,0.0619419610739898,1
872,272,52,0.0868302306325017,1
872,273,52,0.0707853495652259,1
886,299,52,0.0584671438719551,1
887,299,52,0.0628950299012438,1
888,299,52,0.0588835914477622,1
841,300,53,0.0654410382741392,1
841,301,53,0.0709832566621469,1
842,300,53,0.06314468261884,1
843,304,53,0.0718739005161282,1
844,303,53,0.0657058638101968,1
844,304,53,0.057630527753202,1
851,308,53,0.0585893814754853,1
852,308,53,0.0627346332194926,1
852,309,53,0.0609822640897399,1
853,307,53,0.0598462369004266,1
853,308,53,0.0626961851913669,1
853,309,53,0.06066870037079,1
854,306,53,0.0573420319127125,1
854,307,53,0.0618175180160855,1
854,308,53,0.0599079365504693,1
854,309,53,0.0584971062079837,1
854,310,53,0.0576624242845105,1
862,315,53,0.0574979410255368,1
862,316,53,0.0578161987062026,1
863,315,53,0.0581287835336389,1
869,274,53,0.0638226593430171,1
871,274,53,0.067138100033372,1
872,273,53,0.0731638554474912,1
882,273,53,0.0573487249360135,1
886,299,53,0.0571480344849092,1
886,300,53,0.0581569060253768,1
887,299,53,0.0607625913989827,1
887,300,53,0.0587810260254938,1
888,299,53,0.0581247559257846,1
840,300,54,0.0625310827540261,1
840,301,54,0.0644533603246353,1
841,300,54,0.0577730803041083,1
843,304,54,0.0694481483759883,1
844,303,54,0.0636358443842716,1
851,308,54,0.0572988781289972,1
851,309,54,0.0568461702886282,1
852,308,54,0.0594719111443898,1
852,309,54,0.0581326990996934,1
853,307,54,0.0581590348195721,1
853,308,54,0.0593963360019882,1
853,309,54,0.057323556809627,1
854,307,54,0.0570981817809561,1
859,279,54,0.0597016793909983,1
862,315,54,0.0569648048637558,1
862,316,54,0.0581997944469348,1
863,315,54,0.0572036720838916,1
863,316,54,0.0615813162113964,1
864,315,54,0.0594061190201876,1
869,274,54,0.0638560890779012,1
870,274,54,0.07041989280218,1
871,274,54,0.0685741928532334,1
872,273,54,0.0719021586374132,1
882,273,54,0.0578050240109115,1
883,274,54,0.057275597022396,1
884,274,54,0.0576685983773706,1
886,300,54,0.0592736620251327,1
887,299,54,0.058046421016947,1
887,300,54,0.0582732113104569,1
888,299,54,0.0574497925363273,1
843,301,55,0.0694069877569213,1
843,303,55,0.0739185100412569,1
843,304,55,0.0602682099060425,1
844,302,55,0.0597482651919481,1
858,279,55,0.0585333723694826,1
859,279,55,0.0665205728086299,1
859,280,55,0.0590265508873097,1
860,278,55,0.0573477519414367,1
860,279,55,0.0642491906808018,1
861,279,55,0.0573023868064105,1
862,315,55,0.0576776737631505,1
863,315,55,0.057013826099616,1
868,274,55,0.0627465745165715,1
869,271,55,0.0742166296826514,1
869,273,55,0.0773573736194445,1
869,274,55,0.0628619539825694,1
870,274,55,0.0670233633334884,1
871,271,55,0.0924994395551238,1
871,273,55,0.0970418087160123,1
871,274,55,0.0663408931434476,1
872,272,55,0.0793452899938983,1
872,273,55,0.0694756634832328,1
881,273,55,0.0568771056192336,1
882,273,55,0.0587083875576331,1
882,274,55,0.0570261624914624,1
883,274,55,0.0584863030197128,1
884,274,55,0.0593726539036825,1
884,301,55,0.0577357350031697,1
885,300,55,0.0573713632765004,1
885,301,55,0.0603040927666475,1
886,300,55,0.0599695300556492,1
887,300,55,0.0574923566263596,1
890,290,55,0.0585590063538787,1
842,300,56,0.0573342361622244,1
842,301,56,0.0679794631862725,1
843,301,56,0.0605586576326223,1
843,302,56,0.0622506362323084,1
843,303,56,0.0569218987513873,1
858,279,56,0.0602329462238045,1
859,279,56,0.0688365711605068,1
859,280,56,0.058669267278709,1
860,278,56,0.0584657580918003,1
860,279,56,0.0674401529316315,1
861,278,56,0.0577556017833469,1
861,279,56,0.0605379593843522,1
868,271,56,0.0655626920809233,1
868,274,56,0.0608626683139091,1
869,271,56,0.0734607839076462,1
869,272,56,0.0792809662069666,1
869,273,56,0.070504908940445,1
869,274,56,0.0608851061585438,1
870,271,56,0.0799387872010619,1
870,273,56,0.0782275020301974,1
870,274,56,0.0627274861320557,1
871,271,56,0.0769355185525653,1
871,272,56,0.0907921171258085,1
871,273,56,0.0793736070845516,1
871,274,56,0.0624250676237128,1
872,272,56,0.0694297794177657,1
872,273,56,0.064471658519616,1
880,273,56,0.0584255704673101,1
881,273,56,0.062032555714495,1
881,274,56,0.0585961924375229,1
882,273,56,0.064252357335879,1
882,274,56,0.0618382516459766,1
883,274,56,0.0630035512297095,1
883,302,56,0.0572407991981676,1
884,301,56,0.0572823490150653,1
885,300,56,0.0587510106170338,1
885,301,56,0.0626241659018733,1
886,300,56,0.060104269165257,1
886,301,56,0.0619767412074077,1
887,301,56,0.0578696603354951,1
889,289,56,0.0606590883637585,1
889,290,56,0.0812485558401706,1
889,291,56,0.0593650291643625,1
890,289,56,0.077316437083977,1
890,290,56,0.101586412815959,1
890,291,56,0.0706833797335773,1
891,289,56,0.0576867432519937,1
891,290,56,0.0720529668998803,1
895,301,56,0.059344413473208,1
896,302,56,0.0588071494556467,1
858,279,57,0.0591183249151808,1
859,279,57,0.0644797844985665,1
860,278,57,0.0571042261412059,1
860,279,57,0.063670748353363,1
861,275,57,0.0576998285548174,1
861,279,57,0.0581092116003032,1
867,274,57,0.0603992575331953,1
868,271,57,0.0693412546020874,1
868,273,57,0.0664671819425793,1
868,274,57,0.0586909915939873,1
869,271,57,0.0716965206563093,1
869,272,57,0.0732877323994598,1
869,273,57,0.0653441869836583,1
869,274,57,0.0577934365300423,1
869,311,57,0.0592640087395434,1
870,272,57,0.0741391439327172,1
870,273,57,0.0658368052924867,1
870,274,57,0.057582603347592,1
871,272,57,0.0717380468854597,1
871,273,57,0.0652133811309155,1
871,274,57,0.0571587787038118,1
872,272,57,0.0625594529171109,1
872,273,57,0.0593086898298974,1
876,298,57,0.0627210525739752,1
876,299,57,0.0571970203391484,1
880,273,57,0.0604949707148682,1
880,274,57,0.0570023860421675,1
881,273,57,0.0652538636022472,1
881,274,57,0.0614886458491273,1
882,274,57,0.0672298976489904,1
883,274,57,0.069900868010231,1
884,302,57,0.0573397497981596,1
885,300,57,0.0581575782761753,1
885,301,57,0.0620903810770411,1
885,302,57,0.0621939902571281,1
886,300,57,0.0594356803645118,1
886,301,57,0.0613669684545959,1
886,302,57,0.061076833265668,1
887,299,57,0.0572609608251862,1
887,300,57,0.0570122221327985,1
887,301,57,0.0570198527690553,1
887,302,57,0.0570490426063593,1
889,289,57,0.0725037110602853,1
889,290,57,0.0999696614394017,1
889,291,57,0.0713723601418775,1
890,289,57,0.100420682755838,1
890,290,57,0.135801890944786,1
890,291,57,0.0912981332751125,1
891,289,57,0.0711198002344245,1
891,290,57,0.0925434130130583,1
891,291,57,0.0630191545245592,1
894,301,57,0.0571162087168426,1
895,300,57,0.058685448473368,1
895,301,57,0.0597630075340208,1
895,302,57,0.05764860776152,1
896,300,57,0.0586158056494164,1
896,301,57,0.0584405899654138,1
852,307,58,0.0572212921311369,1
852,308,58,0.0572306977453793,1
858,279,58,0.0584617363808829,1
859,279,58,0.0580340610373533,1
864,309,58,0.0595755203244768,1
866,274,58,0.0582712299396824,1
868,271,58,0.0739083908976581,1
868,273,58,0.0631639302206502,1
869,271,58,0.0693777802288068,1
869,272,58,0.0692366075611184,1
869,273,58,0.0623845910493179,1
870,272,58,0.066448836572104,1
870,273,58,0.0609249871423189,1
870,311,58,0.0610119787544216,1
871,273,58,0.0597644345927335,1
872,273,58,0.0573131487161236,1
873,307,58,0.0595521271760758,1
873,308,58,0.0585944351503478,1
874,306,58,0.0592934639390047,1
874,309,58,0.0570181662451222,1
875,306,58,0.058060396757232,1
876,297,58,0.0583147021579864,1
876,298,58,0.067691934443423,1
876,299,58,0.0585544657125203,1
879,273,58,0.0569266811671557,1
880,273,58,0.0610096376705005,1
880,274,58,0.0584558748256748,1
881,274,58,0.0627309889125322,1
882,274,58,0.0790081974970003,1
882,275,58,0.0574632965216659,1
885,301,58,0.0597045040237395,1
885,302,58,0.0611093548722804,1
885,303,58,0.0584521420646619,1
886,300,58,0.0577678851027619,1
886,301,58,0.059612016466512,1
886,302,58,0.0608074435005047,1
886,303,58,0.0581189769276921,1
889,289,58,0.0704097972463286,1
889,290,58,0.0966924505905098,1
889,291,58,0.0729735259143955,1
889,302,58,0.0587367046482864,1
890,289,58,0.10430071386902,1
890,290,58,0.140500181012373,1
890,291,58,0.0954186473691217,1
891,289,58,0.0751900075603448,1
891,290,58,0.0978289731225167,1
891,291,58,0.0662681367368503,1
894,302,58,0.0571086075652699,1
894,303,58,0.0570830502410526,1
895,300,58,0.0615526983769648,1
895,301,58,0.0602402820132199,1
896,300,58,0.060724904075708,1
896,301,58,0.0582784418934243,1
843,298,59,0.0570197996966238,1
851,307,59,0.0582965277986791,1
851,308,59,0.0595516436272559,1
852,307,59,0.0622722308149765,1
852,308,59,0.0649759350725554,1
852,309,59,0.059335963162732,1
853,307,59,0.0573968911160335,1
853,308,59,0.0617411585810857,1
853,309,59,0.0600897862884047,1
853,310,59,0.0576770840694676,1
854,309,59,0.0582309951396975,1
861,274,59,0.0612309791943803,1
861,309,59,0.0596870549876622,1
862,308,59,0.0573868014571189,1
862,309,59,0.0676165421060632,1
863,308,59,0.057907654299485,1
863,309,59,0.070146115716016,1
864,272,59,0.057069546255714,1
864,309,59,0.0612281427677655,1
864,310,59,0.0705303896044835,1
866,271,59,0.0644528472911312,1
866,273,59,0.0598797373985526,1
867,270,59,0.0631155694417148,1
867,271,59,0.0794743385594661,1
867,273,59,0.0617398140794886,1
868,271,59,0.0798171687758988,1
868,272,59,0.0743671254074665,1
868,273,59,0.0635321467501321,1
869,272,59,0.0682084353464092,1
869,273,59,0.0626998294983273,1
870,273,59,0.0608342509753298,1
871,273,59,0.0595962244696838,1
872,273,59,0.0580365377508215,1
874,306,59,0.0572968318919175,1
874,307,59,0.0616589493847514,1
874,308,59,0.0611838685660527,1
875,306,59,0.0573837350499678,1
875,307,59,0.0612435514636999,1
875,309,59,0.0568566373514998,1
876,298,59,0.0645368078777038,1
876,307,59,0.0572437948420767,1
876,308,59,0.0574120698314316,1
880,274,59,0.0593734558870913,1
881,274,59,0.0619782213385518,1
881,275,59,0.0579253981824037,1
882,274,59,0.0833905532770316,1
882,275,59,0.0573604893249876,1
885,301,59,0.0584544949424567,1
885,302,59,0.0606935913411455,1
885,303,59,0.0587399892421002,1
886,301,59,0.0593394600462716,1
886,302,59,0.0616325959740622,1
886,303,59,0.0598112680650301,1
887,303,59,0.0577836122332851,1
888,292,59,0.062460632049729,1
888,303,59,0.0590798650931815,1
889,289,59,0.0608202044718029,1
889,290,59,0.0792954195991347,1
889,291,59,0.0661880209530903,1
889,302,59,0.0575633970243396,1
889,303,59,0.0600100950840965,1
890,289,59,0.0892018253048032,1
890,290,59,0.115102475081196,1
890,291,59,0.0836388673899676,1
890,302,59,0.0569659842511216,1
891,289,59,0.0689143989327771,1
891,290,59,0.0853326504523234,1
891,291,59,0.061619593228354,1
894,301,59,0.0574122172548523,1
895,300,59,0.0622009722303338,1
895,301,59,0.0609516648845337,1
895,302,59,0.0569444899163795,1
896,300,59,0.0608367689673558,1
896,301,59,0.0586541829143001,1
843,297,60,0.0587236606240205,1
844,297,60,0.0592469371074232,1
850,307,60,0.0571612613142168,1
851,307,60,0.0634255419261358,1
851,308,60,0.0659540128089016,1
851,309,60,0.0576719655283,1
852,307,60,0.0696131741531503,1
852,308,60,0.0766431779092632,1
852,309,60,0.0664341944779574,1
853,307,60,0.0618346191328899,1
853,308,60,0.069506675474017,1
853,309,60,0.0655455732733085,1
854,308,60,0.0580435610025849,1
854,309,60,0.0613118085074966,1
855,309,60,0.0571744586588403,1
861,309,60,0.0621173359752868,1
862,308,60,0.0614949378807239,1
862,309,60,0.0708947672280896,1
862,310,60,0.0824312042120546,1
863,308,60,0.0592428505302007,1
863,309,60,0.0703665078330663,1
863,310,60,0.0824284562394922,1
864,273,60,0.0569673464435291,1
864,309,60,0.0611533460210254,1
864,310,60,0.069504434638022,1
864,311,60,0.0699121193657009,1
865,272,60,0.0574220120669254,1
865,273,60,0.056860771104217,1
866,271,60,0.065387877388625,1
866,272,60,0.0623425694774738,1
866,273,60,0.0572934529471145,1
867,271,60,0.0838171907596792,1
867,272,60,0.0743757644199212,1
867,273,60,0.0610729766689817,1
868,272,60,0.0762065097370693,1
868,273,60,0.0636870121051376,1
869,273,60,0.0625311063417734,1
869,274,60,0.0568425613632888,1
870,273,60,0.0602235052279411,1
871,273,60,0.0596828209870189,1
872,273,60,0.0590073386671206,1
873,273,60,0.0575289058408263,1
874,307,60,0.0586523548638831,1
874,308,60,0.0574665575277324,1
875,307,60,0.0596600765016691,1
875,308,60,0.057905100925838,1
880,274,60,0.0575784106255065,1
880,275,60,0.0576868552937934,1
881,274,60,0.0583376176545042,1
881,275,60,0.0571471499443848,1
885,301,60,0.0578730510741719,1
885,302,60,0.0605948589278161,1
885,303,60,0.0599706681644572,1
886,301,60,0.0592898844983495,1
886,302,60,0.0621808636757466,1
886,303,60,0.0622340068704503,1
886,304,60,0.058251746460399,1
887,302,60,0.0569505519674399,1
887,303,60,0.0603918627744116,1
887,304,60,0.0582991165539471,1
888,292,60,0.0594756439054026,1
888,303,60,0.0597201427002102,1
888,304,60,0.057275597022396,1
889,290,60,0.0572688214419794,1
889,303,60,0.0571779850270641,1
890,289,60,0.0635567723583303,1
890,290,60,0.0774341340461488,1
890,291,60,0.0625035617498448,1
891,290,60,0.0629979255519745,1
894,301,60,0.0569701592823966,1
895,300,60,0.0598271485159108,1
895,301,60,0.0598287878643493,1
896,300,60,0.0580279812954825,1
896,301,60,0.0568738092315461,1
850,307,61,0.0610048080792375,1
850,308,61,0.0584081627097906,1
851,306,61,0.0585749516710645,1
851,307,61,0.0681086119997664,1
851,308,61,0.070322493096574,1
852,306,61,0.0573509893597559,1
852,307,61,0.0718477652921017,1
852,308,61,0.0797662723141269,1
853,307,61,0.0619086728655896,1
853,308,61,0.0704043130950776,1
853,309,61,0.0673706398402902,1
854,308,61,0.0587158530796588,1
861,309,61,0.0611234072727441,1
862,308,61,0.0598935893031642,1
862,309,61,0.068561024993294,1
862,310,61,0.0789109688025623,1
863,309,61,0.0666089384070137,1
863,310,61,0.0780441780580547,1
863,311,61,0.0836463859844247,1
864,272,61,0.0583482498316071,1
864,273,61,0.0573599703945466,1
864,309,61,0.0586684652953002,1
864,310,61,0.0644473218613223,1
864,311,61,0.0645198718751306,1
865,272,61,0.0593951035421909,1
865,273,61,0.0577881646685171,1
866,271,61,0.0644321844244821,1
866,272,61,0.0633693794997756,1
866,273,61,0.0582556502325799,1
867,271,61,0.0791114174792567,1
867,272,61,0.0731659488600655,1
867,273,61,0.061583055807761,1
868,272,61,0.0754708314860196,1
868,273,61,0.0641746003268507,1
869,273,61,0.0631678811683257,1
869,274,61,0.0571596396565888,1
870,273,61,0.0607852061517222,1
871,273,61,0.0601402227891039,1
872,273,61,0.0601739709585768,1
873,273,61,0.0586149682843867,1
875,310,61,0.0568908336881717,1
880,274,61,0.0580470225045036,1
880,275,61,0.0593641741085223,1
881,274,61,0.0613679886246673,1
881,275,61,0.0600165876115453,1
881,276,61,0.0572164153643793,1
882,275,61,0.0604292375600344,1
882,276,61,0.0573456644257992,1
883,275,61,0.0615184194831774,1
885,302,61,0.0584010274162274,1
885,303,61,0.0592448849734067,1
886,301,61,0.0569269701170603,1
886,302,61,0.0601056077699172,1
886,303,61,0.0619870844346059,1
886,304,61,0.0586691552369092,1
887,302,61,0.0572602001203353,1
887,303,61,0.0609115362294118,1
887,304,61,0.0588667792808624,1
887,305,61,0.0570471850712581,1
888,303,61,0.0583329413835988,1
888,304,61,0.0568567493932996,1
894,301,61,0.05698674146876,1
895,301,61,0.0576670062044267,1
850,306,62,0.0603844444278806,1
850,307,62,0.0641964248900552,1
851,306,62,0.0627123840768364,1
851,307,62,0.0690955882137876,1
852,306,62,0.0589134830205488,1
852,307,62,0.0673842440735549,1
852,308,62,0.0727497784402895,1
853,307,62,0.0586665193061466,1
853,308,62,0.0660474556698953,1
854,308,62,0.0582901532099669,1
854,309,62,0.0632054977283584,1
856,308,62,0.0576557902305778,1
857,308,62,0.0575452757374638,1
858,308,62,0.0572032828860609,1
861,309,62,0.0574485011071617,1
861,310,62,0.0615914766335529,1
862,309,62,0.0629231700837922,1
862,310,62,0.0710281677330373,1
862,311,62,0.0773783961992402,1
863,272,62,0.057397527985211,1
863,309,62,0.0614967246525831,1
863,310,62,0.0703661835015407,1
863,311,62,0.0736441904369045,1
864,271,62,0.0570710676654159,1
864,272,62,0.0612743688555687,1
864,273,62,0.0584776699041951,1
864,310,62,0.058361158226326,1
864,311,62,0.0568706071948479,1
865,271,62,0.0585018001696997,1
865,272,62,0.0624531960123875,1
865,273,62,0.0589653996523921,1
866,271,62,0.0636610596861528,1
866,272,62,0.0654601207617182,1
866,273,62,0.059250498857268,1
867,271,62,0.0721911321297858,1
867,272,62,0.071031835627745,1
867,273,62,0.061467576093837,1
868,272,62,0.0729918241093762,1
868,273,62,0.0635684188085678,1
868,274,62,0.0572073458755361,1
869,273,62,0.0632633820602727,1
869,274,62,0.0575414132438408,1
870,273,62,0.0610425307841331,1
870,274,62,0.0568441122576748,1
871,273,62,0.0595566737143711,1
872,273,62,0.0600524056058452,1
873,273,62,0.0572794713098927,1
875,310,62,0.0598881995029024,1
880,274,62,0.0585320042801383,1
880,275,62,0.0606571836531627,1
880,276,62,0.059147644485095,1
881,275,62,0.0627466216920661,1
881,276,62,0.0595510952121307,1
882,275,62,0.0642721238681302,1
882,276,62,0.0596835581041225,1
883,275,62,0.0659437580357558,1
883,276,62,0.0583887676845597,1
886,302,62,0.0571493023263274,1
886,303,62,0.0594583010141882,1
886,304,62,0.0573460536236299,1
887,303,62,0.0584971180018574,1
887,304,62,0.0572350673755697,1
850,305,63,0.0571358219287361,1
850,306,63,0.0615171280540118,1
851,305,63,0.0588164312342157,1
851,306,63,0.0627436673267147,1
851,307,63,0.0638540133561373,1
852,306,63,0.0586100030635766,1
852,307,63,0.0599927403990084,1
852,308,63,0.062805520297115,1
853,305,63,0.0583533270942169,1
853,306,63,0.0577529658525843,1
853,308,63,0.0617656426628,1
854,305,63,0.0575645351331476,1
854,308,63,0.058693450616645,1
854,309,63,0.0651671845277964,1
855,308,63,0.0573198771210456,1
861,310,63,0.0577769192099841,1
861,311,63,0.0628741960234266,1
862,309,63,0.0585740199550455,1
862,310,63,0.0638895070189116,1
862,311,63,0.0675251690698964,1
863,309,63,0.058073853567076,1
863,310,63,0.0630645078657117,1
863,311,63,0.062798827273814,1
863,312,63,0.0580548300488653,1
864,272,63,0.0665325023118351,1
864,273,63,0.0629066527637339,1
865,272,63,0.068268648968371,1
865,273,63,0.063652839356213,1
866,272,63,0.0697971290975337,1
866,273,63,0.0634543189778618,1
867,272,63,0.0710468669197223,1
867,273,63,0.0637682483068951,1
867,274,63,0.0569515249620167,1
868,273,63,0.0647109739069509,1
868,274,63,0.0592995024023177,1
869,273,63,0.064400753751183,1
869,274,63,0.0585290204301028,1
870,273,63,0.0632669556039912,1
870,274,63,0.0580135102125039,1
871,273,63,0.0616361872085911,1
872,273,63,0.0632210420538399,1
872,275,63,0.0570941777608491,1
873,273,63,0.0583593714544667,1
873,275,63,0.0576101538364575,1
873,276,63,0.0571396785254224,1
874,275,63,0.0570738981950939,1
874,276,63,0.057750424272811,1
874,310,63,0.0581360131781914,1
874,311,63,0.0573432171970151,1
875,276,63,0.0569278841422688,1
875,309,63,0.0574540029492232,1
875,310,63,0.0698866858771571,1
875,311,63,0.068752032674125,1
876,310,63,0.0637795940133543,1
876,311,63,0.064613084755588,1
880,274,63,0.0577972577451076,1
880,275,63,0.0589928911718893,1
880,276,63,0.0588655468210651,1
881,275,63,0.0619555299256335,1
881,276,63,0.0588910569697878,1
882,275,63,0.063552090190488,1
882,276,63,0.0586750757614856,1
883,276,63,0.0575188456665959,1
886,303,63,0.0574235865490588,1
887,303,63,0.057045669558493,1
850,305,64,0.0602733579318942,1
850,306,64,0.0642056123176349,1
851,305,64,0.0606138352705321,1
851,306,64,0.0629634461623348,1
851,307,64,0.06034182136848,1
852,305,64,0.0610000374573427,1
852,306,64,0.0605375348049006,1
852,307,64,0.0583561340361476,1
853,304,64,0.057765502740283,1
853,305,64,0.0667416371764787,1
853,306,64,0.0646315716525472,1
853,307,64,0.0604632746794119,1
853,308,64,0.0612617022352599,1
854,305,64,0.0653476190008928,1
854,306,64,0.0639502277774407,1
854,307,64,0.0594275425916877,1
854,308,64,0.060064659440576,1
855,306,64,0.0574481413940151,1
855,308,64,0.0585578387603865,1
855,309,64,0.0692195948983665,1
861,310,64,0.0600659213850574,1
861,311,64,0.0670253977766944,1
862,309,64,0.0586268683029078,1
862,310,64,0.0630415098120783,1
862,311,64,0.0652750748840214,1
863,309,64,0.0573103653619403,1
863,310,64,0.0598772370973371,1
863,311,64,0.0575229558315657,1
864,274,64,0.0607242672065304,1
865,272,64,0.0777937646356075,1
865,273,64,0.0727144380978727,1
865,274,64,0.0602821089861486,1
866,272,64,0.0769397171715876,1
866,273,64,0.0707824954478006,1
866,274,64,0.0600339953690647,1
867,273,64,0.0686921964561202,1
867,274,64,0.0617831329774351,1
868,273,64,0.067604677469163,1
868,274,64,0.0627288837060842,1
868,275,64,0.0591426969550954,1
869,273,64,0.0668681264714626,1
869,274,64,0.0610895175767873,1
869,275,64,0.058353185567733,1
870,273,64,0.066450080825775,1
870,274,64,0.0607383903702361,1
870,275,64,0.0577955948089218,1
871,273,64,0.0661050569488419,1
871,274,64,0.0600285819810556,1
871,275,64,0.0585460389897915,1
872,273,64,0.0678696268408939,1
872,274,64,0.0594943254012771,1
872,275,64,0.0596517441299296,1
872,276,64,0.0582963921691321,1
873,273,64,0.0612892409302517,1
873,274,64,0.057500311594142,1
873,275,64,0.0600309289619136,1
873,276,64,0.060989782684197,1
874,273,64,0.0579318612251684,1
874,274,64,0.0570447201516636,1
874,275,64,0.0594796833071305,1
874,276,64,0.0611026972306003,1
874,310,64,0.0610506744538941,1
874,311,64,0.0639552519676191,1
875,275,64,0.0578262058080016,1
875,276,64,0.0593180128870242,1
875,309,64,0.0588587712406485,1
875,310,64,0.0798252180946705,1
875,311,64,0.0836754166044343,1
875,312,64,0.0620885471296872,1
876,310,64,0.0733108248040825,1
876,311,64,0.0771268269771745,1
879,276,64,0.0580948348683138,1
879,277,64,0.0578345499736147,1
880,275,64,0.0587274936329594,1
880,276,64,0.0608532568027299,1
880,277,64,0.0601279689543731,1
881,275,64,0.0618617568361773,1
881,276,64,0.0608688777883902,1
881,277,64,0.0592784090592801,1
882,276,64,0.0597213397783865,1
882,277,64,0.0574764466907947,1
889,303,64,0.0580661344767667,1
890,303,64,0.0580824277132254,1
850,305,65,0.06002184178226,1
851,305,65,0.0598709450657405,1
851,306,65,0.0623729151143963,1
852,305,65,0.063168559316061,1
852,306,65,0.0645568338751753,1
852,307,65,0.0619008358365437,1
853,304,65,0.060289686549974,1
853,305,65,0.0717294255638156,1
853,306,65,0.0727469597044852,1
853,307,65,0.0674163528945893,1
854,304,65,0.0596126415418159,1
854,305,65,0.0726319517455074,1
854,306,65,0.0742716127216458,1
854,307,65,0.0676981203301567,1
854,308,65,0.0611778477935502,1
855,305,65,0.0651567292587984,1
855,306,65,0.0674849342699116,1
855,307,65,0.0617958290824281,1
855,308,65,0.0587167730018041,1
860,310,65,0.0569287922705405,1
861,309,65,0.0568786801013669,1
861,310,65,0.0636166380610192,1
861,311,65,0.0728771345849873,1
862,275,65,0.0621473631776205,1
862,309,65,0.0591803371028755,1
862,310,65,0.0637078400860179,1
862,311,65,0.0668109733597151,1
863,275,65,0.0592642210292693,1
863,310,65,0.0585168963279822,1
863,311,65,0.0574852920960384,1
864,274,65,0.071558897944592,1
864,275,65,0.0576422272758709,1
865,272,65,0.0870132302731187,1
865,273,65,0.0827243763234495,1
865,274,65,0.0702820165221791,1
865,275,65,0.0569514070232801,1
866,272,65,0.0832204797219439,1
866,273,65,0.0789055907961742,1
866,274,65,0.0686216631947075,1
866,275,65,0.0577310410414538,1
867,273,65,0.075121443875833,1
867,274,65,0.0677562995089125,1
867,275,65,0.0610838860021155,1
868,273,65,0.0722892748494323,1
868,274,65,0.066130826562785,1
868,275,65,0.0631901892803501,1
869,273,65,0.070745669077303,1
869,274,65,0.0636662489905623,1
869,275,65,0.0623911602369455,1
870,273,65,0.0702325707068672,1
870,274,65,0.0632465109240047,1
870,275,65,0.0614376845210503,1
870,276,65,0.056909798237014,1
871,273,65,0.0699998186102231,1
871,274,65,0.0627561216572978,1
871,275,65,0.0609592365514223,1
871,276,65,0.059129222454441,1
872,273,65,0.0707386930010342,1
872,274,65,0.0615828317241615,1
872,275,65,0.0607277876778174,1
872,276,65,0.0616334038544077,1
872,277,65,0.057152492569152,1
873,273,65,0.0635966061666108,1
873,274,65,0.058494370029295,1
873,275,65,0.0603587986496109,1
873,276,65,0.0634374596354674,1
873,277,65,0.05993289238713,1
874,274,65,0.0576914490075833,1
874,275,65,0.059933169543161,1
874,276,65,0.0630638002332922,1
874,277,65,0.0606070243084945,1
874,310,65,0.0597163568667659,1
874,311,65,0.0653242376463655,1
875,274,65,0.0571516846888064,1
875,275,65,0.0585815621372499,1
875,276,65,0.0609625329391097,1
875,277,65,0.0601100776480336,1
875,309,65,0.0581670900352807,1
875,310,65,0.079686221396672,1
875,311,65,0.0859823867460259,1
875,312,65,0.0641367243015975,1
876,274,65,0.0570682312388011,1
876,275,65,0.0568681481721902,1
876,276,65,0.0585670556726504,1
876,277,65,0.0589491653853016,1
876,309,65,0.0588504270750354,1
876,310,65,0.077733816375803,1
876,311,65,0.0815573017617311,1
876,312,65,0.0614193509444487,1
877,276,65,0.0575053121965731,1
877,277,65,0.0589036233421706,1
877,310,65,0.0579673371971321,1
877,311,65,0.0591883510400262,1
878,276,65,0.0576262170923799,1
878,277,65,0.0595453044201646,1
879,276,65,0.0594286099372538,1
879,277,65,0.0614610776694513,1
880,275,65,0.0591354260319852,1
880,276,65,0.060882824043991,1
880,277,65,0.062041837493064,1
881,275,65,0.0615498678472869,1
881,276,65,0.0602748380630383,1
881,277,65,0.0601307758963037,1
882,276,65,0.0587401130777736,1
882,277,65,0.0573816652251408,1
883,306,65,0.0613680947695303,1
884,306,65,0.0581356416711711,1
889,303,65,0.0600593580943667,1
889,304,65,0.0574842070596618,1
890,303,65,0.0598335702801177,1
851,305,66,0.0581856005199872,1
852,305,66,0.0628429127735483,1
852,306,66,0.0661778428401233,1
853,304,66,0.0588326596043693,1
853,305,66,0.0708764513422985,1
853,306,66,0.0745758062079743,1
854,304,66,0.0601099243276761,1
854,305,66,0.074919155354848,1
854,306,66,0.0792129804222641,1
854,307,66,0.0736907054746124,1
855,305,66,0.0704269868171854,1
855,306,66,0.0752412578383264,1
855,307,66,0.0695880060267638,1
856,305,66,0.057883294053444,1
856,306,66,0.0615901380288927,1
856,307,66,0.0571732497867904,1
861,276,66,0.0610997015866912,1
861,309,66,0.0569184844249633,1
861,310,66,0.0652558508699586,1
862,275,66,0.0688264991924027,1
862,309,66,0.0586909267276822,1
862,310,66,0.0642388769382878,1
862,311,66,0.0693226556633285,1
863,274,66,0.0809692946027554,1
863,275,66,0.0670290302897811,1
863,310,66,0.0585799640673692,1
863,311,66,0.0603568880420783,1
864,272,66,0.0946020749386506,1
864,273,66,0.0936185189479902,1
864,274,66,0.0818984277634202,1
864,275,66,0.0661560182769188,1
865,272,66,0.0904042991783067,1
865,273,66,0.0893637257054458,1
865,274,66,0.079515917861048,1
865,275,66,0.0658687725870371,1
866,273,66,0.083407619012215,1
866,274,66,0.076124436170282,1
866,275,66,0.0656102862580709,1
867,273,66,0.0794379190776096,1
867,274,66,0.0729491420806073,1
867,275,66,0.0661024799874475,1
868,273,66,0.0762626308848717,1
868,274,66,0.0693328632609796,1
868,275,66,0.0658286262411047,1
869,273,66,0.0740403643438931,1
869,274,66,0.0660706483224441,1
869,275,66,0.0650294615681531,1
869,276,66,0.0589072735460678,1
870,273,66,0.0727314861422456,1
870,274,66,0.0648183689204822,1
870,275,66,0.0639063604643691,1
870,276,66,0.0610310435511901,1
871,273,66,0.0718653440607892,1
871,274,66,0.0640499626700311,1
871,275,66,0.0621117456791729,1
871,276,66,0.0616061305215732,1
871,277,66,0.0587011991916385,1
872,274,66,0.0627270084801726,1
872,275,66,0.0610142254873535,1
872,276,66,0.0624327808170852,1
872,277,66,0.0612992185473665,1
873,274,66,0.0593750008845405,1
873,275,66,0.060531997581218,1
873,276,66,0.063647732608919,1
873,277,66,0.0629264664714796,1
874,274,66,0.0578825097608457,1
874,275,66,0.0604081265261862,1
874,276,66,0.0636819702241487,1
874,277,66,0.0633232300721511,1
874,311,66,0.0604018168037791,1
875,274,66,0.0581916271894265,1
875,275,66,0.059507852974363,1
875,276,66,0.0615062717933094,1
875,277,66,0.0622976996851413,1
875,310,66,0.0692553008508667,1
875,311,66,0.0758485479807331,1
875,312,66,0.0614894950080307,1
876,274,66,0.0590771760899874,1
876,275,66,0.0579753393404092,1
876,276,66,0.0590017542679434,1
876,277,66,0.0610256891325493,1
876,309,66,0.05849043677243,1
876,310,66,0.0736341951289792,1
876,311,66,0.0762106906652811,1
876,312,66,0.0608315442813252,1
877,276,66,0.0586127687269495,1
877,277,66,0.0617666038635032,1
877,278,66,0.0574516559683652,1
877,310,66,0.0619299843952899,1
877,311,66,0.0607497596644426,1
878,276,66,0.058545160346204,1
878,277,66,0.0626073065594789,1
878,278,66,0.0581093295390398,1
879,275,66,0.0573766351380256,1
879,276,66,0.0587482626444714,1
879,277,66,0.0628992521080134,1
879,278,66,0.0586803594168845,1
880,275,66,0.0593457166962473,1
880,276,66,0.0592698761916884,1
880,277,66,0.0620105660370594,1
880,278,66,0.0582826405124466,1
881,276,66,0.058621755658677,1
881,277,66,0.059043758148977,1
883,306,66,0.0636634007700739,1
883,307,66,0.0576745306958206,1
884,306,66,0.0577673897600683,1
889,303,66,0.0570684907040216,1
852,305,67,0.0610031569369253,1
853,305,67,0.0651482140820172,1
854,304,67,0.0571849198247751,1
854,305,67,0.0686850375748097,1
854,306,67,0.0755315994200433,1
855,305,67,0.0660517073613491,1
855,306,67,0.0737325029628569,1
855,307,67,0.0711061606195388,1
856,306,67,0.0612923957914553,1
856,307,67,0.0585098553854082,1
861,276,67,0.0653806772287567,1
861,310,67,0.0633814623233384,1
862,275,67,0.0747242380048993,1
862,276,67,0.0596230968108139,1
862,310,67,0.062863728960555,1
862,311,67,0.0693608206384864,1
863,274,67,0.0882799158917541,1
863,275,67,0.0751575508200375,1
863,310,67,0.0579711466183237,1
863,311,67,0.0623248079037446,1
863,312,67,0.0594966841760088,1
864,273,67,0.101906050379843,1
864,274,67,0.0909020183374922,1
864,275,67,0.0753139375847449,1
865,273,67,0.0939360866870471,1
865,274,67,0.0867147627124513,1
865,275,67,0.0743545295503996,1
866,273,67,0.0856452470736333,1
866,274,67,0.0809895918593212,1
866,275,67,0.0717585269470671,1
867,273,67,0.0805782746185555,1
867,274,67,0.0755486297736057,1
867,275,67,0.0688835638500978,1
867,276,67,0.0575749019480932,1
868,273,67,0.0779170990693879,1
868,274,67,0.0713987666249981,1
868,275,67,0.0669271783968691,1
868,276,67,0.0587277000257484,1
869,273,67,0.0751309556349383,1
869,274,67,0.0676851529660696,1
869,275,67,0.0658949078110636,1
869,276,67,0.0614866998599737,1
870,274,67,0.0668386123026331,1
870,275,67,0.0660955687774838,1
870,276,67,0.064854947619633,1
870,277,67,0.057571287125817,1
871,274,67,0.0659213732635526,1
871,275,67,0.0639881214935045,1
871,276,67,0.063539842252694,1
871,277,67,0.0611878313076019,1
872,274,67,0.0652410200738334,1
872,275,67,0.0633228172865731,1
872,276,67,0.0634294633891272,1
872,277,67,0.0635905677032978,1
873,274,67,0.061653441645753,1
873,275,67,0.0618274661485162,1
873,276,67,0.0635124509811229,1
873,277,67,0.0643718469668468,1
874,274,67,0.0596373909856876,1
874,275,67,0.0609961749637197,1
874,276,67,0.0638278073688689,1
874,277,67,0.065258663708826,1
875,274,67,0.0597897737302881,1
875,275,67,0.0594605241593728,1
875,276,67,0.0614315163251271,1
875,277,67,0.0640071037331573,1
875,278,67,0.0579571472902915,1
875,310,67,0.0575779388705602,1
875,311,67,0.06218219638347,1
876,275,67,0.0577718242565637,1
876,276,67,0.0586463340913806,1
876,277,67,0.0627134985978971,1
876,278,67,0.0598657321735836,1
876,309,67,0.0573207557646332,1
876,310,67,0.0667881463172497,1
876,311,67,0.067900986750951,1
876,312,67,0.0584453605873085,1
877,276,67,0.0584292619497651,1
877,277,67,0.0634922480755465,1
877,278,67,0.061628014054146,1
877,309,67,0.0597293419216636,1
877,310,67,0.0652052020795336,1
877,311,67,0.0623310999353413,1
878,276,67,0.0579140760636918,1
878,277,67,0.0632709478302245,1
878,278,67,0.061388114870065,1
879,277,67,0.0614377906659132,1
879,278,67,0.0606991344617649,1
880,276,67,0.0568862812529396,1
880,277,67,0.0596913361638001,1
880,278,67,0.059649420736819,1
881,277,67,0.0574410414820729,1
881,278,67,0.0569853851732893,1
883,306,67,0.0588225109760865,1
853,305,68,0.0568931806690297,1
854,305,68,0.0585367690050962,1
854,306,68,0.0649899402975245,1
855,305,68,0.0568538422034428,1
855,306,68,0.0647558672870307,1
861,276,68,0.0651585101337208,1
861,310,68,0.0576590335458338,1
861,311,68,0.0659701704158133,1
862,274,68,0.077721945841966,1
862,275,68,0.0741105850676539,1
862,276,68,0.0593664031506437,1
862,310,68,0.0586843162614968,1
862,311,68,0.0683663847993763,1
862,312,68,0.071112883127524,1
863,274,68,0.0879439438128537,1
863,275,68,0.0773423246366567,1
863,276,68,0.0577748552820939,1
863,311,68,0.0618390949079432,1
863,312,68,0.061047366272333,1
864,274,68,0.0929024715996446,1
864,275,68,0.0793199154747228,1
864,276,68,0.0574644818059685,1
865,274,68,0.0878433361736126,1
865,275,68,0.0774191676204765,1
865,276,68,0.0575962016839198,1
866,274,68,0.0803480817924952,1
866,275,68,0.0720706518134307,1
867,274,68,0.0749637008156549,1
867,275,68,0.06755409944198,1
868,274,68,0.0717346915284039,1
868,275,68,0.0653914981078381,1
868,276,68,0.0575215523606004,1
869,274,68,0.0685704718860942,1
869,275,68,0.064938271337028,1
869,276,68,0.0616103409344692,1
870,274,68,0.0671916088381591,1
870,275,68,0.0654672619522182,1
870,276,68,0.0660822417002501,1
870,277,68,0.0603256991431892,1
871,274,68,0.0655533513329861,1
871,275,68,0.0630090117932132,1
871,276,68,0.0628161701650284,1
871,277,68,0.0612000792453959,1
872,274,68,0.0646570876982067,1
872,275,68,0.0621968797561744,1
872,276,68,0.060627362843618,1
872,277,68,0.0610096612582478,1
873,274,68,0.0615803903923142,1
873,275,68,0.0601393264547059,1
873,276,68,0.0596865596449686,1
873,277,68,0.0608678753091292,1
874,274,68,0.0599084790686576,1
874,275,68,0.0588036643659807,1
874,276,68,0.0603332943978251,1
874,277,68,0.0619418077536322,1
875,275,68,0.0573701072289558,1
875,276,68,0.0587489172044594,1
875,277,68,0.060933921001615,1
876,277,68,0.058967817396492,1
876,278,68,0.0570629298925918,1
876,310,68,0.058881043971052,1
876,311,68,0.0579764243767858,1
877,277,68,0.0586367810537175,1
877,278,68,0.0589125630984035,1
877,309,68,0.0590884923117625,1
877,310,68,0.0641890891006398,1
877,311,68,0.0590070379233423,1
878,278,68,0.058038796277627,1
861,311,69,0.0580171427255906,1
862,275,69,0.0731802194471919,1
862,276,69,0.0602003892355711,1
862,311,69,0.0626866203598301,1
862,312,69,0.0658226526440968,1
863,274,69,0.0859644364703182,1
863,275,69,0.0763268898054983,1
863,276,69,0.0593905746947061,1
863,311,69,0.0575730149283079,1
863,312,69,0.0581688060438979,1
864,274,69,0.0897145639620924,1
864,275,69,0.0771738845330706,1
864,276,69,0.0585741791723399,1
865,274,69,0.0850045036085951,1
865,275,69,0.0748047311926163,1
865,276,69,0.0579243898062059,1
866,274,69,0.0775959459927389,1
866,275,69,0.0689646703192451,1
867,274,69,0.0736786580326705,1
867,275,69,0.0654228933995162,1
868,274,69,0.0718377994688605,1
868,275,69,0.0643445087677072,1
869,274,69,0.0697968224568186,1
869,275,69,0.0645170590362631,1
869,276,69,0.0605915920248128,1
870,274,69,0.0683069967485706,1
870,275,69,0.06482651848718,1
870,276,69,0.0644497396054223,1
870,277,69,0.0611042186403022,1
871,274,69,0.066640534194544,1
871,275,69,0.0623051003408618,1
871,276,69,0.0611996782536915,1
871,277,69,0.0600036438352054,1
872,274,69,0.0663188385997068,1
872,275,69,0.0612173336825578,1
872,276,69,0.0587038056377169,1
872,277,69,0.0580931306535702,1
873,274,69,0.0642298900065602,1
873,275,69,0.0590166499303737,1
873,276,69,0.0573901273294905,1
873,277,69,0.0577156028608352,1
874,275,69,0.0576819962178462,1
874,276,69,0.0574104068952458,1
874,277,69,0.0583716311861344,1
875,277,69,0.0582580208011852,1
877,310,69,0.0586264260326456,1
859,277,70,0.0593110368107554,1
861,276,70,0.0642021685065267,1
862,276,70,0.0608849587351231,1
863,275,70,0.0759632551959326,1
863,276,70,0.0608974425503903,1
864,275,70,0.0769995121110345,1
864,276,70,0.0607574138884467,1
865,275,70,0.0743751216538068,1
865,276,70,0.0597261929573968,1
866,275,70,0.0686998035046298,1
866,276,70,0.0569982817741345,1
867,275,70,0.0652316262534647,1
868,275,70,0.0645122117541896,1
868,276,70,0.057133445463194,1
869,275,70,0.0650231341549355,1
869,276,70,0.0606936385166402,1
870,275,70,0.0651021000360138,1
870,276,70,0.0638308855698937,1
870,277,70,0.0606870929167599,1
871,275,70,0.0628219963386155,1
871,276,70,0.0613766925034271,1
871,277,70,0.0598191935481284,1
872,275,70,0.0612810264972488,1
872,276,70,0.0586142606519672,1
872,277,70,0.0576523464194696,1
873,275,70,0.0593038484447607,1
873,276,70,0.0568641264612727,1
874,277,70,0.057166845713394,1
875,277,70,0.0570641623523891,1
