x,y,z,signal,cytoplasm.p
46,462,1,0.0574920087070867,1
46,463,1,0.0666758509492134,1
47,462,1,0.0740150487940859,1
47,463,1,0.0808128016931851,1
48,462,1,0.0750232009082604,1
48,463,1,0.0822288921033223,1
49,462,1,0.0597671648744853,1
49,463,1,0.0666584255008835,1
68,431,1,0.0694607383361184,1
68,432,1,0.0606285776126048,1
69,431,1,0.118300973617293,1
69,432,1,0.101555501073101,1
69,433,1,0.0694185162684221,1
70,430,1,0.150005205815833,1
70,431,1,0.172619404243323,1
70,432,1,0.148576260083408,1
70,433,1,0.0950934607876817,1
70,434,1,0.0612355493204228,1
71,430,1,0.165831098237023,1
71,431,1,0.175392993099263,1
71,432,1,0.1497314818021,1
71,433,1,0.103346624871694,1
71,434,1,0.0738992211608889,1
71,435,1,0.0598451931426078,1
72,429,1,0.155244704951719,1
72,430,1,0.157511994605388,1
72,431,1,0.148821490098383,1
72,432,1,0.130525512365971,1
72,433,1,0.105775856204564,1
72,434,1,0.0877401692637877,1
72,435,1,0.0778978042920831,1
72,436,1,0.0700516232002667,1
72,437,1,0.0584345809867849,1
73,428,1,0.140802340055495,1
73,429,1,0.153608647003983,1
73,430,1,0.145170708301368,1
73,431,1,0.131309981872344,1
73,432,1,0.121204696075178,1
73,433,1,0.110528268358367,1
73,434,1,0.099576665981364,1
73,435,1,0.100639883691649,1
73,436,1,0.104011020950354,1
73,437,1,0.0865456031825721,1
73,438,1,0.063139163085968,1
74,424,1,0.0795263613361723,1
74,425,1,0.0864652043458443,1
74,426,1,0.105505576001939,1
74,427,1,0.130576733159268,1
74,428,1,0.144331633159957,1
74,429,1,0.151438951654836,1
74,430,1,0.140126315217409,1
74,431,1,0.124374004773971,1
74,437,1,0.122639986911631,1
74,438,1,0.0814666717396049,1
75,424,1,0.0824198172270376,1
75,425,1,0.0906648966106577,1
75,426,1,0.107957144931517,1
75,427,1,0.127798827745569,1
75,428,1,0.137707391730117,1
75,429,1,0.144724781938352,1
75,430,1,0.134901239989006,1
75,431,1,0.119198982745374,1
76,425,1,0.092472968205698,1
76,426,1,0.101552835657654,1
76,427,1,0.112627259434934,1
76,428,1,0.118117602469656,1
76,429,1,0.122599816977951,1
76,430,1,0.116837884620628,1
76,431,1,0.108966558990173,1
77,426,1,0.0945122704876804,1
77,427,1,0.0984652467094385,1
77,428,1,0.101093452484795,1
77,429,1,0.102907126169823,1
29,452,2,0.0614108416646043,1
30,451,2,0.0588443768178487,1
30,452,2,0.0612392054212569,1
46,463,2,0.0675002839964777,1
47,462,2,0.0737256978977562,1
47,463,2,0.0813321095381019,1
48,462,2,0.0773645501915655,1
48,463,2,0.0863429549484405,1
49,462,2,0.0643524814263001,1
49,463,2,0.0739601306213966,1
60,463,2,0.0732122634019212,1
68,430,2,0.0676162531561585,1
68,431,2,0.0664591444176813,1
68,432,2,0.057060335240387,1
69,430,2,0.104241685531361,1
69,431,2,0.113619937986869,1
69,432,2,0.0942990490458143,1
69,433,2,0.0623740709140148,1
70,429,2,0.116502985784231,1
70,430,2,0.152033928993144,1
70,431,2,0.173133345875725,1
70,432,2,0.144284221787851,1
70,433,2,0.0888102569054781,1
70,434,2,0.0579016924963507,1
71,429,2,0.139900344598118,1
71,430,2,0.164055801816879,1
71,431,2,0.172333567921343,1
71,432,2,0.144427022010104,1
71,433,2,0.0982123093980284,1
71,434,2,0.0712719647923623,1
72,428,2,0.12691240020142,1
72,429,2,0.14993939600082,1
72,430,2,0.149752592835948,1
72,431,2,0.14118358881537,1
72,432,2,0.125582841442313,1
72,433,2,0.103485839756356,1
72,434,2,0.0854658858430398,1
72,435,2,0.069313668731601,1
72,436,2,0.0600975702450191,1
73,424,2,0.068776251393682,1
73,425,2,0.073046653828013,1
73,426,2,0.0825742992811492,1
73,427,2,0.109557479235942,1
73,428,2,0.134561942037734,1
73,429,2,0.15600766243254,1
73,430,2,0.14631612931105,1
73,431,2,0.128684795328645,1
73,432,2,0.116947461500786,1
73,433,2,0.10671992040928,1
73,434,2,0.0933131519712328,1
73,435,2,0.0887628986058037,1
73,436,2,0.0978335668363066,1
73,437,2,0.0802004755667263,1
73,438,2,0.0584070010132353,1
74,423,2,0.0698258412829546,1
74,424,2,0.0749245569489834,1
74,425,2,0.0814439685328129,1
74,426,2,0.0955402009279797,1
74,427,2,0.120709070328567,1
74,428,2,0.141080085780145,1
74,429,2,0.167266377279602,1
74,430,2,0.159538512328325,1
74,431,2,0.134122573068473,1
74,432,2,0.113082750629486,1
74,433,2,0.102045548317472,1
74,437,2,0.132679970030352,1
74,438,2,0.0794064176410686,1
75,423,2,0.0726718209354089,1
75,424,2,0.0773869408607056,1
75,425,2,0.0853768538907942,1
75,426,2,0.10012318229281,1
75,427,2,0.119315883621074,1
75,428,2,0.13107577912924,1
75,429,2,0.153483113012766,1
75,430,2,0.150251261401963,1
75,431,2,0.129267672152579,1
75,432,2,0.106780151722052,1
76,424,2,0.07990459086439,1
76,425,2,0.086142960335882,1
76,426,2,0.0959701819738095,1
76,427,2,0.108443807334148,1
76,428,2,0.113019794931899,1
76,429,2,0.122674943953154,1
76,430,2,0.119818750806111,1
76,431,2,0.11122036824625,1
76,432,2,0.101014292004801,1
77,425,2,0.0864931145478564,1
77,426,2,0.0894504696462017,1
77,427,2,0.0971172128472458,1
77,428,2,0.10128703712702,1
77,429,2,0.104279862300392,1
77,430,2,0.100776008581411,1
77,431,2,0.0968554419244658,1
78,426,2,0.0823513596873888,1
78,427,2,0.0845453209315877,1
78,428,2,0.0876789767503123,1
78,429,2,0.0889446657866235,1
29,451,3,0.0745054793393506,1
29,452,3,0.0928500301404235,1
29,453,3,0.0845113368846417,1
30,451,3,0.071931389753275,1
30,452,3,0.08755363735801,1
30,453,3,0.0750447365215602,1
45,463,3,0.05834980662293,1
46,463,3,0.0602362661992393,1
47,462,3,0.0652005906749332,1
47,463,3,0.0717590399805712,1
48,462,3,0.07273237068277,1
48,463,3,0.0805981590895431,1
49,462,3,0.0650664589498188,1
49,463,3,0.0741297972878431,1
60,463,3,0.0587417819108962,1
61,463,3,0.0728906149825786,1
68,430,3,0.063514172886677,1
68,431,3,0.0639956400879615,1
69,430,3,0.0993041095611235,1
69,431,3,0.10574666636726,1
69,432,3,0.0865961576220079,1
69,433,3,0.057609581833585,1
70,429,3,0.111933131000782,1
70,430,3,0.147000893409517,1
70,431,3,0.160368647713503,1
70,432,3,0.131655471607287,1
70,433,3,0.0824258615872874,1
71,429,3,0.132238749422926,1
71,430,3,0.158287783820749,1
71,431,3,0.162769632718961,1
71,432,3,0.136963787995969,1
71,433,3,0.0946899923698355,1
71,434,3,0.0680066126834337,1
72,425,3,0.0651923231694988,1
72,428,3,0.12533922718803,1
72,429,3,0.142058057371629,1
72,430,3,0.141086277563816,1
72,431,3,0.132126884531278,1
72,432,3,0.12004029872278,1
72,433,3,0.101301850232335,1
72,434,3,0.0845747584402385,1
72,435,3,0.0645473516007542,1
73,424,3,0.0681329368641864,1
73,425,3,0.0730974913204166,1
73,426,3,0.0780733089259904,1
73,427,3,0.103834112845481,1
73,428,3,0.135241056870719,1
73,429,3,0.162444499209952,1
73,430,3,0.156942645354539,1
73,431,3,0.131453961481963,1
73,432,3,0.11193767164214,1
73,433,3,0.101406945440503,1
73,434,3,0.0905445873054707,1
73,435,3,0.0796529803637665,1
73,436,3,0.0906660524102762,1
73,437,3,0.0773934451820281,1
73,438,3,0.0584223389459277,1
74,423,3,0.0655533218483019,1
74,424,3,0.0746002902896887,1
74,425,3,0.0818929318182955,1
74,426,3,0.0899046988962727,1
74,427,3,0.112299566655341,1
74,428,3,0.142623314148318,1
74,429,3,0.191303400419088,1
74,430,3,0.198847917810476,1
74,431,3,0.160526072339092,1
74,432,3,0.116423766334869,1
74,433,3,0.0968545691778151,1
74,437,3,0.144360799409514,1
74,438,3,0.0848226715614702,1
75,423,3,0.0705474140611091,1
75,424,3,0.07743284851392,1
75,425,3,0.0858331411718185,1
75,426,3,0.09677511385098,1
75,427,3,0.112569233576536,1
75,428,3,0.125905545413348,1
75,429,3,0.161132961489795,1
75,430,3,0.174176950374116,1
75,431,3,0.149217245322856,1
75,432,3,0.11165170558755,1
76,424,3,0.0772188899549502,1
76,425,3,0.0842428139691923,1
76,426,3,0.0959061648275929,1
76,427,3,0.110437325798589,1
76,428,3,0.114829045914305,1
76,429,3,0.123591563813867,1
76,430,3,0.125821974024607,1
76,431,3,0.117731872037792,1
76,432,3,0.101988218297619,1
77,424,3,0.077948352834582,1
77,425,3,0.0816296335888767,1
77,426,3,0.0886010394837189,1
77,427,3,0.0999154096205741,1
77,428,3,0.106185398467344,1
77,429,3,0.106915969971099,1
77,430,3,0.10227725075936,1
77,431,3,0.0964286806061447,1
78,425,3,0.0808107849407896,1
78,426,3,0.0812274271155119,1
78,427,3,0.0855884595719692,1
78,428,3,0.0897837763096554,1
78,429,3,0.0898132609938009,1
78,430,3,0.0851857813436581,1
79,427,3,0.0731285504866954,1
79,428,3,0.0733949387110126,1
28,451,4,0.0714926281685067,1
28,452,4,0.105238374000339,1
29,451,4,0.104710338688916,1
29,452,4,0.156683510362522,1
29,453,4,0.121010285861797,1
30,451,4,0.0859767374805436,1
30,452,4,0.128236911182602,1
30,453,4,0.0983360919990078,1
31,452,4,0.0596240285268329,1
48,463,4,0.0632533926492843,1
49,463,4,0.0598354396090925,1
68,430,4,0.0586566242461474,1
68,431,4,0.0593335866971898,1
69,430,4,0.0924496399236021,1
69,431,4,0.0953780764437376,1
69,432,4,0.0761887540602769,1
70,429,4,0.105646571761523,1
70,430,4,0.135772264734157,1
70,431,4,0.141571300618008,1
70,432,4,0.114520683293638,1
70,433,4,0.0744687709075895,1
71,429,4,0.123974369365064,1
71,430,4,0.147737868986669,1
71,431,4,0.149056919404347,1
71,432,4,0.126302055445736,1
71,433,4,0.0894545975019821,1
71,434,4,0.0627345565593138,1
72,425,4,0.0603575484990031,1
72,428,4,0.12921976543778,1
72,429,4,0.143002770239396,1
72,430,4,0.140987503871929,1
72,431,4,0.127605962529637,1
72,432,4,0.116077474616517,1
72,433,4,0.0978007208981686,1
72,434,4,0.0800687674826486,1
72,435,4,0.0595823725650722,1
73,424,4,0.0635343698953166,1
73,425,4,0.0695714592220214,1
73,426,4,0.0747305123456854,1
73,427,4,0.101669536037502,1
73,428,4,0.147856975316743,1
73,429,4,0.182216975573378,1
73,430,4,0.184529081946948,1
73,431,4,0.146195301075422,1
73,432,4,0.116110190822045,1
73,433,4,0.0980785255921869,1
73,434,4,0.0860337372719336,1
73,435,4,0.0728764918188729,1
73,436,4,0.0802022210600277,1
73,437,4,0.0746559514764184,1
73,438,4,0.0571070035984524,1
74,423,4,0.0597775081016836,1
74,424,4,0.0717046171505756,1
74,425,4,0.0802888234742997,1
74,426,4,0.0845679003027063,1
74,427,4,0.106884574679421,1
74,428,4,0.15537021535519,1
74,429,4,0.225473295226227,1
74,430,4,0.255429970195466,1
74,431,4,0.204587335662985,1
74,432,4,0.138528221748979,1
74,433,4,0.100482742119027,1
74,437,4,0.154637367633818,1
74,438,4,0.0941439949888303,1
75,423,4,0.0648354346556656,1
75,424,4,0.0747994770219016,1
75,425,4,0.0850044446392268,1
75,426,4,0.0936800829684859,1
75,427,4,0.110534259646186,1
75,428,4,0.133571516115668,1
75,429,4,0.179096988854223,1
75,430,4,0.211408581958411,1
75,431,4,0.183098874270042,1
75,432,4,0.132374485114858,1
75,433,4,0.0944694941079222,1
76,424,4,0.0721440391922687,1
76,425,4,0.0808335176322657,1
76,426,4,0.0950880238119253,1
76,427,4,0.116425181599708,1
76,428,4,0.128398970800539,1
76,429,4,0.136364494099902,1
76,430,4,0.142653258793536,1
76,431,4,0.132934033656696,1
76,432,4,0.109949943969665,1
77,424,4,0.0685143979137864,1
77,425,4,0.0744219197444824,1
77,426,4,0.0858497705336766,1
77,427,4,0.103679247490476,1
77,428,4,0.115635204354336,1
77,429,4,0.114808583543508,1
77,430,4,0.107996548263409,1
77,431,4,0.0982911868250543,1
78,425,4,0.0718084740020095,1
78,426,4,0.0771380488479603,1
78,427,4,0.084706714195663,1
78,428,4,0.0912113008803042,1
78,429,4,0.0909767797026113,1
78,430,4,0.0838643839451224,1
79,426,4,0.0689470443750629,1
79,427,4,0.0696589048982599,1
79,428,4,0.0707523090281725,1
28,451,5,0.0811563631297846,1
28,452,5,0.139860481305153,1
29,451,5,0.128199465633737,1
29,452,5,0.219116633201943,1
29,453,5,0.153760151104996,1
30,451,5,0.0898279856450631,1
30,452,5,0.158480177281735,1
30,453,5,0.111901122427674,1
31,452,5,0.0589578692640613,1
48,463,5,0.0588626986005767,1
68,430,5,0.0581182162228412,1
68,431,5,0.0571730787756223,1
69,430,5,0.0900155966902805,1
69,431,5,0.0859216482966863,1
69,432,5,0.0663829265091653,1
70,429,5,0.105930320567865,1
70,430,5,0.128159519783657,1
70,431,5,0.123659708815864,1
70,432,5,0.0966586375547318,1
70,433,5,0.0657974019605947,1
71,429,5,0.121483597599447,1
71,430,5,0.138520720845332,1
71,431,5,0.134537988680334,1
71,432,5,0.112431316017977,1
71,433,5,0.0819876425207074,1
71,434,5,0.0578651904573787,1
72,425,5,0.061134346090562,1
72,426,5,0.0696125195931623,1
72,427,5,0.0920436947922877,1
72,428,5,0.133348187324077,1
72,429,5,0.15172180412678,1
72,430,5,0.146456169766867,1
72,431,5,0.127083942093779,1
72,432,5,0.111831113993639,1
72,433,5,0.0924228619334612,1
72,434,5,0.0747796043447876,1
72,435,5,0.0568994373190053,1
73,424,5,0.0630560280705515,1
73,425,5,0.0706636721706945,1
73,426,5,0.0767167480931429,1
73,427,5,0.104115019328272,1
73,428,5,0.162915287058639,1
73,429,5,0.20353765731966,1
73,430,5,0.20486258108642,1
73,431,5,0.155124265913922,1
73,432,5,0.119707864805977,1
73,433,5,0.0953540110445381,1
73,434,5,0.0838834487418909,1
73,435,5,0.0718997232025028,1
73,436,5,0.0728962052786925,1
73,437,5,0.0727365928895396,1
73,438,5,0.0580018401745191,1
74,423,5,0.059012946654045,1
74,424,5,0.0707238857926563,1
74,425,5,0.0808249022075584,1
74,426,5,0.084717098701419,1
74,427,5,0.107275989758389,1
74,428,5,0.169073222311782,1
74,429,5,0.244037583584362,1
74,430,5,0.279796985919908,1
74,431,5,0.222476000174738,1
74,432,5,0.154198069427798,1
74,433,5,0.104788897681353,1
74,437,5,0.147026828137692,1
74,438,5,0.100300385244524,1
75,423,5,0.0634798998898263,1
75,424,5,0.074284821860143,1
75,425,5,0.0860964570920478,1
75,426,5,0.0959474315915229,1
75,427,5,0.115420956845461,1
75,428,5,0.14827424256677,1
75,429,5,0.191461013746656,1
75,430,5,0.227234450791855,1
75,431,5,0.196554752398001,1
75,432,5,0.148722433353528,1
75,433,5,0.101258330838536,1
75,438,5,0.144273819591285,1
75,439,5,0.0702399477748404,1
76,424,5,0.0712166869065264,1
76,425,5,0.0818173566758939,1
76,426,5,0.100138243069472,1
76,427,5,0.125802620277933,1
76,428,5,0.145655920057539,1
76,429,5,0.14949803386691,1
76,430,5,0.154377324513529,1
76,431,5,0.140943206082469,1
76,432,5,0.118650850673237,1
77,424,5,0.0664044857102124,1
77,425,5,0.0742899757829316,1
77,426,5,0.0907581153880519,1
77,427,5,0.110475219514653,1
77,428,5,0.124865585221918,1
77,429,5,0.121324179809209,1
77,430,5,0.11325063642101,1
77,431,5,0.100289652819495,1
78,425,5,0.0696439797511455,1
78,426,5,0.0802009473216726,1
78,427,5,0.088575676758417,1
78,428,5,0.094461085076004,1
78,429,5,0.0920488015395817,1
78,430,5,0.0841830779991137,1
79,426,5,0.0685731078168568,1
79,427,5,0.0709138202309844,1
79,428,5,0.0714361473075577,1
28,451,6,0.07272547126668,1
28,452,6,0.147408949644217,1
28,453,6,0.0947770488482433,1
29,451,6,0.131279718792538,1
29,452,6,0.252957077942314,1
29,453,6,0.174315587358968,1
29,454,6,0.058556476567979,1
30,451,6,0.0819939994186092,1
30,452,6,0.171241490602217,1
30,453,6,0.1178210101349,1
47,463,6,0.0573999752139951,1
69,429,6,0.0888887156499892,1
69,430,6,0.099591396529563,1
69,431,6,0.081117915101659,1
70,428,6,0.0796464819393808,1
70,429,6,0.117271403828556,1
70,430,6,0.133443717700708,1
70,431,6,0.110837999068378,1
70,432,6,0.0783905051580271,1
70,433,6,0.0578580551638155,1
71,429,6,0.121055751244749,1
71,430,6,0.131052262145166,1
71,432,6,0.0952408370329142,1
71,433,6,0.0738705679448364,1
72,425,6,0.064355418100841,1
72,426,6,0.0718383773686698,1
72,427,6,0.0907797099707201,1
72,428,6,0.127453727208457,1
72,429,6,0.148960787540159,1
72,430,6,0.138299349836768,1
72,431,6,0.119050780928985,1
72,432,6,0.104295465595242,1
72,433,6,0.0863330952700622,1
72,434,6,0.0691486547483126,1
73,424,6,0.0645295841300881,1
73,425,6,0.0768806652461811,1
73,426,6,0.082402173592045,1
73,427,6,0.106408538556956,1
73,428,6,0.165171289975217,1
73,429,6,0.208540642113206,1
73,430,6,0.198162670163189,1
73,431,6,0.152467825605028,1
73,432,6,0.12112478078727,1
73,433,6,0.0937173398153721,1
73,434,6,0.0785878874275703,1
73,436,6,0.0646198249543837,1
73,437,6,0.0668338004021805,1
73,438,6,0.0572994796165538,1
74,423,6,0.05816573373981,1
74,424,6,0.0708550454616089,1
74,425,6,0.0872361580730056,1
74,426,6,0.0928129443047054,1
74,427,6,0.110838694906924,1
74,428,6,0.172147554946006,1
74,429,6,0.241501971511096,1
74,430,6,0.260381981867061,1
74,431,6,0.211789901481528,1
74,432,6,0.157541809517996,1
74,433,6,0.106102475741653,1
74,437,6,0.122356780623477,1
74,438,6,0.0963574338153757,1
75,424,6,0.0745699918282608,1
75,425,6,0.0937281547975166,1
75,426,6,0.108666345936204,1
75,427,6,0.126659456993074,1
75,428,6,0.163362805594599,1
75,429,6,0.204010143486154,1
75,430,6,0.223805028209531,1
75,431,6,0.195674953010849,1
75,432,6,0.157452046345583,1
75,433,6,0.106919295843471,1
75,438,6,0.148549334669847,1
75,439,6,0.0773851717796569,1
76,424,6,0.0717138045781553,1
76,425,6,0.0892691801172651,1
76,426,6,0.11563850663896,1
76,427,6,0.141793638724212,1
76,428,6,0.162789871006158,1
76,429,6,0.166244025341544,1
76,430,6,0.161935805851328,1
76,431,6,0.144982371932921,1
76,432,6,0.125603374576352,1
76,433,6,0.0936693092648992,1
76,439,6,0.0754846126273892,1
77,424,6,0.0665497685428707,1
77,425,6,0.0791487568832585,1
77,426,6,0.104228511774485,1
77,427,6,0.126060222066375,1
77,428,6,0.13502095960051,1
77,429,6,0.128936099188553,1
77,430,6,0.117295262834966,1
77,431,6,0.102153792489907,1
77,432,6,0.0893073450924229,1
78,425,6,0.0714388657954359,1
78,426,6,0.0895105712263638,1
78,427,6,0.101736607796996,1
78,428,6,0.10116491156529,1
78,429,6,0.0942995266976974,1
78,430,6,0.0848343239086445,1
79,426,6,0.0710862525608038,1
79,427,6,0.0763127784356663,1
79,428,6,0.0735233622012765,1
28,451,7,0.060270503814469,1
28,452,7,0.12941207634165,1
28,453,7,0.0891108650542145,1
29,451,7,0.11711689228976,1
29,452,7,0.239507297247036,1
29,453,7,0.178342334260458,1
29,454,7,0.0686677654468373,1
30,451,7,0.0719032082921688,1
30,452,7,0.163454691664269,1
30,453,7,0.123479663540598,1
31,452,7,0.0580200440185105,1
44,433,7,0.0578282402512076,1
45,432,7,0.0607711773390058,1
69,429,7,0.102084869092248,1
69,430,7,0.114364956985856,1
70,428,7,0.0814873758848118,1
70,429,7,0.124224717921206,1
70,430,7,0.139508422382583,1
70,431,7,0.102816160022297,1
70,432,7,0.0657457094123509,1
71,429,7,0.114216082918669,1
71,430,7,0.121844667041492,1
71,432,7,0.0800689384938167,1
71,433,7,0.0659619323950631,1
72,425,7,0.0641026459036622,1
72,426,7,0.0709738215632204,1
72,427,7,0.0854066982880862,1
72,428,7,0.113190157436891,1
72,429,7,0.131406561903731,1
72,430,7,0.120942966430956,1
72,431,7,0.105175135249784,1
72,432,7,0.0939445369975232,1
72,433,7,0.0781338468794778,1
72,434,7,0.0629661292685921,1
73,424,7,0.0635974199438932,1
73,425,7,0.0783496040041805,1
73,426,7,0.0847855562410679,1
73,427,7,0.103240079017066,1
73,428,7,0.152536949498539,1
73,429,7,0.191320371803282,1
73,430,7,0.174373849094839,1
73,431,7,0.139779197927901,1
73,432,7,0.116044215892801,1
73,434,7,0.0711844247651344,1
73,437,7,0.0585307600264673,1
74,424,7,0.0677771864591612,1
74,425,7,0.0876898507018251,1
74,426,7,0.0955446000428542,1
74,427,7,0.109026507249977,1
74,428,7,0.159898107536163,1
74,429,7,0.218114720046934,1
74,430,7,0.21694575846543,1
74,431,7,0.181818967719036,1
74,432,7,0.144031479075357,1
74,433,7,0.0991579362910041,1
74,436,7,0.0768651209206996,1
74,437,7,0.0919305384714744,1
74,438,7,0.0826856570362297,1
75,424,7,0.0722925771340566,1
75,425,7,0.0962160488579615,1
75,426,7,0.113215868081466,1
75,427,7,0.129081211010043,1
75,428,7,0.161232855599679,1
75,429,7,0.205035785914964,1
75,430,7,0.207159390805855,1
75,431,7,0.184113395075992,1
75,432,7,0.152684337537645,1
75,433,7,0.1056876380296,1
75,437,7,0.137955464068643,1
75,438,7,0.126252438619256,1
75,439,7,0.0757688096009302,1
76,424,7,0.0702980679842279,1
76,425,7,0.0929611756057782,1
76,426,7,0.121471603229936,1
76,427,7,0.145205936601985,1
76,428,7,0.160017202072363,1
76,429,7,0.174902438718325,1
76,430,7,0.164295877909065,1
76,431,7,0.147060369914376,1
76,432,7,0.126387065687064,1
76,433,7,0.0940001922873161,1
76,439,7,0.0796683595750167,1
77,424,7,0.0650170013406332,1
77,425,7,0.0816112882184014,1
77,426,7,0.110841360322371,1
77,427,7,0.134767226202628,1
77,428,7,0.13495609329539,1
77,429,7,0.134274360222453,1
77,430,7,0.120145960036884,1
77,431,7,0.105479829975743,1
77,432,7,0.0910199924556949,1
78,425,7,0.0714446624843389,1
78,426,7,0.0949460609547018,1
78,427,7,0.113291396048373,1
78,428,7,0.107331314819719,1
78,429,7,0.0984811743358139,1
79,426,7,0.0720113109381196,1
79,427,7,0.0819241678926791,1
79,428,7,0.0775516364094052,1
28,452,8,0.0966436829229333,1
28,453,8,0.0791569890070719,1
29,451,8,0.090362849609335,1
29,452,8,0.185068793193293,1
29,453,8,0.158601595211046,1
29,454,8,0.0714067451805279,1
30,451,8,0.0609738727486321,1
30,452,8,0.135527164451793,1
30,453,8,0.120901581728289,1
30,454,8,0.0610848118211977,1
42,433,8,0.0636966889784741,1
43,433,8,0.064009185351858,1
44,432,8,0.0834651318371091,1
45,432,8,0.0588308256570155,1
69,431,8,0.0805428399251495,1
70,429,8,0.117535680949488,1
70,430,8,0.1344198494479,1
70,432,8,0.0576265532177792,1
71,432,8,0.0668951816176345,1
71,433,8,0.0575512139528507,1
72,425,8,0.0615449144203505,1
72,426,8,0.0690942672999379,1
72,427,8,0.0788281699125451,1
72,428,8,0.097411033621692,1
72,429,8,0.108660767433964,1
72,433,8,0.0681874009727398,1
73,424,8,0.0613356852047176,1
73,425,8,0.0763599775180463,1
73,426,8,0.0859118004121817,1
73,427,8,0.0979072372681124,1
73,428,8,0.13221796861754,1
73,429,8,0.159330657098973,1
73,430,8,0.144068040083697,1
73,431,8,0.121364856879456,1
74,424,8,0.0647180502311458,1
74,425,8,0.0866965411776494,1
74,426,8,0.0989043915951007,1
74,427,8,0.10814692015255,1
74,428,8,0.145800489360841,1
74,429,8,0.192366040229563,1
74,430,8,0.182014592701404,1
74,431,8,0.152857518778442,1
74,432,8,0.124204349901399,1
74,436,8,0.0636907507630872,1
74,437,8,0.0699448237773551,1
74,438,8,0.0665725719975888,1
75,424,8,0.0689190811006194,1
75,425,8,0.0964513838129367,1
75,426,8,0.115648083264371,1
75,427,8,0.127365461857999,1
75,428,8,0.152804776575442,1
75,429,8,0.205689921323541,1
75,430,8,0.201454128011459,1
75,431,8,0.171490400305773,1
75,432,8,0.135992680438955,1
75,433,8,0.0967324613068952,1
75,437,8,0.093408611584622,1
75,438,8,0.092983436542308,1
75,439,8,0.0656535461866491,1
76,424,8,0.0681350302767607,1
76,425,8,0.0954002430292781,1
76,426,8,0.124862188586304,1
76,427,8,0.143008537443615,1
76,428,8,0.151539388282909,1
76,429,8,0.186263547976487,1
76,430,8,0.180519200284789,1
76,431,8,0.152451007541192,1
76,432,8,0.11891600054082,1
76,433,8,0.0888404197373589,1
76,438,8,0.0997762419114076,1
76,439,8,0.0727093195567051,1
77,425,8,0.0826988897624742,1
77,426,8,0.113703332467506,1
77,427,8,0.137078117807211,1
77,428,8,0.129796037692465,1
77,429,8,0.137190159606964,1
77,430,8,0.127099993555827,1
77,431,8,0.1085991444441,1
77,432,8,0.0869581175015141,1
78,425,8,0.0706119678285771,1
78,426,8,0.0967219588624026,1
78,427,8,0.119339164727675,1
78,428,8,0.109863164647288,1
78,429,8,0.0978059986566306,1
79,426,8,0.0719027955065907,1
79,427,8,0.0850996153027115,1
79,428,8,0.080120265431977,1
28,452,9,0.0634572379615922,1
28,453,9,0.0619849910220316,1
29,451,9,0.0601112452415258,1
29,452,9,0.114711861985637,1
29,453,9,0.114031154979708,1
29,454,9,0.0628082564758037,1
30,452,9,0.092330504108844,1
30,453,9,0.0958129224624514,1
42,433,9,0.0608098435537942,1
43,432,9,0.0941242756320738,1
43,433,9,0.06042145360342,1
44,431,9,0.081459560033789,1
44,432,9,0.0763364723278455,1
69,430,9,0.101568002579179,1
69,431,9,0.0721227099717579,1
70,431,9,0.0806971214834089,1
71,432,9,0.058222385611927,1
72,426,9,0.0681684600116448,1
72,427,9,0.0737440786498524,1
72,433,9,0.0599738584072817,1
73,425,9,0.0702012107968101,1
73,426,9,0.0826880865742033,1
73,427,9,0.091744684713432,1
73,428,9,0.109500373299689,1
73,429,9,0.122297481026724,1
73,430,9,0.113871182877409,1
74,424,9,0.0608810962415,1
74,425,9,0.0784140929053434,1
74,426,9,0.0948582555653167,1
74,427,9,0.103120500932046,1
74,428,9,0.126840658067958,1
74,429,9,0.157846468862334,1
74,430,9,0.152453319140429,1
74,431,9,0.125679963991888,1
75,424,9,0.0635828839946095,1
75,425,9,0.0860861610403442,1
75,426,9,0.106398218917505,1
75,427,9,0.114701542346186,1
75,428,9,0.1369901001281,1
75,429,9,0.191357970672505,1
75,430,9,0.197041532739369,1
75,431,9,0.153222810427256,1
75,432,9,0.112265376215606,1
75,437,9,0.0648659630976298,1
75,438,9,0.0652880363511717,1
76,425,9,0.0883070653889153,1
76,426,9,0.114861019105792,1
76,427,9,0.125401038879873,1
76,428,9,0.137013027418492,1
76,429,9,0.186269657203042,1
76,430,9,0.197860334211961,1
76,431,9,0.151531958142505,1
76,432,9,0.105525047687349,1
76,438,9,0.0716544460120337,1
76,439,9,0.0608667372003212,1
77,425,9,0.0769569008455075,1
77,426,9,0.103591300574607,1
77,427,9,0.121429852917186,1
77,428,9,0.117011690936729,1
77,429,9,0.131302445587077,1
77,430,9,0.132581962940252,1
77,431,9,0.105563365982864,1
78,426,9,0.0890445834842556,1
78,427,9,0.109709844289732,1
78,428,9,0.102304282317785,1
78,429,9,0.0896460828346962,1
79,427,9,0.0802463360444461,1
79,428,9,0.0759781685491733,1
27,447,10,0.0580093056965448,1
28,456,10,0.057932840116682,1
28,457,10,0.0738909241707704,1
28,458,10,0.0606303290028431,1
29,452,10,0.0653433614125022,1
29,453,10,0.0717418857913354,1
29,457,10,0.0721918692468895,1
29,458,10,0.0610623032133211,1
30,453,10,0.0630431963360114,1
42,432,10,0.0831842489420659,1
43,431,10,0.0947906471845712,1
43,432,10,0.0873079237942156,1
44,432,10,0.0701515703825829,1
54,465,10,0.068622335445506,1
55,465,10,0.0574791003123678,1
69,431,10,0.0613871949479197,1
70,431,10,0.0673471700317104,1
73,426,10,0.0741688527004621,1
73,427,10,0.0827791234849708,1
74,425,10,0.06699304718125,1
74,426,10,0.0839711538833499,1
74,427,10,0.0924781044376761,1
74,428,10,0.10555100600327,1
74,429,10,0.121640220241627,1
74,430,10,0.122870403821291,1
75,425,10,0.0723015168902895,1
75,426,10,0.0916194337751822,1
75,427,10,0.0977442223464091,1
75,428,10,0.118146025705172,1
75,429,10,0.162994282424402,1
75,430,10,0.178347311275141,1
75,431,10,0.127295594950448,1
76,425,10,0.0755365174653588,1
76,426,10,0.0969063560770481,1
76,427,10,0.10237235655654,1
76,428,10,0.1184336311082,1
76,429,10,0.167250691427637,1
76,430,10,0.190268370066847,1
76,431,10,0.134598703541927,1
77,426,10,0.0881663408884259,1
77,427,10,0.099579012962222,1
77,428,10,0.100869687319878,1
77,429,10,0.114706224514029,1
77,430,10,0.124106036170584,1
78,427,10,0.0939659782598338,1
78,428,10,0.0900887776763295,1
27,456,11,0.0696713297441588,1
27,457,11,0.106550489620306,1
28,456,11,0.0886595312001267,1
28,457,11,0.137017780349576,1
28,458,11,0.102954785213275,1
29,456,11,0.0666495624048293,1
29,457,11,0.101619671539675,1
29,458,11,0.079092912891487,1
42,432,11,0.072367674624575,1
43,431,11,0.0881092821276677,1
43,432,11,0.0800911345640413,1
44,431,11,0.0714356460679272,1
44,432,11,0.065085771417934,1
53,465,11,0.0600255155739045,1
54,465,11,0.0971361420144672,1
55,465,11,0.0699065113787765,1
70,431,11,0.0568435992241707,1
73,427,11,0.0715669590572374,1
74,426,11,0.0722093359737772,1
74,427,11,0.0805769006322743,1
74,428,11,0.0852419791516393,1
75,425,11,0.0633070252897448,1
75,426,11,0.0774535585560638,1
75,427,11,0.0835692186690793,1
75,428,11,0.0961986646881893,1
75,429,11,0.124756999027147,1
75,430,11,0.137540484830106,1
76,426,11,0.0798480510340727,1
76,427,11,0.0840330953078026,1
76,429,11,0.131056319237704,1
76,430,11,0.14871779836118,1
77,427,11,0.0809350805752731,1
26,457,12,0.0684773297688788,1
27,456,12,0.0853682207752764,1
27,457,12,0.157740654227873,1
27,458,12,0.116768654582255,1
28,456,12,0.105809787179078,1
28,457,12,0.195833179619847,1
28,458,12,0.146075121502845,1
28,459,12,0.0633737550269028,1
29,456,12,0.0626839903260044,1
29,457,12,0.117477961731805,1
29,458,12,0.0896967670067422,1
30,443,12,0.0594869070547461,1
42,432,12,0.0590256604498485,1
43,431,12,0.0759591155462785,1
43,432,12,0.068702657622055,1
44,431,12,0.0633899716031828,1
44,432,12,0.0570431987419616,1
54,465,12,0.0967210212494467,1
55,465,12,0.0634448720850616,1
66,429,12,0.0820560292971144,1
66,430,12,0.0690330688895257,1
67,430,12,0.0789103201395111,1
68,430,12,0.0636090074247624,1
74,427,12,0.0722220792542649,1
75,426,12,0.0686911585952383,1
75,427,12,0.0759018444957944,1
26,457,13,0.0723956850745132,1
27,456,13,0.0857556200402633,1
27,457,13,0.173346779607317,1
27,458,13,0.136851828753332,1
28,456,13,0.104264825111478,1
28,457,13,0.213882323370466,1
28,458,13,0.174466714056024,1
28,459,13,0.0817482681640043,1
29,457,13,0.118216883298111,1
29,458,13,0.0999673262524174,1
29,459,13,0.0589668326080416,1
30,443,13,0.0582889325440433,1
54,465,13,0.07407086919811,1
59,427,13,0.0740014681485685,1
60,427,13,0.149753324056115,1
60,428,13,0.0791129978583269,1
61,428,13,0.0839591005444713,1
66,430,13,0.0979638950371663,1
67,430,13,0.110257363080439,1
67,431,13,0.0623878107768266,1
26,457,14,0.0613071440304648,1
26,458,14,0.0574626773432988,1
27,443,14,0.0577994219209239,1
27,456,14,0.0703748755864268,1
27,457,14,0.140050197556819,1
27,458,14,0.127562561074575,1
27,459,14,0.0695778632954178,1
28,456,14,0.0850473389577216,1
28,457,14,0.175049897520673,1
28,458,14,0.164525693331168,1
28,459,14,0.0876355163258819,1
29,457,14,0.0975460145057098,1
29,458,14,0.097511470249765,1
29,459,14,0.0622520514971473,1
59,427,14,0.087403135736258,1
59,428,14,0.0570578585269188,1
60,428,14,0.104315774645681,1
61,428,14,0.107591192825777,1
66,430,14,0.111227916325391,1
66,431,14,0.0610385739395208,1
67,430,14,0.124484407225286,1
67,431,14,0.0692982895203507,1
26,458,15,0.0592066964105015,1
27,442,15,0.0673442982234747,1
27,443,15,0.0719733228710666,1
27,444,15,0.0598780567715563,1
27,457,15,0.0921687452346854,1
27,458,15,0.103597232893057,1
27,459,15,0.0755513836431049,1
28,441,15,0.0582298806186368,1
28,442,15,0.074402648554925,1
28,443,15,0.0765116821149114,1
28,444,15,0.0618839293186547,1
28,456,15,0.0606418928959649,1
28,457,15,0.115707335685629,1
28,458,15,0.127036589691041,1
28,459,15,0.0842995307076145,1
29,441,15,0.0651690538567712,1
29,442,15,0.0698989809904457,1
29,443,15,0.0619553766052759,1
29,457,15,0.0707241334640032,1
29,458,15,0.0809636099556522,1
29,459,15,0.060226925451302,1
30,441,15,0.0633373886174778,1
30,442,15,0.0623394146162703,1
59,428,15,0.0611248815069514,1
60,428,15,0.111743957267305,1
66,430,15,0.104055436678551,1
66,431,15,0.0605638292462215,1
67,430,15,0.115465136696185,1
67,431,15,0.0682553218911373,1
26,443,16,0.058639352118175,1
26,459,16,0.0605054849532345,1
27,442,16,0.081141650272396,1
27,443,16,0.0933665428372833,1
27,444,16,0.0668014085281783,1
27,457,16,0.0582862081592282,1
27,458,16,0.0770834491098597,1
27,459,16,0.0751697220976527,1
28,441,16,0.0866394411383334,1
28,442,16,0.108794238702153,1
28,443,16,0.106008867766428,1
28,444,16,0.0722048660956608,1
28,457,16,0.0674856713870152,1
28,458,16,0.0825934761197174,1
28,459,16,0.0712992911976282,1
29,440,16,0.0746622435080151,1
29,441,16,0.111477297783893,1
29,442,16,0.107563406459439,1
29,443,16,0.0770583635405888,1
29,458,16,0.0572547867323261,1
29,462,16,0.0642994089948383,1
30,440,16,0.0630954431963171,1
30,441,16,0.0922953229837217,1
30,442,16,0.0796957921251456,1
30,462,16,0.0578298737027093,1
30,463,16,0.0600502945024603,1
60,428,16,0.0953147020636354,1
67,431,16,0.0609470122013756,1
26,443,17,0.0616084244299997,1
27,442,17,0.0901916792239971,1
27,443,17,0.110554379994647,1
27,444,17,0.0725159766888898,1
27,459,17,0.0632569661930027,1
28,441,17,0.11116846340828,1
28,442,17,0.126805500530583,1
28,443,17,0.127988992164433,1
28,444,17,0.0792556565540962,1
29,440,17,0.0959642732431067,1
29,441,17,0.151389429179345,1
29,442,17,0.130076661122288,1
29,443,17,0.0898623647867767,1
29,462,17,0.0627594416327325,1
30,440,17,0.0710051696794038,1
30,441,17,0.110293369776717,1
30,442,17,0.0838832659368492,1
26,443,18,0.0599918086829895,1
27,441,18,0.0726793336329292,1
27,442,18,0.0954326643879645,1
27,443,18,0.112672984283107,1
27,444,18,0.0710897671351539,1
28,440,18,0.0699026017096588,1
28,441,18,0.126196806917211,1
28,442,18,0.135740444863027,1
28,443,18,0.134552447969439,1
28,444,18,0.0780988131777762,1
29,440,18,0.0993741651706531,1
29,441,18,0.163627059127784,1
29,442,18,0.134356764017703,1
29,443,18,0.0939342114611355,1
29,462,18,0.0570292760741082,1
29,463,18,0.0597180139060149,1
30,440,18,0.0674568825414156,1
30,441,18,0.107127056721833,1
30,442,18,0.0759513846620956,1
33,464,18,0.0734625352978845,1
42,432,18,0.0572613087444591,1
27,441,19,0.0735651773803316,1
27,442,19,0.0891360626652852,1
27,443,19,0.096276203510555,1
27,444,19,0.0657043247096844,1
28,440,19,0.0698842504422467,1
28,441,19,0.122960851038375,1
28,442,19,0.134590400654871,1
28,443,19,0.12359531426569,1
28,444,19,0.0732832389335961,1
29,440,19,0.0884128033631976,1
29,441,19,0.142964275035776,1
29,442,19,0.125799294405562,1
29,443,19,0.0915694395447452,1
30,440,19,0.0641778554359804,1
30,441,19,0.0941783033673019,1
30,442,19,0.0721258648329615,1
33,464,19,0.0642852681403222,1
27,441,20,0.0701459977772794,1
27,442,20,0.0792423294768625,1
27,443,20,0.0787851694491874,1
27,444,20,0.0596206672728403,1
28,440,20,0.0679618077574062,1
28,441,20,0.113629007475712,1
28,442,20,0.128343445243356,1
28,443,20,0.111190600509137,1
28,444,20,0.0680031983570096,1
29,440,20,0.0772864629540747,1
29,441,20,0.121819428151863,1
29,442,20,0.120239945416066,1
29,443,20,0.0921926219319063,1
30,440,20,0.0633160829847143,1
30,441,20,0.0864585172194801,1
30,442,20,0.0743988686184175,1
27,441,21,0.0634981037338177,1
27,442,21,0.0671882475841665,1
27,443,21,0.0646258103452652,1
28,440,21,0.0606134460727014,1
28,441,21,0.0915190089409828,1
28,442,21,0.103824713128176,1
28,443,21,0.091229074247907,1
28,444,21,0.060839452073613,1
29,440,21,0.0655364330212234,1
29,441,21,0.0971688994985528,1
29,442,21,0.103549892284193,1
29,443,21,0.08541094997954,1
30,440,21,0.0580403766566972,1
30,441,21,0.0749699928472515,1
30,442,21,0.0700778114967247,1
27,441,22,0.0569060006096961,1
27,442,22,0.0590332910861054,1
28,441,22,0.0725494064237739,1
28,442,22,0.0796986462425709,1
28,443,22,0.0723722978230491,1
28,461,22,0.0620729497317743,1
28,462,22,0.0628170488086159,1
29,440,22,0.0604880712987782,1
29,441,22,0.0811013447091692,1
29,442,22,0.08734717380575,1
29,443,22,0.0753537065267202,1
29,462,22,0.0575358052569163,1
30,440,22,0.0569046679019727,1
30,441,22,0.0694266186596253,1
30,442,22,0.0666890129122159,1
26,453,23,0.0630593539429231,1
26,454,23,0.0611710014498917,1
26,455,23,0.0597806747567608,1
26,456,23,0.0607924888687062,1
27,456,23,0.0569128764380388,1
27,461,23,0.0587153518400283,1
28,441,23,0.0586005679646501,1
28,442,23,0.0610952081208274,1
28,443,23,0.0583391272703325,1
28,461,23,0.0636597151845557,1
28,462,23,0.0696121893646999,1
29,441,23,0.0646557372996728,1
29,442,23,0.0670216591187448,1
29,443,23,0.0611066010027812,1
29,461,23,0.0598596996072074,1
29,462,23,0.0673675026698971,1
30,441,23,0.0618599641673813,1
30,442,23,0.0598815595520328,1
25,453,24,0.0591602580329725,1
25,454,24,0.060138943153812,1
25,455,24,0.0633903843887608,1
25,456,24,0.0626840433984358,1
26,453,24,0.0714400215950544,1
26,454,24,0.0806143992535705,1
26,455,24,0.0874901568330449,1
26,456,24,0.0809790717240181,1
26,457,24,0.0651397637715412,1
26,459,24,0.0664955285179167,1
27,454,24,0.0729609418512023,1
27,455,24,0.0862303411458154,1
27,456,24,0.0800487002066192,1
27,457,24,0.0626893801262662,1
27,460,24,0.0621073111826774,1
28,455,24,0.0604141060201309,1
28,461,24,0.0607379716877212,1
29,441,24,0.0578828930617396,1
29,442,24,0.05777568085325,1
29,462,24,0.0703803066652464,1
30,441,24,0.0581339433533644,1
30,442,24,0.0576530835365732,1
48,429,24,0.0658577276243563,1
48,430,24,0.0654796455195593,1
49,429,24,0.0639187617225207,1
49,430,24,0.0607190543143735,1
25,454,25,0.0641326318274381,1
25,455,25,0.0728736435983844,1
25,456,25,0.0697343090294935,1
26,446,25,0.0618679368259742,1
26,453,25,0.0678902130473643,1
26,454,25,0.091516897837598,1
26,455,25,0.108635174728125,1
26,456,25,0.0978690722929545,1
26,457,25,0.0714135974211233,1
26,458,25,0.0653594423592352,1
27,445,25,0.0647230626274505,1
27,446,25,0.0789557678316529,1
27,447,25,0.066678970428796,1
27,453,25,0.0598116100873662,1
27,454,25,0.0885059572742867,1
27,455,25,0.108838029355046,1
27,456,25,0.0965487894154796,1
27,457,25,0.0682613839421976,1
27,459,25,0.0645768009032786,1
28,442,25,0.0590087657258332,1
28,445,25,0.059546566364646,1
28,446,25,0.0724327650132945,1
28,447,25,0.0613118261983071,1
28,454,25,0.0619036840570322,1
28,455,25,0.0754708963523247,1
28,456,25,0.0672983021162078,1
48,429,25,0.0715410538137472,1
48,430,25,0.0740661811333309,1
49,429,25,0.0724281005362627,1
49,430,25,0.0713280092799859,1
25,454,26,0.063812380982124,1
25,455,26,0.0762248963861024,1
25,456,26,0.0711645874696414,1
26,446,26,0.0694529956580618,1
26,447,26,0.0589708779067063,1
26,453,26,0.0627834303717533,1
26,454,26,0.0921968559325496,1
26,455,26,0.115254792959491,1
26,456,26,0.102358793601833,1
26,457,26,0.0735884466930592,1
26,458,26,0.0714554774664835,1
27,445,26,0.0732987124958356,1
27,446,26,0.106820710853562,1
27,447,26,0.0886029795759357,1
27,453,26,0.0610232949761967,1
27,454,26,0.0920913951142982,1
27,455,26,0.11368848398057,1
27,456,26,0.0986304317038949,1
27,457,26,0.0690617103117045,1
27,458,26,0.0582010681852899,1
27,459,26,0.0694176140370873,1
28,445,26,0.0674662409801634,1
28,446,26,0.100486905356428,1
28,447,26,0.0840584049606731,1
28,454,26,0.0656246335053761,1
28,455,26,0.0780577056311407,1
28,456,26,0.0687925446301408,1
29,446,26,0.059456720635118,1
47,430,26,0.0591093851589479,1
48,430,26,0.0766518876849598,1
48,431,26,0.058912716418761,1
49,430,26,0.0728144560434309,1
25,454,27,0.0604724856947389,1
26,446,27,0.0709208847613057,1
26,447,27,0.0622467442540012,1
26,453,27,0.0590655414336237,1
26,454,27,0.0808583732210003,1
26,455,27,0.100659402552553,1
26,456,27,0.089360305482085,1
26,457,27,0.0685401734246664,1
27,445,27,0.0755355385738452,1
27,446,27,0.116792985343612,1
27,447,27,0.100046746197632,1
27,448,27,0.0588208834215216,1
27,453,27,0.0595153243933255,1
27,454,27,0.080557552782538,1
27,455,27,0.0974693366361212,1
27,456,27,0.0857122067913276,1
27,457,27,0.0660110715696599,1
27,458,27,0.0592564901450863,1
28,445,27,0.071929490939616,1
28,446,27,0.115018832929212,1
28,447,27,0.100572009948746,1
28,448,27,0.0587584466543752,1
28,454,27,0.0601814423775393,1
28,455,27,0.0692004593383561,1
28,456,27,0.0632198626664741,1
29,446,27,0.0661379382686008,1
29,447,27,0.0605860842858144,1
37,435,27,0.0582976953921713,1
38,435,27,0.0583034095239587,1
45,433,27,0.0631919465675252,1
45,434,27,0.0573012781822867,1
46,433,27,0.0807714877537605,1
46,434,27,0.0748240200729843,1
47,433,27,0.062266210042474,1
47,434,27,0.058144204023447,1
48,430,27,0.0679954144003952,1
48,431,27,0.0577875336962764,1
49,430,27,0.0627918099189874,1
26,453,28,0.0579324155372303,1
26,454,28,0.0693438610481659,1
26,455,28,0.079294098685285,1
26,456,28,0.0719707871882301,1
27,446,28,0.104294262620129,1
27,447,28,0.0955703283782395,1
27,448,28,0.0602563865477001,1
27,453,28,0.0570780378447479,1
27,454,28,0.0665244411991898,1
27,455,28,0.0753484169743846,1
27,456,28,0.0704690555645241,1
27,457,28,0.062998014006027,1
28,445,28,0.0703913457309904,1
28,446,28,0.10897506237308,1
28,447,28,0.102158215192528,1
28,448,28,0.062165531639991,1
28,455,28,0.0581350991529829,1
28,456,28,0.0570032941704392,1
29,446,28,0.0658557993260131,1
29,447,28,0.0636448313159991,1
36,435,28,0.0885963278311925,1
36,436,28,0.0857861425852907,1
36,437,28,0.0577066984862233,1
37,434,28,0.0712230320105545,1
37,435,28,0.108156154755625,1
37,436,28,0.103536293947865,1
37,437,28,0.0640588611477062,1
38,434,28,0.067125056009106,1
38,435,28,0.092444226535593,1
38,436,28,0.0850976870043684,1
39,435,28,0.0596235449780129,1
45,433,28,0.0775291219045917,1
45,434,28,0.0692209983693318,1
46,432,28,0.0648649016490006,1
46,433,28,0.101699079691016,1
46,434,28,0.0928752808239257,1
47,433,28,0.0716449401498652,1
47,434,28,0.066662099292528,1
48,431,28,0.0576470155885761,1
26,454,29,0.0598354278152189,1
27,447,29,0.0781479464554362,1
27,448,29,0.0593891004604989,1
27,455,29,0.0583959914321754,1
27,456,29,0.0595964957287779,1
27,457,29,0.0581686114449826,1
28,446,29,0.086706459825396,1
28,447,29,0.0867294107035348,1
28,448,29,0.0622327272351584,1
29,446,29,0.0600079309082802,1
29,447,29,0.0609065120392334,1
35,436,29,0.0625772793571452,1
36,435,29,0.13916750867062,1
36,436,29,0.143344002385948,1
36,437,29,0.0795868933927229,1
36,439,29,0.0743019288738841,1
36,440,29,0.0798602753841194,1
37,434,29,0.0954419815481544,1
37,435,29,0.18999498807545,1
37,436,29,0.195336138608396,1
37,437,29,0.102732435313198,1
37,439,29,0.0870857508022429,1
37,440,29,0.0955169434091258,1
38,434,29,0.0766147664676207,1
38,435,29,0.133819305401226,1
38,436,29,0.131971252574485,1
38,437,29,0.0718914556970684,1
38,439,29,0.0613166204079491,1
38,440,29,0.0657838390058878,1
39,434,29,0.0577610328621665,1
39,435,29,0.06567149056542,1
45,432,29,0.0571347545831701,1
45,433,29,0.0780898911123538,1
45,434,29,0.0704026737466391,1
46,432,29,0.0725915577282282,1
46,433,29,0.101534342863758,1
46,434,29,0.0915141970405303,1
47,432,29,0.061038845198615,1
47,433,29,0.0736040912664667,1
47,434,29,0.0674767316307823,1
48,431,29,0.0591692449647,1
54,433,29,0.0583753757410209,1
54,434,29,0.0589068961421107,1
27,453,30,0.0580410253197484,1
28,447,30,0.0677096075630998,1
28,448,30,0.0590572326496315,1
28,456,30,0.0569140912070256,1
29,450,30,0.0571106655962232,1
30,449,30,0.0678848468348498,1
30,450,30,0.0627096773828319,1
30,452,30,0.0577933421790531,1
30,453,30,0.0598316655695219,1
31,449,30,0.0699659171203927,1
31,450,30,0.0603006784402234,1
33,461,30,0.0663903507526331,1
33,462,30,0.063342383322972,1
34,461,30,0.0665813879181483,1
34,462,30,0.0664088789281501,1
35,436,30,0.0763309645888472,1
35,440,30,0.0576284107528803,1
36,435,30,0.180850808630436,1
36,436,30,0.196533594188658,1
36,437,30,0.0992917967570244,1
36,438,30,0.0629783418247651,1
36,439,30,0.113374601827031,1
36,440,30,0.12942622899004,1
36,441,30,0.0674146191951615,1
37,434,30,0.114705009745042,1
37,435,30,0.260553417614556,1
37,436,30,0.283806360445499,1
37,437,30,0.141260425902253,1
37,438,30,0.07947423831154,1
37,439,30,0.159852559596095,1
37,440,30,0.183324538248617,1
37,441,30,0.0930553614808124,1
38,434,30,0.0783990439225556,1
38,435,30,0.159108507694748,1
38,436,30,0.168621363630317,1
38,437,30,0.0851958061362676,1
38,439,30,0.102344334312728,1
38,440,30,0.116966343492513,1
38,441,30,0.0584094128603984,1
39,434,30,0.0598212338882713,1
39,435,30,0.0714559197367456,1
39,436,30,0.0618469083492417,1
45,432,30,0.0587129871683598,1
45,433,30,0.0673005665399501,1
45,434,30,0.0634803421600885,1
46,432,30,0.077551677687963,1
46,433,30,0.0872536130060197,1
46,434,30,0.0777866942083494,1
47,432,30,0.0710886526140932,1
47,433,30,0.0708838343072085,1
47,434,30,0.0628167834464586,1
48,431,30,0.0639915653046126,1
48,432,30,0.0604174024078184,1
49,431,30,0.0585860909847347,1
53,433,30,0.0595739871209013,1
53,434,30,0.0605824222880436,1
54,433,30,0.0647839367063372,1
54,434,30,0.0668773080021055,1
28,449,31,0.0683331968389022,1
28,450,31,0.0766829881297964,1
28,451,31,0.0678135823532703,1
28,452,31,0.058154382136414,1
28,453,31,0.0592207841925862,1
28,454,31,0.0604042581356263,1
29,449,31,0.0750684186198658,1
29,450,31,0.0830564918056638,1
29,451,31,0.0734317945661944,1
29,452,31,0.0657843461424551,1
29,453,31,0.0680348825985923,1
29,454,31,0.0654271509879067,1
29,455,31,0.0640327259236797,1
29,456,31,0.0599461663919323,1
30,448,31,0.0706756075708366,1
30,449,31,0.100325789248384,1
30,450,31,0.0877926637954403,1
30,451,31,0.0714472748273542,1
30,452,31,0.0763114811095639,1
30,453,31,0.0842643142008712,1
30,454,31,0.0782124943259674,1
30,455,31,0.0699408315511218,1
30,456,31,0.0589520725751583,1
31,448,31,0.0888131994769559,1
31,449,31,0.123327911768238,1
31,450,31,0.0960659895064717,1
31,451,31,0.0665151063481893,1
31,452,31,0.0723776168600689,1
31,453,31,0.0816414097717244,1
31,454,31,0.0759061787443638,1
31,455,31,0.0656972012099948,1
32,448,31,0.0682010995569938,1
32,449,31,0.0944411947080794,1
32,450,31,0.075363064965468,1
32,453,31,0.0602038035619952,1
32,454,31,0.0574880518624744,1
33,438,31,0.061611797477866,1
33,439,31,0.0629160760687868,1
33,461,31,0.0666185268262978,1
33,462,31,0.0647770490841208,1
34,437,31,0.0595153302902623,1
34,438,31,0.07906893594634,1
34,439,31,0.08043793341896,1
34,440,31,0.0638920309078745,1
34,461,31,0.0678544658163064,1
34,462,31,0.0695657686779813,1
35,437,31,0.0723128920814328,1
35,438,31,0.07494585668481,1
35,439,31,0.083439910638291,1
35,440,31,0.0734041969018343,1
35,461,31,0.0575225902214823,1
35,462,31,0.0622140339454102,1
36,436,31,0.218231809624612,1
36,437,31,0.115901675135769,1
36,438,31,0.0819153106935619,1
36,439,31,0.141410337830322,1
36,440,31,0.161842893714648,1
36,441,31,0.0797706360473804,1
37,435,31,0.27499265713426,1
37,436,31,0.310549228430633,1
37,437,31,0.160347524885781,1
37,438,31,0.105354461098757,1
37,439,31,0.208886367725621,1
37,440,31,0.243468953759807,1
37,441,31,0.121529747027071,1
38,434,31,0.0823920131698885,1
38,435,31,0.159959447473059,1
38,436,31,0.177757393508633,1
38,437,31,0.0936434983723983,1
38,438,31,0.0706959402090233,1
38,439,31,0.126584058758777,1
38,440,31,0.148243201091301,1
38,441,31,0.0713040913042071,1
39,434,31,0.0639162378335579,1
39,435,31,0.0767286186269799,1
39,436,31,0.0710850201010065,1
40,434,31,0.0570741104848197,1
40,435,31,0.0589327247254221,1
46,432,31,0.0752712909375969,1
46,433,31,0.0696753514550762,1
46,434,31,0.0594912118186314,1
47,432,31,0.0729708781897593,1
47,433,31,0.0639647283451035,1
48,432,31,0.0618981527302865,1
53,433,31,0.0595884994824376,1
53,434,31,0.0616384811170176,1
54,433,31,0.0633455735657966,1
54,434,31,0.0664523098678964,1
28,450,32,0.137810623506247,1
28,451,32,0.111816006041483,1
28,452,32,0.0694711700173691,1
29,449,32,0.0959750764313776,1
29,450,32,0.124275054173979,1
29,451,32,0.101649486452283,1
29,452,32,0.0796911512358612,1
29,453,32,0.0860321450989898,1
29,454,32,0.0875967557601043,1
30,448,32,0.0774165611743981,1
30,449,32,0.126400522496908,1
30,450,32,0.113566240480103,1
30,451,32,0.08374629778512,1
30,452,32,0.0891805609505975,1
30,453,32,0.113532934580892,1
30,454,32,0.115274984071194,1
30,455,32,0.0949553309393971,1
30,456,32,0.0681418707234824,1
31,448,32,0.112851449179302,1
31,449,32,0.185694186931765,1
31,450,32,0.149732036114162,1
31,451,32,0.0893196225149011,1
31,452,32,0.0846039718652898,1
31,453,32,0.115459664338808,1
31,454,32,0.123403994047207,1
31,455,32,0.10165944048165,1
31,456,32,0.066670620366246,1
32,448,32,0.0888789385287265,1
32,449,32,0.149446471051277,1
32,450,32,0.122217671883679,1
32,451,32,0.073719217164181,1
32,452,32,0.0629521653221808,1
32,453,32,0.0860725214254585,1
32,454,32,0.0961726238151521,1
32,455,32,0.0813916686000757,1
33,439,32,0.0776962646820754,1
33,440,32,0.057771057654776,1
33,449,32,0.079703198677803,1
33,450,32,0.0732939241831304,1
33,454,32,0.0599940554159213,1
34,438,32,0.115380539240435,1
34,439,32,0.117493081477835,1
34,440,32,0.076806175140156,1
34,461,32,0.0568742573987451,1
35,437,32,0.0849342003277187,1
35,438,32,0.10608676630194,1
35,439,32,0.116330547557475,1
35,440,32,0.0895694875222232,1
35,462,32,0.0577140873480701,1
36,436,32,0.186108340599146,1
36,437,32,0.113907861824486,1
36,438,32,0.094975003120659,1
36,439,32,0.149737815112255,1
36,440,32,0.166676270811116,1
36,441,32,0.085842959571639,1
37,435,32,0.214518366976852,1
37,436,32,0.246052661249851,1
37,437,32,0.138782745336396,1
37,438,32,0.107173642522783,1
37,439,32,0.203153578030108,1
37,440,32,0.241255550314882,1
37,441,32,0.127696445128342,1
38,435,32,0.128904562370391,1
38,436,32,0.14463282510544,1
38,437,32,0.0850166041229684,1
38,438,32,0.0706712261467726,1
38,439,32,0.120499363461051,1
38,440,32,0.143189467259405,1
38,441,32,0.0734148644605581,1
39,435,32,0.0745045299325211,1
39,436,32,0.0720871455457417,1
39,437,32,0.0576558197152619,1
40,434,32,0.0596345427651992,1
40,435,32,0.0610884974067159,1
46,432,32,0.0696296501946508,1
46,433,32,0.0621339358524607,1
47,432,32,0.0693011967102074,1
47,433,32,0.0616389823566481,1
48,432,32,0.0608421351798703,1
53,433,32,0.0573267529493883,1
53,434,32,0.0595452808324173,1
54,434,32,0.0615267282671695,1
56,439,32,0.0577780278341079,1
29,450,33,0.160441604615952,1
29,451,33,0.131302374823835,1
29,452,33,0.091573101542516,1
29,454,33,0.0985472731007311,1
30,448,33,0.0762828219965745,1
30,449,33,0.132618146544636,1
30,450,33,0.135569704954078,1
30,451,33,0.0927138403843557,1
30,452,33,0.0919938951607661,1
30,453,33,0.122791443837149,1
30,454,33,0.135405050683936,1
30,455,33,0.111204458310685,1
31,448,33,0.115037573394455,1
31,449,33,0.213565705038239,1
31,450,33,0.199356068650912,1
31,451,33,0.114190325098599,1
31,452,33,0.0920384170338257,1
31,453,33,0.132130104258787,1
31,454,33,0.156793889226089,1
31,455,33,0.130643745949394,1
31,456,33,0.0817662656152067,1
32,448,33,0.0969433062832192,1
32,449,33,0.180132632487895,1
32,450,33,0.168512282092852,1
32,451,33,0.0955006914512248,1
32,452,33,0.0734622876265377,1
32,453,33,0.104782304905978,1
32,454,33,0.129529767406885,1
32,455,33,0.110147373414703,1
32,456,33,0.070635467121841,1
33,448,33,0.0678871820218341,1
33,449,33,0.100909597788337,1
33,450,33,0.09592154993578,1
33,451,33,0.0642637914963907,1
33,453,33,0.0694619648989789,1
33,454,33,0.0798522791377791,1
33,455,33,0.0712147409173728,1
33,456,33,0.0573740994551891,1
34,439,33,0.134334473596489,1
34,440,33,0.0841875065986723,1
34,448,33,0.065340401150214,1
34,449,33,0.0844302304154944,1
34,450,33,0.0831979475263199,1
34,451,33,0.0605369274204072,1
34,456,33,0.0588753652208856,1
35,438,33,0.116531125966779,1
35,439,33,0.125652625792749,1
35,440,33,0.092505330595016,1
35,441,33,0.0576943267127559,1
35,448,33,0.0686671816500912,1
35,449,33,0.0914327190643628,1
35,450,33,0.0904582561502928,1
35,451,33,0.0620146526142819,1
35,456,33,0.0590836922051836,1
35,457,33,0.0573750488620186,1
35,460,33,0.0592281494666858,1
35,461,33,0.0657180822633066,1
36,437,33,0.0977650444303526,1
36,438,33,0.0937392705234395,1
36,439,33,0.128862882820883,1
36,440,33,0.135517776528361,1
36,441,33,0.0819136359635024,1
36,449,33,0.0713901865819118,1
36,450,33,0.0694061857735125,1
36,461,33,0.0595537311428933,1
37,436,33,0.147938883769299,1
37,437,33,0.102296828589633,1
37,438,33,0.091870377921944,1
37,439,33,0.150245140381535,1
37,440,33,0.175971612334807,1
37,441,33,0.106867178715775,1
38,436,33,0.097897625261081,1
38,437,33,0.0721813785962705,1
38,438,33,0.0655412213339286,1
38,439,33,0.095119018111899,1
38,440,33,0.108805289561771,1
38,441,33,0.0660716154200841,1
39,435,33,0.0666480586859379,1
39,436,33,0.0660981752235623,1
39,437,33,0.05708138140793,1
40,435,33,0.0572104240765609,1
46,433,33,0.0588168558136674,1
47,433,33,0.0597154605323679,1
29,454,34,0.0966183614761892,1
29,455,34,0.0867061060091862,1
30,450,34,0.134351032195105,1
30,452,34,0.0870688973567853,1
30,453,34,0.119666798537899,1
30,454,34,0.144199353073007,1
30,455,34,0.127883743635908,1
30,456,34,0.0850438007956242,1
31,448,34,0.0980645616457756,1
31,449,34,0.187101184265312,1
31,450,34,0.20274775083753,1
31,451,34,0.118268988631932,1
31,452,34,0.0924071465968117,1
31,453,34,0.135797491829912,1
31,454,34,0.169993439303961,1
31,455,34,0.150419170781235,1
31,456,34,0.0925456538490533,1
32,448,34,0.090427509521666,1
32,449,34,0.167606029047084,1
32,450,34,0.180172566544102,1
32,451,34,0.103541801686864,1
32,452,34,0.0803793650423735,1
32,453,34,0.115087544037145,1
32,454,34,0.143681637401034,1
32,455,34,0.12536621157096,1
32,456,34,0.0784214935610639,1
33,448,34,0.0762475819020839,1
33,449,34,0.114255273960835,1
33,450,34,0.116430146820518,1
33,451,34,0.0745800578994281,1
33,452,34,0.0612094199933332,1
33,453,34,0.0753170806520748,1
33,454,34,0.0857034144585154,1
33,455,34,0.0761041978830846,1
33,456,34,0.0604898580706374,1
34,447,34,0.058031967624779,1
34,448,34,0.0883975774723049,1
34,449,34,0.126370306592596,1
34,450,34,0.125793126209639,1
34,451,34,0.0804288285484959,1
34,456,34,0.061294442028535,1
34,457,34,0.0585893991662958,1
35,439,34,0.104371111500886,1
35,440,34,0.0807390840858847,1
35,441,34,0.0579015214851827,1
35,447,34,0.0591513123798027,1
35,448,34,0.0930733707258884,1
35,449,34,0.136978483162547,1
35,450,34,0.137734116647826,1
35,451,34,0.0840667963017809,1
35,456,34,0.0597788643971543,1
35,457,34,0.058958052069103,1
36,439,34,0.0942971443352185,1
36,440,34,0.0943545628091233,1
36,441,34,0.0702495126063772,1
36,446,34,0.0602268723788705,1
36,447,34,0.0629074134685848,1
36,448,34,0.0765292608835989,1
36,449,34,0.0987414474366393,1
36,450,34,0.0972321618368552,1
36,451,34,0.0617336046050076,1
37,438,34,0.0727065067178376,1
37,439,34,0.0942393838389776,1
37,440,34,0.105096021945285,1
37,441,34,0.0776072209359562,1
37,445,34,0.0626766073610943,1
37,446,34,0.0698965868340931,1
37,447,34,0.0653077910895492,1
37,448,34,0.0573949864054377,1
38,437,34,0.0623041804187165,1
38,438,34,0.0580578846621428,1
38,439,34,0.0672381120819933,1
38,440,34,0.0718995639852084,1
38,445,34,0.0688878273354252,1
38,446,34,0.075202007826792,1
38,447,34,0.0630293326375262,1
39,436,34,0.0608343866048768,1
39,445,34,0.0732876085637864,1
39,446,34,0.0757071217447611,1
40,445,34,0.0748402484431379,1
40,446,34,0.0733950212681282,1
41,445,34,0.0591044258350747,1
30,454,35,0.139610970114041,1
30,455,35,0.131471664086324,1
31,453,35,0.129225320352273,1
31,454,35,0.160321436837249,1
31,455,35,0.145665437713581,1
31,456,35,0.0887703877155767,1
32,449,35,0.129352647012286,1
32,450,35,0.151706389533909,1
32,452,35,0.0843007513735381,1
32,454,35,0.131580521540189,1
32,455,35,0.115523138966836,1
33,448,35,0.081438997415066,1
33,449,35,0.114361041419801,1
33,450,35,0.123525459152013,1
33,452,35,0.0697038867323922,1
33,453,35,0.0764746906301825,1
33,454,35,0.080758809339578,1
34,447,35,0.0658236846080419,1
34,448,35,0.0998792613978118,1
34,449,35,0.142397732726858,1
34,450,35,0.144715370427173,1
34,451,35,0.0948905589852664,1
35,446,35,0.0571331801010367,1
35,447,35,0.0687260920490138,1
35,448,35,0.104883826570427,1
35,449,35,0.154393623646924,1
35,450,35,0.156399950258158,1
35,451,35,0.0975477364112639,1
36,445,35,0.0598568867683399,1
36,446,35,0.074273157719095,1
36,447,35,0.0815834605735049,1
36,448,35,0.0882911613502872,1
36,449,35,0.108509416653308,1
36,450,35,0.1072923714489,1
36,451,35,0.0693416555937918,1
37,444,35,0.0643914130032458,1
37,445,35,0.0741067815433991,1
37,446,35,0.0928284945271237,1
37,447,35,0.0923665579806171,1
37,448,35,0.0724682704699425,1
37,449,35,0.0609700220488827,1
38,444,35,0.0628607804921404,1
38,445,35,0.0851392604090134,1
38,446,35,0.103729159163797,1
38,447,35,0.0861722150394911,1
39,445,35,0.101338305095812,1
39,446,35,0.114738728429831,1
39,447,35,0.0763296141903133,1
40,445,35,0.101240274417965,1
40,446,35,0.10834683810493,1
40,447,35,0.0673232697467421,1
40,456,35,0.0569156597922221,1
41,445,35,0.0676279114002696,1
41,446,35,0.0651658459231362,1
45,446,35,0.0598114272823245,1
45,447,35,0.0690499754074146,1
46,446,35,0.0759258096470679,1
46,447,35,0.0889508221886731,1
46,448,35,0.0587923422472688,1
47,446,35,0.0586338443791766,1
47,447,35,0.0685863936155327,1
31,454,36,0.133874370997336,1
31,455,36,0.12231948839497,1
46,446,36,0.102887300668203,1
46,447,36,0.131074635123496,1
47,447,36,0.0983098801148025,1
47,448,36,0.0738514795603206,1
