x,y,z,signal,mito.p
745,660,16,0.112109694198762,1
746,660,16,0.110578759784929,1
745,659,17,0.129979451636666,1
745,660,17,0.135812849427855,1
746,659,17,0.137785698674301,1
746,660,17,0.143605295137064,1
747,656,17,0.101293798987347,1
748,655,17,0.102545613243649,1
739,663,18,0.10556525022419,1
739,664,18,0.111450781525914,1
740,661,18,0.113956904516979,1
740,662,18,0.110821911523784,1
740,663,18,0.117317936473214,1
740,664,18,0.10712579159198,1
741,659,18,0.101734657206813,1
741,661,18,0.100169115989184,1
741,662,18,0.107881193741702,1
741,663,18,0.11713651490657,1
742,658,18,0.110428339465879,1
742,659,18,0.108408182272033,1
742,662,18,0.104700962455725,1
742,663,18,0.107420194514927,1
743,658,18,0.107376524802488,1
743,659,18,0.116315112560373,1
743,662,18,0.107174668119721,1
743,663,18,0.103471304396754,1
744,658,18,0.106781204991006,1
744,659,18,0.130461071159187,1
744,660,18,0.107920342892738,1
745,656,18,0.105271598912657,1
745,658,18,0.111552826391499,1
745,659,18,0.156295883501439,1
745,660,18,0.134375626796539,1
746,656,18,0.133105338149542,1
746,658,18,0.102981852865442,1
746,659,18,0.153985582515991,1
746,660,18,0.141876588885105,1
747,655,18,0.204958561456085,1
747,656,18,0.165236573592699,1
747,657,18,0.108899137026173,1
747,659,18,0.103145072364367,1
748,654,18,0.136792863568222,1
748,655,18,0.163055070482004,1
748,656,18,0.1592113623901,1
748,657,18,0.121935651820563,1
749,655,18,0.108357944129411,1
749,656,18,0.127572181885907,1
749,657,18,0.113777737784577,1
739,661,19,0.1434443413653,1
739,662,19,0.120758138165046,1
739,663,19,0.113164194119538,1
739,664,19,0.11219476789648,1
740,660,19,0.161582053718717,1
740,661,19,0.168834417608906,1
740,662,19,0.155146593399159,1
740,663,19,0.129991477419288,1
740,664,19,0.102924534325443,1
741,658,19,0.153319687482037,1
741,659,19,0.137369872382793,1
741,660,19,0.13047047174832,1
741,661,19,0.148436598840988,1
741,662,19,0.15314637024716,1
741,663,19,0.130066464273973,1
742,657,19,0.121673372115871,1
742,658,19,0.150982219556499,1
742,659,19,0.139540482574447,1
742,660,19,0.109112997705724,1
742,661,19,0.109104370513842,1
742,662,19,0.1312418102386,1
742,663,19,0.121500828278246,1
743,657,19,0.103461696842159,1
743,658,19,0.131034419952961,1
743,659,19,0.137905117745758,1
743,660,19,0.10415833169365,1
743,662,19,0.124786078196706,1
743,663,19,0.118939881225643,1
744,656,19,0.107795586290951,1
744,657,19,0.100083857111842,1
744,658,19,0.122558007857106,1
744,659,19,0.142567330667394,1
744,660,19,0.106312994651826,1
745,656,19,0.127271787857486,1
745,657,19,0.106973214474959,1
745,658,19,0.127984500657483,1
745,659,19,0.161163155624039,1
745,660,19,0.117810459807696,1
746,655,19,0.227563699552828,1
746,656,19,0.172208629997182,1
746,657,19,0.118764428978634,1
746,658,19,0.118541864856769,1
746,659,19,0.152326351301682,1
746,660,19,0.119546431636656,1
747,655,19,0.276177141513405,1
747,656,19,0.235453658673301,1
747,657,19,0.146399514050951,1
747,658,19,0.100919256859008,1
747,659,19,0.103938850267873,1
748,654,19,0.158153714415721,1
748,655,19,0.223974243084283,1
748,656,19,0.236804947066295,1
748,657,19,0.16934579658625,1
749,654,19,0.102155112988914,1
749,655,19,0.144518818899599,1
749,656,19,0.183235009083245,1
749,657,19,0.159336968639573,1
750,655,19,0.100898680134938,1
750,656,19,0.119838808476662,1
750,657,19,0.110836344641514,1
755,658,19,0.101428457252544,1
756,657,19,0.102226396251125,1
756,658,19,0.108579081278882,1
757,657,19,0.103022309166764,1
757,658,19,0.114377774230003,1
758,657,19,0.110302155891696,1
758,658,19,0.135170744529088,1
758,659,19,0.10647746683644,1
759,657,19,0.10719025588687,1
759,658,19,0.138351280816798,1
759,659,19,0.12654281192936,1
760,658,19,0.114008133915233,1
760,659,19,0.119945635333706,1
760,660,19,0.10041543756748,1
761,659,19,0.112875553550764,1
761,660,19,0.112772441179113,1
762,660,19,0.119719520120233,1
762,661,19,0.104156305610708,1
763,661,19,0.102790507849551,1
740,659,20,0.178472810057724,1
740,660,20,0.180672090412296,1
741,658,20,0.188645805187282,1
741,659,20,0.155243224483981,1
741,660,20,0.145385633825282,1
741,661,20,0.183616925717775,1
741,662,20,0.18782593874267,1
741,663,20,0.132494419677993,1
742,657,20,0.161248109499647,1
742,658,20,0.181764661085123,1
742,659,20,0.153989035571327,1
742,660,20,0.113692163012583,1
742,661,20,0.116731723142052,1
742,662,20,0.139596254319942,1
742,663,20,0.119362602734904,1
743,656,20,0.129931827794614,1
743,657,20,0.148114538796593,1
743,658,20,0.158696955181263,1
743,659,20,0.147670194843033,1
743,660,20,0.105493378744351,1
743,662,20,0.120876740267575,1
743,663,20,0.117935521411217,1
744,655,20,0.158475186242488,1
744,656,20,0.136954296628424,1
744,657,20,0.14345105140343,1
744,658,20,0.149623120940552,1
744,659,20,0.148383953363258,1
744,660,20,0.104674231232396,1
745,655,20,0.175155110133438,1
745,656,20,0.153705885033751,1
745,657,20,0.147310859229677,1
745,658,20,0.155930153744605,1
745,659,20,0.162288328803559,1
745,660,20,0.106599434850953,1
746,655,20,0.243218850299068,1
746,656,20,0.21255014173816,1
746,657,20,0.16467545754701,1
746,658,20,0.149256770287333,1
746,659,20,0.149766341040116,1
746,660,20,0.100080011911421,1
747,654,20,0.246199871881605,1
747,657,20,0.196913400025102,1
747,658,20,0.125421451271505,1
747,659,20,0.10369488156009,1
748,654,20,0.174835773318803,1
748,657,20,0.218784224663389,1
748,658,20,0.112400458886749,1
749,654,20,0.125885228192635,1
749,655,20,0.193516661080247,1
749,656,20,0.250055311647317,1
749,657,20,0.197807142246657,1
749,658,20,0.108074782698915,1
750,655,20,0.134695486471287,1
750,656,20,0.158601195529965,1
750,657,20,0.139318430419776,1
751,655,20,0.114023307751459,1
751,656,20,0.116344120403782,1
751,657,20,0.104909213281969,1
752,655,20,0.100513539196372,1
753,657,20,0.102206658281821,1
753,658,20,0.10513455509819,1
754,657,20,0.109359689643267,1
754,658,20,0.121130076885734,1
755,657,20,0.126547005703191,1
755,658,20,0.137402583818676,1
755,659,20,0.104813704167809,1
756,656,20,0.113509989834525,1
756,657,20,0.144531618079473,1
756,658,20,0.144422917640354,1
756,659,20,0.108869432035945,1
757,656,20,0.117767432777481,1
757,657,20,0.151692405199277,1
757,658,20,0.145354414719308,1
757,659,20,0.105487398531797,1
757,683,20,0.105022401603734,1
758,656,20,0.114841300613996,1
758,657,20,0.160419844614454,1
758,658,20,0.175709407211807,1
758,659,20,0.132854604939034,1
758,683,20,0.111525681237247,1
759,657,20,0.153938623142001,1
759,658,20,0.191562362474929,1
759,659,20,0.174735275247722,1
759,660,20,0.117758184689214,1
759,683,20,0.121133181367661,1
760,658,20,0.161228360637424,1
760,659,20,0.176731424448,1
760,660,20,0.148757939952726,1
760,661,20,0.105130110787221,1
760,683,20,0.107422296848302,1
761,659,20,0.154958973761581,1
761,660,20,0.154791113879144,1
761,661,20,0.129915826096542,1
762,660,20,0.145691256454842,1
762,661,20,0.128871097124146,1
762,662,20,0.109810013809381,1
763,661,20,0.113458825793785,1
763,662,20,0.118162932882056,1
763,663,20,0.113339668152385,1
764,663,20,0.10815420297165,1
740,658,21,0.198428082203725,1
741,657,21,0.216697664235063,1
741,658,21,0.209133817324868,1
741,659,21,0.160612420530196,1
741,660,21,0.148365184863749,1
742,656,21,0.175601774278753,1
742,657,21,0.223790239895827,1
742,658,21,0.212110503525627,1
742,659,21,0.160733146751938,1
742,660,21,0.116165530996089,1
742,661,21,0.12003587227505,1
742,662,21,0.135995000820074,1
742,663,21,0.10616854365241,1
743,656,21,0.180328015778517,1
743,657,21,0.227235212686199,1
743,658,21,0.202911368037177,1
743,659,21,0.15701092738611,1
743,660,21,0.107669152179631,1
743,662,21,0.102587954019965,1
743,663,21,0.100362476195098,1
744,655,21,0.162830131703787,1
744,656,21,0.170146415242915,1
744,657,21,0.21003453101461,1
744,658,21,0.192572157855957,1
744,659,21,0.153567610319432,1
744,660,21,0.102318637489572,1
745,655,21,0.179222275566568,1
745,656,21,0.184889850451181,1
745,657,21,0.212929999610992,1
745,658,21,0.202093266245449,1
745,659,21,0.160807567174833,1
745,668,21,0.100098965590554,1
746,654,21,0.250494121998003,1
746,658,21,0.205265589272202,1
746,659,21,0.150004863288378,1
747,658,21,0.164104102157421,1
747,659,21,0.106391042416761,1
748,658,21,0.122584466757459,1
749,654,21,0.159301032899654,1
749,657,21,0.204304790241024,1
749,658,21,0.108636486962233,1
750,654,21,0.137388423023922,1
750,655,21,0.164788068544065,1
750,656,21,0.182866654132922,1
750,657,21,0.152845006748945,1
751,655,21,0.13172811371631,1
751,656,21,0.135518435611988,1
751,657,21,0.127052371789224,1
752,655,21,0.124943230339725,1
752,656,21,0.107180169043837,1
752,657,21,0.108768487355184,1
753,655,21,0.114668920170157,1
753,657,21,0.114885242649411,1
753,658,21,0.116611356386638,1
754,656,21,0.101340246394142,1
754,657,21,0.125338697765543,1
754,658,21,0.142062269583094,1
754,659,21,0.113945009449385,1
755,656,21,0.12041824641218,1
755,657,21,0.152073962367479,1
755,658,21,0.170871339005158,1
755,659,21,0.142128988712226,1
756,656,21,0.148024563285307,1
756,657,21,0.180380944472142,1
756,658,21,0.174350776991379,1
756,659,21,0.145157024133348,1
756,682,21,0.106741021012661,1
756,683,21,0.124126403019525,1
757,656,21,0.157306572101828,1
757,657,21,0.196855623982503,1
757,658,21,0.171715758089291,1
757,659,21,0.135831334711469,1
757,682,21,0.112099988607896,1
757,683,21,0.131660501367816,1
757,684,21,0.0998524915113912,1
757,686,21,0.119767808430346,1
758,657,21,0.200677273913347,1
758,658,21,0.192997395629517,1
758,659,21,0.146860491491887,1
758,662,21,0.105941415397466,1
758,682,21,0.107943435881107,1
758,683,21,0.146643657045438,1
758,684,21,0.119530680475722,1
758,685,21,0.104887166013828,1
758,686,21,0.138402858788462,1
759,657,21,0.194175682682286,1
759,658,21,0.216079360364403,1
759,659,21,0.195532722536533,1
759,660,21,0.132819878313128,1
759,682,21,0.114315913342764,1
759,683,21,0.168924523835222,1
759,684,21,0.143936363625506,1
759,685,21,0.110324791377466,1
760,658,21,0.195687358415253,1
760,659,21,0.219064543042015,1
760,660,21,0.184795877238606,1
760,661,21,0.125558538657648,1
760,683,21,0.134444818618294,1
760,684,21,0.129653382998064,1
761,659,21,0.184011946533913,1
761,660,21,0.181215843145032,1
761,661,21,0.152130877869474,1
762,660,21,0.148921791240955,1
762,661,21,0.132502796332736,1
762,662,21,0.114090843849519,1
763,661,21,0.1077552280259,1
763,662,21,0.116023236794644,1
763,663,21,0.112037724682652,1
764,663,21,0.104264973371071,1
740,657,22,0.241811158371275,1
741,656,22,0.232911011724689,1
741,658,22,0.227130531734206,1
742,658,22,0.247441359650655,1
742,659,22,0.16867576224306,1
742,660,22,0.11739052688571,1
742,661,22,0.110785736139645,1
743,655,22,0.179997143362618,1
743,656,22,0.23344095223608,1
743,658,22,0.254904839204798,1
743,659,22,0.171186198830066,1
743,660,22,0.109695115299326,1
744,655,22,0.175326956824243,1
744,656,22,0.205398461098675,1
744,658,22,0.23987058484395,1
744,659,22,0.161646801229502,1
745,654,22,0.204001139229811,1
745,655,22,0.207639112759769,1
745,658,22,0.253037836452682,1
745,659,22,0.159452150365523,1
746,654,22,0.24420324339289,1
746,659,22,0.148389824646622,1
747,659,22,0.106758809149456,1
748,658,22,0.13002147651833,1
749,654,22,0.191583560095385,1
749,657,22,0.196908345710666,1
749,658,22,0.107634948413839,1
750,654,22,0.151245250872605,1
750,655,22,0.185433766577703,1
750,656,22,0.193739050915408,1
750,657,22,0.16044648869443,1
750,658,22,0.104157111686717,1
751,654,22,0.168074048288101,1
751,655,22,0.137517504114569,1
751,656,22,0.139282037177257,1
751,657,22,0.137129770661271,1
752,654,22,0.218549700116415,1
752,655,22,0.139820397915068,1
752,656,22,0.110273747158835,1
752,657,22,0.111772111744733,1
753,655,22,0.130879893003431,1
753,656,22,0.107562978897729,1
753,657,22,0.119416326611619,1
753,658,22,0.119677930955331,1
754,655,22,0.107262780941851,1
754,656,22,0.115835094296951,1
754,657,22,0.137641857678352,1
754,658,22,0.157373269445122,1
754,659,22,0.13789008551748,1
755,655,22,0.102850538726391,1
755,656,22,0.13563530574039,1
755,657,22,0.166289831720704,1
755,658,22,0.19151584971062,1
755,659,22,0.174120163002342,1
755,660,22,0.100687923937314,1
755,683,22,0.105334799628939,1
756,655,22,0.109085155404652,1
756,656,22,0.158260236271033,1
756,657,22,0.192590871890871,1
756,658,22,0.188492345743819,1
756,659,22,0.16900105748441,1
756,660,22,0.10413217779503,1
756,682,22,0.123303312270876,1
756,683,22,0.15478797671846,1
756,684,22,0.106529611239894,1
757,656,22,0.169460597060034,1
757,657,22,0.214440106763617,1
757,658,22,0.190060185367367,1
757,659,22,0.162532983765242,1
757,660,22,0.109970771508602,1
757,682,22,0.112029075704933,1
757,683,22,0.142848771016681,1
757,684,22,0.109063816176249,1
757,686,22,0.141742769374674,1
757,687,22,0.155770191228474,1
757,688,22,0.119123100123929,1
758,657,22,0.212885142570377,1
758,658,22,0.193676765204326,1
758,659,22,0.154646935202705,1
758,660,22,0.106522552628355,1
758,662,22,0.112528298184626,1
758,663,22,0.104841971292723,1
758,682,22,0.106156398047679,1
758,683,22,0.164064506396703,1
758,684,22,0.140655939270182,1
758,685,22,0.12627028198785,1
758,686,22,0.196911744301408,1
758,687,22,0.216386780325606,1
759,657,22,0.21192127173603,1
759,658,22,0.210721547418587,1
759,659,22,0.18914463552189,1
759,660,22,0.13360881976058,1
759,682,22,0.114983627494198,1
759,683,22,0.197694705536306,1
759,684,22,0.17752106304227,1
759,685,22,0.143327177128085,1
759,686,22,0.191663405191962,1
760,658,22,0.210936900428046,1
760,659,22,0.233581056960798,1
760,660,22,0.197636907707869,1
760,661,22,0.126569771903989,1
760,683,22,0.142916808189017,1
760,684,22,0.148223696738313,1
760,685,22,0.135505897862171,1
761,659,22,0.19896684597954,1
761,660,22,0.191042443449056,1
761,661,22,0.152303595993803,1
761,684,22,0.109663090117343,1
762,660,22,0.143815517581655,1
762,661,22,0.123285818242895,1
762,662,22,0.103295111431251,1
763,662,22,0.0999159427648106,1
767,673,22,0.104661660803822,1
740,656,23,0.243287475689032,1
740,658,23,0.218400467125541,1
741,659,23,0.177072841209532,1
741,660,23,0.14139728955434,1
741,661,23,0.147013264681451,1
742,659,23,0.182076372856428,1
742,660,23,0.122258768478105,1
742,661,23,0.104182579331437,1
743,655,23,0.187494249357842,1
743,659,23,0.18026078468219,1
743,660,23,0.107171846853689,1
744,654,23,0.161690612549889,1
744,655,23,0.188079874471376,1
744,659,23,0.163043142735653,1
745,654,23,0.209682929373774,1
745,659,23,0.151332819048783,1
746,659,23,0.136254993011768,1
748,658,23,0.127890974054589,1
749,653,23,0.122592680018417,1
749,657,23,0.190557708551689,1
749,658,23,0.107167609508182,1
750,653,23,0.123338605328572,1
750,654,23,0.158890794675614,1
750,656,23,0.195328807092068,1
750,657,23,0.166397911263439,1
750,658,23,0.107183077453221,1
751,654,23,0.173697027562157,1
751,655,23,0.140526672999911,1
751,656,23,0.13538891880458,1
751,657,23,0.13525270285196,1
752,654,23,0.230422851157124,1
752,655,23,0.145359763142557,1
752,656,23,0.110187954528461,1
752,657,23,0.108399849188966,1
753,655,23,0.134211121933168,1
753,656,23,0.114113130761879,1
753,657,23,0.121954147997096,1
753,658,23,0.12202038783779,1
753,659,23,0.106853000220412,1
754,655,23,0.108742028454831,1
754,656,23,0.127606178686237,1
754,657,23,0.149930726081378,1
754,658,23,0.170242708647246,1
754,659,23,0.166577230496708,1
754,660,23,0.115205864828492,1
755,655,23,0.105877822536099,1
755,656,23,0.142679048445088,1
755,657,23,0.173432198914409,1
755,658,23,0.197120517987766,1
755,659,23,0.193283269396854,1
755,660,23,0.124007931632025,1
755,683,23,0.105287219358563,1
755,689,23,0.103148612563055,1
755,690,23,0.116288000084878,1
755,691,23,0.125853061402704,1
756,655,23,0.108662597289177,1
756,656,23,0.150539400611605,1
756,657,23,0.188074885514455,1
756,658,23,0.190498952146377,1
756,659,23,0.172706305682371,1
756,660,23,0.107159919107338,1
756,682,23,0.117740647089556,1
756,683,23,0.160555385206093,1
756,684,23,0.105971904677865,1
756,689,23,0.119649260792413,1
756,690,23,0.132758703679789,1
757,656,23,0.161317573644378,1
757,657,23,0.205339617550011,1
757,658,23,0.199832811257538,1
757,659,23,0.173453363856107,1
757,660,23,0.109883726192538,1
757,683,23,0.134812824995207,1
757,684,23,0.106141877786596,1
757,686,23,0.131444647284081,1
757,687,23,0.158208309725959,1
757,688,23,0.140604535585223,1
757,689,23,0.125997686688824,1
758,657,23,0.199174029299718,1
758,658,23,0.184541037397619,1
758,659,23,0.156003223445538,1
758,660,23,0.109757727797979,1
758,683,23,0.149272793771244,1
758,684,23,0.137447059607125,1
758,685,23,0.1228912222506,1
758,686,23,0.212214443759125,1
758,687,23,0.265230956097329,1
758,688,23,0.213439417862908,1
759,657,23,0.205174611612363,1
759,658,23,0.182997804878187,1
759,659,23,0.163572364314387,1
759,660,23,0.125359492347994,1
759,683,23,0.182092004195253,1
759,684,23,0.179303700136406,1
759,685,23,0.152655208527558,1
759,686,23,0.235698683994231,1
759,687,23,0.280455749398059,1
759,688,23,0.21912417088085,1
760,658,23,0.201683561774443,1
760,659,23,0.207122418037932,1
760,660,23,0.176730302477338,1
760,661,23,0.112813060874221,1
760,683,23,0.125973874767799,1
760,684,23,0.144151934493347,1
760,685,23,0.142308199016304,1
760,686,23,0.180680009564439,1
761,659,23,0.194240800552319,1
761,660,23,0.175135306806619,1
761,661,23,0.131018418254888,1
761,684,23,0.104885466718458,1
761,685,23,0.147103076798952,1
762,660,23,0.131535984410248,1
762,661,23,0.106195808628772,1
767,673,23,0.120199843385388,1
730,660,24,0.153034663362385,1
730,663,24,0.136330295761105,1
731,660,24,0.136424247187842,1
731,661,24,0.106770693324131,1
732,657,24,0.204103075166205,1
733,659,24,0.121217623276074,1
735,660,24,0.117183572316831,1
736,660,24,0.111935135171115,1
737,659,24,0.151910481438498,1
739,660,24,0.104121175946798,1
740,658,24,0.2279208130107,1
740,659,24,0.167419972071308,1
740,660,24,0.123948488972813,1
740,661,24,0.106790267899649,1
741,659,24,0.193877194914698,1
741,660,24,0.135764822547799,1
741,661,24,0.114424570210207,1
741,662,24,0.100180564447097,1
742,660,24,0.121373991128921,1
743,660,24,0.100652238734533,1
744,654,24,0.152468863361507,1
744,655,24,0.20133851767087,1
744,659,24,0.157256159672502,1
745,654,24,0.207702553120269,1
745,659,24,0.142588953111692,1
746,659,24,0.121891426569253,1
748,653,24,0.148997965423815,1
748,658,24,0.122804623544216,1
749,653,24,0.127645654624845,1
749,657,24,0.187425907183773,1
749,658,24,0.1080851854366,1
750,653,24,0.123164514696444,1
750,654,24,0.167146091407836,1
750,656,24,0.199778128803947,1
750,657,24,0.168432610504206,1
750,658,24,0.108171010745732,1
751,653,24,0.156465606073031,1
751,654,24,0.178152351272428,1
751,655,24,0.16189799194261,1
751,656,24,0.146379885010837,1
751,657,24,0.132284883487301,1
752,653,24,0.196874207302389,1
752,654,24,0.218300361199545,1
752,655,24,0.158431984925567,1
752,656,24,0.12375978004333,1
752,657,24,0.111865115487513,1
752,658,24,0.100594941980372,1
753,654,24,0.174073780953061,1
753,655,24,0.137252827967688,1
753,656,24,0.125793694993926,1
753,657,24,0.130444568386838,1
753,658,24,0.135603650917654,1
753,659,24,0.127306743234692,1
754,655,24,0.113124282464169,1
754,656,24,0.139345619145705,1
754,657,24,0.163659071949961,1
754,658,24,0.182500760982303,1
754,659,24,0.1931040155211,1
754,660,24,0.150719035739526,1
755,655,24,0.112515956507351,1
755,656,24,0.145632946659211,1
755,657,24,0.17621362954134,1
755,658,24,0.189320381877713,1
755,659,24,0.193204796808076,1
755,660,24,0.146819773760509,1
755,690,24,0.112368346561414,1
755,691,24,0.120963752904882,1
755,692,24,0.130194684824016,1
756,655,24,0.115696340294194,1
756,656,24,0.140615831542269,1
756,657,24,0.178521446941246,1
756,658,24,0.186387920928265,1
756,659,24,0.160954033364271,1
756,660,24,0.106106443120952,1
756,683,24,0.137252163499626,1
756,689,24,0.121932917697884,1
756,690,24,0.143099515120108,1
756,691,24,0.17264117691942,1
757,656,24,0.151921984361006,1
757,657,24,0.186516174157065,1
757,658,24,0.200343885233149,1
757,659,24,0.166200466212884,1
757,660,24,0.100872537129237,1
757,683,24,0.117165315784517,1
757,686,24,0.106151779450005,1
757,687,24,0.142763642854368,1
757,688,24,0.155560840217406,1
757,689,24,0.148310578660591,1
757,690,24,0.140265569730475,1
758,656,24,0.192029537986801,1
758,657,24,0.178595867364141,1
758,658,24,0.173088451068202,1
758,659,24,0.152170342915163,1
758,660,24,0.109547385531279,1
758,683,24,0.119071816261079,1
758,684,24,0.119954970565325,1
758,685,24,0.109140687505928,1
758,686,24,0.187461897388288,1
758,687,24,0.281774097603869,1
758,688,24,0.284339772183336,1
758,689,24,0.203003565703948,1
759,657,24,0.188578269089222,1
759,658,24,0.156455137977832,1
759,659,24,0.143244543444232,1
759,660,24,0.121370625216937,1
759,683,24,0.139232822969026,1
759,684,24,0.151893826165282,1
759,685,24,0.1420421939333,1
759,686,24,0.236397508322449,1
759,687,24,0.327430547761315,1
759,688,24,0.294920870524802,1
759,689,24,0.18542777547223,1
760,658,24,0.185956430619174,1
760,659,24,0.168995164415209,1
760,660,24,0.147262102524045,1
760,661,24,0.10191878021738,1
760,683,24,0.0998814993547999,1
760,684,24,0.124145487413687,1
760,685,24,0.135371871386279,1
760,686,24,0.191245334959132,1
760,687,24,0.221718036334798,1
760,688,24,0.176703919827419,1
761,659,24,0.18353160148292,1
761,660,24,0.147132988754641,1
761,661,24,0.108036472302645,1
761,685,24,0.13696536383417,1
761,686,24,0.174827429342817,1
762,660,24,0.121730505476246,1
763,682,24,0.10773192807207,1
764,680,24,0.134887103810155,1
764,681,24,0.178367704281888,1
767,673,24,0.131299662531632,1
729,663,25,0.183701552805812,1
729,664,25,0.147469471023847,1
729,667,25,0.115694292425415,1
730,660,25,0.164025607782804,1
730,661,25,0.160426304115445,1
730,662,25,0.150286063993446,1
730,663,25,0.113102355018137,1
731,659,25,0.153537763721257,1
731,660,25,0.129725406978769,1
732,657,25,0.186288098218164,1
732,658,25,0.167041116347028,1
732,659,25,0.127615742669155,1
733,658,25,0.176648180760681,1
733,659,25,0.118984433264525,1
734,659,25,0.152070683598848,1
738,659,25,0.146424066690471,1
739,659,25,0.1475511897025,1
740,659,25,0.179384035414341,1
740,660,25,0.11507672927325,1
741,660,25,0.129864084731092,1
742,660,25,0.119376207990788,1
743,654,25,0.149414804756794,1
744,654,25,0.144783756476538,1
744,659,25,0.153084542038678,1
745,659,25,0.135476813768329,1
746,653,25,0.148913196727831,1
746,659,25,0.110684747887207,1
748,653,25,0.154028282758636,1
748,658,25,0.118750693007722,1
749,653,25,0.133961597836673,1
749,657,25,0.184992265676013,1
749,658,25,0.109455296793698,1
750,653,25,0.126386509434027,1
750,654,25,0.184698908473294,1
750,657,25,0.169868308126855,1
750,658,25,0.107024988519165,1
751,653,25,0.134915087719173,1
751,654,25,0.186442189450932,1
751,655,25,0.213047948138378,1
751,656,25,0.190550671725988,1
751,657,25,0.141188428724629,1
751,658,25,0.101574912549063,1
752,653,25,0.152956713633721,1
752,654,25,0.194128603486187,1
752,655,25,0.186229102168633,1
752,656,25,0.159485210374815,1
752,657,25,0.130150699216924,1
752,658,25,0.115537674035429,1
753,654,25,0.149211510208714,1
753,655,25,0.143193586368954,1
753,656,25,0.144298237288999,1
753,657,25,0.148131923895384,1
753,658,25,0.155919565827296,1
753,659,25,0.14290222257042,1
753,660,25,0.106876256602566,1
754,655,25,0.115258837093793,1
754,656,25,0.145485881359225,1
754,657,25,0.17227904182587,1
754,658,25,0.187641565194966,1
754,659,25,0.193034889056859,1
754,660,25,0.160205951256146,1
755,655,25,0.116974471842902,1
755,656,25,0.143053122177908,1
755,657,25,0.172154579332896,1
755,658,25,0.175991185241584,1
755,659,25,0.172159034536784,1
755,660,25,0.149300134998039,1
755,690,25,0.101732315229219,1
755,691,25,0.110822891886497,1
755,692,25,0.127396882139764,1
755,693,25,0.120435511688861,1
756,655,25,0.124903384041869,1
756,656,25,0.131649455947908,1
756,657,25,0.161698771346251,1
756,658,25,0.173592117858864,1
756,659,25,0.139626460384445,1
756,660,25,0.0997981140595337,1
756,683,25,0.102901779017564,1
756,689,25,0.112145281365272,1
756,690,25,0.134834937620863,1
756,691,25,0.170015809143602,1
756,692,25,0.214574656099623,1
757,655,25,0.145789238261625,1
757,656,25,0.139941603425248,1
757,657,25,0.155653386457587,1
757,658,25,0.179962732631364,1
757,659,25,0.142183703844574,1
757,687,25,0.111942313604764,1
757,688,25,0.152532684974174,1
757,689,25,0.16173516458877,1
757,690,25,0.145098638087284,1
757,691,25,0.169841958155693,1
758,656,25,0.185406926425184,1
758,657,25,0.147516245218213,1
758,658,25,0.149818115084322,1
758,659,25,0.136296734677537,1
758,660,25,0.103039552657607,1
758,686,25,0.141569234281417,1
758,687,25,0.237138923964121,1
758,688,25,0.298772279910468,1
758,689,25,0.237913170863786,1
758,690,25,0.137535967612345,1
759,657,25,0.161563927901431,1
759,658,25,0.129474891626642,1
759,659,25,0.125891186619351,1
759,660,25,0.118097030721852,1
759,684,25,0.112369893355918,1
759,685,25,0.1217819636258,1
759,686,25,0.198916455336052,1
759,687,25,0.302765057599461,1
759,688,25,0.308171888680966,1
759,689,25,0.201455834408952,1
760,657,25,0.207896664937597,1
760,658,25,0.16216518435379,1
760,659,25,0.130699909302101,1
760,660,25,0.117522636207851,1
760,684,25,0.102957300225921,1
760,685,25,0.126235773220325,1
760,686,25,0.188023928439177,1
760,687,25,0.235812580355734,1
760,688,25,0.192113522392614,1
761,658,25,0.245774590536369,1
761,659,25,0.15928754746588,1
761,660,25,0.112509660400145,1
761,684,25,0.103352615150873,1
761,685,25,0.129434261038616,1
761,686,25,0.163501189981367,1
761,687,25,0.16398461772845,1
762,659,25,0.181581551116028,1
762,660,25,0.10850247137926,1
762,683,25,0.108716234022539,1
762,684,25,0.135117271189511,1
762,685,25,0.159168564111184,1
763,660,25,0.103060608670115,1
763,681,25,0.105685453585818,1
763,682,25,0.118404483361812,1
763,683,25,0.133490500873947,1
763,684,25,0.14033589441581,1
764,679,25,0.116330526040817,1
764,680,25,0.170056526874981,1
764,681,25,0.205994151269404,1
764,682,25,0.168325903469271,1
765,678,25,0.102086400455597,1
765,679,25,0.135741533486887,1
765,680,25,0.203729382685552,1
765,681,25,0.230116324415283,1
767,673,25,0.136972052086462,1
729,663,26,0.130615282214064,1
730,659,26,0.14012236052383,1
730,660,26,0.150291107414963,1
730,661,26,0.133569790431653,1
730,662,26,0.111254981306135,1
731,657,26,0.149018531254966,1
731,658,26,0.140634992186864,1
731,659,26,0.134014820639112,1
731,660,26,0.111346492719006,1
732,657,26,0.196833533142686,1
732,658,26,0.155721282021975,1
732,659,26,0.114775442025468,1
733,658,26,0.187481025354125,1
733,659,26,0.120722779749836,1
734,659,26,0.146303035466996,1
739,659,26,0.165897011274213,1
740,659,26,0.206382244189031,1
740,660,26,0.117398859968777,1
741,660,26,0.126278212032912,1
742,660,26,0.122461638202342,1
743,654,26,0.160788395637319,1
743,660,26,0.110604870111873,1
744,654,26,0.159174707717524,1
744,659,26,0.160810693442598,1
745,659,26,0.135841410661583,1
746,653,26,0.140258750763155,1
746,659,26,0.111224840599146,1
747,658,26,0.156484483501731,1
748,658,26,0.132545768898356,1
749,653,26,0.145813780008226,1
749,658,26,0.1219650191303,1
750,653,26,0.133963918028429,1
750,658,26,0.117665583984438,1
751,653,26,0.123882085738333,1
751,654,26,0.202357680962274,1
751,657,26,0.185964731023484,1
751,658,26,0.122988136551316,1
752,654,26,0.181298574865156,1
752,655,26,0.233300324651249,1
752,656,26,0.221819863342003,1
752,657,26,0.177270569475981,1
752,658,26,0.144900147316501,1
752,659,26,0.110383874570349,1
753,654,26,0.144439801664869,1
753,655,26,0.165671135704959,1
753,656,26,0.175853716603275,1
753,657,26,0.181689608872924,1
753,658,26,0.184857847055036,1
753,659,26,0.157573372367923,1
753,660,26,0.117311346257194,1
754,654,26,0.130371738330124,1
754,655,26,0.136472753356336,1
754,656,26,0.158476144819363,1
754,657,26,0.184345324321192,1
754,658,26,0.199575128364681,1
754,659,26,0.18961706142074,1
754,660,26,0.155780898967892,1
754,661,26,0.109809512735105,1
755,655,26,0.149268033565623,1
755,656,26,0.159038393728633,1
755,657,26,0.179972863046073,1
755,658,26,0.186210475277071,1
755,659,26,0.170003118892918,1
755,660,26,0.148128318339181,1
755,661,26,0.109777433088526,1
755,692,26,0.102962964543823,1
755,693,26,0.103041611419306,1
756,655,26,0.174339382998061,1
756,656,26,0.158237927572835,1
756,657,26,0.163786366601886,1
756,658,26,0.176762284087646,1
756,659,26,0.141863974884854,1
756,660,26,0.10701493435489,1
756,690,26,0.105168083503001,1
756,691,26,0.135217823725187,1
756,692,26,0.179076746168167,1
756,693,26,0.165136249808323,1
757,656,26,0.16506316921447,1
757,657,26,0.146911840712251,1
757,658,26,0.163478216815108,1
757,659,26,0.130170252006605,1
757,688,26,0.125718904211784,1
757,689,26,0.144329935683411,1
757,690,26,0.122825766700077,1
757,691,26,0.140318258779881,1
757,692,26,0.180277352812053,1
758,656,26,0.187972404932108,1
758,657,26,0.1333411698468,1
758,658,26,0.131945307629087,1
758,659,26,0.12259093715137,1
758,686,26,0.105427204261172,1
758,687,26,0.172509132954793,1
758,688,26,0.242678365442044,1
758,689,26,0.22052029452862,1
758,690,26,0.1316925265498,1
758,691,26,0.103058092405816,1
759,657,26,0.144320981703959,1
759,658,26,0.117494456226289,1
759,659,26,0.117933756758332,1
759,660,26,0.115241887711764,1
759,685,26,0.101117714951034,1
759,686,26,0.157888537194564,1
759,687,26,0.241147648886591,1
759,688,26,0.261554508777315,1
759,689,26,0.194834704284325,1
759,690,26,0.110937844861147,1
760,657,26,0.186044728620929,1
760,658,26,0.147479917333208,1
760,659,26,0.114342078134303,1
760,660,26,0.103519919494439,1
760,685,26,0.12242880694435,1
760,686,26,0.183752738632391,1
760,687,26,0.234373691107805,1
760,688,26,0.20253828555999,1
761,658,26,0.226470616912806,1
761,659,26,0.137596455991785,1
761,683,26,0.101005016810626,1
761,684,26,0.135258443420295,1
761,685,26,0.148996625594773,1
761,686,26,0.170421134661154,1
761,687,26,0.183296488718318,1
762,659,26,0.158864717027428,1
762,683,26,0.163672916850064,1
762,684,26,0.216546339803732,1
762,685,26,0.193515746075048,1
763,679,26,0.102471900860492,1
763,680,26,0.10747609697545,1
763,681,26,0.109166808725791,1
763,682,26,0.127512739226695,1
763,683,26,0.177585723409704,1
763,684,26,0.207636128099951,1
764,677,26,0.124704893271086,1
764,678,26,0.150387575105998,1
764,679,26,0.169075096655139,1
764,680,26,0.199855490314983,1
764,681,26,0.206197761712136,1
764,682,26,0.157873995147643,1
764,683,26,0.124530225314249,1
765,676,26,0.116933503574385,1
765,677,26,0.158778554037806,1
765,678,26,0.175224421777302,1
765,679,26,0.187075220548136,1
765,680,26,0.234113894988655,1
765,681,26,0.240936653044749,1
766,674,26,0.110546037456127,1
766,675,26,0.121343741492742,1
766,676,26,0.133815828794054,1
766,678,26,0.150879956832533,1
767,670,26,0.105634398474269,1
767,671,26,0.106901735140206,1
767,672,26,0.108129617653373,1
768,669,26,0.116857743322448,1
768,670,26,0.163996512796043,1
730,659,27,0.124374151570215,1
730,660,27,0.125813019032306,1
730,661,27,0.104098246352214,1
731,657,27,0.142128356922922,1
731,658,27,0.122675553346488,1
731,659,27,0.114552060934675,1
732,658,27,0.150184335022513,1
732,659,27,0.103993783258602,1
733,659,27,0.117559998920165,1
734,659,27,0.1364858902167,1
735,659,27,0.144099964376598,1
738,659,27,0.160631646532305,1
739,659,27,0.175148759561636,1
739,660,27,0.1000195344249,1
740,660,27,0.120042266418527,1
741,660,27,0.129964201550007,1
742,660,27,0.143700237819434,1
743,654,27,0.172252637390112,1
743,660,27,0.151545056683397,1
743,661,27,0.102792958756335,1
744,654,27,0.183073913703534,1
744,659,27,0.187796571432933,1
744,660,27,0.134769285997797,1
745,659,27,0.149587076271442,1
745,660,27,0.107888186995727,1
746,653,27,0.135772109910638,1
746,659,27,0.130994039902072,1
747,658,27,0.190186913587501,1
747,659,27,0.127443983121702,1
748,658,27,0.169347299809078,1
748,659,27,0.116890748867145,1
749,653,27,0.147197540192884,1
749,658,27,0.142177647381587,1
749,659,27,0.101461255831779,1
750,653,27,0.130643745411521,1
750,658,27,0.133561588063614,1
751,658,27,0.155233246570138,1
751,659,27,0.105280258783296,1
752,654,27,0.156427143175894,1
752,658,27,0.192821278914447,1
752,659,27,0.133030383973614,1
752,660,27,0.102485429865943,1
753,654,27,0.137968514534582,1
753,655,27,0.178168516364286,1
753,656,27,0.210885093705083,1
753,658,27,0.22725305528759,1
753,659,27,0.178822211328914,1
753,660,27,0.140962095652775,1
753,661,27,0.120309197399651,1
754,655,27,0.157095347508685,1
754,656,27,0.169745207248762,1
754,657,27,0.205178533063218,1
754,659,27,0.205066139924543,1
754,660,27,0.162460709247398,1
754,661,27,0.140576878463775,1
754,662,27,0.10415014021853,1
755,655,27,0.188760355123927,1
755,656,27,0.177913306164052,1
755,657,27,0.195118835184615,1
755,658,27,0.229894392082723,1
755,659,27,0.20487891243205,1
755,660,27,0.15588847743635,1
755,661,27,0.130464818323337,1
756,656,27,0.201112053883988,1
756,657,27,0.174170956683834,1
756,658,27,0.195965759640128,1
756,659,27,0.17371109032064,1
756,660,27,0.129033401617871,1
756,661,27,0.10686257509625,1
756,692,27,0.1273923833642,1
756,693,27,0.129359644543178,1
757,656,27,0.21237038678813,1
757,657,27,0.149991508569632,1
757,658,27,0.148485823942138,1
757,659,27,0.132029553464958,1
757,660,27,0.101077672580636,1
757,689,27,0.117447725603599,1
757,691,27,0.105094501834873,1
757,692,27,0.138274572880904,1
757,693,27,0.129733500417617,1
758,657,27,0.130539325889584,1
758,658,27,0.11645420424362,1
758,659,27,0.111061392348921,1
758,687,27,0.119253575508213,1
758,688,27,0.166449728879321,1
758,689,27,0.177437220244404,1
758,690,27,0.121291248515879,1
759,657,27,0.136429345073953,1
759,658,27,0.116796034936076,1
759,659,27,0.113167222351032,1
759,660,27,0.107309402635351,1
759,686,27,0.132449660673649,1
759,687,27,0.186218949968086,1
759,688,27,0.210180082198849,1
759,689,27,0.196526113181484,1
759,690,27,0.125995562569611,1
760,658,27,0.143603323518717,1
760,659,27,0.113528518689816,1
760,660,27,0.0998091812652803,1
760,685,27,0.125938777782646,1
760,686,27,0.192448240008936,1
760,687,27,0.244068824771912,1
760,688,27,0.238043580890556,1
760,689,27,0.199908299186499,1
761,659,27,0.121060961314413,1
761,662,27,0.108461612039933,1
761,663,27,0.111602171314759,1
761,683,27,0.12173295638303,1
761,684,27,0.1670509962246,1
761,685,27,0.179199694545394,1
761,686,27,0.209125364419692,1
761,687,27,0.239283826866836,1
762,662,27,0.107803167762604,1
762,663,27,0.110546484065808,1
762,682,27,0.1090300372343,1
762,683,27,0.201886039353595,1
762,684,27,0.278281348470579,1
762,685,27,0.228371627358171,1
762,686,27,0.177934002710232,1
763,662,27,0.103194940147741,1
763,663,27,0.104805948409451,1
763,678,27,0.113548191301606,1
763,679,27,0.124818157843285,1
763,680,27,0.12898680171021,1
763,681,27,0.122129556672429,1
763,682,27,0.130200000568508,1
763,683,27,0.19079896492263,1
763,684,27,0.237069753928205,1
764,676,27,0.111472948616164,1
764,677,27,0.175653482965445,1
764,678,27,0.211050971076254,1
764,679,27,0.211055567888089,1
764,680,27,0.213004637892267,1
764,681,27,0.188370388622225,1
765,675,27,0.102921440736435,1
765,676,27,0.171502409376935,1
765,680,27,0.23879532301948,1
766,674,27,0.116825827069655,1
766,675,27,0.156597345035925,1
766,676,27,0.209313005843109,1
767,669,27,0.102352100536869,1
767,670,27,0.149051645728854,1
767,671,27,0.149802276780035,1
767,672,27,0.130425146312187,1
768,669,27,0.159409820482126,1
768,670,27,0.260920410174044,1
730,659,28,0.10779844023574,1
730,660,28,0.100062474311763,1
731,657,28,0.155237974097002,1
731,658,28,0.118343188906362,1
731,659,28,0.102733123952038,1
732,658,28,0.151759723438957,1
732,659,28,0.10134345980526,1
733,659,28,0.118023645126267,1
734,659,28,0.135016751332592,1
735,659,28,0.134105667583922,1
738,659,28,0.16155620482183,1
739,659,28,0.181320502311187,1
739,660,28,0.105926187096646,1
740,660,28,0.132744118061191,1
741,660,28,0.163950479320172,1
742,661,28,0.123854287008938,1
743,654,28,0.192465559750212,1
743,661,28,0.150001889521479,1
744,659,28,0.231269949899341,1
744,660,28,0.193614261634863,1
744,661,28,0.140429105124052,1
745,659,28,0.180474013572437,1
745,660,28,0.142434088481672,1
745,661,28,0.117783140366739,1
746,659,28,0.172565231487859,1
746,660,28,0.118984662015824,1
747,653,28,0.133510195271575,1
747,659,28,0.172602507056821,1
747,660,28,0.110183575575006,1
748,653,28,0.140736318119792,1
748,659,28,0.155569532766802,1
748,660,28,0.100800066538851,1
749,653,28,0.142234944135747,1
749,658,28,0.177259338876449,1
749,659,28,0.132202119088421,1
750,658,28,0.156168338312376,1
750,659,28,0.11874139045486,1
751,659,28,0.127179394118173,1
751,660,28,0.100893505998393,1
752,654,28,0.139332536749936,1
752,659,28,0.166003140984439,1
752,660,28,0.132561160592963,1
752,661,28,0.109321488176187,1
753,655,28,0.19184490300904,1
753,659,28,0.218646799596756,1
753,660,28,0.182921293014837,1
753,661,28,0.169732593248511,1
753,662,28,0.121005385641461,1
754,655,28,0.183665094205779,1
754,656,28,0.190787396642608,1
754,660,28,0.190120967855621,1
754,661,28,0.186067778037621,1
754,662,28,0.150491199444844,1
755,656,28,0.199750177573686,1
755,657,28,0.219826284870619,1
755,660,28,0.182528015065746,1
755,661,28,0.157657029986165,1
755,662,28,0.13956614629171,1
756,656,28,0.23803876622034,1
756,657,28,0.181749204033003,1
756,658,28,0.232322554452204,1
756,659,28,0.239428506617551,1
756,660,28,0.173255319695005,1
756,661,28,0.145480336863433,1
756,662,28,0.127258367781227,1
757,656,28,0.246248693944751,1
757,657,28,0.149131948328031,1
757,658,28,0.140688334811413,1
757,659,28,0.154673862498576,1
757,660,28,0.136047657190723,1
757,661,28,0.119805715788612,1
757,662,28,0.101195926109755,1
758,657,28,0.126024842735996,1
758,658,28,0.103491761298715,1
758,659,28,0.108321093384292,1
758,660,28,0.102721446742825,1
758,688,28,0.105599780777553,1
758,689,28,0.121415111898305,1
759,658,28,0.118512791655846,1
759,659,28,0.114022360067502,1
759,686,28,0.113108291659015,1
759,687,28,0.139788209339299,1
759,688,28,0.161644818718236,1
759,689,28,0.176158968873587,1
759,690,28,0.120669916413725,1
760,658,28,0.150495741792085,1
760,659,28,0.128324446874944,1
760,660,28,0.1002196373477,1
760,662,28,0.118444209837558,1
760,663,28,0.129385144866655,1
760,664,28,0.112305102273456,1
760,685,28,0.135802119902598,1
760,686,28,0.204018960045363,1
760,687,28,0.245104501728584,1
760,688,28,0.248324949671663,1
760,689,28,0.222254708670158,1
761,659,28,0.118137628631122,1
761,661,28,0.102130919815722,1
761,662,28,0.139890548313698,1
761,663,28,0.158415623761166,1
761,664,28,0.132011035502587,1
761,683,28,0.137230410340299,1
761,684,28,0.197165745387628,1
761,685,28,0.225947626083763,1
761,686,28,0.285932970522414,2
761,687,28,0.320594413200637,2
761,688,28,0.265172657194616,1
762,662,28,0.128070837933809,1
762,663,28,0.150932079450149,1
762,664,28,0.127192476513942,1
762,680,28,0.110944685614306,1
762,681,28,0.113327272010516,1
762,682,28,0.127757100079563,1
762,683,28,0.223107907447038,1
762,684,28,0.318676300872377,1
762,685,28,0.278920370673256,2
762,686,28,0.247747494247411,2
762,687,28,0.241776301030341,2
763,662,28,0.123884449501765,1
763,663,28,0.146666434139155,1
763,664,28,0.12514498898622,1
763,677,28,0.10310592321333,1
763,678,28,0.139361925845511,1
763,679,28,0.168257180043035,1
763,680,28,0.19565021356132,1
763,681,28,0.17795710659152,1
763,682,28,0.147897028989163,1
763,683,28,0.187463727398687,1
763,684,28,0.241520949222159,1
764,662,28,0.123104309532899,1
764,663,28,0.137160554050483,1
764,664,28,0.117877625546509,1
764,676,28,0.123935973008833,1
764,681,28,0.203243972427204,1
764,682,28,0.131521605757112,1
765,662,28,0.117498606428444,1
765,663,28,0.125284407457038,1
765,664,28,0.113366399375714,1
765,675,28,0.111770957095314,1
766,663,28,0.120528166858232,1
766,664,28,0.12557420267523,1
766,665,28,0.106043220618833,1
766,672,28,0.101719886408593,1
766,673,28,0.100434434818289,1
767,664,28,0.150228647417176,1
767,665,28,0.12383505011391,1
767,669,28,0.112153363911202,1
767,670,28,0.188270413411258,1
767,672,28,0.173749934469944,1
768,669,28,0.176793100155615,1
731,658,29,0.117909988408983,1
731,659,29,0.1021629994623,1
732,658,29,0.149373945417467,1
732,659,29,0.105218321645623,1
733,659,29,0.119011153594935,1
734,659,29,0.136242487940708,1
735,659,29,0.13584575693628,1
736,659,29,0.145884703804109,1
737,659,29,0.164713419369871,1
738,659,29,0.173240494432189,1
738,660,29,0.105387238141207,1
739,659,29,0.196142399215312,1
739,660,29,0.124994154736246,1
740,660,29,0.162399196933568,1
741,661,29,0.120628675822232,1
743,662,29,0.104730166371677,1
744,661,29,0.195231467967509,1
744,662,29,0.124899179375119,1
745,659,29,0.227001712073616,1
745,660,29,0.190341723752925,1
745,661,29,0.1614662619893,1
745,662,29,0.124982194311138,1
746,659,29,0.229022522842604,1
746,660,29,0.154860621595551,1
746,661,29,0.129344165705219,1
746,662,29,0.119003909803772,1
747,660,29,0.142769296279351,1
747,661,29,0.117919465248549,1
747,662,29,0.123474864852868,1
748,660,29,0.138192995810199,1
748,661,29,0.102750770480886,1
748,662,29,0.104868321263886,1
749,660,29,0.136553709530655,1
750,659,29,0.167362697102985,1
750,660,29,0.13297346847162,1
751,659,29,0.163246404604976,1
751,660,29,0.129674635083114,1
752,660,29,0.168256744326273,1
752,661,29,0.131094211185582,1
753,660,29,0.230153926771816,1
753,661,29,0.212330039415999,1
753,662,29,0.142580696279058,1
754,661,29,0.230391392406931,1
754,662,29,0.190458975133493,1
754,663,29,0.108507177120286,1
755,656,29,0.206747810552079,1
755,661,29,0.182827613911076,1
755,662,29,0.181541476066873,1
755,663,29,0.121017803569168,1
756,657,29,0.17407004468183,1
756,660,29,0.223964809816393,1
756,661,29,0.183057051464857,1
756,662,29,0.183005440814436,1
756,663,29,0.124556422784545,1
757,657,29,0.141556729210357,1
757,658,29,0.142319919797194,1
757,659,29,0.187993428265859,1
757,660,29,0.179082301556879,1
757,661,29,0.164676568624752,1
757,662,29,0.158581119880171,1
757,663,29,0.109775254504718,1
758,658,29,0.101152735685754,1
758,659,29,0.114886081404177,1
758,660,29,0.117190816107994,1
758,661,29,0.110583803206445,1
758,662,29,0.105064415592479,1
759,658,29,0.124785086941073,1
759,659,29,0.127660447208904,1
759,660,29,0.1002746683747,1
759,687,29,0.104506981353426,1
759,688,29,0.123474004312264,1
759,689,29,0.14615381336904,1
759,690,29,0.106915939506636,1
760,659,29,0.168005564506085,1
760,660,29,0.114179762747658,1
760,662,29,0.127911332920278,1
760,663,29,0.152222116959369,1
760,664,29,0.144769791754326,1
760,665,29,0.103679555222998,1
760,684,29,0.104968797549129,1
760,685,29,0.15022075005087,1
760,686,29,0.208868683675387,2
760,687,29,0.232870795067586,2
760,688,29,0.232188375475445,1
760,689,29,0.210814638304719,1
761,660,29,0.105305813571368,1
761,661,29,0.107295753807791,1
761,662,29,0.155288430098005,1
761,663,29,0.193236625917517,1
761,664,29,0.167393197276303,1
761,665,29,0.107209972070336,1
761,683,29,0.139724790764637,1
761,684,29,0.220893115575751,1
761,685,29,0.289579157313329,2
761,686,29,0.380994451067215,2
761,687,29,0.395272889347418,2
761,688,29,0.293338434389738,2
762,662,29,0.137726234229251,1
762,663,29,0.190257151129483,1
762,664,29,0.162737160639764,1
762,665,29,0.106763808999296,1
762,679,29,0.118672111489753,1
762,680,29,0.151217855181214,1
762,681,29,0.145149083195367,1
762,682,29,0.136581268615832,1
762,683,29,0.212392150840376,1
762,684,29,0.324259531884848,2
762,685,29,0.344202222709355,2
762,686,29,0.359912055909186,2
762,687,29,0.326344044444394,2
762,688,29,0.203008293230812,2
763,662,29,0.140983434881178,1
763,663,29,0.202496347821678,1
763,664,29,0.16740255429376,1
763,665,29,0.119133361253666,1
763,677,29,0.118535198390315,1
763,681,29,0.234873392875936,1
763,682,29,0.157304480661372,1
763,683,29,0.168999619619097,1
763,684,29,0.224998591405151,1
763,685,29,0.210340861683908,2
763,686,29,0.180441095171092,2
763,687,29,0.144721808445946,2
764,661,29,0.104921424244215,1
764,662,29,0.162078552968649,1
764,663,29,0.208584356702554,1
764,664,29,0.166208505187137,1
764,665,29,0.13000851394467,1
764,676,29,0.131953727855507,1
765,662,29,0.159035289246706,1
765,663,29,0.176145156652242,1
765,664,29,0.157167229881443,1
765,665,29,0.142156591369078,1
766,663,29,0.142643515743173,1
766,664,29,0.179419818653394,1
766,665,29,0.174937894434822,1
766,666,29,0.107557826547022,1
766,671,29,0.11789705851408,1
766,672,29,0.1222767853662,1
767,664,29,0.234270796594535,1
767,665,29,0.204828412859371,1
767,666,29,0.116431438042822,1
767,669,29,0.118093457844406,1
732,658,30,0.147754974431937,1
732,659,30,0.109625509546648,1
733,659,30,0.122840798928355,1
734,659,30,0.143214337379729,1
735,659,30,0.149408334362883,1
736,659,30,0.155665826171133,1
737,659,30,0.173887860610853,1
737,660,30,0.109753294379929,1
738,659,30,0.199148191295751,1
738,660,30,0.132911531333947,1
739,659,30,0.227513831769454,1
739,660,30,0.159111583251676,1
740,661,30,0.114986623046935,1
743,662,30,0.131526453106086,1
744,662,30,0.163668287359471,1
744,663,30,0.116065610249717,1
745,661,30,0.212869456766957,1
745,662,30,0.156458079065973,1
745,663,30,0.111281385741893,1
746,661,30,0.160401784154682,1
746,662,30,0.138351062958417,1
747,661,30,0.143964794144206,1
747,662,30,0.146937744073733,1
747,663,30,0.109804600028617,1
748,661,30,0.138599879015174,1
748,662,30,0.141343554784706,1
748,663,30,0.117772334591049,1
749,661,30,0.135508218053927,1
749,662,30,0.122987886014178,1
749,663,30,0.11094985975085,1
750,660,30,0.183408511497746,1
750,661,30,0.131596091537521,1
750,662,30,0.108733074475378,1
751,660,30,0.175471364251983,1
751,661,30,0.126949390132602,1
752,661,30,0.175154423879538,1
752,662,30,0.105532146643222,1
753,661,30,0.26237093305951,1
753,662,30,0.161871424113066,1
754,662,30,0.22084377065249,1
754,663,30,0.130436344232962,1
755,662,30,0.231933938672463,1
755,663,30,0.169237019896697,1
756,661,30,0.219364708319135,1
756,662,30,0.24101440670087,1
756,663,30,0.183281619883826,1
757,658,30,0.147854666427009,1
757,660,30,0.222919634234317,1
757,661,30,0.191501187841589,1
757,662,30,0.207641291343577,1
757,663,30,0.15498229550125,1
758,659,30,0.12321640856276,1
758,660,30,0.124343673182736,1
758,661,30,0.116197022425039,1
758,662,30,0.12061608360782,1
759,659,30,0.143012698555343,1
759,660,30,0.103336297558148,1
759,664,30,0.101871123696571,1
759,689,30,0.103174799140432,1
760,660,30,0.127620165194286,1
760,662,30,0.122174577106829,1
760,663,30,0.159461365775032,1
760,664,30,0.166609691395453,1
760,665,30,0.110866169453851,1
760,684,30,0.130094088716663,1
760,685,30,0.190369435338968,2
760,686,30,0.229806094080968,2
760,687,30,0.215655473312805,2
760,688,30,0.188508510835677,1
760,689,30,0.159318821036449,1
761,660,30,0.118246851930355,1
761,661,30,0.107624970499997,1
761,662,30,0.1503463889791,1
761,663,30,0.202752571063383,1
761,664,30,0.187723937448761,1
761,665,30,0.109442159933334,1
761,680,30,0.102748602789996,1
761,682,30,0.101928267949865,1
761,683,30,0.141442963563882,1
761,684,30,0.247712070474686,2
761,685,30,0.379706995179808,2
761,686,30,0.476637765989724,2
761,687,30,0.422495906185296,2
761,688,30,0.277772605579643,2
762,662,30,0.133920161172638,1
762,663,30,0.207945116641495,1
762,664,30,0.192405169407044,1
762,665,30,0.116564070225077,1
762,678,30,0.127003920085326,1
762,681,30,0.188277689881178,1
762,682,30,0.148222901555223,1
762,683,30,0.192160165871952,1
762,684,30,0.308662701827159,2
762,685,30,0.407943968493788,2
762,686,30,0.464470636849911,2
762,687,30,0.376573581659874,2
762,688,30,0.210266876977775,2
763,662,30,0.143010770508673,1
763,663,30,0.245642067283304,1
763,664,30,0.222946300100132,1
763,665,30,0.146876177295308,1
763,682,30,0.167873803757353,1
763,683,30,0.154665714595133,1
763,685,30,0.215360972353586,2
763,686,30,0.211603743145957,2
763,687,30,0.163198279688648,2
764,662,30,0.173275024985552,1
764,663,30,0.266599760304142,1
764,664,30,0.230133905586617,1
764,665,30,0.171569607794505,1
764,675,30,0.0997266565106184,1
765,663,30,0.200665487774943,1
765,664,30,0.189860997449765,1
765,665,30,0.18482038630645,1
765,666,30,0.109664135837571,1
765,672,30,0.100382094342292,1
766,664,30,0.206496314837238,1
766,665,30,0.23020527599218,1
766,666,30,0.126785495272696,1
766,670,30,0.109539117805726,1
767,665,30,0.267472936694545,1
767,666,30,0.134351422730428,1
733,659,31,0.126063991887033,1
734,659,31,0.144016415687546,1
735,659,31,0.164983912335521,1
736,659,31,0.184670260096214,1
736,660,31,0.114611155020477,1
737,659,31,0.21132776014911,1
737,660,31,0.137503866179929,1
738,660,31,0.172830735496588,1
739,660,31,0.202760588251798,1
739,661,31,0.117303470676726,1
740,661,31,0.139220535756346,1
742,662,31,0.135936396915629,1
742,663,31,0.100641846889767,1
743,663,31,0.15302959815503,1
743,664,31,0.108275473839344,1
744,663,31,0.18462084981544,1
744,664,31,0.137871578448028,1
745,662,31,0.193094364394829,1
745,663,31,0.154154041508975,1
745,664,31,0.123135005778759,1
746,662,31,0.156354639906751,1
746,663,31,0.118119252276698,1
747,661,31,0.181871019546649,1
747,662,31,0.159564815827174,1
747,663,31,0.121011147995634,1
748,662,31,0.188143031615981,1
748,663,31,0.142824458021379,1
749,663,31,0.154972121514864,1
749,664,31,0.100888636863582,1
750,661,31,0.20568322378827,1
750,662,31,0.194958643917184,1
750,663,31,0.140405151595079,1
751,661,31,0.194119736650086,1
751,662,31,0.149805555548667,1
751,663,31,0.106883424143296,1
752,662,31,0.146274038516506,1
753,662,31,0.18149363436644,1
753,663,31,0.10409704813112,1
754,663,31,0.148872173994719,1
755,663,31,0.204921111600419,1
755,664,31,0.100965834980832,1
756,662,31,0.264515748818872,1
756,663,31,0.220822202672787,1
756,664,31,0.104411178130452,1
757,661,31,0.196198737392597,1
757,662,31,0.216111472689739,1
757,663,31,0.174926707406966,1
758,659,31,0.131440507974845,1
758,660,31,0.134799666349005,1
758,661,31,0.123035727714611,1
758,662,31,0.121943091684269,1
758,663,31,0.100449902763328,1
759,660,31,0.107085248147306,1
759,664,31,0.105032640947634,1
759,684,31,0.102014125937754,1
759,685,31,0.114967309901473,1
759,686,31,0.102578825753808,1
760,662,31,0.106386086138597,1
760,663,31,0.14814982096137,1
760,664,31,0.161007190809196,1
760,665,31,0.10004670136499,1
760,683,31,0.107068059121057,1
760,684,31,0.167309071262542,1
760,685,31,0.248314688541926,2
760,686,31,0.25904974740113,2
760,687,31,0.19747521321761,2
760,688,31,0.146848106242937,1
760,689,31,0.114971111530219,1
761,661,31,0.1006517049815,1
761,662,31,0.130734341819193,1
761,663,31,0.183193659562562,1
761,664,31,0.175433718323774,1
761,681,31,0.144186606654657,1
761,682,31,0.12901943689566,1
761,683,31,0.147816105493601,1
761,684,31,0.260498004559435,2
761,685,31,0.445594646015507,2
761,686,31,0.52268261406853,2
761,687,31,0.396284100807921,2
761,688,31,0.239863373731544,2
762,662,31,0.128388682418535,1
762,663,31,0.206982182598186,1
762,664,31,0.202244046030828,1
762,665,31,0.115253957066062,1
762,682,31,0.176394125209865,1
762,683,31,0.182327835892512,1
762,684,31,0.266086268100504,2
762,685,31,0.411384126613944,2
762,686,31,0.492458118746154,2
762,687,31,0.373233289821494,2
762,688,31,0.20434668440766,2
763,662,31,0.136789737300457,1
763,663,31,0.264796023625822,1
763,664,31,0.273591271462034,1
763,665,31,0.16604508961567,1
763,676,31,0.109283776890464,1
763,685,31,0.193726349771805,2
763,686,31,0.209860788955891,2
763,687,31,0.163832105968943,2
764,662,31,0.159322121590919,1
764,663,31,0.284041894419215,1
764,664,31,0.288395314871849,1
764,665,31,0.203934561708626,1
764,666,31,0.101225707350416,1
764,674,31,0.100459880677171,1
764,675,31,0.115086925045473,1
765,663,31,0.186429335806462,1
765,664,31,0.195602960078516,1
765,665,31,0.198580452355284,1
765,666,31,0.112556826739597,1
765,671,31,0.103346144756962,1
765,672,31,0.110435005932332,1
766,664,31,0.18933735304558,1
766,665,31,0.233638593359178,1
766,666,31,0.126103282646017,1
734,659,32,0.15457808106144,1
735,660,32,0.116770578184275,1
736,660,32,0.146262143448912,1
737,660,32,0.17884294055385,1
737,661,32,0.103858406060748,1
738,661,32,0.122798109578629,1
739,661,32,0.147607168413457,1
741,662,32,0.127414082058932,1
742,663,32,0.144013594421514,1
743,663,32,0.234644162287617,1
743,664,32,0.153903471692253,1
744,663,32,0.255539351738992,1
744,664,32,0.194654143258285,1
744,665,32,0.103933588987976,1
745,663,32,0.187554661486849,1
745,664,32,0.163367588329318,1
745,665,32,0.104045481052375,1
746,662,32,0.169450499324082,1
746,663,32,0.13845120156317,1
746,664,32,0.128325884740258,1
747,662,32,0.16661700054413,1
747,663,32,0.136166891082556,1
747,664,32,0.118437989980785,1
748,663,32,0.171753872413019,1
748,664,32,0.119369977241096,1
749,664,32,0.122054482674392,1
750,663,32,0.208549564719134,1
750,664,32,0.111157282715248,1
751,663,32,0.156611756367817,1
752,663,32,0.145308675352251,1
753,663,32,0.152387231826207,1
754,663,32,0.17739884449062,1
754,664,32,0.103882370482641,1
755,663,32,0.222284141337409,1
755,664,32,0.112508070033965,1
756,663,32,0.226416500891005,1
756,664,32,0.110415322427623,1
757,662,32,0.195301988725387,1
757,663,32,0.165945005475512,1
758,659,32,0.130526494030953,1
758,660,32,0.148008757659777,1
758,661,32,0.135875287639803,1
758,662,32,0.114823044081681,1
759,660,32,0.113497332262599,1
759,664,32,0.100659188416882,1
759,681,32,0.125047235930737,1
759,682,32,0.130547887723951,1
759,683,32,0.126535687960307,1
759,684,32,0.143898935555678,1
759,685,32,0.146149456201423,1
759,686,32,0.113643547914899,1
760,663,32,0.126574107285768,1
760,664,32,0.137179137370369,1
760,680,32,0.141492090628762,1
760,681,32,0.156584480498536,1
760,682,32,0.142652861867711,1
760,683,32,0.142837496845472,1
760,684,32,0.205492401632493,1
760,685,32,0.28969579869043,2
760,686,32,0.276137360573064,2
760,687,32,0.184183760545962,2
760,688,32,0.117580303321259,1
761,662,32,0.111060825917131,1
761,663,32,0.153275789018298,1
761,664,32,0.145069673815551,1
761,678,32,0.107087263337328,1
761,682,32,0.181272922040812,1
761,683,32,0.171706531786862,1
761,684,32,0.256817657574404,2
761,685,32,0.444365184029079,2
761,686,32,0.512585488120099,2
761,687,32,0.360021072242957,2
761,688,32,0.200169642100153,2
762,662,32,0.120878265276241,1
762,663,32,0.189332669090392,1
762,664,32,0.184176386039771,1
762,665,32,0.103685241326738,1
762,675,32,0.100018205488777,1
762,677,32,0.113692478907235,1
762,684,32,0.223871217855985,2
762,685,32,0.351807135924338,2
762,686,32,0.445758344802869,2
762,687,32,0.337458852247239,2
762,688,32,0.185823384505996,2
763,662,32,0.122922005639813,1
763,663,32,0.244048411441627,1
763,664,32,0.278241371457695,1
763,665,32,0.159064950665257,1
763,674,32,0.10162144709921,1
763,675,32,0.116700667429863,1
763,676,32,0.130822639820947,1
763,685,32,0.160207421800216,2
763,686,32,0.186071111270848,2
763,687,32,0.15179220612354,2
764,663,32,0.239825618874145,1
764,664,32,0.293306300278565,1
764,665,32,0.200144348742138,1
764,671,32,0.102433677607574,1
764,672,32,0.101486527403957,1
764,674,32,0.113283722120186,1
764,675,32,0.151772489940074,1
765,664,32,0.177114876984115,1
765,665,32,0.177257770296107,1
765,666,32,0.107625885505196,1
765,671,32,0.122632460958758,1
766,666,32,0.1190051842753,1
734,660,33,0.109237699842916,1
735,660,33,0.135979086265354,1
736,660,33,0.179757226820718,1
736,661,33,0.10953259294722,1
737,661,33,0.124103288245318,1
738,661,33,0.144213032876253,1
739,662,33,0.100407376807389,1
740,662,33,0.12488484429366,1
741,662,33,0.16573343230896,1
741,663,33,0.10039463209211,1
742,663,33,0.176172574129471,1
742,664,33,0.102119351535699,1
743,664,33,0.175894118440001,1
744,664,33,0.227598382607058,1
744,665,33,0.113373022270492,1
745,663,33,0.220855752863437,1
745,664,33,0.198867633272906,1
745,665,33,0.121416560656537,1
746,663,33,0.166346235255504,1
746,664,33,0.166494869135831,1
746,665,33,0.114654988126702,1
747,663,33,0.148891868392346,1
747,664,33,0.142767738591928,1
748,663,33,0.19436517590194,1
748,664,33,0.135156670877686,1
749,664,33,0.142267492177845,1
750,664,33,0.132575637282369,1
751,664,33,0.110886179746131,1
752,663,33,0.209818720502551,1
752,664,33,0.114283016727257,1
753,663,33,0.214355490568499,1
753,664,33,0.126697807274408,1
754,663,33,0.208060080509064,1
754,664,33,0.125869193815805,1
755,663,33,0.206755087021999,1
755,664,33,0.115410804207348,1
756,663,33,0.183466570756239,1
756,664,33,0.104380765100487,1
757,659,33,0.148337015775106,1
757,662,33,0.152087752802986,1
757,663,33,0.129442310905788,1
757,681,33,0.0998848216951077,1
757,682,33,0.102708658455869,1
758,660,33,0.144621528233246,1
758,661,33,0.135129841618086,1
758,681,33,0.142391170380647,1
758,682,33,0.162384088454857,1
758,683,33,0.134715627478596,1
758,684,33,0.113180075995502,1
759,680,33,0.126426126980583,1
759,681,33,0.200082716606199,1
759,682,33,0.21477048899816,1
759,683,33,0.184413089170552,1
759,684,33,0.187793782845658,1
759,685,33,0.175877376023434,2
759,686,33,0.126647972169791,1
760,679,33,0.120981671756706,1
760,682,33,0.196766280260521,1
760,683,33,0.183109119617877,1
760,684,33,0.241855078620852,2
760,685,33,0.312755498298795,2
760,686,33,0.295598170444993,2
760,687,33,0.193122380982605,2
761,663,33,0.115660154017137,1
761,664,33,0.102708723813384,1
761,678,33,0.128403867147679,1
761,683,33,0.195456864248325,1
761,684,33,0.243987803240078,2
761,685,33,0.390655468108883,2
761,686,33,0.477562356958006,2
761,687,33,0.3491679123555,2
761,688,33,0.177042526215838,2
762,662,33,0.10509260646696,1
762,663,33,0.157294742391748,1
762,664,33,0.146050559389441,1
762,671,33,0.107842447628669,1
762,672,33,0.10832521090769,1
762,673,33,0.118823218062704,1
762,674,33,0.138140252296198,1
762,675,33,0.130715017780812,1
762,676,33,0.114633964792951,1
762,677,33,0.134597994845862,1
762,685,33,0.262722207912775,2
762,686,33,0.36001251040859,2
762,687,33,0.291399908731193,2
763,662,33,0.104429587163633,1
763,663,33,0.192343101554343,1
763,664,33,0.227789727622949,1
763,665,33,0.133034272745712,1
763,670,33,0.107759748587303,1
763,671,33,0.128389030991944,1
763,672,33,0.118420670239508,1
763,673,33,0.117278765536339,1
763,674,33,0.131131432289948,1
763,675,33,0.143221842600949,1
763,686,33,0.148387253917728,2
764,663,33,0.166943918830417,1
764,664,33,0.234431271077861,1
764,665,33,0.163455548650581,1
764,671,33,0.11611753679479,1
764,672,33,0.108997870444369,1
764,673,33,0.106593988391432,1
765,664,33,0.143042926405685,1
734,659,34,0.174785077673582,1
734,660,34,0.109858868551284,1
735,660,34,0.141187916757434,1
736,661,34,0.119254795515146,1
737,661,34,0.13867053048808,1
739,662,34,0.115840442720201,1
740,662,34,0.152819059815787,1
741,662,34,0.197675316140411,1
741,663,34,0.123323268098561,1
742,663,34,0.185105867928702,1
742,664,34,0.105295792085849,1
743,664,34,0.170632696934787,1
744,665,34,0.113857212521907,1
745,664,34,0.222182553974424,1
745,665,34,0.130593300303437,1
746,663,34,0.183803151061717,1
746,664,34,0.188333091267426,1
746,665,34,0.124987041660111,1
747,663,34,0.147394800063815,1
747,664,34,0.143295903557515,1
747,665,34,0.0997529955888619,1
748,664,34,0.132865715716457,1
751,664,34,0.136049748631179,1
752,664,34,0.130473674266518,1
753,663,34,0.257817671114132,1
753,664,34,0.140176901369473,1
754,663,34,0.228727804025005,1
754,664,34,0.135423503822538,1
755,663,34,0.179974921807772,1
755,664,34,0.110964663227829,1
756,662,34,0.177068244397696,1
756,663,34,0.132959634464437,1
757,660,34,0.150230727964713,1
757,661,34,0.156361480659909,1
757,662,34,0.113878606214905,1
757,681,34,0.140278303552835,1
757,683,34,0.116745600720911,1
758,661,34,0.114352633372854,1
758,684,34,0.132415598515805,1
759,680,34,0.133840795364498,1
759,681,34,0.23347870709348,1
759,682,34,0.27669919555141,1
760,679,34,0.133922132790984,1
760,682,34,0.230072883454144,1
760,685,34,0.316008123924725,2
760,686,34,0.291727197376728,2
761,673,34,0.100768302786925,1
761,674,34,0.110485048002411,1
761,675,34,0.100752987342752,1
761,677,34,0.10392842574435,1
761,678,34,0.148750456517344,1
761,684,34,0.242652854225648,2
761,685,34,0.324057707880838,2
761,686,34,0.411273715986535,2
761,687,34,0.32053957824618,2
762,663,34,0.123010586857462,1
762,664,34,0.112417103267045,1
762,670,34,0.104083366624803,1
762,671,34,0.136012843421465,1
762,672,34,0.137813475617858,1
762,673,34,0.147468272802753,1
762,674,34,0.173299392445449,1
762,675,34,0.144559896097306,1
762,676,34,0.11821792033738,1
762,677,34,0.147949020891751,1
762,685,34,0.188031422767478,2
762,686,34,0.265830306288856,2
763,663,34,0.136524995796061,1
763,664,34,0.158647163648322,1
763,665,34,0.102813622623758,1
763,670,34,0.123316841276327,1
763,671,34,0.153728814628334,1
763,672,34,0.143902726291505,1
763,673,34,0.146742630107853,1
763,674,34,0.167260663130319,1
763,675,34,0.161090979142467,1
764,664,34,0.156761000251611,1
764,665,34,0.117924519562985,1
764,670,34,0.103001372976365,1
764,673,34,0.129713936735018,1
736,662,35,0.105352881874548,1
737,662,35,0.106294422224859,1
738,662,35,0.112308620686307,1
740,663,35,0.117200009731666,1
742,664,35,0.106943084660889,1
743,664,35,0.150720135924349,1
744,665,35,0.108521490415907,1
745,665,35,0.129364426534638,1
746,665,35,0.123404747132995,1
747,664,35,0.126493183790205,1
748,664,35,0.116804248197033,1
750,659,35,0.161363182296406,1
751,659,35,0.185861792938538,1
751,660,35,0.176225426572662,1
752,660,35,0.200125155418786,1
752,664,35,0.128626169839488,1
753,660,35,0.197862282202847,1
753,664,35,0.13396288320112,1
754,662,35,0.252689720545939,1
754,664,35,0.135301165448778,1
755,662,35,0.219125848390383,1
755,663,35,0.153213372592187,1
755,664,35,0.110853435631491,1
756,660,35,0.17439032918042,1
756,661,35,0.211822102601072,1
756,662,35,0.144089714139779,1
756,663,35,0.100974995925746,1
757,661,35,0.129210988877012,1
759,680,35,0.132189559552765,1
760,678,35,0.102530798873752,1
760,679,35,0.140234296159906,1
761,671,35,0.107687909786221,1
761,674,35,0.120830314646618,1
761,675,35,0.108355286257165,1
761,676,35,0.100128496294076,1
761,677,35,0.118042206660314,1
761,678,35,0.17036660470843,1
761,685,35,0.25969613321708,2
761,686,35,0.314953101143834,2
762,670,35,0.115987486234348,1
762,671,35,0.158007727514721,1
762,672,35,0.168637974706904,1
762,673,35,0.168099287181522,1
762,674,35,0.188881593312864,1
762,675,35,0.144007995461126,1
762,676,35,0.117941479837933,1
762,677,35,0.158751833707396,1
763,664,35,0.101733665951181,1
763,670,35,0.127884754197816,1
763,671,35,0.166038499399649,1
763,672,35,0.170711017022698,1
763,673,35,0.174490380641821,1
763,674,35,0.193043211247008,1
764,671,35,0.129526676563768,1
764,672,35,0.147151920647936,1
750,660,36,0.165441371363607,1
751,660,36,0.153434313669116,1
752,660,36,0.147827466808161,1
753,660,36,0.146329494367349,1
754,660,36,0.165786578860966,1
754,661,36,0.211846197737993,1
755,660,36,0.164982038753446,1
755,661,36,0.218533230022824,1
755,662,36,0.174790578597698,1
756,661,36,0.150388196002384,1
756,662,36,0.117189661458576,1
760,677,36,0.100450632588904,1
760,678,36,0.110654574501461,1
760,679,36,0.138535349362769,1
760,680,36,0.186988360411696,1
761,675,36,0.121116493415689,1
761,676,36,0.110115821618565,1
761,677,36,0.129328349186771,1
761,678,36,0.182575617121959,1
762,670,36,0.127878763092343,1
762,674,36,0.196825951671033,1
762,675,36,0.144756360785147,1
762,676,36,0.12841033754159,1
763,670,36,0.12484618532398,1
763,671,36,0.174278633188564,1
763,672,36,0.209898522027452,1
763,673,36,0.215799651989244,1
755,661,37,0.12998827490109,1
762,675,37,0.149529496301387,1
