x,y,z,signal,mito.p
7,813,1,0.121304494305434,1
7,814,1,0.107759007868808,1
8,812,1,0.189438308619261,1
8,813,1,0.187777748468828,1
8,814,1,0.16410093231798,1
8,815,1,0.107758800903346,1
9,812,1,0.231536848201707,1
9,813,1,0.229118271600983,1
9,814,1,0.195866089430894,1
9,815,1,0.122618202127732,1
10,812,1,0.222848067756211,1
10,813,1,0.206282377907254,1
10,814,1,0.168451444361229,1
10,815,1,0.113819228913208,1
11,812,1,0.207966292476113,1
11,813,1,0.18429395331499,1
11,814,1,0.14889694449262,1
11,815,1,0.113168028427041,1
12,812,1,0.225282656947928,1
12,813,1,0.210379400831479,1
12,814,1,0.151651774611251,1
12,815,1,0.107329325784279,1
13,812,1,0.234684095728825,1
13,813,1,0.22443636428172,1
13,814,1,0.146833640446449,1
14,812,1,0.202902827988648,1
14,813,1,0.184839982667807,1
14,814,1,0.130083696871897,1
15,812,1,0.174909060878118,1
15,813,1,0.175356051811005,1
15,814,1,0.148147914700538,1
16,812,1,0.173023017303516,1
16,813,1,0.192362599879428,1
16,814,1,0.180495069584945,1
16,815,1,0.122521091754473,1
17,812,1,0.183881841508876,1
17,813,1,0.179015615106504,1
17,814,1,0.173428059605173,1
17,815,1,0.133023358040832,1
18,812,1,0.207449118465839,1
18,813,1,0.174308490679658,1
18,814,1,0.170934605078954,1
18,815,1,0.149232936580469,1
18,816,1,0.108915411047222,1
19,812,1,0.234087621267925,1
19,813,1,0.187152821703391,1
19,814,1,0.177420466934918,1
19,815,1,0.15716646737711,1
19,816,1,0.114702579289996,1
20,812,1,0.232165108200372,1
20,813,1,0.197779452446452,1
20,814,1,0.186800501129898,1
20,815,1,0.159702535002621,1
20,816,1,0.116560323060927,1
21,812,1,0.213312232140174,1
21,813,1,0.207738434395593,1
21,814,1,0.209752012266338,1
21,815,1,0.176604042652723,1
21,816,1,0.12519512909257,1
22,812,1,0.216443031359538,1
22,813,1,0.221025987402224,1
22,814,1,0.22155246396536,1
22,815,1,0.184417479016926,1
22,816,1,0.127678551240351,1
23,812,1,0.229201035999864,1
23,813,1,0.224849489129305,1
23,814,1,0.210859016056896,1
23,815,1,0.17678940745606,1
23,816,1,0.126481103542988,1
24,812,1,0.255877380802702,1
24,813,1,0.219806394400448,1
24,814,1,0.190451088660106,1
24,815,1,0.171651326473158,1
24,816,1,0.131652418821887,1
25,811,1,0.29885208143537,2
25,812,1,0.295100015471366,2
25,813,1,0.230979849679416,1
25,814,1,0.192116093121508,1
25,815,1,0.17876517600481,1
25,816,1,0.140017287426752,1
26,810,1,0.32248067463362,2
26,811,1,0.377381487679378,2
26,812,1,0.357243726460667,2
26,813,1,0.270275554049013,2
26,814,1,0.212565566111524,1
26,815,1,0.180617843675467,1
26,816,1,0.138674146937202,1
27,809,1,0.296922553327953,2
27,810,1,0.370626265721344,2
27,811,1,0.448015749773449,2
27,812,1,0.417281422268233,2
27,813,1,0.317067046370632,2
27,814,1,0.2358141053644,1
27,815,1,0.181995427575027,1
27,816,1,0.13975215377727,1
28,808,1,0.291573302216503,2
28,809,1,0.322095239586239,2
28,810,1,0.350622639907716,2
28,811,1,0.397603102588874,2
28,812,1,0.382399942625361,2
28,813,1,0.315912789097269,2
28,814,1,0.241705540628244,1
28,815,1,0.186387354496474,1
28,816,1,0.148280895456202,1
28,817,1,0.106294422224859,1
29,809,1,0.26480900798532,2
29,810,1,0.249769023949056,2
29,811,1,0.252955529556401,2
29,812,1,0.253102736464334,2
29,814,1,0.21620412785911,1
29,815,1,0.191091853729831,1
29,816,1,0.163075799706941,1
29,817,1,0.121723937046063,1
30,814,1,0.192721456204346,1
30,815,1,0.218065052362401,1
30,816,1,0.197736403630398,1
30,817,1,0.141558493863241,1
31,815,1,0.273272697151733,1
31,816,1,0.258262668642834,1
31,817,1,0.175956720045735,1
31,818,1,0.115876432924715,1
32,815,1,0.3328492085529,3
32,816,1,0.330417582235163,3
32,817,1,0.219393770627139,1
32,818,1,0.145025328742131,1
32,819,1,0.118146756897279,1
32,824,1,0.132145312515617,1
32,825,1,0.15257765094398,1
33,814,1,0.273692314179067,3
33,815,1,0.410134142368041,3
33,816,1,0.419823524570893,3
33,817,1,0.272761775676989,3
33,818,1,0.182772582884076,1
33,819,1,0.177080684111242,1
33,820,1,0.167450330636678,1
33,821,1,0.13318984541547,1
33,822,1,0.117320245772051,1
33,823,1,0.159046759490457,1
33,824,1,0.237323689656911,1
34,814,1,0.291045954219843,3
34,815,1,0.363756036324065,3
34,816,1,0.390233955713635,3
34,817,1,0.294440209579156,3
34,821,1,0.226498328498848,1
34,822,1,0.16506203635089,1
35,815,1,0.265079740595189,3
35,816,1,0.308551855482988,3
7,813,2,0.140360991701283,1
7,814,2,0.118139338819411,1
7,825,2,0.102557519204162,1
8,812,2,0.22797333866632,1
8,813,2,0.22286536571165,1
8,814,2,0.183569323661562,1
8,815,2,0.114515809300103,1
9,812,2,0.24162486766982,1
9,813,2,0.239367397341726,1
9,814,2,0.203043237715099,1
9,815,2,0.122538760069159,1
10,812,2,0.222962399834476,1
10,813,2,0.195557057317673,1
10,814,2,0.157099029315321,1
10,815,2,0.109108302857617,1
11,812,2,0.21332467185372,1
11,813,2,0.174543810409722,1
11,814,2,0.133541229197925,1
11,815,2,0.107666254663166,1
12,812,2,0.211179028232511,1
12,813,2,0.20546821935222,1
12,814,2,0.145017028337821,1
12,815,2,0.102748929577568,1
13,812,2,0.214756480704272,1
13,813,2,0.230453089900385,1
13,814,2,0.156225232028532,1
14,812,2,0.189641069414308,1
14,813,2,0.179413250223211,1
14,814,2,0.131222290127677,1
15,812,2,0.178648273197652,1
15,813,2,0.174546991142082,1
15,814,2,0.153084705432464,1
16,812,2,0.199135925868909,1
16,813,2,0.212247667162203,1
16,814,2,0.195854695437576,1
16,815,2,0.118224260016262,1
17,812,2,0.214162794830647,1
17,813,2,0.202175812785949,1
17,814,2,0.184002916304027,1
17,815,2,0.133519073000594,1
18,812,2,0.214115737420385,1
18,813,2,0.179654887846319,1
18,814,2,0.18118891584916,1
18,815,2,0.171268440368833,1
18,816,2,0.124404030847148,1
19,812,2,0.230668617196549,1
19,813,2,0.176659531182323,1
19,814,2,0.184077500120708,1
19,815,2,0.183580837476989,1
19,816,2,0.135585699387073,1
20,812,2,0.226421773063822,1
20,813,2,0.179073609007483,1
20,814,2,0.182516751787456,1
20,815,2,0.165146805046874,1
20,816,2,0.123635578980413,1
21,812,2,0.192268354343877,1
21,813,2,0.187820993357425,1
21,814,2,0.207533712875119,1
21,815,2,0.179519597791818,1
21,816,2,0.130849752296442,1
22,812,2,0.196156385723362,1
22,813,2,0.201771532988626,1
22,814,2,0.207344306798817,1
22,815,2,0.175035843562847,1
22,816,2,0.125986924484811,1
23,812,2,0.229926526193896,1
23,813,2,0.218079474587212,1
23,814,2,0.193716197571258,1
23,815,2,0.164506965875269,1
23,816,2,0.12446096813498,1
24,811,2,0.24420836306484,2
24,812,2,0.278327556233155,2
24,813,2,0.225796563082489,1
24,814,2,0.179659114298907,1
24,815,2,0.167285651486601,1
24,816,2,0.136819180860627,1
25,810,2,0.259370718153621,2
25,811,2,0.280520170121273,2
25,812,2,0.306599800818993,2
25,813,2,0.230286145023148,2
25,814,2,0.183558463421277,1
25,815,2,0.175909836922179,1
25,816,2,0.145612631365197,1
26,809,2,0.261814980257446,2
26,810,2,0.290793456356451,2
26,811,2,0.348978179491627,2
26,812,2,0.340384951731967,2
26,813,2,0.24977795614267,2
26,814,2,0.200644791228764,1
26,815,2,0.17309677325835,1
26,816,2,0.136674599146183,1
27,808,2,0.265551817920629,2
27,809,2,0.295457978576923,2
27,810,2,0.338384118576501,2
27,811,2,0.427552007059488,2
27,812,2,0.408939363435842,2
27,813,2,0.302856797763632,2
27,814,2,0.236422431321217,2
27,815,2,0.183897799635272,1
27,816,2,0.137246444717129,1
28,807,2,0.243070728385935,2
28,808,2,0.337887728255759,2
28,809,2,0.363223416154589,2
28,810,2,0.331271086013777,2
28,811,2,0.378994380416083,2
28,812,2,0.378814952253624,2
28,813,2,0.313978032388712,2
28,814,2,0.264316865903004,2
28,815,2,0.220201262715719,1
28,816,2,0.168198554352751,1
28,817,2,0.107070629849951,1
29,808,2,0.292720740522545,2
29,809,2,0.2998568442878,2
29,810,2,0.240917329006368,2
29,811,2,0.234439179337086,2
29,812,2,0.239668412266531,2
29,813,2,0.241033077164108,2
29,814,2,0.251665633655128,2
29,815,2,0.25784043731493,2
29,816,2,0.21109785419981,1
29,817,2,0.132569123316782,1
30,809,2,0.184938672514327,2
30,814,2,0.219013520609222,1
30,815,2,0.276694359095355,2
30,816,2,0.234648279811015,1
30,817,2,0.149755121333503,1
31,815,2,0.290581915868656,3
31,816,2,0.265519073805989,3
31,817,2,0.176676633065219,1
31,818,2,0.112155869282581,1
31,826,2,0.114455495207368,1
32,814,2,0.184988355118077,3
32,815,2,0.310842854215893,3
32,816,2,0.322803649683214,3
32,817,2,0.211311638628928,3
32,818,2,0.136590538489936,1
32,819,2,0.105815928970103,1
32,824,2,0.130939629771457,1
32,825,2,0.164426859348634,1
33,814,2,0.214891509328716,3
33,815,2,0.366824048758071,3
33,816,2,0.398660761456172,3
33,817,2,0.248911315503692,3
33,818,2,0.168572105225457,1
33,819,2,0.163571906811788,1
33,820,2,0.147045366113868,1
33,821,2,0.111011143313381,1
33,823,2,0.142314756553568,1
34,814,2,0.22787249202183,3
34,815,2,0.296283748983656,3
34,816,2,0.332501070860319,3
34,822,2,0.137331126269761,1
35,815,2,0.220321019467667,3
7,812,3,0.173785859316944,1
7,813,3,0.165414346031464,1
7,814,3,0.133261335643142,1
7,815,3,0.111209579619568,1
7,825,3,0.106522541735436,1
8,812,3,0.28498088582647,1
8,813,3,0.288272399173379,4
8,814,3,0.217605196892125,1
8,815,3,0.132989557313045,1
9,812,3,0.268677998542319,4
9,813,3,0.27615570424873,4
9,814,3,0.222917107077099,1
9,815,3,0.131918990336682,1
10,812,3,0.238556245232347,1
10,813,3,0.210113918608588,1
10,814,3,0.170436591713274,1
10,815,3,0.118819340183525,1
11,812,3,0.234309640743839,1
11,813,3,0.182441950112395,1
11,814,3,0.138405462196113,1
11,815,3,0.108925802891988,1
12,812,3,0.20246665372437,1
12,813,3,0.195839162135022,1
12,814,3,0.151131027723531,1
12,815,3,0.102299890775901,1
13,812,3,0.1865762594985,1
13,813,3,0.221384516939572,1
13,814,3,0.179363829049518,1
13,815,3,0.100194365775523,1
14,812,3,0.172715684485667,1
14,813,3,0.179056823019239,1
14,814,3,0.154109631078041,1
15,812,3,0.183131722424889,1
15,813,3,0.178577218686741,1
15,814,3,0.169699195558729,1
15,815,3,0.104734087822532,1
16,813,3,0.228010832093663,1
16,814,3,0.204674038410709,1
16,815,3,0.119829538602557,1
17,813,3,0.234416587422993,1
17,814,3,0.190060621084128,1
17,815,3,0.132817155083368,1
18,813,3,0.19106320535275,1
18,814,3,0.185136389887858,1
18,815,3,0.184122825556841,1
18,816,3,0.128492753367062,1
19,813,3,0.165621060956123,1
19,814,3,0.183247732012686,1
19,815,3,0.198153602429705,1
19,816,3,0.142589269006344,1
20,812,3,0.208819578396346,1
20,813,3,0.163548726680066,1
20,814,3,0.17791503813818,1
20,815,3,0.169610897556975,1
20,816,3,0.127691840601583,1
21,812,3,0.179271380845609,1
21,813,3,0.185202379191414,1
21,814,3,0.213715270144727,1
21,815,3,0.185060052311211,1
21,816,3,0.135668071640868,1
22,812,3,0.186025883870986,1
22,813,3,0.197007819847358,1
22,814,3,0.202919624869811,1
22,815,3,0.169901302778633,1
22,816,3,0.125111493260166,1
23,812,3,0.227903362554395,1
23,813,3,0.210297442508607,1
23,814,3,0.178304819460259,1
23,815,3,0.153322486962231,1
23,816,3,0.122639160103969,1
24,812,3,0.283317319230382,2
24,813,3,0.233408622052364,1
24,814,3,0.175563703526701,1
24,815,3,0.165483091243538,1
24,816,3,0.144534896848105,1
25,810,3,0.250930906265748,2
25,811,3,0.270047456324275,2
25,812,3,0.311932407550146,2
25,813,3,0.246330434409242,2
25,814,3,0.184885122924317,1
25,815,3,0.171602776732988,1
25,816,3,0.149525999674374,1
26,808,3,0.253905370311022,2
26,809,3,0.260749783490171,2
26,810,3,0.284964764306288,2
26,811,3,0.331856253624711,2
26,812,3,0.329495975926699,2
26,813,3,0.249334788624367,2
26,814,3,0.2015840004944,1
26,815,3,0.172364268024454,1
26,816,3,0.136332681310375,1
27,807,3,0.238339846502659,2
27,808,3,0.277399000242342,2
27,809,3,0.312858087810332,2
27,810,3,0.318469575054798,2
27,811,3,0.397376268442744,2
27,812,3,0.399822905202921,2
27,813,3,0.307516243883831,2
27,814,3,0.256931880723478,2
27,815,3,0.196648571377354,1
27,816,3,0.131663812815205,1
28,807,3,0.229226220428689,2
28,808,3,0.393293602385817,2
28,809,3,0.434806603998082,2
28,810,3,0.330848876471711,2
28,811,3,0.35471648209958,2
28,812,3,0.374776511448007,2
28,813,3,0.323855382802553,2
28,814,3,0.300152282038056,2
28,815,3,0.252803377263223,2
28,816,3,0.17147768245071,1
28,817,3,0.10253275959918,1
29,807,3,0.186960627039815,2
29,808,3,0.344369777590059,2
29,809,3,0.378620361147858,2
29,810,3,0.271333103987121,2
29,811,3,0.242820104104618,2
29,812,3,0.246644085120136,2
29,813,3,0.246996710695363,2
29,814,3,0.290615052128382,2
29,815,3,0.327658079054264,2
29,816,3,0.246093339133375,2
29,817,3,0.133698936879815,1
30,808,3,0.181033310500646,2
30,809,3,0.209586592397767,2
30,814,3,0.253767008453351,2
30,815,3,0.346154386302541,2
30,816,3,0.268482274572973,2
30,817,3,0.150634375972732,1
31,815,3,0.291381673984717,2
31,816,3,0.251943882379136,1
31,817,3,0.165886902645342,1
31,818,3,0.1059142048857,1
31,825,3,0.103557707030595,1
32,815,3,0.261731518711747,3
32,816,3,0.289340449885444,3
32,817,3,0.206855999024004,1
32,818,3,0.135026859961463,1
32,824,3,0.136015141827383,1
33,815,3,0.279221145953843,3
33,816,3,0.334839715221114,3
33,817,3,0.241501189467017,3
33,818,3,0.173318814520101,1
33,819,3,0.150486602633009,1
33,820,3,0.126488652335884,1
33,823,3,0.129042823992843,1
34,815,3,0.216423097317692,3
34,816,3,0.258341642305889,3
34,821,3,0.158431560101724,1
34,822,3,0.117685060523685,1
6,825,4,0.105887353840261,1
7,812,4,0.174051755470758,1
7,813,4,0.175149010098774,4
7,814,4,0.13866620599922,1
7,815,4,0.119911300852886,1
7,825,4,0.105963517130203,1
8,812,4,0.321446914830699,4
8,813,4,0.342032810738797,4
8,814,4,0.239691701327443,4
8,815,4,0.144701373329823,1
9,811,4,0.247623990331313,4
9,812,4,0.308498523751359,4
9,813,4,0.323932744313589,4
9,814,4,0.240498082338281,4
9,815,4,0.137529704183896,1
10,812,4,0.260289034800534,4
10,813,4,0.239697126001126,4
10,814,4,0.195638057063669,1
10,815,4,0.127002307933307,1
11,812,4,0.250783742929491,1
11,813,4,0.20197557914812,1
11,814,4,0.163832846687438,1
11,815,4,0.117597710205888,1
12,812,4,0.192808185625758,1
12,813,4,0.184667035792178,1
12,814,4,0.168197933456366,1
12,815,4,0.111732788306991,1
13,812,4,0.159437760819468,1
13,813,4,0.198343008506007,1
13,814,4,0.204507638179424,1
13,815,4,0.116193395082998,1
14,813,4,0.174982642546246,1
14,814,4,0.185795629348277,1
14,815,4,0.111950472401126,1
15,813,4,0.176259554088021,1
15,814,4,0.181536334609085,1
15,815,4,0.120995331477185,1
16,813,4,0.222375402213143,1
16,814,4,0.187764894824359,1
16,815,4,0.119902706339762,1
17,813,4,0.245585249817582,1
17,814,4,0.177798963192869,1
17,815,4,0.124603534659401,1
18,813,4,0.198061644407153,1
18,814,4,0.185109832951233,1
18,815,4,0.181825683217596,1
18,816,4,0.127500147012282,1
19,813,4,0.164717329927807,1
19,814,4,0.191641553996364,1
19,815,4,0.205570264217805,1
19,816,4,0.144557706620579,1
20,813,4,0.164960176664928,1
20,814,4,0.18691838429977,1
20,815,4,0.177570386179692,1
20,816,4,0.133497374305862,1
21,813,4,0.197760324480614,1
21,814,4,0.222573457267163,1
21,815,4,0.185738594024173,1
21,816,4,0.137162623705101,1
22,813,4,0.204214596871357,1
22,814,4,0.20163539328644,1
22,815,4,0.161604144558534,1
22,816,4,0.121970792377392,1
23,813,4,0.212413762391755,1
23,814,4,0.17775414972393,1
23,815,4,0.149060163991545,1
23,816,4,0.123336023706759,1
24,813,4,0.248041232702296,1
24,814,4,0.18896760380162,1
24,815,4,0.166825142441184,1
24,816,4,0.149535149726369,1
25,811,4,0.253559585488954,2
25,812,4,0.300376915814539,2
25,813,4,0.260030654760859,1
25,814,4,0.194762418873562,1
25,815,4,0.169731776279583,1
25,816,4,0.152548229169647,1
26,809,4,0.258657101241344,2
26,810,4,0.276484234687036,2
26,811,4,0.303344539106655,2
26,812,4,0.303702349711345,2
26,813,4,0.252539202190617,2
26,814,4,0.217225600449351,2
26,815,4,0.181483231628755,1
26,816,4,0.141272053664114,1
27,808,4,0.2690643485949,2
27,809,4,0.312181267178579,2
27,810,4,0.292911628035836,2
27,811,4,0.349862924162053,2
27,812,4,0.371891587197258,2
27,813,4,0.331790307892831,2
27,814,4,0.306403728276237,2
27,815,4,0.220433652250561,2
27,816,4,0.134427487984098,1
28,807,4,0.208864566151989,2
28,808,4,0.40757953499432,2
28,809,4,0.477663878963477,2
28,810,4,0.334837885210715,2
28,811,4,0.324475865257021,2
28,812,4,0.355999254031799,2
28,813,4,0.352711858208288,2
28,814,4,0.352084578572337,2
28,815,4,0.279827271541014,2
28,816,4,0.17158614324561,1
28,817,4,0.100681203006265,1
29,807,4,0.171563039364322,2
29,808,4,0.367231117142669,2
29,809,4,0.452601450831734,2
29,810,4,0.324057359307429,2
29,811,4,0.263388484198896,2
29,812,4,0.253132495919156,2
29,813,4,0.264375622308316,2
29,814,4,0.335765177622919,2
29,815,4,0.391412003122185,2
29,816,4,0.266380965132265,2
29,817,4,0.131411881383603,1
30,808,4,0.183818793293461,2
30,809,4,0.23793927029781,2
30,810,4,0.213234195268158,2
30,813,4,0.188831115526024,2
30,814,4,0.306767617129753,2
30,815,4,0.434537331039365,2
30,816,4,0.300135223726836,2
30,817,4,0.148320676396543,1
31,814,4,0.223790719184264,2
31,815,4,0.317471021166222,2
31,816,4,0.245714156621524,2
31,817,4,0.156861814217345,1
31,818,4,0.1013214016442,1
31,825,4,0.12629370176379,1
32,815,4,0.229560088397325,2
32,816,4,0.251885409189718,1
32,817,4,0.20550813100759,1
32,818,4,0.135431880477281,1
32,824,4,0.152338856372742,1
33,816,4,0.273341387899211,3
33,817,4,0.251549362637274,1
33,818,4,0.183398206796332,1
33,819,4,0.13521392406017,1
33,820,4,0.105271816771038,1
33,823,4,0.127040335113683,1
34,817,4,0.237187811384782,1
34,821,4,0.132409160800651,1
34,822,4,0.111246332328416,1
7,813,5,0.157479464512862,1
7,814,5,0.126777162189629,1
7,815,5,0.114797315006904,1
8,812,5,0.306525315038584,4
8,813,5,0.332849622483824,4
8,814,5,0.219731843262525,1
8,815,5,0.141407038716882,1
9,811,5,0.244622468275139,4
9,812,5,0.328993398427941,4
9,813,5,0.341372939489073,4
9,814,5,0.228744491976977,4
9,815,5,0.132327376764484,1
10,812,5,0.265742727219758,4
10,813,5,0.258732567384466,4
10,814,5,0.210772068777103,1
10,815,5,0.129967109959391,1
11,812,5,0.241244835510284,1
11,813,5,0.220121875121742,1
11,814,5,0.197975503203369,1
11,815,5,0.131525712387591,1
12,813,5,0.174865576345302,1
12,814,5,0.182815599021373,1
12,815,5,0.126758513512229,1
13,813,5,0.165273021299814,1
13,814,5,0.211721168813229,1
13,815,5,0.141448170379185,1
14,813,5,0.15947060297038,1
14,814,5,0.205390117122689,1
14,815,5,0.144271549637346,1
15,813,5,0.163708144550245,1
15,814,5,0.172929643201489,1
15,815,5,0.12831505717873,1
16,813,5,0.194242325560985,1
16,814,5,0.148110388594438,1
16,815,5,0.105089785200928,1
17,813,5,0.221573378369921,1
17,814,5,0.150681771063483,1
17,815,5,0.107031546056429,1
18,813,5,0.192884937133328,1
18,814,5,0.17961019419949,1
18,815,5,0.160463699506517,1
18,816,5,0.114403525090618,1
19,813,5,0.169248402997096,1
19,814,5,0.202845683735354,1
19,815,5,0.201984358840868,1
19,816,5,0.141257195722541,1
20,813,5,0.171026824531563,1
20,814,5,0.198875519746292,1
20,815,5,0.191959627232389,1
20,816,5,0.144646592839961,1
21,813,5,0.208019667779419,1
21,814,5,0.217299650512998,1
21,815,5,0.183457551419272,1
21,816,5,0.137061951347315,1
22,813,5,0.211777354489648,1
22,814,5,0.194953066742635,1
22,815,5,0.154764687657548,1
22,816,5,0.118469154622164,1
23,813,5,0.222765564787387,1
23,814,5,0.193229785164358,1
23,815,5,0.152739345434238,1
23,816,5,0.125095132095765,1
24,813,5,0.278234334631994,1
24,814,5,0.223787952382828,1
24,815,5,0.170738075033599,1
24,816,5,0.149838016447412,1
24,817,5,0.104130881537664,1
25,812,5,0.286388555968425,2
25,813,5,0.275619816203542,1
25,814,5,0.211712715908053,1
25,815,5,0.16913659807605,1
25,816,5,0.153965800975011,1
25,817,5,0.10921365917059,1
26,811,5,0.274052238010052,2
26,812,5,0.283333767538135,2
26,813,5,0.275108938300474,2
26,814,5,0.247205005093283,2
26,815,5,0.194295831579319,1
26,816,5,0.146128106080101,1
26,817,5,0.100202459214371,1
27,808,5,0.233893509450598,2
27,809,5,0.275735172216196,2
27,810,5,0.251098112573042,2
27,811,5,0.289643120533944,2
27,812,5,0.339683186315608,2
27,813,5,0.378104690360412,2
27,814,5,0.360665933050242,2
27,815,5,0.239200365321136,2
27,816,5,0.138763272800803,1
28,807,5,0.173022418192969,2
28,808,5,0.344938366178211,2
28,809,5,0.446007487647197,2
28,810,5,0.33268570583808,2
28,811,5,0.294409752977515,2
28,812,5,0.333478122126707,2
28,813,5,0.390774985216611,2
28,814,5,0.391751426479532,2
28,815,5,0.291090963761325,2
28,816,5,0.170595345115392,2
28,817,5,0.105375855040808,1
29,807,5,0.141722976940775,2
29,808,5,0.325859462047893,2
29,809,5,0.481144820172526,2
29,810,5,0.390586755575566,2
29,811,5,0.291593127329159,2
29,812,5,0.261476384761946,2
29,813,5,0.301410523116593,2
29,814,5,0.390795202474353,2
29,815,5,0.427861278816928,2
29,816,5,0.259345250508901,2
29,817,5,0.127072305831071,1
30,808,5,0.167492878378456,2
30,809,5,0.256751014695705,2
30,810,5,0.251915451860436,2
30,811,5,0.217072533150973,2
30,813,5,0.23147064103977,2
30,814,5,0.385117943784712,2
30,815,5,0.495316769276174,2
30,816,5,0.298200641304984,2
30,817,5,0.138174499633666,1
31,814,5,0.258049472431345,2
31,815,5,0.327290965896711,2
31,816,5,0.224417475960101,2
31,817,5,0.141316616595915,1
31,825,5,0.138444524203797,1
32,815,5,0.194733291208044,2
32,816,5,0.201945645406593,1
32,817,5,0.189342189501635,1
32,818,5,0.127308758424715,1
32,824,5,0.153263022517181,1
33,816,5,0.209194251239713,1
33,817,5,0.247867752073634,1
33,818,5,0.183601337950626,1
33,819,5,0.118812739074585,1
33,823,5,0.1229373864415,1
34,817,5,0.230533218212857,1
34,821,5,0.114465941516729,1
34,822,5,0.117903441764638,1
7,814,6,0.108463235084871,1
7,815,6,0.103028670631484,1
8,812,6,0.268931759984321,4
8,813,6,0.291706849403957,4
8,814,6,0.189401229122842,1
8,815,6,0.136017756127953,1
8,816,6,0.105272731776238,1
9,811,6,0.242393842396668,4
9,812,6,0.346556966804494,4
9,813,6,0.35325452164912,4
9,814,6,0.219402506748211,4
9,815,6,0.134719461786099,1
10,812,6,0.274234280473081,4
10,813,6,0.279341294850876,4
10,814,6,0.227060032762166,1
10,815,6,0.144984785297457,1
11,813,6,0.228157385426453,1
11,814,6,0.229924674397659,1
11,815,6,0.159061247072783,1
12,813,6,0.16052903523493,1
12,814,6,0.181747711703094,1
12,815,6,0.140925800446527,1
13,813,6,0.133810316977019,1
13,814,6,0.18979476850199,1
13,815,6,0.160890277109119,1
14,813,6,0.135121105497014,1
14,814,6,0.197649238492224,1
14,815,6,0.17915232124048,1
15,813,6,0.13970531422539,1
15,814,6,0.151080473686257,1
15,815,6,0.134728720767284,1
16,814,6,0.114465331513262,1
17,814,6,0.12600399368895,1
18,813,6,0.184245087680168,1
18,814,6,0.17317101939454,1
18,815,6,0.142575391427485,1
18,816,6,0.107625242822973,1
19,813,6,0.188777173790928,1
19,814,6,0.21151673050865,1
19,815,6,0.203222491590853,1
19,816,6,0.154944595108445,1
19,817,6,0.106804973340356,1
20,813,6,0.189522750527674,1
20,814,6,0.213986874188119,1
20,815,6,0.223521206581328,1
20,816,6,0.178335330526495,1
20,817,6,0.113361987743502,1
21,813,6,0.207711899244807,1
21,814,6,0.2052324094408,1
21,815,6,0.191336399762323,1
21,816,6,0.146227297000897,1
22,813,6,0.202865944564772,1
22,814,6,0.180531822293792,1
22,815,6,0.150640998867509,1
22,816,6,0.116324556721182,1
23,813,6,0.216610455525213,1
23,814,6,0.195477560794505,1
23,815,6,0.150647578190611,1
23,816,6,0.121418281737746,1
24,813,6,0.275304291910573,1
24,814,6,0.230083928874053,1
24,815,6,0.163256633055956,1
24,816,6,0.141748466371333,1
24,817,6,0.112225801822831,1
25,813,6,0.252250692336872,2
25,814,6,0.200340551999922,1
25,815,6,0.160848960267193,1
25,816,6,0.151890122572808,1
25,817,6,0.118309235677709,1
26,812,6,0.264416579683914,2
26,813,6,0.282646206488207,2
26,814,6,0.248612392019342,2
26,815,6,0.188431672184755,1
26,816,6,0.144027657179997,1
26,817,6,0.102352863041202,1
27,809,6,0.229432423386153,2
27,810,6,0.217027196821921,2
27,811,6,0.249773097900778,2
27,812,6,0.325871574973868,2
27,813,6,0.410039809689137,2
27,814,6,0.366225134283306,2
27,815,6,0.230126040899069,2
27,816,6,0.139981820082351,1
28,808,6,0.264602826813693,2
28,809,6,0.388023216008231,2
28,810,6,0.338861816648168,2
28,811,6,0.281703685775182,2
28,812,6,0.319770102445056,2
28,813,6,0.402379778303802,2
28,814,6,0.384892852505628,2
28,815,6,0.277326061256437,2
28,816,6,0.170017355938106,2
28,817,6,0.112627815892993,1
29,808,6,0.272536531897039,2
29,809,6,0.484237014886806,2
29,810,6,0.453109801577584,2
29,811,6,0.306344579725839,2
29,812,6,0.26053364619054,2
29,813,6,0.334131326909977,2
29,814,6,0.429001070293802,2
29,815,6,0.412859550712339,2
29,816,6,0.232619843998697,2
29,817,6,0.124486566494728,1
30,809,6,0.281763444329046,2
30,810,6,0.296215537524615,2
30,811,6,0.230467185337625,2
30,812,6,0.202584732966785,2
30,813,6,0.288451849121677,2
30,814,6,0.448078797988864,2
30,815,6,0.474498963121674,2
30,816,6,0.257585390508481,2
30,817,6,0.126187757233188,1
31,810,6,0.14878562975293,2
31,813,6,0.196179456925893,2
31,814,6,0.278467225241111,2
31,815,6,0.302698981152552,2
31,816,6,0.199981194600727,2
31,817,6,0.130277852260901,1
32,815,6,0.177809507538502,2
32,816,6,0.184344245922207,1
32,817,6,0.176095931551092,1
32,818,6,0.117628057878339,1
32,824,6,0.14829842216294,1
33,815,6,0.12949412852167,1
33,816,6,0.186880934444104,1
33,817,6,0.233817259017304,1
33,818,6,0.171009624612396,1
33,819,6,0.104001615267393,1
33,823,6,0.124752582470652,1
34,816,6,0.152369846727416,1
34,817,6,0.217116496972227,1
34,818,6,0.216205957869509,1
34,821,6,0.111640688676492,1
34,822,6,0.139023929460558,1
35,817,6,0.199026691676757,1
8,812,7,0.215950301059594,4
8,813,7,0.227950528893847,4
8,814,7,0.152050793128677,1
8,815,7,0.121086428959133,1
8,816,7,0.107766338803323,1
9,811,7,0.229584989610255,4
9,812,7,0.345069734781857,4
9,813,7,0.344165992860622,4
9,814,7,0.207221216813643,4
9,815,7,0.138486963016385,1
9,816,7,0.119264708071474,1
10,812,7,0.293787004795886,4
10,813,7,0.301557207164412,4
10,814,7,0.239392254982979,1
10,815,7,0.171657502758254,1
10,816,7,0.125348882644847,1
11,813,7,0.22554140734685,1
11,814,7,0.245383752601143,1
11,815,7,0.195123301281422,1
11,816,7,0.12594873391065,1
12,813,7,0.142354537493909,1
12,814,7,0.167804960509008,1
12,815,7,0.15017970553192,1
13,813,7,0.109473161180927,1
13,814,7,0.149041177633655,1
13,815,7,0.157540214322359,1
14,813,7,0.109643896793991,1
14,814,7,0.160829178726212,1
14,815,7,0.183801887483108,1
15,814,7,0.120124616886485,1
15,815,7,0.127243509839654,1
17,814,7,0.107504505708312,1
18,813,7,0.164404256541622,1
18,814,7,0.154254692080923,1
18,815,7,0.12935644202498,1
18,816,7,0.108388542339,1
19,813,7,0.207304613001828,1
19,814,7,0.20358932153251,1
19,815,7,0.199068171912468,1
19,816,7,0.178113202121391,1
19,817,7,0.129086646206148,1
20,813,7,0.221891103032537,1
20,814,7,0.222192967605028,1
20,815,7,0.242458764194158,1
20,816,7,0.212617220333621,1
20,817,7,0.134869108707897,1
21,813,7,0.208258331635628,1
21,814,7,0.193748985257574,1
21,815,7,0.194704490330097,1
21,816,7,0.15569018273811,1
21,817,7,0.104721364893091,1
22,813,7,0.193552259139676,1
22,814,7,0.171835623770428,1
22,815,7,0.150773119082569,1
22,816,7,0.118205698482215,1
23,813,7,0.215333957914362,1
23,814,7,0.195717771445218,1
23,815,7,0.151511168812257,1
23,816,7,0.121767530508069,1
23,817,7,0.103569079238075,1
24,813,7,0.259201529335061,1
24,814,7,0.221687841163214,1
24,815,7,0.162011833839517,1
24,816,7,0.141134585025805,1
24,817,7,0.123538207177097,1
25,813,7,0.227330416798626,2
25,814,7,0.192855439108562,1
25,815,7,0.162855087381312,1
25,816,7,0.156971680198802,1
25,817,7,0.132491456804013,1
26,812,7,0.25061126444938,2
26,813,7,0.296526987865863,2
26,814,7,0.249944922805745,2
26,815,7,0.187900838454003,1
26,816,7,0.14942929233912,1
26,817,7,0.112241106374085,1
27,809,7,0.179903845511023,2
27,810,7,0.18853611349253,2
27,811,7,0.230844102122315,2
27,812,7,0.341608204754541,2
27,813,7,0.440459549692422,2
27,814,7,0.35439618670807,2
27,815,7,0.227218502948389,2
27,816,7,0.153877644581204,1
27,817,7,0.109359253926505,1
28,808,7,0.186153200308748,2
28,809,7,0.312654869512685,2
28,810,7,0.331931109764368,2
28,811,7,0.282268701485888,2
28,812,7,0.324009299748616,2
28,813,7,0.400339665282271,2
28,814,7,0.360845557285243,2
28,815,7,0.271439157446914,2
28,816,7,0.187023370253496,1
28,817,7,0.129461253692002,1
29,808,7,0.213883783602306,2
29,809,7,0.44189981144815,2
29,810,7,0.467784959969294,2
29,811,7,0.300370597921495,2
29,812,7,0.253544836476571,2
29,813,7,0.347131895071529,2
29,814,7,0.422565577295488,2
29,815,7,0.358760848653155,2
29,816,7,0.212181220356047,2
29,817,7,0.130394787746817,1
30,808,7,0.156178436048328,2
30,809,7,0.310199714489818,2
30,810,7,0.346636855472748,2
30,811,7,0.239879386322536,2
30,812,7,0.216209530746955,2
30,813,7,0.344799873605512,2
30,814,7,0.464436476655796,2
30,815,7,0.389619812938049,2
30,816,7,0.213619259956291,2
30,817,7,0.125182471520643,1
31,809,7,0.167310334841151,2
31,810,7,0.200627057556563,2
31,813,7,0.254152901003331,2
31,814,7,0.30652786398164,2
31,815,7,0.268594754855001,2
31,816,7,0.190573590427652,1
31,817,7,0.13693751064018,1
32,814,7,0.175856788406444,2
32,815,7,0.180355542184936,1
32,816,7,0.190162491663009,1
32,817,7,0.173119659281257,1
32,818,7,0.11522499279433,1
32,824,7,0.138136167451557,1
33,815,7,0.129951990587761,1
33,816,7,0.17567195735614,1
33,817,7,0.20472416762414,1
33,818,7,0.151433752836626,1
33,823,7,0.126606753364137,1
34,816,7,0.139769190302652,1
34,817,7,0.188280979542729,1
34,818,7,0.180875864248814,1
34,819,7,0.137828780169112,1
34,820,7,0.111974197178799,1
34,821,7,0.116384228131694,1
34,822,7,0.16495527485136,1
35,817,7,0.16874637014429,1
35,818,7,0.20765512535076,1
8,814,8,0.119547815037375,1
8,815,8,0.102905635110905,1
8,816,8,0.106289553090047,1
9,812,8,0.310263655924594,4
9,813,8,0.314442702529204,4
9,814,8,0.194125640612207,1
9,815,8,0.143984085503829,1
9,816,8,0.149637009412331,1
9,817,8,0.140381067351077,1
10,813,8,0.314387845788909,1
10,814,8,0.242416717526656,1
10,815,8,0.202954787212478,1
10,816,8,0.18515922144617,1
10,817,8,0.163719364256859,1
10,818,8,0.103002211731131,1
11,813,8,0.209702275197992,1
11,814,8,0.232667358911558,1
11,815,8,0.227291245861751,1
11,816,8,0.173706210292909,1
11,817,8,0.125736997350312,1
12,813,8,0.120609428034285,1
12,814,8,0.146469141589467,1
12,815,8,0.156148077482958,1
12,816,8,0.117043837951361,1
13,814,8,0.116555290532329,1
13,815,8,0.141279591564091,1
14,814,8,0.123968379442983,1
14,815,8,0.160333855911536,1
14,816,8,0.100529094284764,1
15,815,8,0.113543899491503,1
18,814,8,0.131659466540507,1
18,815,8,0.118374767478665,1
18,816,8,0.109783772767409,1
19,813,8,0.207678261910805,1
19,814,8,0.186481905033759,1
19,815,8,0.183564214882531,1
19,816,8,0.186839170992497,1
19,817,8,0.144670960299858,1
20,814,8,0.225738743468214,1
20,815,8,0.236095556606606,1
20,816,8,0.224441440381993,1
20,817,8,0.150967023934435,1
21,814,8,0.188940894364129,1
21,815,8,0.188767588022171,1
21,816,8,0.158210281344306,1
21,817,8,0.114958170742397,1
22,814,8,0.160493360925068,1
22,815,8,0.146044132567207,1
22,816,8,0.12036867273762,1
22,817,8,0.107146684210702,1
23,814,8,0.17866182398894,1
23,815,8,0.147833686664934,1
23,816,8,0.123653410688885,1
23,817,8,0.111685469466673,1
24,814,8,0.201323986516868,1
24,815,8,0.166586228047836,1
24,816,8,0.144731612073084,1
24,817,8,0.129897340812927,1
25,814,8,0.197280861756063,1
25,815,8,0.174244026384768,1
25,816,8,0.159409537266231,1
25,817,8,0.141102211270412,1
26,812,8,0.23618487854275,2
26,813,8,0.294263766076515,2
26,814,8,0.244458464486043,2
26,815,8,0.190383901135456,1
26,816,8,0.153415011416573,1
26,817,8,0.121716693254901,1
27,810,8,0.176950263191553,2
27,811,8,0.233986687480083,2
27,812,8,0.341647767836501,2
27,813,8,0.418014646434785,2
27,814,8,0.31460261058074,2
27,815,8,0.224857005243444,2
27,816,8,0.168095191443962,1
27,817,8,0.120643555549644,1
28,809,8,0.241812530879075,2
28,810,8,0.305699479274336,2
28,811,8,0.289105729265927,2
28,812,8,0.313789279887553,2
28,813,8,0.361381227472051,2
28,814,8,0.318966858594902,2
28,815,8,0.269616597804489,2
28,816,8,0.20605388803743,1
28,817,8,0.141170368264857,1
29,808,8,0.172862826036085,2
29,809,8,0.371316441071843,2
29,810,8,0.430232231575601,2
29,811,8,0.285829749221572,2
29,812,8,0.237681282403221,2
29,813,8,0.317623892392057,2
29,814,8,0.363263763526721,2
29,815,8,0.300622376852231,2
29,816,8,0.205302538053592,2
29,817,8,0.135675696684197,1
30,808,8,0.161972695581399,2
30,809,8,0.338605353762244,2
30,810,8,0.389432803303937,2
30,811,8,0.245493814655143,2
30,812,8,0.21514819007302,2
30,813,8,0.349368211350843,2
30,814,8,0.414403382342318,2
30,815,8,0.298815154439817,2
30,816,8,0.185816238751104,2
30,817,8,0.12611280305726,1
31,809,8,0.228718022183705,2
31,810,8,0.274024722496552,2
31,813,8,0.295680716985493,2
31,814,8,0.321568131233798,2
31,815,8,0.235980854169094,2
31,816,8,0.178554158377129,1
31,817,8,0.139166659378765,1
32,814,8,0.194339468613001,2
32,815,8,0.174892710606636,1
32,816,8,0.179737826531905,1
32,817,8,0.160693681706249,1
32,818,8,0.111141063158794,1
32,824,8,0.131092119745126,1
33,815,8,0.12504674574938,1
33,816,8,0.153180236332462,1
33,817,8,0.165274938453565,1
33,818,8,0.130516102186187,1
33,822,8,0.0997869270316776,1
33,823,8,0.136928469517375,1
34,816,8,0.123516628304475,1
34,817,8,0.156775106581771,1
34,818,8,0.15503982100671,1
34,819,8,0.120194048352458,1
34,820,8,0.102176027393475,1
34,821,8,0.124415119838732,1
35,817,8,0.150550337102323,1
35,818,8,0.179242699789771,1
8,816,9,0.103870954703485,1
8,817,9,0.118118152091875,1
9,814,9,0.191248711764035,1
9,815,9,0.149646878396983,1
9,816,9,0.171791333161604,1
9,817,9,0.197071652352944,1
9,818,9,0.135125800345121,1
10,814,9,0.247870475303394,1
10,815,9,0.227274405408912,1
10,816,9,0.239591856831504,1
10,817,9,0.24285282643342,1
10,818,9,0.154861808923726,1
11,814,9,0.209156409238961,1
11,815,9,0.239899189649354,1
11,816,9,0.213607321317021,1
11,817,9,0.166430176089641,1
11,818,9,0.102575993594857,1
12,814,9,0.127248716654956,1
12,815,9,0.153717289919988,1
12,816,9,0.131335010053923,1
13,815,9,0.114442783170846,1
13,816,9,0.0998336903331247,1
14,815,9,0.118857225755953,1
18,814,9,0.112188755005169,1
18,815,9,0.110341893260362,1
18,816,9,0.114414091222089,1
18,817,9,0.104718696127925,1
19,814,9,0.170342542250266,1
19,815,9,0.165632542092793,1
19,816,9,0.184694888986168,1
19,818,9,0.104142264638063,1
20,814,9,0.22850181952656,1
20,815,9,0.215645800400695,1
20,816,9,0.21876738421055,1
20,818,9,0.106138065264931,1
21,814,9,0.188044428912814,1
21,815,9,0.178818442378925,1
21,816,9,0.161710012838702,1
22,814,9,0.147947223560109,1
22,815,9,0.142835993622645,1
22,816,9,0.129949648610167,1
22,817,9,0.122742544798596,1
22,818,9,0.10054777564092,1
23,814,9,0.152518589536934,1
23,815,9,0.14609014425724,1
23,816,9,0.132043256757113,1
23,817,9,0.120504104400069,1
24,814,9,0.180681850467757,1
24,815,9,0.175040233409221,1
24,816,9,0.150022389995116,1
24,817,9,0.128912337715639,1
25,814,9,0.206505334174205,1
25,815,9,0.184659672178905,1
25,816,9,0.159322056233405,1
26,813,9,0.277239353620863,2
26,814,9,0.247830650791377,1
26,815,9,0.198390523418868,1
26,816,9,0.169642290949653,1
27,812,9,0.304886627869587,2
27,813,9,0.355689895131007,2
27,814,9,0.281438878913272,2
27,815,9,0.234636210456717,1
27,816,9,0.20605491197182,1
28,810,9,0.262837999642191,2
28,812,9,0.282839817231258,2
28,813,9,0.298734111122145,2
28,814,9,0.275502804467193,2
28,815,9,0.267989936418115,1
28,816,9,0.235396841207579,1
29,809,9,0.284597106502784,2
29,810,9,0.350283347265397,2
29,811,9,0.260008629278556,2
29,813,9,0.259646069361163,2
29,814,9,0.282833760768271,2
29,815,9,0.255438657595368,2
29,816,9,0.21092378535352,1
29,817,9,0.139607604741583,1
30,808,9,0.165434617753801,2
30,809,9,0.346809246809506,2
30,810,9,0.3932892452182,2
30,811,9,0.235448582573028,2
30,813,9,0.302401539105192,2
30,814,9,0.326555519574674,2
30,815,9,0.235997041046791,2
30,816,9,0.177928741430335,1
30,817,9,0.128474638442695,1
31,809,9,0.29365870799541,2
31,810,9,0.339481493026627,2
31,811,9,0.214971681212865,2
31,814,9,0.312588662350748,2
31,815,9,0.212486374590089,1
31,816,9,0.171756345105641,1
31,817,9,0.142868236663009,1
32,810,9,0.238758308880575,2
32,815,9,0.162617218708193,1
32,816,9,0.162671073299937,1
32,817,9,0.151286948966698,1
32,818,9,0.106608247222458,1
33,816,9,0.127708779090693,1
33,817,9,0.132029673287067,1
33,818,9,0.110857749227432,1
33,822,9,0.131178849166538,1
34,816,9,0.107969600672646,1
34,817,9,0.129692641078291,1
34,818,9,0.136312801733123,1
34,819,9,0.111640928320711,1
34,821,9,0.137251128672317,1
35,817,9,0.144247421821669,1
35,818,9,0.173064737183447,1
8,816,10,0.107189449810861,1
8,817,10,0.147106987356888,1
8,818,10,0.126781094533403,1
9,814,10,0.214987628446342,1
9,815,10,0.175548965407238,1
9,816,10,0.198414727484979,1
9,817,10,0.267054822890039,1
9,818,10,0.207392431715144,1
9,819,10,0.10332581857003,1
10,814,10,0.275458034569931,1
10,815,10,0.261610803382924,1
10,816,10,0.282757357834111,1
10,818,10,0.209282876029039,1
11,814,10,0.195684482684626,1
11,815,10,0.237816507100207,1
11,816,10,0.234811717168321,1
11,817,10,0.193867522002589,1
11,818,10,0.120167480522915,1
12,814,10,0.109810416847385,1
12,815,10,0.13902196873513,1
12,816,10,0.133254636497931,1
18,815,10,0.10952441236502,1
18,816,10,0.123099669149387,1
19,814,10,0.172243432873521,1
19,815,10,0.158924246829992,1
20,814,10,0.245986784599306,1
20,815,10,0.204288538005814,1
21,814,10,0.195498366269875,1
21,815,10,0.171894543569526,1
22,814,10,0.138300792137038,1
22,815,10,0.139772305677498,1
23,814,10,0.132795717818693,1
23,815,10,0.148651428990333,1
24,814,10,0.168639554180165,1
24,815,10,0.18594534162759,1
25,814,10,0.22468036566826,1
25,815,10,0.198284796746647,1
26,814,10,0.275808960849787,1
26,815,10,0.218909079301448,1
27,813,10,0.298361181145824,2
27,814,10,0.271365150954943,1
27,815,10,0.247495366743265,1
28,813,10,0.235927391722436,2
28,814,10,0.231933154382292,1
28,815,10,0.247358791324317,1
29,809,10,0.221002872628017,2
29,810,10,0.274596186815331,2
29,814,10,0.214351264115911,1
29,815,10,0.218194046309695,1
29,816,10,0.204600184419604,1
30,808,10,0.169606605746872,2
30,809,10,0.35376947350391,2
30,810,10,0.384507068884838,2
30,811,10,0.231912806409522,2
30,814,10,0.24337413975293,2
30,815,10,0.195801494420975,1
30,816,10,0.168066346994339,1
30,817,10,0.12363117824112,1
31,808,10,0.170896708613607,2
31,809,10,0.373422957327853,2
31,810,10,0.410259628795404,2
31,811,10,0.240125871294617,2
31,815,10,0.18694271908091,1
31,816,10,0.158352619117427,1
31,817,10,0.13630920706984,1
32,809,10,0.233397315202398,2
32,810,10,0.279558761086629,2
32,816,10,0.1416572054956,1
32,817,10,0.138187723637383,1
33,816,10,0.108327563778203,1
33,817,10,0.10961047731837,1
33,821,10,0.101976403759112,1
34,817,10,0.109228538898002,1
34,818,10,0.117180369798633,1
34,819,10,0.100720896803254,1
34,821,10,0.144437655759817,1
35,818,10,0.169480836103614,1
35,819,10,0.155834895167583,1
35,820,10,0.144380849187014,1
7,818,11,0.104527165932411,1
8,816,11,0.117388903840772,1
8,817,11,0.177427253223481,1
8,818,11,0.18413318472285,1
9,815,11,0.206652758940519,1
9,816,11,0.226802589513529,1
10,815,11,0.287736271483972,1
10,819,11,0.122768905662678,1
11,815,11,0.223718390201826,1
11,816,11,0.238320871037688,1
11,818,11,0.134324364719528,1
12,815,11,0.121357564607006,1
12,816,11,0.131017121997522,1
12,817,11,0.108027246000216,1
29,810,11,0.208063326598939,2
29,815,11,0.19622235324108,1
30,809,11,0.311606338911544,2
30,810,11,0.33391128994533,2
30,811,11,0.217872705197958,2
30,816,11,0.153574516430105,1
31,808,11,0.171231676767066,2
31,809,11,0.38205738210733,2
31,810,11,0.415261177931035,2
31,811,11,0.248979526962733,2
31,816,11,0.14217657987552,1
31,817,11,0.121856580121237,1
32,809,11,0.229485079756802,2
32,810,11,0.279811237164184,2
32,817,11,0.122893542442356,1
33,821,11,0.116932555890429,1
33,822,11,0.203089292976808,1
34,821,11,0.153815718336451,1
11,816,12,0.222898501971376,1
12,816,12,0.131061902787703,1
12,817,12,0.129281716600352,1
29,816,12,0.159536984419022,1
30,810,12,0.268748671801064,2
31,809,12,0.329255503845929,2
31,810,12,0.374048428739242,2
31,811,12,0.266913084227465,2
32,810,12,0.271153871897205,2
31,810,13,0.312624521840235,2
