x,y,z,signal,mito.p
705,505,21,0.135276645488014,1
705,506,21,0.134609737412589,1
706,505,21,0.140574177019853,1
706,506,21,0.135760857525267,1
702,505,22,0.114899414337085,1
704,505,22,0.131186583139058,1
704,506,22,0.13824972613257,1
704,507,22,0.126592984714468,1
704,508,22,0.106981111841264,1
705,504,22,0.13944504971072,1
705,505,22,0.187175391831646,1
705,506,22,0.196881331271442,1
705,507,22,0.15379503268319,1
706,504,22,0.159567517271096,1
706,505,22,0.207758629867497,1
706,506,22,0.208619475473545,1
706,507,22,0.151451116149579,1
707,505,22,0.147355313232287,1
707,506,22,0.145016200475974,1
697,511,23,0.111787557903934,1
698,511,23,0.107994610814767,1
698,512,23,0.100190618611373,1
699,511,23,0.116663370075064,1
699,512,23,0.1067933288099,1
700,509,23,0.109846788304066,1
700,510,23,0.114285620134908,1
700,511,23,0.120503984577959,1
700,512,23,0.106187584474896,1
701,505,23,0.121707401594958,1
701,507,23,0.124420871299986,1
701,508,23,0.13917978534621,1
701,509,23,0.138420777640286,1
701,510,23,0.132630788131479,1
701,511,23,0.12258047994909,1
701,512,23,0.101878585346115,1
702,504,23,0.125960999337491,1
702,505,23,0.145786754676083,1
702,506,23,0.129523877083574,1
702,507,23,0.127165625468503,1
702,508,23,0.142321019982017,1
702,509,23,0.148371622578902,1
702,510,23,0.139886387218624,1
702,511,23,0.119125670852823,1
703,505,23,0.136451730022585,1
703,506,23,0.126436246502373,1
703,507,23,0.135081705808839,1
703,508,23,0.151308898198567,1
703,509,23,0.147060539950093,1
703,510,23,0.124998021722506,1
704,504,23,0.12218775753887,1
704,505,23,0.145338314984964,1
704,506,23,0.163034842331343,1
704,507,23,0.172738363543112,1
704,508,23,0.167781878413558,1
704,509,23,0.138372554687687,1
705,503,23,0.110947648488285,1
705,504,23,0.151558008364138,1
705,505,23,0.216528867561589,1
705,506,23,0.24824312206382,1
705,507,23,0.20808082062692,1
705,508,23,0.152714335292118,1
706,503,23,0.13191457870447,1
706,504,23,0.186455783813896,1
706,505,23,0.254852248191663,1
706,506,23,0.267838786273489,1
706,507,23,0.19457244636547,1
706,508,23,0.123520920114578,1
707,504,23,0.150119533047133,1
707,505,23,0.173250134665541,1
707,506,23,0.16766144630063,1
707,507,23,0.129621717282409,1
708,505,23,0.107237640084703,1
708,506,23,0.101407858742636,1
696,511,24,0.128160268799144,1
697,511,24,0.137698631572399,1
697,512,24,0.125085557219927,1
698,510,24,0.100568755402995,1
698,511,24,0.139206581927054,1
698,512,24,0.126653799881479,1
699,510,24,0.118650804940107,1
699,511,24,0.159151712765427,1
699,512,24,0.13978842719768,1
700,507,24,0.10947722423973,1
700,508,24,0.131911332614596,1
700,509,24,0.137136088554315,1
700,510,24,0.141463954218876,1
700,511,24,0.157276594788624,1
700,512,24,0.134482420974827,1
700,513,24,0.10872316191905,1
700,514,24,0.11675267022537,1
700,515,24,0.12454805702272,1
701,505,24,0.12206427540861,1
701,506,24,0.118063219101146,1
701,507,24,0.131910101714744,1
701,508,24,0.180762980928782,1
701,509,24,0.198373312606782,1
701,510,24,0.181554961500646,1
701,511,24,0.158725788737967,1
701,512,24,0.124611148809811,1
701,513,24,0.109066354226386,1
701,514,24,0.119401403312532,1
702,504,24,0.12606618136376,1
702,505,24,0.153834160048389,1
702,506,24,0.132685285405446,1
702,507,24,0.135000608026572,1
702,508,24,0.184119416073181,1
702,509,24,0.216354036210966,1
702,510,24,0.201283660930575,1
702,511,24,0.154612295720151,1
702,512,24,0.109801146973281,1
703,504,24,0.127655915754582,1
703,505,24,0.140923512933528,1
703,506,24,0.133186860755652,1
703,507,24,0.157311484808316,1
703,508,24,0.206196149560118,1
703,509,24,0.207921108647927,1
703,510,24,0.168143817434565,1
703,511,24,0.119989675405393,1
704,504,24,0.122522028545511,1
704,505,24,0.1455336903809,1
704,506,24,0.17676644518272,1
704,507,24,0.218825160253149,1
704,508,24,0.243447056952997,1
704,509,24,0.194989601593101,1
704,510,24,0.133049359438585,1
705,503,24,0.110939565942356,1
705,504,24,0.152642006309679,1
705,505,24,0.221152672050682,1
705,506,24,0.268768104768635,1
705,507,24,0.248413378388446,1
705,508,24,0.196282220724135,1
705,509,24,0.135030389267232,1
706,503,24,0.13460131718617,1
706,504,24,0.200035615624261,1
706,505,24,0.277889007312525,1
706,506,24,0.293931292401516,1
706,507,24,0.217794319752532,1
706,508,24,0.136830346102645,1
707,503,24,0.136512991799277,1
707,504,24,0.174100784499366,1
707,505,24,0.193190614227483,1
707,506,24,0.176158446013473,1
707,507,24,0.1350923808695,1
708,504,24,0.133207306764694,1
708,505,24,0.121137298891059,1
708,506,24,0.104932818237533,1
690,481,25,0.133660201659701,1
690,482,25,0.111615961750266,1
690,483,25,0.108393618439274,1
691,482,25,0.137708914487974,1
691,483,25,0.12603230438554,1
691,484,25,0.111951289370054,1
692,483,25,0.151067456648002,1
692,484,25,0.126987090525406,1
693,484,25,0.142487343962869,1
694,484,25,0.12797850955201,1
695,484,25,0.105520088181842,1
696,511,25,0.12912551214129,1
696,512,25,0.121254887952117,1
697,511,25,0.143035192433165,1
697,512,25,0.133178037491228,1
698,510,25,0.103071534267914,1
698,511,25,0.152640513979771,1
698,512,25,0.140599590199978,1
699,483,25,0.118497138531182,1
699,510,25,0.122712578378312,1
699,511,25,0.181458232379554,1
699,512,25,0.16134551398172,1
699,513,25,0.107446402878142,1
699,514,25,0.100152863753973,1
699,515,25,0.114280293497497,1
700,482,25,0.137262435522283,1
700,508,25,0.13918502484027,1
700,509,25,0.14925953708877,1
700,510,25,0.149231052105475,1
700,511,25,0.172580721218737,1
700,512,25,0.152027307995223,1
700,513,25,0.125363871301449,1
700,514,25,0.143413961014092,1
700,515,25,0.154997458444556,1
700,516,25,0.120695089949631,1
701,505,25,0.110585981790254,1
701,506,25,0.110209881974492,1
701,507,25,0.130267547559487,1
701,508,25,0.204977667636084,1
701,509,25,0.245754416850303,1
701,510,25,0.210786273143534,1
701,511,25,0.172819962399655,1
701,512,25,0.138592221293087,1
701,513,25,0.129908495162026,1
701,514,25,0.151741303512857,1
701,515,25,0.146187624989746,1
702,504,25,0.114579423947308,1
702,505,25,0.143700804251224,1
702,506,25,0.129756342868848,1
702,507,25,0.137307978816797,1
702,508,25,0.208961818133196,1
702,509,25,0.272451676057702,1
702,510,25,0.247177162792212,1
702,511,25,0.176575459633157,1
702,512,25,0.121548027296455,1
702,513,25,0.108823180701693,1
702,514,25,0.113269169180346,1
703,504,25,0.122050310686399,1
703,505,25,0.139747371785811,1
703,506,25,0.14524694518004,1
703,507,25,0.177972846859536,1
703,508,25,0.234905004126996,1
703,509,25,0.247303673153965,1
703,510,25,0.205335783242508,1
703,511,25,0.142794720352395,1
703,512,25,0.101860917031429,1
704,503,25,0.110676055337812,1
704,504,25,0.122384494549687,1
704,505,25,0.140770064382984,1
704,506,25,0.181442611933648,1
704,507,25,0.247936181391056,1
704,508,25,0.283545111953387,1
704,509,25,0.224031823054339,1
704,510,25,0.156898621390787,1
704,511,25,0.118462564406143,1
705,503,25,0.10939524413102,1
705,504,25,0.141411896958775,1
705,505,25,0.192924304142746,1
705,506,25,0.238773624324748,1
705,507,25,0.251183469486654,1
705,508,25,0.216873693806781,1
705,509,25,0.148525278094908,1
705,510,25,0.111413582207386,1
706,503,25,0.127526453411768,1
706,504,25,0.186031504617212,1
706,505,25,0.250006097439085,1
706,506,25,0.257382128639158,1
706,507,25,0.204135862852522,1
706,508,25,0.142897342542689,1
706,509,25,0.104597675797369,1
707,502,25,0.102047556306294,1
707,503,25,0.154970977758365,1
707,504,25,0.196550883679386,1
707,505,25,0.198873733307569,1
707,506,25,0.167950522586166,1
707,507,25,0.136711765785954,1
707,508,25,0.113684941007258,1
708,495,25,0.109808521479472,1
708,496,25,0.115147958070865,1
708,500,25,0.126156962951056,1
708,503,25,0.157599874839952,1
708,504,25,0.17449551120669,1
708,505,25,0.141242392245563,1
708,506,25,0.112462766383669,1
708,507,25,0.107867076518623,1
709,494,25,0.120619841664889,1
709,504,25,0.127730891716348,1
690,482,26,0.108631846578721,1
691,483,26,0.11224423264185,1
692,483,26,0.144903240905509,1
692,484,26,0.115858906217977,1
693,484,26,0.124006755196768,1
694,484,26,0.102234467904135,1
696,511,26,0.101398610654369,1
696,512,26,0.102132510181902,1
697,511,26,0.114923988762443,1
697,512,26,0.110914980624078,1
698,511,26,0.131169906080004,1
698,512,26,0.123801532602018,1
699,483,26,0.110719518084789,1
699,510,26,0.104818486159269,1
699,511,26,0.161498908067669,1
699,512,26,0.149360579805803,1
699,513,26,0.10459095486632,1
699,515,26,0.112408290895541,1
700,481,26,0.141715907436317,1
700,508,26,0.116057832705521,1
700,509,26,0.132486696598392,1
700,510,26,0.132666048510418,1
700,511,26,0.157540116286088,1
700,512,26,0.14763668822406,1
700,513,26,0.131912367441904,1
700,514,26,0.149482068531878,1
700,515,26,0.157108985443326,1
700,516,26,0.120699959084443,1
701,507,26,0.107865573295795,1
701,508,26,0.176285969416698,1
701,509,26,0.2348692535667,1
701,510,26,0.199311628653056,1
701,511,26,0.160746479684846,1
701,512,26,0.140637639166191,1
701,513,26,0.14721372707058,1
701,514,26,0.168553728871033,1
701,515,26,0.154705266784174,1
701,516,26,0.101815373736914,1
702,505,26,0.10467475409251,1
702,506,26,0.106998845513465,1
702,507,26,0.119478536072268,1
702,508,26,0.187265432700447,1
702,509,26,0.274344386098757,1
702,510,26,0.253215325675551,1
702,511,26,0.17847956366753,1
702,512,26,0.129173473663832,1
702,513,26,0.123768864737811,1
702,514,26,0.126054994335904,1
702,515,26,0.105468107172174,1
703,505,26,0.113635203938913,1
703,506,26,0.13442575600997,1
703,507,26,0.166438356671842,1
703,508,26,0.209953836270347,1
703,509,26,0.245631392222643,1
703,510,26,0.230016980993621,1
703,511,26,0.167088021256423,1
703,512,26,0.116960419977338,1
703,513,26,0.104875913628458,1
704,504,26,0.102418111626263,1
704,505,26,0.118602919667999,1
704,506,26,0.162607654725274,1
704,507,26,0.229483010102184,1
704,508,26,0.257792290612764,1
704,509,26,0.214257171081226,1
704,510,26,0.175543627876907,1
704,511,26,0.142407771189267,1
704,512,26,0.111710643002579,1
705,504,26,0.113957013446169,1
705,505,26,0.146384601644782,1
705,506,26,0.182140041968228,1
705,507,26,0.211759533674095,1
705,508,26,0.202694293946509,1
705,509,26,0.14742793632354,1
705,510,26,0.118495036197807,1
705,511,26,0.113679385618547,1
706,503,26,0.105407814865277,1
706,504,26,0.147700052334127,1
706,505,26,0.190949200062057,1
706,506,26,0.195031670046441,1
706,507,26,0.169873133689991,1
706,508,26,0.144647529630999,1
706,509,26,0.115230711576827,1
707,503,26,0.143448916391298,1
707,504,26,0.182359403571895,1
707,505,26,0.177285220452093,1
707,506,26,0.15032967924129,1
707,507,26,0.134955456877143,1
707,508,26,0.129480893625034,1
708,496,26,0.0998598769105016,1
708,500,26,0.112096317694179,1
708,502,26,0.106471083585882,1
708,503,26,0.158494335994163,1
708,504,26,0.177459027868326,1
708,505,26,0.142067607113425,1
708,506,26,0.117571959345273,1
708,507,26,0.119057622787568,1
709,493,26,0.105257405439146,1
709,494,26,0.113144107576825,1
709,495,26,0.121459979831839,1
709,496,26,0.106538282003452,1
709,500,26,0.105777335357937,1
709,503,26,0.119221179966983,1
709,504,26,0.120413050489797,1
709,505,26,0.104047027846879,1
710,493,26,0.122302863014387,1
710,494,26,0.118240130999306,1
710,495,26,0.107197673964738,1
711,494,26,0.117790950589692,1
711,495,26,0.100534965568127,1
690,481,27,0.144907739681073,1
690,482,27,0.10211638866172,1
691,477,27,0.143901593427924,1
691,482,27,0.122896842996826,1
691,483,27,0.10417822216382,1
691,517,27,0.100468453404457,1
692,483,27,0.133051341949851,1
692,484,27,0.1048674716162,1
692,517,27,0.102676905596862,1
693,483,27,0.143927518575244,1
693,484,27,0.102912878902068,1
693,517,27,0.108351419270905,1
694,483,27,0.115274620933485,1
697,516,27,0.104868582693943,1
698,483,27,0.120244569710975,1
698,511,27,0.10114084061816,1
698,512,27,0.100348522365805,1
699,482,27,0.131084592738068,1
699,483,27,0.104344633288024,1
699,511,27,0.12203255522836,1
699,512,27,0.124351254654389,1
699,513,27,0.0998733732371946,1
699,515,27,0.10503051682842,1
700,481,27,0.126473010104139,1
700,482,27,0.12934586500059,1
700,509,27,0.101167724342356,1
700,510,27,0.104796177461071,1
700,511,27,0.125583570585606,1
700,512,27,0.132163133331169,1
700,513,27,0.131841454538941,1
700,514,27,0.140838515486244,1
700,515,27,0.13808793360604,1
700,516,27,0.111648694971987,1
701,481,27,0.124093811405752,1
701,508,27,0.127698953677717,1
701,509,27,0.181315665855133,1
701,510,27,0.160399540213359,1
701,511,27,0.132288499936423,1
701,512,27,0.132967618974094,1
701,513,27,0.158396081864405,1
701,514,27,0.173586943722319,1
701,515,27,0.147288245529746,1
701,516,27,0.100317379510264,1
702,508,27,0.146391867221783,1
702,509,27,0.229870471232506,1
702,510,27,0.226130343907773,1
702,511,27,0.167319757216122,1
702,512,27,0.134454110278237,1
702,513,27,0.14163002766259,1
702,514,27,0.14286663540391,1
702,515,27,0.112598884300018,1
703,506,27,0.113386692883889,1
703,507,27,0.139387578669855,1
703,508,27,0.163354081109706,1
703,509,27,0.214723823732984,1
703,510,27,0.237668123757018,1
703,511,27,0.19220066574495,1
703,512,27,0.138250793638636,1
703,513,27,0.120446175856603,1
703,514,27,0.111204122267128,1
704,506,27,0.133799772631386,1
704,507,27,0.183270933930246,1
704,508,27,0.198212162762475,1
704,509,27,0.186131741258236,1
704,510,27,0.184567714156353,1
704,511,27,0.162904072838244,1
704,512,27,0.129372029792129,1
705,505,27,0.102727623027921,1
705,506,27,0.130871777778745,1
705,507,27,0.164059582797296,1
705,508,27,0.176822173356538,1
705,509,27,0.150388871363364,1
705,510,27,0.127495016447413,1
705,511,27,0.118724735181645,1
706,504,27,0.106824765774255,1
706,505,27,0.131052698271113,1
706,506,27,0.142203626993502,1
706,507,27,0.143742131986069,1
706,508,27,0.149466382728458,1
706,509,27,0.13170651305785,1
706,510,27,0.106004637899586,1
707,490,27,0.103531062950618,1
707,503,27,0.115679434483841,1
707,504,27,0.148441413511204,1
707,505,27,0.149603546365034,1
707,506,27,0.141337650822585,1
707,507,27,0.143400530044913,1
707,508,27,0.151743373167475,1
707,509,27,0.135253803036783,1
708,502,27,0.105214541802715,1
708,503,27,0.142325507864662,1
708,504,27,0.162603068806358,1
708,505,27,0.142665584797152,1
708,506,27,0.128452307958659,1
708,507,27,0.132491053766009,1
708,508,27,0.134369809977771,1
708,514,27,0.100478812570466,1
708,515,27,0.101465700142748,1
709,481,27,0.10764779116539,1
709,493,27,0.11197395753458,1
709,494,27,0.100877330013616,1
709,503,27,0.111780826079966,1
709,504,27,0.114128783886542,1
709,505,27,0.104431275566084,1
709,506,27,0.100611172429745,1
710,494,27,0.117611860107723,1
711,495,27,0.107176029734601,1
712,495,27,0.138828488707107,1
690,480,28,0.132554864485756,1
690,481,28,0.131393592172531,1
690,518,28,0.0998373721397609,1
691,481,28,0.141265942736532,1
691,482,28,0.113724416945866,1
691,518,28,0.106316556636352,1
692,477,28,0.132415794588348,1
692,482,28,0.136350306053385,1
692,483,28,0.112475369491001,1
692,517,28,0.103728344607387,1
692,518,28,0.115191061351514,1
693,477,28,0.14514700264783,1
693,478,28,0.138911013461769,1
693,482,28,0.143749833279832,1
693,483,28,0.110338821457192,1
693,517,28,0.116182088233033,1
694,482,28,0.123161039855269,1
694,517,28,0.120031329927809,1
695,482,28,0.11719712310812,1
695,516,28,0.105197254740196,1
697,516,28,0.110451203702948,1
698,482,28,0.13631329191448,1
698,483,28,0.100523974612814,1
698,516,28,0.104658000783024,1
699,481,28,0.12448450773303,1
699,482,28,0.116841534658914,1
699,516,28,0.102361098087998,1
700,480,28,0.113422182014128,1
700,481,28,0.108616694528334,1
700,482,28,0.11397838535333,1
700,483,28,0.102637353407821,1
700,512,28,0.106881278238245,1
700,513,28,0.122121866271585,1
700,514,28,0.126949477275954,1
700,515,28,0.119473133184423,1
701,481,28,0.109347511359778,1
701,509,28,0.115635165660855,1
701,510,28,0.11384875961673,1
701,511,28,0.101976948405064,1
701,512,28,0.117540315415456,1
701,513,28,0.159800484130647,1
701,514,28,0.171655923284993,1
701,515,28,0.140049465109602,1
701,516,28,0.100952600084196,1
702,508,28,0.100026440535572,1
702,509,28,0.158124532285608,1
702,510,28,0.172244042876988,1
702,511,28,0.142216426173376,1
702,512,28,0.130237232565794,1
702,513,28,0.155525710553496,1
702,514,28,0.158742019187339,1
702,515,28,0.122448283483597,1
703,508,28,0.114381706573777,1
703,509,28,0.162546839558263,1
703,510,28,0.206063430234511,1
703,511,28,0.188253507600905,1
703,512,28,0.146353687540541,1
703,513,28,0.131622746510417,1
703,514,28,0.119432262952178,1
704,507,28,0.123317320564764,1
704,508,28,0.133776941073074,1
704,509,28,0.149792712797117,1
704,510,28,0.168173772961931,1
704,511,28,0.159687382952234,1
704,512,28,0.135548968464063,1
704,513,28,0.119966865632919,1
705,507,28,0.116373999680714,1
705,508,28,0.138164510826904,1
705,509,28,0.147410398723883,1
705,510,28,0.135095289278884,1
705,511,28,0.117934769799803,1
705,512,28,0.1117811310817,1
706,506,28,0.104230464603546,1
706,507,28,0.116017561583823,1
706,508,28,0.134964650500814,1
706,509,28,0.13544656413215,1
706,510,28,0.114788829422971,1
707,489,28,0.0999759191770556,1
707,490,28,0.102793252865149,1
707,504,28,0.113089229050692,1
707,505,28,0.123167096318257,1
707,506,28,0.128728203812154,1
707,507,28,0.138522081787376,1
707,508,28,0.156104189912138,1
707,509,28,0.139645316027307,1
707,510,28,0.110080528560869,1
707,514,28,0.100530662865106,1
707,515,28,0.10048046829416,1
708,490,28,0.10310296033935,1
708,503,28,0.115469724006446,1
708,504,28,0.135654956566341,1
708,505,28,0.133211348037658,1
708,506,28,0.125926174675314,1
708,507,28,0.128383018100633,1
708,508,28,0.140207913509986,1
708,515,28,0.103912936013472,1
709,480,28,0.107835606875511,1
709,493,28,0.103689925281926,1
709,503,28,0.101635509857694,1
709,504,28,0.106971863752998,1
710,494,28,0.106279498925772,1
711,495,28,0.103631157983695,1
712,495,28,0.13214231696288,1
713,496,28,0.118020224749687,1
689,519,29,0.112665548964555,1
690,480,29,0.118116311188556,1
690,481,29,0.11483318538931,1
690,518,29,0.104414446006164,1
690,519,29,0.114286883713517,1
691,479,29,0.128949809357143,1
691,480,29,0.13110105193874,1
691,481,29,0.127472816678406,1
691,482,29,0.112162764500335,1
691,518,29,0.104251825617787,1
691,519,29,0.111944993262848,1
692,477,29,0.108472145492647,1
692,478,29,0.116526783763196,1
692,479,29,0.138320660821371,1
692,480,29,0.152496084766193,1
692,481,29,0.13879355511574,1
692,482,29,0.118052674755513,1
692,517,29,0.102937954401703,1
693,478,29,0.129612098834895,1
693,479,29,0.151797184187542,1
693,481,29,0.146880763214224,1
693,482,29,0.113092921750247,1
694,479,29,0.142026257592741,1
694,480,29,0.147308811360897,1
694,481,29,0.128294273489198,1
694,482,29,0.102913151225044,1
694,516,29,0.104801384276373,1
695,481,29,0.121907319338135,1
695,482,29,0.100497483033704,1
695,516,29,0.115237595901661,1
696,482,29,0.102810441891398,1
697,482,29,0.109548823396593,1
697,516,29,0.126836299847108,1
698,481,29,0.12993835265312,1
698,482,29,0.112157884472604,1
698,516,29,0.120284557616778,1
698,517,29,0.136784399770126,1
699,478,29,0.12438262626123,1
699,479,29,0.116435610030815,1
699,480,29,0.106438481079189,1
699,481,29,0.107439137301141,1
699,482,29,0.107013245952438,1
699,516,29,0.108295200915729,1
699,517,29,0.11192973228327,1
700,478,29,0.120848342427633,1
700,479,29,0.113013207368698,1
700,482,29,0.102420028780015,1
700,513,29,0.106329737068393,1
700,514,29,0.114800452167588,1
700,515,29,0.109612732152612,1
700,516,29,0.103059454020697,1
701,475,29,0.0998469252297607,1
701,482,29,0.111782808591232,1
701,513,29,0.144719782363004,1
701,514,29,0.161215496100036,1
701,515,29,0.13611409310396,1
701,516,29,0.102877030305501,1
702,509,29,0.100447713286601,1
702,510,29,0.11964348754532,1
702,511,29,0.113533986935175,1
702,512,29,0.117345658952176,1
702,513,29,0.15396353524785,1
702,514,29,0.162615290661523,1
702,515,29,0.129975399470782,1
703,509,29,0.114607985181036,1
703,510,29,0.154875762753019,1
703,511,29,0.159193759432929,1
703,512,29,0.139818731298455,1
703,513,29,0.135382001800988,1
703,514,29,0.123758265927583,1
704,509,29,0.119440911929897,1
704,510,29,0.141116186885543,1
704,511,29,0.139062250749748,1
704,512,29,0.128959841735581,1
704,513,29,0.122157812904424,1
705,508,29,0.105232384404106,1
705,509,29,0.136514505915023,1
705,510,29,0.136464420273269,1
705,511,29,0.110668092613992,1
705,512,29,0.105835503545621,1
705,513,29,0.115449811750437,1
706,508,29,0.118414319667706,1
706,509,29,0.128565812175076,1
706,510,29,0.117640007410528,1
706,514,29,0.118893575426796,1
706,515,29,0.10835897895672,1
707,505,29,0.103999425790666,1
707,506,29,0.116099105975771,1
707,507,29,0.134179467110432,1
707,508,29,0.155319060986351,1
707,509,29,0.136475825159505,1
707,510,29,0.106310881425532,1
707,513,29,0.102346871935729,1
707,514,29,0.109475829946092,1
707,515,29,0.108182589918674,1
707,516,29,0.100452168490489,1
708,479,29,0.109766801599541,1
708,489,29,0.102216538159392,1
708,504,29,0.11549946167543,1
708,505,29,0.1251008726641,1
708,506,29,0.120914756555031,1
708,507,29,0.12795429459298,1
708,508,29,0.149304154485166,1
708,509,29,0.129981837185936,1
708,510,29,0.102697939823532,1
708,514,29,0.1007347090246,1
708,515,29,0.109711051639884,1
708,516,29,0.107860508088441,1
708,517,29,0.105396660516178,1
709,491,29,0.101975902684836,1
709,492,29,0.10581880470073,1
709,504,29,0.100021549614922,1
709,515,29,0.102221363722527,1
709,516,29,0.113205630783574,1
710,493,29,0.131426663074742,1
711,494,29,0.12073057907987,1
712,494,29,0.130454067012243,1
712,495,29,0.12020891718695,1
713,496,29,0.116679796596979,1
678,509,30,0.100675331722902,1
689,518,30,0.112299285454688,1
690,518,30,0.1112035340495,1
690,519,30,0.124048584005889,1
691,480,30,0.118869316896089,1
691,481,30,0.111920505980842,1
691,482,30,0.103037548360503,1
692,478,30,0.100818279499489,1
692,479,30,0.129456678666004,1
692,480,30,0.145469825196557,1
692,481,30,0.122444405604418,1
692,482,30,0.100660157886676,1
693,478,30,0.114148412926656,1
693,479,30,0.140597019471084,1
693,480,30,0.160829244083727,1
693,481,30,0.124047952216585,1
694,479,30,0.132703226043108,1
694,480,30,0.128027298936399,1
694,481,30,0.106879731443741,1
695,480,30,0.117408140735801,1
695,516,30,0.112668457373939,1
696,481,30,0.105548551379299,1
696,516,30,0.122429591234521,1
697,481,30,0.111157053963948,1
698,476,30,0.121506340095281,1
698,479,30,0.123976102522584,1
698,480,30,0.113605259304466,1
698,481,30,0.101376606957904,1
698,516,30,0.123447305767692,1
699,476,30,0.107298673110095,1
699,477,30,0.107842306020722,1
699,478,30,0.104843267550089,1
699,516,30,0.111292496519315,1
699,517,30,0.125709111477565,1
700,476,30,0.101509282711835,1
700,477,30,0.103171291620501,1
700,478,30,0.100670832947338,1
700,515,30,0.102661938726098,1
700,516,30,0.102625109766818,1
700,517,30,0.102382317494291,1
701,478,30,0.102221723188856,1
701,513,30,0.117823128272542,1
701,514,30,0.143759386369832,1
701,515,30,0.134983135784428,1
701,516,30,0.107350512511815,1
702,513,30,0.137877210087173,1
702,514,30,0.158396103650243,1
702,515,30,0.13992634244567,1
703,485,30,0.109643864115234,1
703,511,30,0.11218294907932,1
703,512,30,0.116947304902811,1
703,513,30,0.130466615654979,1
703,514,30,0.127736185675002,1
703,515,30,0.107632116254888,1
704,510,30,0.104596466683355,1
704,511,30,0.106024386761809,1
704,512,30,0.110400279306426,1
704,513,30,0.118442031253749,1
704,514,30,0.118433632813168,1
705,509,30,0.107339848344073,1
705,510,30,0.117555641752548,1
705,513,30,0.121255236525526,1
705,514,30,0.141244854045266,1
705,515,30,0.125985246975279,1
706,509,30,0.106117227110804,1
706,510,30,0.106595251970041,1
706,513,30,0.124008084132891,1
706,514,30,0.145984929552214,1
706,515,30,0.134254312357169,1
706,516,30,0.108142536655356,1
707,507,30,0.113712979380872,1
707,508,30,0.13397994151234,1
707,509,30,0.119949556784561,1
707,513,30,0.113825187339924,1
707,514,30,0.125499542608117,1
707,515,30,0.124632803932867,1
707,516,30,0.11421532812833,1
707,517,30,0.108499236182304,1
708,505,30,0.105339734121265,1
708,506,30,0.101142572592288,1
708,507,30,0.113140502020622,1
708,508,30,0.138531090231424,1
708,509,30,0.122202473872496,1
708,514,30,0.105636675094349,1
708,515,30,0.117624463215055,1
708,516,30,0.11930944528998,1
708,517,30,0.121912242937542,1
709,515,30,0.111557096415764,1
709,516,30,0.12680443805891,1
709,517,30,0.130267438630297,1
710,493,30,0.113924127723582,1
710,515,30,0.105069154012262,1
710,516,30,0.132984851572019,1
711,494,30,0.112787015904791,1
712,494,30,0.125706943786675,1
712,495,30,0.108609526987604,1
713,494,30,0.142362903255733,1
713,495,30,0.134788228784011,1
713,496,30,0.110290282609941,1
714,493,30,0.153363117550257,1
714,496,30,0.151833337785842,1
714,497,30,0.103039160512522,1
715,492,30,0.137005286382459,1
689,518,31,0.121770569632482,1
690,518,31,0.122039276159409,1
690,519,31,0.138262252989468,1
691,481,31,0.103360654125126,1
691,517,31,0.100766047952683,1
692,479,31,0.130225261247767,1
692,480,31,0.140054617460308,1
692,481,31,0.111289272215279,1
693,478,31,0.108010971979168,1
693,479,31,0.130168334852853,1
693,480,31,0.139326284214406,1
693,481,31,0.105070406697952,1
694,479,31,0.126465570240434,1
694,480,31,0.112128277518648,1
695,480,31,0.108848408702194,1
695,516,31,0.106958737785552,1
696,480,31,0.112788835022271,1
696,516,31,0.11517609448075,1
697,479,31,0.135698146990343,1
697,480,31,0.108398836147495,1
698,477,31,0.106420518655689,1
698,478,31,0.106886811841118,1
698,479,31,0.101946001622066,1
699,516,31,0.117013588315182,1
700,516,31,0.1060958878824,1
700,517,31,0.116703684768438,1
701,514,31,0.118313494809054,1
701,515,31,0.125142755937816,1
701,516,31,0.109314767245138,1
702,513,31,0.11138510811701,1
702,514,31,0.143480919787443,1
702,515,31,0.141955246653507,1
702,516,31,0.112339251574653,1
703,513,31,0.11411732453571,1
703,514,31,0.125524781501537,1
703,515,31,0.113870915814062,1
704,513,31,0.108543101967286,1
704,514,31,0.121468095056525,1
704,515,31,0.113349602494552,1
705,513,31,0.121692805083442,1
705,514,31,0.161209831782134,1
705,515,31,0.159258354442847,1
706,513,31,0.13009810820379,1
706,514,31,0.176185514917293,1
706,515,31,0.179732271143193,1
706,516,31,0.144564482016223,1
707,508,31,0.107803080619252,1
707,509,31,0.104868702516052,1
707,513,31,0.119064289254021,1
707,514,31,0.140587695132384,1
707,515,31,0.147391205400531,1
707,516,31,0.136782798511027,1
707,517,31,0.12591212280975,1
708,508,31,0.117250171623854,1
708,509,31,0.1110836901542,1
708,513,31,0.105068936153881,1
708,514,31,0.110458959461305,1
708,515,31,0.12333521763075,1
708,516,31,0.131263639648361,1
708,517,31,0.138675573909596,1
709,514,31,0.10031060411462,1
709,515,31,0.119432295630935,1
709,516,31,0.137685048102354,1
709,517,31,0.143299999295075,1
710,491,31,0.107502610340398,1
710,492,31,0.111189307897231,1
710,493,31,0.100165150966653,1
710,515,31,0.114675532172015,1
710,516,31,0.142000299766664,1
710,517,31,0.141166980567035,1
711,493,31,0.127919121357393,1
711,494,31,0.109461320577928,1
712,494,31,0.130115765625557,1
712,495,31,0.105205740324129,1
713,484,31,0.106216439817438,1
713,494,31,0.147999749215729,1
713,495,31,0.128304774263155,1
713,496,31,0.106444809865153,1
714,493,31,0.153444411405067,1
714,494,31,0.157210670842582,1
714,495,31,0.160005053150255,1
714,496,31,0.141083410092145,1
714,497,31,0.103620678995577,1
715,492,31,0.130939433698915,1
715,493,31,0.137041494445354,1
715,496,31,0.155396052138139,1
715,497,31,0.116732507432223,1
716,491,31,0.11249664336189,1
716,492,31,0.124826719677652,1
716,493,31,0.135139590780628,1
716,494,31,0.138468750055746,1
716,495,31,0.145092734125163,1
716,496,31,0.129937818900087,1
687,517,32,0.10266260319416,1
690,518,32,0.124704424875568,1
691,480,32,0.113692827480645,1
692,480,32,0.126826572470403,1
693,480,32,0.111763822233342,1
695,479,32,0.141214266728596,1
696,479,32,0.134874097664818,1
697,479,32,0.105073783502855,1
697,516,32,0.100964168364218,1
700,516,32,0.107496651913682,1
701,515,32,0.10785176107445,1
701,516,32,0.106778427296651,1
702,514,32,0.118866996704333,1
702,515,32,0.133382236151589,1
702,516,32,0.116475892045432,1
703,514,32,0.112578895793576,1
703,515,32,0.114463174715292,1
703,516,32,0.100769925831862,1
704,514,32,0.114820146565216,1
704,515,32,0.121881143653677,1
705,513,32,0.111049998355603,1
705,514,32,0.160184590241904,1
705,515,32,0.188410844923547,1
705,516,32,0.167323809382005,1
706,486,32,0.104951804595423,1
706,513,32,0.121136874067216,1
706,514,32,0.182512656049897,1
706,515,32,0.217815212371254,1
706,516,32,0.188613823576975,1
706,517,32,0.131388777502315,1
707,480,32,0.103387657671431,1
707,513,32,0.116053715182123,1
707,514,32,0.146632676983044,1
707,515,32,0.163836419564884,1
707,516,32,0.1534917956029,1
707,517,32,0.137514061952152,1
708,513,32,0.110087096991051,1
708,514,32,0.120074444101377,1
708,515,32,0.132001820093077,1
708,516,32,0.142846984577958,1
708,517,32,0.154568037790084,1
708,518,32,0.149866131071459,1
709,489,32,0.103579122509432,1
709,514,32,0.112860510429568,1
709,515,32,0.133063465768745,1
709,516,32,0.152845333536517,1
709,517,32,0.160499068814646,1
709,518,32,0.142872463115597,1
710,515,32,0.123968934981854,1
710,516,32,0.149270549829921,1
710,517,32,0.151910209115521,1
710,518,32,0.124502894980372,1
711,492,32,0.117670213475031,1
711,493,32,0.112622206039687,1
711,494,32,0.103305274524717,1
711,516,32,0.128518950837358,1
711,517,32,0.134445483086355,1
712,493,32,0.139838817841168,1
712,494,32,0.13023533719788,1
712,495,32,0.101319756813424,1
713,493,32,0.158712020088298,1
713,494,32,0.149949527259645,1
713,495,32,0.119273346156275,1
714,492,32,0.135657385687288,1
714,493,32,0.144500682189394,1
714,494,32,0.142725735496102,1
714,495,32,0.133293044930473,1
714,496,32,0.119220896751087,1
715,491,32,0.109343905803575,1
715,492,32,0.116357453336689,1
715,493,32,0.120120412219735,1
715,494,32,0.120727093345777,1
715,495,32,0.128259296326154,1
715,496,32,0.1245771629024,1
715,497,32,0.103974045289298,1
716,494,32,0.110772729994309,1
716,495,32,0.111634142032147,1
716,496,32,0.108422833248144,1
679,512,33,0.099951105107478,1
687,517,33,0.101274954237405,1
691,517,33,0.101149740133017,1
700,516,33,0.106238192976765,1
701,516,33,0.101195544857589,1
701,517,33,0.101297546151498,1
702,515,33,0.115963282168237,1
702,516,33,0.113204399883722,1
703,514,33,0.0998018939024412,1
703,515,33,0.115652801296784,1
703,516,33,0.110759549562268,1
704,482,33,0.100047463869323,1
704,514,33,0.110939947194522,1
704,515,33,0.133642271914958,1
704,516,33,0.136896890945072,1
705,514,33,0.14467241995101,1
705,515,33,0.196038894698575,1
705,516,33,0.202061371778495,1
705,517,33,0.142586012023551,1
706,486,33,0.102543173229784,1
706,513,33,0.105730539377733,1
706,514,33,0.162911447344436,1
706,515,33,0.218581398510828,1
706,516,33,0.212297338873035,1
706,517,33,0.147932790442378,1
707,486,33,0.111991179239586,1
707,487,33,0.1034569148507,1
707,513,33,0.106113730483791,1
707,514,33,0.138403730221985,1
707,515,33,0.161766961019454,1
707,516,33,0.158406277636628,1
707,517,33,0.143020399849106,1
707,518,33,0.135169099698313,1
708,488,33,0.110238029277296,1
708,511,33,0.101798195603585,1
708,512,33,0.100480446508322,1
708,513,33,0.108619395972256,1
708,514,33,0.128055184809146,1
708,515,33,0.14396076376416,1
708,516,33,0.156007667756507,1
708,517,33,0.168077947953118,1
708,518,33,0.158361976134884,1
708,519,33,0.115001851347755,1
709,489,33,0.100054729446324,1
709,514,33,0.124005099473074,1
709,515,33,0.148692974583559,1
709,516,33,0.168457718682597,1
709,517,33,0.174922851313625,1
709,518,33,0.149293827997914,1
709,519,33,0.105533235935126,1
710,515,33,0.12784616058565,1
710,516,33,0.152163338768219,1
710,517,33,0.160315751880089,1
710,518,33,0.134197745428584,1
711,492,33,0.110930317854089,1
711,493,33,0.105921459569782,1
711,516,33,0.117904422127352,1
711,517,33,0.133500173786056,1
711,518,33,0.118364048846328,1
712,493,33,0.129960356349585,1
712,494,33,0.124379140527137,1
713,493,33,0.145129563084444,1
713,494,33,0.14194395069646,1
713,495,33,0.111502947715206,1
714,492,33,0.120938263474324,1
714,493,33,0.128371940001967,1
714,494,33,0.126431431832156,1
714,495,33,0.111228304547401,1
714,496,33,0.101080330452882,1
715,491,33,0.101000213033328,1
715,492,33,0.10282508197459,1
715,493,33,0.104923047289153,1
715,494,33,0.100869454433149,1
715,496,33,0.0998618158500911,1
715,501,33,0.100008532576667,1
716,500,33,0.100450098835871,1
716,501,33,0.102951799301805,1
716,502,33,0.100391418680992,1
700,517,34,0.123293933467581,1
703,515,34,0.100942731099544,1
703,516,34,0.105235194777219,1
704,515,34,0.126793447103597,1
704,516,34,0.139558368747514,1
705,514,34,0.119688453515126,1
705,515,34,0.175525197057888,1
705,516,34,0.202351864143506,1
705,517,34,0.150313437898999,1
706,514,34,0.131423133768973,1
706,515,34,0.189465802346923,1
706,516,34,0.206801403713766,1
706,517,34,0.154940728122185,1
706,518,34,0.116476131689651,1
707,486,34,0.100813933224792,1
707,487,34,0.100903233375098,1
707,514,34,0.120148864524272,1
707,515,34,0.15210612915741,1
707,516,34,0.160450758718695,1
707,517,34,0.146425689735408,1
707,518,34,0.135034092859707,1
708,486,34,0.104577937828065,1
708,487,34,0.110281317737569,1
708,488,34,0.107224350723471,1
708,514,34,0.121362684278956,1
708,515,34,0.149243470033183,1
708,516,34,0.161745698041484,1
708,517,34,0.165270962538115,1
708,518,34,0.153059357609853,1
708,519,34,0.114378449590984,1
709,488,34,0.111802056379179,1
709,514,34,0.120687192583326,1
709,515,34,0.148892031786132,1
709,516,34,0.163702240588125,1
709,517,34,0.166314351681468,1
709,518,34,0.145046972972268,1
709,519,34,0.105033523274076,1
710,515,34,0.120581760019919,1
710,516,34,0.137233558393902,1
710,517,34,0.149613872852286,1
710,518,34,0.133815164325992,1
711,492,34,0.107983674324048,1
711,493,34,0.101427683855292,1
711,516,34,0.105222406490264,1
711,517,34,0.120361004122614,1
711,518,34,0.115089441309772,1
712,493,34,0.118797641488793,1
712,494,34,0.109262383197465,1
713,493,34,0.125577350728833,1
713,494,34,0.12284926272645,1
714,492,34,0.105780984485816,1
714,493,34,0.111051327291726,1
714,494,34,0.109813652044341,1
715,500,34,0.101286271980289,1
715,501,34,0.108019098096773,1
715,502,34,0.10373945538481,1
716,500,34,0.106336261926899,1
716,501,34,0.115189372949063,1
716,502,34,0.11173291902202,1
717,500,34,0.100327063315292,1
717,501,34,0.109573234428166,1
717,502,34,0.108695700870145,1
718,501,34,0.100116339796426,1
718,502,34,0.101159020900041,1
700,517,35,0.111542336510462,1
701,518,35,0.108935236159878,1
703,516,35,0.1068479023343,1
703,517,35,0.104517111768135,1
704,515,35,0.123899013334524,1
704,516,35,0.143426400727638,1
705,514,35,0.102415824113264,1
705,515,35,0.15096583660626,1
705,516,35,0.181200919845945,1
705,517,35,0.147158107825952,1
706,514,35,0.109505698330105,1
706,515,35,0.156873839999967,1
706,516,35,0.183391692830745,1
706,517,35,0.153481937511167,1
706,518,35,0.118781204073959,1
707,514,35,0.109262263375356,1
707,515,35,0.147175166137172,1
707,516,35,0.163977090721391,1
707,517,35,0.148826728736476,1
707,518,35,0.130522332935879,1
707,519,35,0.104948612970144,1
708,484,35,0.109064633145177,1
708,488,35,0.100472189675688,1
708,514,35,0.118137280057712,1
708,515,35,0.156761915256811,1
708,516,35,0.169844866565077,1
708,517,35,0.158174345604387,1
708,518,35,0.142203768601449,1
708,519,35,0.112062092142549,1
709,485,35,0.120447679079431,1
709,486,35,0.107613489363326,1
709,487,35,0.103715360247889,1
709,514,35,0.117088335525648,1
709,515,35,0.145214103029128,1
709,516,35,0.156169645462661,1
709,517,35,0.15354387464884,1
709,518,35,0.140188633043282,1
709,519,35,0.107453918992281,1
710,487,35,0.109930478601066,1
710,514,35,0.106351697193182,1
710,515,35,0.117080623338966,1
710,516,35,0.125241652749798,1
710,517,35,0.136126859605077,1
710,518,35,0.130601655172342,1
711,487,35,0.104498212553597,1
711,491,35,0.102651873668904,1
711,492,35,0.114409145836844,1
711,493,35,0.106033035739528,1
711,514,35,0.10686245527414,1
711,515,35,0.108550672546021,1
711,516,35,0.102022883844664,1
711,517,35,0.107413920193559,1
711,518,35,0.104751472921323,1
712,492,35,0.129926283298822,1
712,493,35,0.12354545096826,1
712,494,35,0.101332795637517,1
712,514,35,0.118724299464884,1
713,492,35,0.125432093653409,1
713,493,35,0.12208520070609,1
713,494,35,0.108450817157163,1
714,493,35,0.102964750982546,1
715,501,35,0.109127245643831,1
715,502,35,0.108600878009885,1
716,500,35,0.100741255668944,1
716,501,35,0.111936050176314,1
716,502,35,0.113004111781298,1
717,501,35,0.102526027775212,1
717,502,35,0.106825865959078,1
718,502,35,0.101908595338076,1
687,516,36,0.103294784643679,1
694,518,36,0.103255472098857,1
703,516,36,0.10744448572439,1
703,517,36,0.106686186058203,1
704,515,36,0.117367847828264,1
704,516,36,0.141663828390377,1
705,515,36,0.124963305989519,1
705,516,36,0.150249354856275,1
705,517,36,0.133909322718191,1
706,515,36,0.125112310229094,1
706,516,36,0.152148622434593,1
706,517,36,0.143966700405038,1
706,518,36,0.116923841555195,1
707,515,36,0.134228332745254,1
707,516,36,0.160153512743878,1
707,517,36,0.15142392742365,1
707,518,36,0.127443797942078,1
707,519,36,0.102346806578215,1
708,514,36,0.110999760212982,1
708,515,36,0.151231721867155,1
708,516,36,0.168913587344503,1
708,517,36,0.154487005365331,1
708,518,36,0.133927808001805,1
708,519,36,0.109696879952211,1
709,514,36,0.115009116924756,1
709,515,36,0.140531356955099,1
709,516,36,0.148557139883106,1
709,517,36,0.143847259547743,1
709,518,36,0.135290686460659,1
709,519,36,0.110483653708774,1
710,514,36,0.115362080180473,1
710,515,36,0.126238648950952,1
710,516,36,0.121600825275051,1
710,517,36,0.123040215597256,1
710,518,36,0.122081235683559,1
711,491,36,0.101721128201363,1
711,492,36,0.114246100624624,1
711,493,36,0.106808916577049,1
711,513,36,0.103297300907978,1
711,514,36,0.121979049210026,1
711,515,36,0.126357871949866,1
711,516,36,0.105926840671788,1
712,492,36,0.140611670447195,1
712,493,36,0.133403902167563,1
712,513,36,0.11573424765246,1
712,514,36,0.12123426765637,1
712,515,36,0.116099705086318,1
713,493,36,0.13073005000909,1
713,494,36,0.100115882293826,1
713,514,36,0.10652511246433,1
714,501,36,0.100593003040783,1
714,502,36,0.101205577236026,1
715,501,36,0.112912545903831,1
715,502,36,0.116140607997321,1
716,501,36,0.111797622961129,1
716,502,36,0.117708044582864,1
716,503,36,0.100789979695818,1
717,502,36,0.103626288848883,1
687,516,37,0.112187741963698,1
688,485,37,0.1024568032747,1
689,484,37,0.110335215900989,1
689,485,37,0.106360651172634,1
690,483,37,0.107039454315653,1
690,484,37,0.103056338645851,1
693,519,37,0.105390756554057,1
694,519,37,0.122634541506295,1
695,518,37,0.105441996845231,1
696,518,37,0.126674038925059,1
696,520,37,0.143808328255087,1
699,517,37,0.100792103815032,1
700,518,37,0.129181066028404,1
700,519,37,0.132658880969688,1
701,518,37,0.111820596127389,1
703,516,37,0.109682239869018,1
703,517,37,0.111165299903662,1
704,515,37,0.109386137650701,1
704,516,37,0.138368861988132,1
704,517,37,0.127565863992862,1
705,515,37,0.103299566635139,1
705,516,37,0.122720998604731,1
705,517,37,0.118495766023383,1
706,515,37,0.100850925577858,1
706,516,37,0.12332839866343,1
706,517,37,0.128300874598138,1
706,518,37,0.112678250108157,1
707,515,37,0.116918580275298,1
707,516,37,0.144391230138861,1
707,517,37,0.145345841992022,1
707,518,37,0.124245016014973,1
707,519,37,0.102250164600474,1
708,514,37,0.103629567617515,1
708,515,37,0.131323670525201,1
708,516,37,0.151258474876322,1
708,517,37,0.147702644848859,1
708,518,37,0.131617180228786,1
708,519,37,0.111154080197049,1
709,513,37,0.101075733641046,1
709,514,37,0.110218716131835,1
709,515,37,0.128143744240957,1
709,516,37,0.13413696294033,1
709,517,37,0.134544706685909,1
709,518,37,0.132839333066537,1
709,519,37,0.116040175283754,1
710,513,37,0.100452636886008,1
710,514,37,0.116820053822563,1
710,515,37,0.129277947650363,1
710,516,37,0.11894582875944,1
710,517,37,0.115822698155081,1
710,518,37,0.117857854898448,1
710,519,37,0.10387771920621,1
711,492,37,0.107612868466941,1
711,493,37,0.105057781804783,1
711,513,37,0.112013433473188,1
711,514,37,0.125312304222704,1
711,515,37,0.134425777795808,1
711,516,37,0.112496839434433,1
712,491,37,0.109970629900654,1
712,492,37,0.142802628611619,1
712,493,37,0.139399059806525,1
712,512,37,0.11419452265296,1
712,513,37,0.129447909866175,1
712,514,37,0.117521296378808,1
712,515,37,0.111971506627796,1
713,492,37,0.147496670642695,1
713,493,37,0.136342201721618,1
713,513,37,0.106455005637376,1
715,501,37,0.10573341510836,1
715,502,37,0.109968908819446,1
716,501,37,0.111136455454039,1
716,502,37,0.11745340081442,1
716,503,37,0.105458804619312,1
717,501,37,0.100865217087641,1
717,502,37,0.107640776125527,1
717,503,37,0.103216529913282,1
718,502,37,0.101265597219948,1
687,516,38,0.111799420292771,1
688,485,38,0.115217476680191,1
689,484,38,0.123394747433315,1
689,485,38,0.114283158335205,1
690,483,38,0.110237669810968,1
690,484,38,0.101952766124791,1
693,520,38,0.116056351268531,1
694,519,38,0.11162354322192,1
694,520,38,0.129167885596363,1
695,519,38,0.138263974070677,1
695,520,38,0.145586444787821,1
696,518,38,0.109599529934733,1
696,519,38,0.146490339209923,1
696,520,38,0.1352119960135,1
697,518,38,0.143923237658061,1
697,520,38,0.1228552974036,1
698,517,38,0.101703024169916,1
699,518,38,0.144665655448285,1
699,519,38,0.142021377565011,1
700,518,38,0.12274272997822,1
700,519,38,0.12265472608528,1
701,518,38,0.108215388497909,1
703,516,38,0.10627212441958,1
703,517,38,0.111603652751749,1
704,515,38,0.0997300224226024,1
704,516,38,0.130440984616474,1
704,517,38,0.123454919918102,1
705,516,38,0.109597155278382,1
705,517,38,0.107836914025796,1
706,516,38,0.109224530303794,1
706,517,38,0.114785746726882,1
706,518,38,0.102495865282385,1
707,515,38,0.101335017793002,1
707,516,38,0.126886211202158,1
707,517,38,0.131192661387883,1
707,518,38,0.112588383526061,1
708,512,38,0.102526812065383,1
708,513,38,0.10845664486885,1
708,515,38,0.111509570609984,1
708,516,38,0.129387465058411,1
708,517,38,0.130827334669054,1
708,518,38,0.11887737765618,1
708,519,38,0.102486235941952,1
709,513,38,0.104820054739611,1
709,514,38,0.108402212952398,1
709,515,38,0.121450121740106,1
709,516,38,0.12254625439746,1
709,517,38,0.116646409800115,1
709,518,38,0.116165944927012,1
709,519,38,0.107548012026965,1
710,513,38,0.102835746142332,1
710,514,38,0.11869796038664,1
710,515,38,0.134180088006817,1
710,516,38,0.121420874252478,1
710,517,38,0.104804042148619,1
710,518,38,0.102668441798767,1
711,513,38,0.117747890880719,1
711,514,38,0.122942190218797,1
711,515,38,0.133563755754504,1
711,516,38,0.116357921732208,1
712,491,38,0.100652336770804,1
712,492,38,0.13565838783584,1
712,493,38,0.135479460747656,1
712,512,38,0.111408092176189,1
712,513,38,0.135291209320773,1
712,514,38,0.112665363784931,1
712,515,38,0.105843923772041,1
713,492,38,0.142735724302863,1
713,493,38,0.133877940218431,1
713,513,38,0.100681235685023,1
716,502,38,0.103652377389989,1
717,501,38,0.100538985055254,1
717,502,38,0.10395685626305,1
717,503,38,0.099991594087557,1
718,502,38,0.100020830682266,1
676,504,39,0.113094631938536,1
676,505,39,0.106633649509664,1
687,516,39,0.105870720352884,1
688,484,39,0.127184677183908,1
688,485,39,0.117151514456091,1
689,483,39,0.124051601344464,1
689,484,39,0.12492008288676,1
689,485,39,0.108827483404715,1
690,483,39,0.101731247723153,1
692,520,39,0.119490126138129,1
693,520,39,0.106125527515114,1
694,519,39,0.104478561727645,1
694,520,39,0.114868848806253,1
695,519,39,0.132106098007066,1
695,520,39,0.137041559802869,1
696,519,39,0.133745395179529,1
696,520,39,0.133487124069044,1
697,518,39,0.11323569524013,1
697,519,39,0.130635837152296,1
697,520,39,0.117601402905443,1
698,518,39,0.132523699844377,1
698,519,39,0.132674054805914,1
698,520,39,0.104851023308447,1
699,518,39,0.124529157808183,1
699,519,39,0.123486204381591,1
700,518,39,0.111760445428439,1
700,519,39,0.107815738191178,1
701,518,39,0.10385384192767,1
702,518,39,0.102741130247534,1
703,516,39,0.101240162253985,1
703,517,39,0.112375219993329,1
703,518,39,0.101768904544281,1
704,516,39,0.123844439810124,1
704,517,39,0.12036844398632,1
704,518,39,0.0999458656134188,1
705,516,39,0.113171612197406,1
705,517,39,0.105797705116546,1
706,516,39,0.109046485542053,1
706,517,39,0.10697604663391,1
707,516,39,0.118765104339615,1
707,517,39,0.121418183701475,1
707,518,39,0.105595303787827,1
708,512,39,0.108696376231126,1
708,513,39,0.121289211540018,1
708,514,39,0.103177282725974,1
708,515,39,0.104364523758195,1
708,516,39,0.12023075748963,1
708,517,39,0.123331622967466,1
708,518,39,0.115855747271455,1
708,519,39,0.103244121677215,1
709,512,39,0.101288908066697,1
709,513,39,0.114757621209915,1
709,514,39,0.114870395600757,1
709,515,39,0.123898022078891,1
709,516,39,0.124365600628767,1
709,517,39,0.114960131467825,1
709,518,39,0.113888311805772,1
709,519,39,0.108364033271156,1
710,513,39,0.115293923186027,1
710,514,39,0.126477236556728,1
710,515,39,0.139087870895334,1
710,516,39,0.12940135353019,1
710,517,39,0.107418059502795,1
710,518,39,0.101747347457497,1
711,503,39,0.102147346337637,1
711,513,39,0.131784942074952,1
711,514,39,0.129324503986349,1
711,515,39,0.13190809741764,1
711,516,39,0.122384418299254,1
711,517,39,0.102119046533966,1
712,492,39,0.128369107843016,1
712,493,39,0.1259802253396,1
712,512,39,0.100972588590638,1
712,513,39,0.132352277977414,1
712,514,39,0.11404933093505,1
712,515,39,0.105974943802278,1
712,516,39,0.104292249240352,1
713,493,39,0.121593930057298,1
676,504,40,0.132889723710025,1
676,505,40,0.117780482494493,1
687,486,40,0.119131346063644,1
688,483,40,0.112587381377509,1
688,485,40,0.117411168967294,1
688,517,40,0.100046788508343,1
689,483,40,0.115454354097677,1
689,484,40,0.115723289375904,1
689,517,40,0.101728578957988,1
689,518,40,0.123786119121573,1
691,518,40,0.118034657867418,1
691,520,40,0.11841382948635,1
692,519,40,0.110035660627335,1
692,520,40,0.10685233575235,1
694,520,40,0.102707460234775,1
695,519,40,0.119539329453441,1
695,520,40,0.125853725870766,1
696,519,40,0.118540132882641,1
696,520,40,0.128223055584502,1
697,519,40,0.109597503851791,1
697,520,40,0.110963661079277,1
698,518,40,0.103155180993237,1
698,519,40,0.109482866771793,1
699,518,40,0.101539456097582,1
699,519,40,0.103268075206188,1
702,518,40,0.101944062682476,1
703,517,40,0.109231883024148,1
703,518,40,0.100472102532336,1
704,516,40,0.116590202337859,1
704,517,40,0.113975073905941,1
705,515,40,0.101656304440145,1
705,516,40,0.121963014833196,1
705,517,40,0.104437255778638,1
706,516,40,0.110397566969585,1
707,516,40,0.107419116115942,1
707,517,40,0.108196467497533,1
708,512,40,0.1032542956636,1
708,513,40,0.120934712382716,1
708,514,40,0.101675497763497,1
708,516,40,0.105869326059247,1
708,517,40,0.11083468891782,1
708,518,40,0.10881980389679,1
708,519,40,0.101613680447933,1
709,513,40,0.1186918167803,1
709,514,40,0.115256854582528,1
709,515,40,0.115652104149965,1
709,516,40,0.117002564681111,1
709,517,40,0.110557170019388,1
709,518,40,0.109796778912745,1
709,519,40,0.106992440477068,1
709,520,40,0.102203357727351,1
710,513,40,0.120620092202027,1
710,514,40,0.125579866993132,1
710,515,40,0.129598831259501,1
710,516,40,0.127774605000463,1
710,517,40,0.110633823490686,1
710,518,40,0.102498795477607,1
711,513,40,0.132231628006105,1
711,514,40,0.127776097330372,1
711,515,40,0.121895903558979,1
711,516,40,0.122395561755434,1
711,517,40,0.108357530198488,1
712,492,40,0.124288010366432,1
712,493,40,0.115994239844154,1
712,513,40,0.1144574014682,1
712,514,40,0.106496943375687,1
712,516,40,0.104234484090672,1
713,493,40,0.102697591250123,1
677,504,41,0.104755176513797,1
687,487,41,0.11182330846423,1
688,485,41,0.110513021018511,1
688,486,41,0.101769307582286,1
688,517,41,0.10231832159492,1
688,518,41,0.109457518949183,1
689,484,41,0.099712778931759,1
689,517,41,0.113995334735359,1
689,518,41,0.123596015898453,1
689,519,41,0.121260704770885,1
690,517,41,0.0998883836796344,1
690,518,41,0.126394341442818,1
691,518,41,0.108266454502378,1
691,519,41,0.117380472721434,1
692,519,41,0.101879652852181,1
695,519,41,0.101975597683103,1
695,520,41,0.112706473661395,1
696,519,41,0.102885766426573,1
696,520,41,0.120722300461398,1
697,520,41,0.106229326140664,1
703,517,41,0.106293234896684,1
704,516,41,0.109448205503402,1
704,517,41,0.107165659675673,1
705,515,41,0.111237879423239,1
705,516,41,0.13313548974945,1
705,517,41,0.108333565776595,1
706,515,41,0.115073472290456,1
706,516,41,0.12669142402385,1
706,517,41,0.105777368036694,1
707,515,41,0.106285228601188,1
707,516,41,0.115585178055371,1
707,517,41,0.110558106810425,1
708,513,41,0.119330632017516,1
708,514,41,0.11191507041424,1
708,515,41,0.107138993809859,1
708,516,41,0.110858849412255,1
708,517,41,0.112745263346104,1
708,518,41,0.107819332854462,1
708,519,41,0.100864073331142,1
709,513,41,0.130490699898981,1
709,514,41,0.127730564928777,1
709,515,41,0.121096886161413,1
709,516,41,0.118460745288663,1
709,517,41,0.114310641169948,1
709,518,41,0.10803629801594,1
709,519,41,0.103104724992235,1
709,520,41,0.102272255440291,1
710,513,41,0.132170616766551,1
710,514,41,0.133630050059793,1
710,515,41,0.128522240498908,1
710,516,41,0.126901210751679,1
710,517,41,0.116397168919516,1
710,518,41,0.102897454528705,1
711,492,41,0.100706953866881,1
711,513,41,0.130943420507284,1
711,514,41,0.130092934067245,1
711,515,41,0.121139804262438,1
711,516,41,0.123184928026728,1
711,517,41,0.113810057075374,1
712,492,41,0.116871544650875,1
712,493,41,0.102711523293577,1
712,513,41,0.100570367555014,1
712,514,41,0.102222877838274,1
712,516,41,0.105390506016919,1
712,517,41,0.100250279128965,1
688,517,42,0.102717459934455,1
688,518,42,0.108683152227409,1
689,516,42,0.100346910213787,1
689,517,42,0.121269724107852,1
689,518,42,0.116869474996257,1
690,517,42,0.102608759495336,1
690,518,42,0.111333584609942,1
690,519,42,0.10684972145178,1
691,519,42,0.100298959584164,1
703,517,42,0.104941325607305,1
704,516,42,0.100549790830943,1
704,517,42,0.101244007454406,1
705,515,42,0.11228425322641,1
705,516,42,0.135401750663211,1
705,517,42,0.110182693248563,1
706,515,42,0.125258013914199,1
706,516,42,0.140621136393843,1
706,517,42,0.114714986324785,1
707,514,42,0.101014657043978,1
707,515,42,0.116537273644234,1
707,516,42,0.123912825555869,1
707,517,42,0.115188980803977,1
707,518,42,0.100054642302972,1
708,513,42,0.116321550275527,1
708,514,42,0.11872297052876,1
708,515,42,0.11593118073582,1
708,516,42,0.115555298778439,1
708,517,42,0.115344858475468,1
708,518,42,0.107244437266185,1
709,512,42,0.10082771276738,1
709,513,42,0.143496213445778,1
709,514,42,0.14157340626941,1
709,515,42,0.126471278130012,1
709,516,42,0.121281673640041,1
709,517,42,0.119418897340513,1
709,518,42,0.108476469981507,1
710,512,42,0.108151773850704,1
710,513,42,0.148901813627432,1
710,514,42,0.148458330214476,1
710,515,42,0.131193097104645,1
710,516,42,0.127729519208549,1
710,517,42,0.123070802913926,1
710,518,42,0.105446898658799,1
711,512,42,0.100282162703001,1
711,513,42,0.12915848500723,1
711,514,42,0.132317180992261,1
711,515,42,0.120902545592785,1
711,516,42,0.123652321396981,1
711,517,42,0.120922185525818,1
711,518,42,0.100743782826162,1
712,492,42,0.103078244306044,1
712,516,42,0.107387199863149,1
712,517,42,0.108781678680143,1
689,516,43,0.113854707150527,1
689,517,43,0.11684339734807,1
689,518,43,0.105825721704322,1
690,517,43,0.100477265775962,1
703,517,43,0.102261253592059,1
705,515,43,0.103465030075386,1
705,516,43,0.1259254230639,1
705,517,43,0.107549580607307,1
706,490,43,0.106249009645373,1
706,515,43,0.126186221331603,1
706,516,43,0.143275250583012,1
706,517,43,0.117953549192232,1
707,514,43,0.107387276113582,1
707,515,43,0.123900952274114,1
707,516,43,0.126972112761723,1
707,517,43,0.112907426231881,1
708,513,43,0.114992777546193,1
708,514,43,0.126989693933057,1
708,515,43,0.124061666401659,1
708,516,43,0.11604931444283,1
708,517,43,0.109295312491729,1
708,518,43,0.100130663984966,1
709,512,43,0.104270724832325,1
709,513,43,0.152562226570616,1
709,514,43,0.15410464212112,1
709,515,43,0.133004023109533,1
709,516,43,0.12068976331222,1
709,517,43,0.114769407348319,1
709,518,43,0.103241605412916,1
710,512,43,0.122736608157718,1
710,513,43,0.162719165537507,1
710,514,43,0.158346431939412,1
710,515,43,0.135215645141379,1
710,516,43,0.125694362465182,1
710,517,43,0.119741534709617,1
710,518,43,0.102683027417364,1
711,512,43,0.109157527958767,1
711,513,43,0.126194336556289,1
711,514,43,0.128036438095475,1
711,515,43,0.121217950063645,1
711,516,43,0.12295591529679,1
711,517,43,0.121550227666101,1
711,518,43,0.0999548413787094,1
712,516,43,0.111024345531259,1
712,517,43,0.118092499267531,1
689,516,44,0.116551652297369,1
689,517,44,0.104905640404523,1
690,516,44,0.100008107752825,1
705,516,44,0.110636328862066,1
705,517,44,0.101973833030218,1
706,490,44,0.105185163600059,1
706,515,44,0.116719250749749,1
706,516,44,0.129123616773377,1
707,514,44,0.110562845230209,1
707,515,44,0.12048850574,1
707,516,44,0.116993730523768,1
707,517,44,0.10163463842417,1
708,513,44,0.112706844020643,1
708,514,44,0.130858651811299,1
708,515,44,0.122513477604063,1
708,516,44,0.109057825070776,1
708,517,44,0.100254353080687,1
709,512,44,0.107232291661453,1
709,513,44,0.151135428462824,1
709,514,44,0.158361932563208,1
709,515,44,0.131704595904098,1
709,516,44,0.115967138261578,1
709,517,44,0.11114531139722,1
709,518,44,0.101923072027482,1
710,512,44,0.132847611685009,1
710,513,44,0.164626798877649,1
710,514,44,0.157471033393523,1
710,515,44,0.131465648831994,1
710,516,44,0.121673056221218,1
710,517,44,0.117750102143285,1
710,518,44,0.103380511916539,1
711,513,44,0.119877227802123,1
711,514,44,0.120579254648539,1
711,515,44,0.119984719127229,1
711,516,44,0.121946795276743,1
711,517,44,0.120871413630163,1
712,515,44,0.10495513782865,1
712,516,44,0.116691789700844,1
712,517,44,0.125645072006517,1
712,518,44,0.102495527601894,1
713,517,44,0.099961235522187,1
689,515,45,0.100789435049866,1
689,516,45,0.108394500765716,1
705,516,45,0.100146665683038,1
705,517,45,0.100050263349517,1
706,515,45,0.108618252215757,1
706,516,45,0.112792288077608,1
707,514,45,0.11669603793927,1
707,515,45,0.117348774327022,1
708,513,45,0.114030987259383,1
708,514,45,0.137560367750999,1
708,515,45,0.122855286510681,1
708,516,45,0.105389612797558,1
709,512,45,0.113360430056079,1
709,513,45,0.146616076174424,1
709,514,45,0.160386632104295,1
709,515,45,0.132838330917985,1
709,516,45,0.113457115605496,1
709,517,45,0.108836851315091,1
709,518,45,0.103008017656981,1
710,511,45,0.105983745280863,1
710,512,45,0.13810372833865,1
710,513,45,0.157997586207093,1
710,514,45,0.15108692229433,1
710,515,45,0.129819216797558,1
710,516,45,0.119364138636489,1
710,517,45,0.114930426477597,1
710,518,45,0.105014983525867,1
711,513,45,0.116498505745364,1
711,514,45,0.117072399185089,1
711,515,45,0.122376662540896,1
711,516,45,0.122328907983816,1
711,517,45,0.116642117990013,1
712,515,45,0.113133824661249,1
712,516,45,0.120868755757917,1
712,517,45,0.124917087334024,1
712,518,45,0.103850563159038,1
713,517,45,0.102959729346868,1
687,513,46,0.104477592257851,1
687,514,46,0.10124089207956,1
688,514,46,0.106231853297882,1
689,515,46,0.107731100210222,1
701,516,46,0.102460909905179,1
701,517,46,0.100488006194137,1
707,514,46,0.114548215734253,1
707,515,46,0.112291682197196,1
708,513,46,0.109127528859726,1
708,514,46,0.134468194822558,1
708,515,46,0.121630693659064,1
708,516,46,0.102094711752826,1
709,511,46,0.103536062800459,1
709,512,46,0.120158820652276,1
709,513,46,0.136279894224698,1
709,514,46,0.151072391140328,1
709,515,46,0.128877600196814,1
709,516,46,0.108238535950873,1
709,517,46,0.102349965524737,1
710,511,46,0.108773476312105,1
710,512,46,0.135921549866974,1
710,513,46,0.143819286531643,1
710,514,46,0.138446223499168,1
710,515,46,0.122264040650921,1
710,516,46,0.111397340865094,1
710,517,46,0.106651143537645,1
710,518,46,0.101177702256198,1
711,513,46,0.110291666010659,1
711,514,46,0.113069556438902,1
711,515,46,0.119314031208896,1
711,516,46,0.116420261907885,1
711,517,46,0.107325720228076,1
712,516,46,0.119564720847728,1
712,517,46,0.115312757043051,1
688,514,47,0.11320362648647,1
689,514,47,0.105583310683962,1
700,516,47,0.110528576106903,1
701,516,47,0.111780749829533,1
701,517,47,0.10849542366064,1
706,511,47,0.117701356330572,1
706,512,47,0.106662395923016,1
707,511,47,0.118746259589672,1
707,514,47,0.108678065234216,1
707,515,47,0.107869494746651,1
708,511,47,0.103665797466248,1
708,513,47,0.103425913603106,1
708,514,47,0.126148412009608,1
708,515,47,0.120144365748708,1
708,516,47,0.100302205674039,1
709,511,47,0.115577171759875,1
709,512,47,0.13152003717677,1
709,513,47,0.127425279979707,1
709,514,47,0.134959639758055,1
709,515,47,0.122016324778988,1
709,516,47,0.105796365287504,1
709,517,47,0.100126622712001,1
710,513,47,0.129702466491267,1
710,514,47,0.124892981304184,1
710,515,47,0.114604793555757,1
710,516,47,0.10692749689374,1
710,517,47,0.103480073196583,1
710,518,47,0.102981689471656,1
711,514,47,0.110549196402649,1
711,516,47,0.109550991087482,1
711,517,47,0.0998912049456663,1
688,487,48,0.123588695856857,1
701,516,48,0.105783021461677,1
706,511,48,0.117365233527694,1
706,512,48,0.107250951231772,1
707,511,48,0.121753663822129,1
707,512,48,0.102319018741739,1
707,514,48,0.102290217863792,1
707,515,48,0.106356893115565,1
708,511,48,0.109234323038013,1
708,513,48,0.10104942724156,1
708,514,48,0.117381071831981,1
708,515,48,0.122704550296978,1
708,516,48,0.106249009645373,1
709,512,48,0.137668512651248,1
709,513,48,0.120616432181229,1
709,514,48,0.119363724705566,1
709,515,48,0.117004427370267,1
709,516,48,0.109073260337059,1
709,517,48,0.104524083236322,1
710,513,48,0.120372038649604,1
710,514,48,0.113058685305698,1
710,515,48,0.105730212590162,1
710,516,48,0.103506586561531,1
710,517,48,0.1059687784101,1
707,515,49,0.104571587256264,1
708,514,49,0.110638649053822,1
708,515,49,0.124757473391302,1
708,516,49,0.111079616202478,1
709,513,49,0.109937635248876,1
709,514,49,0.109478901749262,1
709,515,49,0.114515526084208,1
709,516,49,0.111057372861795,1
709,517,49,0.101181983173382,1
710,514,49,0.105349396140455,1
710,516,49,0.100588493372299,1
708,514,50,0.0998101616279941,1
708,515,50,0.116734076012565,1
708,516,50,0.1063251075778,1
709,515,50,0.108188668167499,1
709,516,50,0.106613127250189,1
708,515,51,0.111290426864697,1
709,515,51,0.107785575698351,1
709,516,51,0.104852090814513,1
