x,y,z,signal,mito.p
763,522,19,0.133866164972947,1
764,522,19,0.12709960348619,1
762,522,20,0.110226951178631,1
763,521,20,0.12851870030022,1
763,522,20,0.156450650095187,1
763,523,20,0.130080951856299,1
764,521,20,0.120690177243143,1
764,522,20,0.148704804293639,1
764,523,20,0.129921022018925,1
765,522,20,0.111618249263265,1
760,531,21,0.106343266073843,1
760,532,21,0.143461192711058,1
760,533,21,0.125892123410389,1
761,531,21,0.131297211624848,1
761,532,21,0.192934303842426,1
761,533,21,0.170474836752031,1
762,521,21,0.100016713158868,1
762,522,21,0.118109252577017,1
762,523,21,0.108283861387007,1
762,531,21,0.122483075467017,1
762,532,21,0.173336635335654,1
762,533,21,0.152770902220703,1
763,521,21,0.131418515171299,1
763,522,21,0.162922046154663,1
763,523,21,0.140974905725568,1
763,524,21,0.111777460167983,1
764,521,21,0.127744714830612,1
764,522,21,0.16277381531234,1
764,523,21,0.14957584567191,1
764,524,21,0.122251121648937,1
764,525,21,0.108220257632721,1
764,526,21,0.114891767507917,1
764,527,21,0.113975117477617,1
765,522,21,0.122042652964312,1
765,523,21,0.130434797438458,1
765,524,21,0.121448618517278,1
765,525,21,0.107145377060417,1
765,526,21,0.101051943505859,1
766,523,21,0.108396581313253,1
766,524,21,0.120290341756789,1
766,525,21,0.105091506282136,1
760,531,22,0.117413314872345,1
760,532,22,0.175399972060582,1
760,533,22,0.152167892008378,1
761,531,22,0.144307975558623,1
761,532,22,0.219821470200402,1
761,533,22,0.188246165773471,1
762,522,22,0.108520150586865,1
762,523,22,0.103007091758862,1
762,531,22,0.131446237650261,1
762,532,22,0.185826216664947,1
762,533,22,0.157722496429607,1
763,521,22,0.113653721901284,1
763,522,22,0.142033708349366,1
763,523,22,0.133820719714704,1
763,524,22,0.118852258584869,1
763,525,22,0.116147121962908,1
763,526,22,0.118984128262791,1
763,527,22,0.106243835508828,1
763,532,22,0.105395233543783,1
764,521,22,0.11343807478301,1
764,522,22,0.150755222016583,1
764,523,22,0.153706244500079,1
764,524,22,0.136450128763485,1
764,525,22,0.122992657112719,1
764,526,22,0.129361605268606,1
764,527,22,0.119303062039421,1
765,522,22,0.119173207551522,1
765,523,22,0.138857659944302,1
765,524,22,0.132322943346434,1
765,525,22,0.111858830273226,1
765,526,22,0.105194237401621,1
766,523,22,0.106940448574481,1
766,524,22,0.114125603154182,1
766,525,22,0.0999428918465204,1
767,524,22,0.105045788700917,1
760,531,23,0.116298522644672,1
760,532,23,0.185328954910681,1
760,533,23,0.163975347854345,1
761,531,23,0.145311333224497,1
761,532,23,0.224977720572267,1
761,533,23,0.190155498408984,1
762,521,23,0.0998459230812088,1
762,522,23,0.110629215785931,1
762,523,23,0.109841592381683,1
762,524,23,0.103495857036275,1
762,525,23,0.102003559806283,1
762,531,23,0.137259527112898,1
762,532,23,0.186410861415767,1
762,533,23,0.152383157874485,1
763,521,23,0.109740048590374,1
763,522,23,0.136869310074058,1
763,523,23,0.14599099690812,1
763,524,23,0.136072057329377,1
763,525,23,0.130273952595884,1
763,526,23,0.127010020119989,1
763,527,23,0.109224976913475,1
763,532,23,0.10438845550133,1
764,521,23,0.113918833764927,1
764,522,23,0.153512840722489,1
764,523,23,0.175505578910694,1
764,524,23,0.160526137718465,1
764,525,23,0.137054467911933,1
764,526,23,0.131750760094998,1
764,527,23,0.119721535310256,1
765,522,23,0.132965113602715,1
765,523,23,0.166979669390713,1
765,524,23,0.155772043024711,1
765,525,23,0.123148937822214,1
765,526,23,0.112431253168881,1
765,527,23,0.108908112791463,1
766,522,23,0.102066237662451,1
766,523,23,0.133330843359549,1
766,524,23,0.130157038895807,1
766,525,23,0.106124481794886,1
767,524,23,0.102168271635117,1
760,531,24,0.108939429933709,1
760,532,24,0.170927840576229,1
760,533,24,0.156886584715246,1
761,531,24,0.137439695993852,1
761,532,24,0.213254673955956,1
761,533,24,0.182724414396072,1
762,522,24,0.107979349835189,1
762,523,24,0.117635759172101,1
762,524,24,0.110004082055032,1
762,525,24,0.107131216265663,1
762,526,24,0.110437805412526,1
762,527,24,0.106929283332463,1
762,530,24,0.100640507060725,1
762,531,24,0.132347637593902,1
762,532,24,0.175537255519268,1
762,533,24,0.143388308189748,1
763,521,24,0.104686039156638,1
763,522,24,0.132857164775009,1
763,523,24,0.162939649111835,1
763,524,24,0.152691503733806,1
763,525,24,0.134029035898462,1
763,526,24,0.124964253673476,1
763,527,24,0.114713352386929,1
763,528,24,0.103396568079207,1
763,532,24,0.101477105028985,1
764,521,24,0.114444700324597,1
764,522,24,0.151091323033623,1
764,523,24,0.189090301641708,1
764,524,24,0.174645386879788,1
764,525,24,0.140966071568225,1
764,526,24,0.124279916927583,1
764,527,24,0.118332394023592,1
764,528,24,0.108243394192766,1
765,521,24,0.101671162381718,1
765,522,24,0.146201644176553,1
765,523,24,0.191056582457973,1
765,524,24,0.169138014155525,1
765,525,24,0.128112851922554,1
765,526,24,0.115428919131714,1
765,527,24,0.118930654923214,1
765,528,24,0.106791237369444,1
766,522,24,0.124801132210822,1
766,523,24,0.172603073488611,1
766,524,24,0.14853913388793,1
766,525,24,0.109850796898274,1
766,526,24,0.102026140827457,1
766,527,24,0.107792165914372,1
767,523,24,0.109615259309829,1
767,524,24,0.102515777538393,1
760,531,25,0.0999479461609559,1
760,532,25,0.140839877101124,1
760,533,25,0.136253054072178,1
760,534,25,0.100341115180856,1
761,526,25,0.100931228177036,1
761,527,25,0.106585807809232,1
761,531,25,0.127084876259645,1
761,532,25,0.189783222007806,1
761,533,25,0.171878313120154,1
761,534,25,0.119868317394346,1
761,535,25,0.104946619565959,1
762,522,25,0.0999942083881271,1
762,523,25,0.128239830679826,1
762,524,25,0.123534852158032,1
762,525,25,0.115740195186257,1
762,526,25,0.119841716886046,1
762,527,25,0.120846403488043,1
762,528,25,0.106433448550592,1
762,530,25,0.10384974619011,1
762,531,25,0.130439623001593,1
762,532,25,0.171065494394162,1
762,533,25,0.148911203323646,1
762,534,25,0.112308174076626,1
762,535,25,0.103856859266244,1
763,522,25,0.123893915448412,1
763,523,25,0.180765671479785,1
763,524,25,0.174605845583666,1
763,525,25,0.14115964963252,1
763,526,25,0.126959019473035,1
763,527,25,0.123623945342877,1
763,528,25,0.113842049578601,1
763,529,25,0.104243329140934,1
763,530,25,0.102976351941326,1
763,531,25,0.105755092017254,1
763,532,25,0.114584815942234,1
763,533,25,0.105774165518496,1
764,521,25,0.10959842974991,1
764,522,25,0.137896860913124,1
764,523,25,0.188079111967043,1
764,524,25,0.182179398084727,1
764,525,25,0.147532301380881,1
764,526,25,0.127598270427012,1
764,527,25,0.124428529022073,1
764,528,25,0.115548882849123,1
764,529,25,0.101045331504,1
765,521,25,0.103602651214562,1
765,522,25,0.141680614378621,1
765,523,25,0.190266083323098,1
765,524,25,0.169890344502077,1
765,525,25,0.136427885422802,1
765,526,25,0.127659281666566,1
765,527,25,0.131138262150188,1
765,528,25,0.115686852561709,1
766,522,25,0.128511630795761,1
766,523,25,0.187117441502343,1
766,524,25,0.153702301263386,1
766,525,25,0.11468536847791,1
766,526,25,0.113134031626711,1
766,527,25,0.121498213977676,1
740,510,26,0.111521476570496,1
760,532,26,0.12045962861162,1
760,533,26,0.138798042998385,1
760,534,26,0.153116599899419,1
760,535,26,0.148622268646058,1
761,527,26,0.101613124909062,1
761,528,26,0.101284463755728,1
761,531,26,0.121830317293427,1
761,532,26,0.17555610026921,1
761,533,26,0.1955426568787,1
761,534,26,0.197578979164404,1
762,523,26,0.122423545664452,1
762,524,26,0.120730655330303,1
762,525,26,0.108082974174035,1
762,526,26,0.108863255750849,1
762,527,26,0.117198887761004,1
762,528,26,0.11213678488842,1
762,529,26,0.101255880736162,1
762,530,26,0.10470363122089,1
762,531,26,0.129711660114938,1
762,532,26,0.17538498340398,1
762,533,26,0.182232904103061,1
762,534,26,0.171233746421684,1
763,522,26,0.105123270034063,1
763,523,26,0.167867660151013,1
763,524,26,0.167665825254085,1
763,525,26,0.133374415035716,1
763,526,26,0.120176347359015,1
763,527,26,0.123841128362735,1
763,528,26,0.119550069871616,1
763,529,26,0.10699889997806,1
763,530,26,0.102893402362821,1
763,531,26,0.113343121207722,1
763,532,26,0.135971755330839,1
764,522,26,0.112507601638446,1
764,523,26,0.159821452999802,1
764,524,26,0.1656665824648,1
764,525,26,0.142734264651712,1
764,526,26,0.126748426669196,1
764,527,26,0.123583434576959,1
764,528,26,0.11521248772327,1
764,529,26,0.100057452676085,1
765,523,26,0.164614696844594,1
765,524,26,0.157427036893513,1
765,525,26,0.140688214989303,1
765,526,26,0.135686720318268,1
765,527,26,0.134052085315155,1
730,520,27,0.104565770437495,1
730,521,27,0.11401420127114,1
730,522,27,0.109746715056828,1
730,526,27,0.128470466454702,1
730,527,27,0.119976647474219,1
731,520,27,0.102070932510558,1
731,521,27,0.109289059956199,1
731,525,27,0.103822677286291,1
731,526,27,0.134150688018323,1
731,527,27,0.133597425767263,1
732,526,27,0.0999607235549921,1
740,510,27,0.111705719403172,1
759,534,27,0.13454468490007,1
759,535,27,0.147471322820084,1
759,536,27,0.114223693890155,1
760,531,27,0.10037950182756,1
760,532,27,0.114031880478745,1
760,533,27,0.152894144706744,1
760,534,27,0.216110644827892,1
760,535,27,0.21388964399275,1
760,536,27,0.133462299106547,1
761,527,27,0.105988570843999,1
761,528,27,0.110516877111852,1
761,529,27,0.102621525996453,1
761,530,27,0.10429716194684,1
761,531,27,0.124913122311493,1
761,532,27,0.163304104397141,1
761,533,27,0.218911889674561,1
761,534,27,0.277108050374731,1
761,535,27,0.24344463872497,1
762,523,27,0.111328105471664,1
762,524,27,0.118044483280394,1
762,525,27,0.109046365719944,1
762,526,27,0.10870246537287,1
762,527,27,0.120055305242621,1
762,528,27,0.122911188971204,1
762,529,27,0.110355389587055,1
762,530,27,0.108441950321063,1
762,531,27,0.132493319493169,1
762,532,27,0.175812116545453,1
762,533,27,0.211397518402654,1
762,534,27,0.227947631377381,1
763,523,27,0.14129404646766,1
763,524,27,0.150388555468712,1
763,525,27,0.131883806208176,1
763,526,27,0.124385196990124,1
763,527,27,0.129198799700605,1
763,528,27,0.127524830366831,1
763,529,27,0.111290274363831,1
763,530,27,0.103500355811839,1
763,531,27,0.119146890259116,1
763,532,27,0.153196717318972,1
764,523,27,0.132806425558112,1
764,524,27,0.147922028238365,1
764,525,27,0.143751096858441,1
764,526,27,0.134543050962214,1
764,527,27,0.12848560761217,1
764,528,27,0.118505188398354,1
764,529,27,0.101961022957424,1
726,521,28,0.102827914133541,1
726,522,28,0.108805730245388,1
727,521,28,0.10988517495077,1
727,522,28,0.118306447090434,1
727,523,28,0.116489028905797,1
728,522,28,0.115376709370746,1
729,520,28,0.102717002431856,1
729,521,28,0.113419872715291,1
729,522,28,0.119086663309733,1
729,526,28,0.113374895852567,1
730,520,28,0.108836938458443,1
730,521,28,0.123570112536971,1
730,522,28,0.128592042324129,1
730,523,28,0.12139969841786,1
730,524,28,0.111748986077607,1
730,525,28,0.119235820050175,1
730,526,28,0.134149348189281,1
730,527,28,0.132489583221938,1
730,528,28,0.104689677391598,1
731,520,28,0.102467772444176,1
731,521,28,0.112698129685409,1
731,522,28,0.111316558977479,1
731,523,28,0.100345973422749,1
731,525,28,0.108109716290283,1
731,526,28,0.14313075601192,1
731,527,28,0.154524727543973,1
731,528,28,0.11646670931468,1
732,526,28,0.108156893522654,1
732,527,28,0.115137588011937,1
740,509,28,0.136201225563377,1
741,509,28,0.121612513377183,1
758,535,28,0.119083667756997,1
758,536,28,0.113887778052739,1
759,534,28,0.158873856186504,1
759,535,28,0.18941216561356,1
759,536,28,0.1488905830279,1
760,531,28,0.104279591668425,1
760,532,28,0.109419252124588,1
760,533,28,0.154057857033834,1
760,534,28,0.247722549462805,1
760,535,28,0.241143291718975,1
760,536,28,0.145963339786672,1
761,525,28,0.100692705928774,1
761,526,28,0.100359938144961,1
761,527,28,0.109737968042837,1
761,528,28,0.118314300885063,1
761,529,28,0.111511030261135,1
761,530,28,0.1077195319302,1
761,531,28,0.122525732137985,1
761,532,28,0.147226809466349,1
761,533,28,0.214667376626508,1
761,534,28,0.307483238339134,1
761,535,28,0.251443134890777,1
762,524,28,0.113267785779627,1
762,525,28,0.108686616175664,1
762,526,28,0.106836268696763,1
762,527,28,0.120837090042262,1
762,528,28,0.130387075560135,1
762,529,28,0.118684148165295,1
762,530,28,0.107112698303291,1
762,531,28,0.123170385979807,1
762,532,28,0.158410264444997,1
762,533,28,0.206734129045763,1
762,534,28,0.244185008646414,1
762,535,28,0.185678900827823,1
763,523,28,0.112322443800571,1
763,524,28,0.130511962876951,1
763,525,28,0.126106866416382,1
763,526,28,0.120064259222073,1
763,527,28,0.125717662419013,1
763,528,28,0.128586312648713,1
763,529,28,0.11363477911507,1
763,530,28,0.0999834243982755,1
763,531,28,0.112315886263308,1
763,532,28,0.147728537317422,1
763,534,28,0.178724883097274,1
764,523,28,0.109723763676406,1
764,524,28,0.130206721499557,1
764,525,28,0.136677583806001,1
764,526,28,0.129535260183973,1
764,527,28,0.122924892263359,1
764,528,28,0.115552292332784,1
764,529,28,0.100851165222077,1
725,522,29,0.101702947919482,1
726,520,29,0.103422046616846,1
726,521,29,0.111752177702886,1
726,522,29,0.1179691478523,1
726,523,29,0.119629032641752,1
727,520,29,0.101356291663891,1
727,521,29,0.11329959310323,1
727,522,29,0.121559933256968,1
727,523,29,0.121569638847834,1
728,518,29,0.104788040450546,1
728,519,29,0.103582804316068,1
728,520,29,0.105182592871165,1
728,521,29,0.116085261075669,1
728,522,29,0.124043987194054,1
729,518,29,0.0998247690324294,1
729,519,29,0.102957725049764,1
729,520,29,0.11160046112647,1
729,521,29,0.130660324434302,1
729,522,29,0.146194171634091,1
729,523,29,0.141310462096656,1
729,524,29,0.125397672029236,1
729,525,29,0.121538594028565,1
729,526,29,0.115895756963096,1
729,527,29,0.10095903779935,1
730,520,29,0.110450462984453,1
730,521,29,0.136201236456296,1
730,522,29,0.157660766257396,1
730,523,29,0.149337116458187,1
730,524,29,0.126134578002425,1
730,525,29,0.125814293503834,1
730,526,29,0.135348702147477,1
730,527,29,0.135744801362599,1
730,528,29,0.1102866552679,1
731,521,29,0.114654323658641,1
731,522,29,0.126642798033246,1
731,523,29,0.1193892577078,1
731,524,29,0.106837695669158,1
731,525,29,0.118430898690488,1
731,526,29,0.144877392008622,1
731,527,29,0.161398867499188,1
731,528,29,0.124375894437262,1
732,526,29,0.113819555700779,1
732,527,29,0.124271867060411,1
757,516,29,0.103384858191237,1
758,516,29,0.110558324668806,1
758,517,29,0.100259254894256,1
758,535,29,0.131819134947824,1
758,536,29,0.122257297934034,1
759,516,29,0.107589241725539,1
759,533,29,0.102086923315711,1
759,534,29,0.174328010790581,1
759,535,29,0.216713458967674,1
759,536,29,0.165772973605082,1
760,530,29,0.100051428891854,1
760,531,29,0.116113081590902,1
760,532,29,0.121957154442752,1
760,533,29,0.163480417184754,1
760,534,29,0.259040226989888,1
760,535,29,0.244013859102426,1
760,536,29,0.148437045450668,1
761,524,29,0.100127461466767,1
761,525,29,0.10529646744683,1
761,526,29,0.102338179386333,1
761,527,29,0.110950894578159,1
761,528,29,0.120022713628847,1
761,529,29,0.118681762616025,1
761,530,29,0.116621944303947,1
761,531,29,0.131108404659094,1
761,532,29,0.152650579036965,1
761,533,29,0.211570040454441,1
761,534,29,0.297754336625997,1
761,535,29,0.229468522519858,1
762,524,29,0.108211663119597,1
762,525,29,0.110548009074474,1
762,526,29,0.107717636562287,1
762,527,29,0.119648520073918,1
762,528,29,0.129880206251274,1
762,529,29,0.124418376821526,1
762,530,29,0.112634765575342,1
762,531,29,0.120739554845161,1
762,532,29,0.150643395309699,1
762,533,29,0.200227744930323,1
762,534,29,0.240739905141013,1
762,535,29,0.17793504843046,1
763,524,29,0.115722450621138,1
763,525,29,0.121934671457849,1
763,526,29,0.117531590187303,1
763,527,29,0.122723983264549,1
763,528,29,0.126342273289798,1
763,529,29,0.116744881788255,1
763,530,29,0.102684356353487,1
763,531,29,0.105815830933832,1
763,532,29,0.135067969837927,1
763,534,29,0.186910171038812,1
764,524,29,0.114763612315389,1
764,525,29,0.126831201960996,1
764,526,29,0.121991946426172,1
764,527,29,0.118950959324309,1
764,528,29,0.115177870026554,1
764,529,29,0.103796686781457,1
725,521,30,0.117178659610344,1
725,522,30,0.120978262273046,1
725,523,30,0.116901097140235,1
726,519,30,0.103430270770723,1
726,520,30,0.115105704437901,1
726,521,30,0.129974691431044,1
726,522,30,0.137307477742521,1
726,523,30,0.131630088337851,1
726,524,30,0.126621600412791,1
727,519,30,0.101587025475038,1
727,520,30,0.111331155488995,1
727,521,30,0.124930670804069,1
727,522,30,0.133544932790399,1
727,523,30,0.13134095758772,1
728,517,30,0.104498735413711,1
728,518,30,0.108478975352886,1
728,519,30,0.108819814789709,1
728,520,30,0.113817540510756,1
728,521,30,0.126449601221118,1
728,522,30,0.137463311842335,1
728,523,30,0.13362133572456,1
728,524,30,0.12327962017196,1
729,518,30,0.102185831020612,1
729,519,30,0.104691638117025,1
729,520,30,0.115415139589126,1
729,521,30,0.14063662612472,1
729,522,30,0.16524862116116,1
729,523,30,0.153877448508662,1
729,524,30,0.125319548013867,1
729,525,30,0.115839691108787,1
729,526,30,0.111272072296112,1
729,527,30,0.100072201688468,1
730,520,30,0.104131546005726,1
730,521,30,0.133952720107654,1
730,522,30,0.165339892929812,1
730,523,30,0.156722711641179,1
730,524,30,0.130077683980586,1
730,525,30,0.126591339883692,1
730,526,30,0.131333430580662,1
730,527,30,0.131287102995977,1
730,528,30,0.110483871567154,1
731,521,30,0.10838843340981,1
731,522,30,0.128856794721444,1
731,523,30,0.13002919959793,1
731,524,30,0.122519109243208,1
731,525,30,0.129128899839112,1
731,526,30,0.141674361843091,1
731,527,30,0.152727014649883,1
731,528,30,0.12274966876765,1
732,523,30,0.101277601216732,1
732,524,30,0.0997712194424191,1
732,525,30,0.107532130151002,1
732,526,30,0.116998806624042,1
732,527,30,0.12471258367193,1
732,528,30,0.102574283406568,1
757,516,30,0.113268853285694,1
758,515,30,0.103509200862101,1
758,516,30,0.134743927282267,1
758,517,30,0.114746564897088,1
758,535,30,0.135824973246748,1
758,536,30,0.118443850371229,1
759,516,30,0.124901608496065,1
759,517,30,0.114078480386406,1
759,533,30,0.109204977514114,1
759,534,30,0.184706435480352,1
759,535,30,0.238448841050593,1
759,536,30,0.173769149579134,1
760,530,30,0.1006980979237,1
760,531,30,0.121738805880556,1
760,532,30,0.140704521689109,1
760,533,30,0.176123904567191,1
760,534,30,0.251797481547212,1
760,535,30,0.240796591891707,1
760,536,30,0.151596830727603,1
761,525,30,0.102579610043979,1
761,527,30,0.100549965117648,1
761,528,30,0.109949835318203,1
761,529,30,0.114214696339026,1
761,530,30,0.115513186753423,1
761,531,30,0.132536466345495,1
761,532,30,0.162813770539386,1
761,533,30,0.205956243911138,1
761,534,30,0.257785950933882,1
761,535,30,0.200594444156952,1
762,525,30,0.102397883475602,1
762,527,30,0.105543921888706,1
762,528,30,0.115159820459702,1
762,529,30,0.116472330060906,1
762,530,30,0.109893791249732,1
762,531,30,0.113585837229815,1
762,532,30,0.141737889346944,1
762,533,30,0.185974120719699,1
762,534,30,0.21830417372121,1
763,525,30,0.107734890946049,1
763,526,30,0.1027049003988,1
763,527,30,0.107644044001239,1
763,528,30,0.112253829303526,1
763,529,30,0.109945412793072,1
763,530,30,0.101305345481532,1
763,532,30,0.121570684568062,1
764,525,30,0.111559776073848,1
764,526,30,0.107599491962357,1
764,527,30,0.107162380907042,1
764,528,30,0.106771205291326,1
764,529,30,0.100948177559065,1
725,519,31,0.105555501061648,1
725,520,31,0.110498152184018,1
725,521,31,0.122854632935538,1
725,522,31,0.127904927883881,1
725,523,31,0.119541431786816,1
726,519,31,0.108431100973697,1
726,520,31,0.119169307886505,1
726,521,31,0.137236390552853,1
726,522,31,0.145288087735261,1
726,523,31,0.134091005714892,1
726,524,31,0.132313063468863,1
727,519,31,0.107361449002534,1
727,520,31,0.121592459513227,1
727,521,31,0.138192941345604,1
727,522,31,0.145620811947398,1
727,523,31,0.138549477478766,1
727,524,31,0.132535529554457,1
728,517,31,0.104389152648149,1
728,518,31,0.104450980856631,1
728,519,31,0.110154175586511,1
728,520,31,0.123485779557748,1
728,521,31,0.140703900792723,1
728,522,31,0.15269782162685,1
728,523,31,0.144202194421806,1
728,524,31,0.125016757543258,1
728,525,31,0.114634781761879,1
728,526,31,0.106570884510144,1
729,519,31,0.100684242130678,1
729,520,31,0.114631960495847,1
729,521,31,0.14167301112113,1
729,522,31,0.16845609563766,1
729,523,31,0.153827853048263,1
729,524,31,0.120978665311051,1
729,525,31,0.10978000381742,1
729,526,31,0.107189787491351,1
729,527,31,0.103192380311766,1
730,521,31,0.124195649305875,1
730,522,31,0.157627619104752,1
730,523,31,0.152201311483999,1
730,524,31,0.131254957991884,1
730,525,31,0.12823444957782,1
730,526,31,0.128152458576191,1
730,527,31,0.125727651225774,1
730,528,31,0.111252486827674,1
731,521,31,0.100980801851596,1
731,522,31,0.125926937179647,1
731,523,31,0.140838515486244,1
731,524,31,0.143990958935745,1
731,525,31,0.147076225753513,1
731,526,31,0.143157160447678,1
731,527,31,0.140287856642835,1
731,528,31,0.115720555253225,1
731,529,31,0.102501420671096,1
732,523,31,0.115071304599567,1
732,524,31,0.122833718530977,1
732,525,31,0.129506099839697,1
732,526,31,0.130133858764085,1
732,527,31,0.130111909532216,1
732,528,31,0.108503843887059,1
733,526,31,0.103697539432337,1
733,527,31,0.115494450932671,1
733,528,31,0.104319034928276,1
755,510,31,0.106119558195479,1
757,515,31,0.101696074487567,1
757,516,31,0.122247657700682,1
758,515,31,0.116696342941004,1
758,516,31,0.161002670247794,1
758,517,31,0.138992873748369,1
758,535,31,0.127717188424193,1
758,536,31,0.109752477411001,1
759,516,31,0.143927191787673,1
759,517,31,0.140145311904252,1
759,533,31,0.112757441629593,1
759,534,31,0.177072830316613,1
759,535,31,0.236027802650165,1
759,536,31,0.177465411118885,1
759,537,31,0.110185438264162,1
760,530,31,0.105398762849553,1
760,531,31,0.126277188098522,1
760,532,31,0.153448746786846,1
760,533,31,0.174913603225358,1
760,534,31,0.223052941777552,1
760,535,31,0.232741866477805,1
760,536,31,0.171339690952286,1
760,537,31,0.128489921208111,1
761,528,31,0.101420015240286,1
761,529,31,0.111572411859937,1
761,530,31,0.119371012068405,1
761,531,31,0.133488954079443,1
761,532,31,0.165082765575827,1
761,533,31,0.189086794121777,1
761,534,31,0.211935977176737,1
761,535,31,0.188134055850691,1
761,536,31,0.152854592517702,1
762,528,31,0.102739735953896,1
762,529,31,0.110575982090573,1
762,530,31,0.112826644344266,1
762,531,31,0.111121314296571,1
762,532,31,0.132535224552724,1
762,533,31,0.168351534507776,1
762,534,31,0.19698721044453,1
763,528,31,0.103616496114665,1
763,529,31,0.109609703921118,1
763,530,31,0.107636669495048,1
763,532,31,0.113071255734272,1
764,527,31,0.100117396409573,1
764,528,31,0.104852003671161,1
764,529,31,0.107308149949661,1
725,519,32,0.100135119188854,1
725,520,32,0.101419132913844,1
725,521,32,0.107732069680017,1
725,522,32,0.108409696387779,1
726,518,32,0.101044884894319,1
726,519,32,0.111384814008196,1
726,520,32,0.112867547255269,1
726,521,32,0.121344907035079,1
726,522,32,0.124148156178852,1
726,523,32,0.117970683753885,1
726,524,32,0.126857944077244,1
727,518,32,0.101781616580803,1
727,519,32,0.111733910277653,1
727,520,32,0.121289124396666,1
727,521,32,0.134598768243114,1
727,522,32,0.138684745747429,1
727,523,32,0.130852540883717,1
727,524,32,0.125849499418178,1
727,525,32,0.129631357515761,1
728,519,32,0.1046393956773,1
728,520,32,0.121088182719098,1
728,521,32,0.142540588551146,1
728,522,32,0.153699893928278,1
728,523,32,0.142284060307707,1
728,524,32,0.119035662662779,1
728,525,32,0.106701425251943,1
729,520,32,0.103238805932723,1
729,521,32,0.1289048216015,1
729,522,32,0.15038163846512,1
729,523,32,0.140005697360891,1
729,524,32,0.115216278459096,1
729,525,32,0.105348666314879,1
729,526,32,0.10146579817902,1
729,527,32,0.100698936678466,1
729,528,32,0.100503103779929,1
730,521,32,0.101387728628246,1
730,522,32,0.130529772799585,1
730,523,32,0.138754177213403,1
730,524,32,0.137746222735693,1
730,525,32,0.13746678668351,1
730,526,32,0.124924265767673,1
730,527,32,0.112974058217661,1
730,528,32,0.103781164371822,1
730,529,32,0.111388474028994,1
731,522,32,0.107735185054863,1
731,523,32,0.142494685790303,1
731,524,32,0.171537005287812,1
731,525,32,0.181177794178819,1
731,526,32,0.157897774389911,1
731,527,32,0.131451259285939,1
731,528,32,0.105239769803217,1
732,523,32,0.112793388262431,1
732,524,32,0.140610613834048,1
732,525,32,0.160208696271744,1
732,526,32,0.15861818848367,1
732,527,32,0.146184803723715,1
732,528,32,0.115454288740163,1
733,526,32,0.118345356597252,1
733,527,32,0.13696832670815,1
733,528,32,0.125669472145171,1
754,510,32,0.122213737150785,1
754,511,32,0.101990836876842,1
755,509,32,0.105780178409807,1
755,510,32,0.15205655548285,1
755,511,32,0.125969190812611,1
756,510,32,0.101381258234335,1
757,515,32,0.103896999672914,1
757,516,32,0.127168817093783,1
757,517,32,0.102331425776527,1
758,515,32,0.126391498390948,1
758,516,32,0.175428783831448,1
758,517,32,0.157606791843543,1
758,535,32,0.114548052340467,1
758,536,32,0.106690619476253,1
759,514,32,0.104254527061709,1
759,515,32,0.122313777719267,1
759,516,32,0.160915363501672,1
759,517,32,0.159187659398265,1
759,532,32,0.106167900970187,1
759,533,32,0.118824002352875,1
759,534,32,0.159568432276296,1
759,535,32,0.210385936582904,1
759,536,32,0.183954126919638,1
759,537,32,0.129235639552804,1
760,514,32,0.111022471949184,1
760,515,32,0.110054548948954,1
760,516,32,0.1066380175702,1
760,530,32,0.104502242933643,1
760,531,32,0.123713430672806,1
760,532,32,0.151740639044795,1
760,533,32,0.164620579020876,1
760,534,32,0.19342237197302,1
760,535,32,0.219130074842971,1
760,536,32,0.19547102504308,1
760,537,32,0.154287370838049,1
760,538,32,0.125507527117774,1
761,529,32,0.10217812972685,1
761,530,32,0.114436160276068,1
761,531,32,0.128256540417637,1
761,532,32,0.153024500268919,1
761,533,32,0.167293309208688,1
761,534,32,0.182861686961839,1
761,535,32,0.18689916919058,1
761,536,32,0.177231322288673,1
761,537,32,0.157961519752145,1
762,530,32,0.108113703098652,1
762,531,32,0.10975089793774,1
762,532,32,0.123947672003885,1
762,533,32,0.150863257987641,1
762,534,32,0.177727788859849,1
763,529,32,0.103660361899647,1
763,530,32,0.107812590137575,1
725,519,33,0.107616081878058,1
725,520,33,0.117192624332555,1
725,521,33,0.119420422349179,1
725,522,33,0.110958421585217,1
725,523,33,0.107132120377943,1
726,518,33,0.107654468524762,1
726,519,33,0.126487519472303,1
726,520,33,0.13477595246425,1
726,521,33,0.135771881159338,1
726,522,33,0.125365897384391,1
726,523,33,0.1154841135525,1
726,524,33,0.123157684836204,1
726,525,33,0.143413884763659,1
727,518,33,0.105425396036611,1
727,519,33,0.124172011671554,1
727,520,33,0.138338252885624,1
727,521,33,0.149174681249433,1
727,522,33,0.145013869391299,1
727,523,33,0.131434756513591,1
727,524,33,0.11985281677055,1
727,525,33,0.119633738382778,1
727,526,33,0.114740072717339,1
728,520,33,0.118801715440515,1
728,521,33,0.14264036768957,1
728,522,33,0.150000527906599,1
728,523,33,0.136371797782655,1
728,524,33,0.112059761057874,1
729,521,33,0.111112937641828,1
729,522,33,0.126059002930112,1
729,523,33,0.123359715805676,1
729,524,33,0.11123297760967,1
729,525,33,0.103624066693399,1
730,522,33,0.104210029487423,1
730,523,33,0.121833280167407,1
730,524,33,0.140156956434708,1
730,525,33,0.145408879314518,1
730,526,33,0.115895811427691,1
730,530,33,0.104495097178751,1
731,523,33,0.123699411485999,1
731,524,33,0.173883361835289,1
731,525,33,0.201139612969164,1
731,526,33,0.162370875344059,1
731,527,33,0.115572814592259,1
732,524,33,0.129366136722927,1
732,525,33,0.165770642520407,1
732,526,33,0.167072760276845,1
732,527,33,0.145332171378624,1
732,528,33,0.109171460002222,1
733,526,33,0.112064760907714,1
733,527,33,0.129717280861164,1
733,528,33,0.121752890424877,1
738,511,33,0.0999024900097938,1
739,508,33,0.112222185373709,1
739,511,33,0.110726435088381,1
754,510,33,0.14624215494247,1
754,511,33,0.1401904739466,1
755,509,33,0.105590325723825,1
755,510,33,0.184635990972908,1
755,511,33,0.182254886013688,1
755,512,33,0.107906105847551,1
756,510,33,0.115633553508837,1
756,511,33,0.122996839993631,1
757,515,33,0.103772057891503,1
757,516,33,0.126063283847295,1
757,517,33,0.106216723033333,1
758,514,33,0.111875028043841,1
758,515,33,0.144982399748187,1
758,516,33,0.180177050813515,1
758,517,33,0.161562076105194,1
758,534,33,0.102014223974025,1
758,535,33,0.111081239247416,1
758,536,33,0.11430106629411,1
759,513,33,0.108203286464853,1
759,514,33,0.162896818154162,1
759,515,33,0.181528469921536,1
759,516,33,0.183728371172494,1
759,517,33,0.161315547561436,1
759,531,33,0.101836135640608,1
759,532,33,0.117059915899867,1
759,533,33,0.128242194443259,1
759,534,33,0.147411291943244,1
759,535,33,0.18272261706443,1
759,536,33,0.195594485387501,1
759,537,33,0.149451132641799,1
759,538,33,0.101617667256303,1
760,514,33,0.171287862443484,1
760,515,33,0.173376666813133,1
760,516,33,0.132286909570243,1
760,517,33,0.100789326120676,1
760,525,33,0.106169763659343,1
760,530,33,0.108814607974407,1
760,531,33,0.121883790633004,1
760,532,33,0.137563014730326,1
760,533,33,0.146366715471715,1
760,534,33,0.170836808451795,1
760,535,33,0.207699829890509,1
760,536,33,0.218674293324417,1
760,537,33,0.175356640028633,1
760,538,33,0.132814704176583,1
761,530,33,0.113507920179907,1
761,531,33,0.123491008158888,1
761,532,33,0.131901877560867,1
761,533,33,0.142269540046625,1
761,534,33,0.166746822353272,1
761,535,33,0.19120533616041,1
761,536,33,0.194954090677024,1
761,537,33,0.16919958093395,1
762,530,33,0.108616705421253,1
762,531,33,0.111738735840788,1
762,532,33,0.114858217317268,1
762,533,33,0.132333618407095,1
762,534,33,0.157129551274477,1
724,521,34,0.10730623279591,1
724,522,34,0.10382235049872,1
725,519,34,0.106997625506532,1
725,520,34,0.133544442609042,1
725,521,34,0.141841687972494,1
725,522,34,0.126517747322645,1
725,523,34,0.113304876168965,1
725,524,34,0.120696135669859,1
726,519,34,0.124318085715906,1
726,520,34,0.152298105962606,1
726,521,34,0.155993387139643,1
726,522,34,0.136640558774177,1
726,523,34,0.121632926707468,1
726,524,34,0.126047053397923,1
726,525,34,0.137931947005359,1
727,519,34,0.118654225316687,1
727,520,34,0.144225734019856,1
727,521,34,0.153999024378089,1
727,522,34,0.145342388936685,1
727,523,34,0.132397984665714,1
727,524,34,0.124395185796885,1
727,525,34,0.117484761528342,1
727,526,34,0.10562414823745,1
728,520,34,0.108627238873966,1
728,521,34,0.129559594965112,1
728,522,34,0.136438506018868,1
728,523,34,0.126927070541485,1
728,524,34,0.111894243153031,1
729,522,34,0.104246346479509,1
729,523,34,0.107627682836838,1
729,524,34,0.106128588425364,1
729,525,34,0.101176264390884,1
730,523,34,0.10010423776337,1
730,524,34,0.124034401425297,1
730,525,34,0.133472102733685,1
730,526,34,0.101289158603835,1
731,524,34,0.138379787585931,1
731,525,34,0.17354611706175,1
731,526,34,0.139038504186236,1
732,525,34,0.129509182535786,1
732,526,34,0.135834330264205,1
732,527,34,0.118078000792286,1
739,508,34,0.108068682664252,1
739,511,34,0.10453138149208,1
743,541,34,0.105455046562243,1
743,542,34,0.122602091500469,1
744,542,34,0.118197093076172,1
754,510,34,0.131586680055469,1
754,511,34,0.146092573378186,1
755,510,34,0.16715445716966,1
755,511,34,0.195570586323123,1
755,512,34,0.114144262724501,1
756,511,34,0.128101403464641,1
757,515,34,0.111653814643937,1
757,516,34,0.130535001400725,1
757,517,34,0.119146715972412,1
758,514,34,0.139892400109936,1
758,515,34,0.189247900394408,1
758,516,34,0.20242253740225,1
758,517,34,0.166731103871094,1
758,518,34,0.10651749831392,1
758,532,34,0.10047444450993,1
758,533,34,0.121508148319842,1
758,534,34,0.119814593517631,1
758,535,34,0.109739079120579,1
758,536,34,0.110630163469888,1
759,514,34,0.214283815161203,1
759,515,34,0.267614566427929,1
759,516,34,0.227081448241003,1
759,517,34,0.159598660126637,1
759,525,34,0.10011753801752,1
759,532,34,0.116295614235288,1
759,533,34,0.13460949776837,1
759,534,34,0.141030775507335,1
759,535,34,0.155225632419728,1
759,536,34,0.178567665596741,1
759,537,34,0.144314565774643,1
759,538,34,0.102817424252503,1
760,515,34,0.225321806098964,1
760,516,34,0.156840540346456,1
760,525,34,0.105035625607451,1
760,526,34,0.10474843379691,1
760,530,34,0.101968212283992,1
760,531,34,0.108003063719943,1
760,532,34,0.114717960091684,1
760,533,34,0.12534441654804,1
760,534,34,0.146912744824532,1
760,535,34,0.180070147706037,1
760,536,34,0.20160946813912,1
760,537,34,0.168941745540227,1
760,538,34,0.132509103332861,1
760,539,34,0.12386972227522,1
761,530,34,0.102963389367666,1
761,531,34,0.108796754480097,1
761,532,34,0.107025968881879,1
761,533,34,0.11647091398143,1
761,534,34,0.14450948366798,1
761,535,34,0.173931693717078,1
761,536,34,0.181942117629236,1
761,537,34,0.163604661819347,1
761,538,34,0.143887410847332,1
762,530,34,0.100509661317193,1
762,531,34,0.103636953016625,1
762,533,34,0.110413568667658,1
762,534,34,0.132141173206381,1
724,520,35,0.112572240220041,1
724,521,35,0.126553704848402,1
724,522,35,0.119597323354421,1
725,520,35,0.133152406452722,1
725,521,35,0.151009212209885,1
725,522,35,0.137216848656092,1
725,523,35,0.12170578944294,1
725,524,35,0.123484897231306,1
726,519,35,0.108022104542428,1
726,520,35,0.145101197923258,1
726,521,35,0.156460323007296,1
726,522,35,0.139509339718906,1
726,523,35,0.129719688196272,1
726,524,35,0.136888579647843,1
726,525,35,0.138418010838849,1
727,519,35,0.100935095163295,1
727,520,35,0.13164055643305,1
727,521,35,0.141278720130568,1
727,522,35,0.133282794693655,1
727,523,35,0.129839619234924,1
727,524,35,0.136376982812119,1
727,525,35,0.128672355816226,1
727,526,35,0.103012374824597,1
728,521,35,0.109660802604344,1
728,522,35,0.117128072894313,1
728,523,35,0.117595814837974,1
728,524,35,0.119361077726238,1
728,525,35,0.112234374550117,1
729,524,35,0.108348205859788,1
729,525,35,0.108150706344638,1
730,524,35,0.108776733294898,1
730,525,35,0.121549541412202,1
731,524,35,0.100770263512353,1
731,525,35,0.132771110714577,1
731,526,35,0.115451609082079,1
732,526,35,0.101630716973315,1
743,541,35,0.100035503444215,1
743,542,35,0.126080712517762,1
744,542,35,0.119145332571693,1
754,510,35,0.114014179485302,1
754,511,35,0.139165526515184,1
755,510,35,0.138908366482442,1
755,511,35,0.180704289880984,1
755,512,35,0.113392280951358,1
756,511,35,0.1222210680853,1
756,517,35,0.106829308121496,1
756,518,35,0.109931415392103,1
757,515,35,0.122444579891122,1
757,516,35,0.144028038432163,1
757,517,35,0.153463637407176,1
757,518,35,0.140507762892454,1
757,519,35,0.105907952350169,1
757,533,35,0.102597234786989,1
757,534,35,0.102884023559526,1
758,514,35,0.159326064827612,1
758,515,35,0.236949212886087,1
758,516,35,0.236023706912605,1
758,517,35,0.179447769883655,1
758,518,35,0.128464943744748,1
758,532,35,0.10459720740185,1
758,533,35,0.129801984199634,1
758,534,35,0.126870394683709,1
758,535,35,0.109148726480181,1
758,536,35,0.101419220057196,1
759,513,35,0.113258603048875,1
759,514,35,0.232509237298745,1
759,515,35,0.332209750633461,1
759,516,35,0.267644979457894,1
759,517,35,0.155473174004956,1
759,525,35,0.11272665824038,1
759,526,35,0.117200042410423,1
759,527,35,0.106109547602879,1
759,528,35,0.100313163950595,1
759,529,35,0.104213112183512,1
759,532,35,0.10984992546475,1
759,533,35,0.129821852883967,1
759,534,35,0.13298904534585,1
759,535,35,0.134680966210204,1
759,536,35,0.147056923500971,1
759,537,35,0.127231756380007,1
759,538,35,0.10412331095893,1
759,541,35,0.106344943583376,1
760,514,35,0.186919037874913,1
760,515,35,0.235314665026326,1
760,516,35,0.164201266995275,1
760,524,35,0.105668678490494,1
760,525,35,0.111395674248481,1
760,526,35,0.11776289043024,1
760,527,35,0.105024863403438,1
760,532,35,0.101077367578903,1
760,533,35,0.111627736995751,1
760,534,35,0.128553002102283,1
760,535,35,0.150276892155613,1
760,536,35,0.167369450712791,1
760,537,35,0.153138941276374,1
760,538,35,0.13422973793181,1
760,539,35,0.12586925917332,1
761,515,35,0.100149301769447,1
761,533,35,0.1033557196328,1
761,534,35,0.128459562642741,1
761,535,35,0.149622303971624,1
761,536,35,0.157721679460679,1
761,537,35,0.154032650819171,1
761,538,35,0.14406128362108,1
762,533,35,0.100856568109922,1
762,534,35,0.120104737309233,1
762,535,35,0.130591296006334,1
723,520,36,0.109887625857555,1
724,520,36,0.12387381801278,1
724,521,36,0.143361446251391,1
724,522,36,0.132032995627375,1
725,520,36,0.120958644125851,1
725,521,36,0.139633595246418,1
725,522,36,0.130356499136384,1
725,523,36,0.122081115861449,1
725,524,36,0.120936553286034,1
726,520,36,0.120141337517214,1
726,521,36,0.132253795096356,1
726,522,36,0.122087292146546,1
726,523,36,0.123834331181253,1
726,524,36,0.13544894968142,1
726,525,36,0.131649074695741,1
727,520,36,0.106241330137449,1
727,521,36,0.115410924029457,1
727,522,36,0.110597953108281,1
727,523,36,0.116501751835238,1
727,524,36,0.134393763506744,1
727,525,36,0.132179853961899,1
727,526,36,0.100472952180021,1
728,523,36,0.104218166497947,1
728,524,36,0.117553877099663,1
728,525,36,0.1190047267727,1
729,524,36,0.102392840054086,1
729,525,36,0.106274128716684,1
730,525,36,0.10140679123657,1
743,542,36,0.111050346929013,1
754,510,36,0.10001259563547,1
754,511,36,0.126142998228844,1
755,510,36,0.110659661494654,1
755,511,36,0.145774718000542,1
755,512,36,0.111404138046576,1
756,511,36,0.107007527169941,1
756,516,36,0.10358857756316,1
756,517,36,0.158354895737507,1
756,518,36,0.183894499080803,1
756,519,36,0.139976580588292,1
757,515,36,0.12457193430126,1
757,516,36,0.156382100955656,1
757,517,36,0.200106136382139,1
757,518,36,0.205739692680584,1
757,519,36,0.148829985719269,1
757,520,36,0.113464141538278,1
757,521,36,0.106010378467921,1
757,533,36,0.102241755266974,1
757,534,36,0.108645353798333,1
758,514,36,0.166753053102964,1
758,515,36,0.253358066486677,1
758,516,36,0.247596256959432,1
758,517,36,0.187246653308019,1
758,518,36,0.149087755755478,1
758,519,36,0.120301746643026,1
758,520,36,0.114675630208287,1
758,521,36,0.113968211366945,1
758,524,36,0.10409897617779,1
758,525,36,0.128348465761432,1
758,526,36,0.132294327648111,1
758,527,36,0.115565843124072,1
758,528,36,0.10594603399514,1
758,529,36,0.106495331223669,1
758,533,36,0.110119296459739,1
758,534,36,0.113283885513971,1
758,535,36,0.105958037991924,1
759,513,36,0.106377655019259,1
759,514,36,0.221865504672788,1
759,515,36,0.333667419273818,1
759,516,36,0.26643048434223,1
759,517,36,0.141294460398583,1
759,523,36,0.103569460490241,1
759,524,36,0.122199380283488,1
759,525,36,0.132434236300286,1
759,526,36,0.141822091611138,1
759,527,36,0.132238871797268,1
759,528,36,0.11590673702549,1
759,529,36,0.11075850384204,1
759,533,36,0.101137376669905,1
759,534,36,0.108707824689039,1
759,535,36,0.115465247016719,1
759,536,36,0.125460883638437,1
759,537,36,0.120149420063143,1
759,538,36,0.111132664718213,1
759,539,36,0.101378861792146,1
760,514,36,0.156244054992637,1
760,515,36,0.205804004474608,1
760,516,36,0.149374054346658,1
760,523,36,0.122834688000772,1
760,524,36,0.13217165159386,1
760,525,36,0.123267703318528,1
760,526,36,0.12934609375189,1
760,527,36,0.121007487974836,1
760,534,36,0.103310731877157,1
760,535,36,0.121351791359914,1
760,536,36,0.140688345704332,1
760,537,36,0.146807519226586,1
760,538,36,0.141331637931274,1
761,523,36,0.107797318265079,1
761,524,36,0.110610164070527,1
761,525,36,0.100031037347408,1
761,534,36,0.109304571472915,1
761,535,36,0.122902147848399,1
723,520,37,0.128082340856318,1
723,521,37,0.154572776209867,1
724,520,37,0.133662696138162,1
724,521,37,0.157642782048058,1
724,522,37,0.14611186473781,1
724,523,37,0.132948970296695,1
725,520,37,0.110922747275355,1
725,521,37,0.126255053687029,1
725,522,37,0.124612085600849,1
725,523,37,0.127706927294456,1
725,524,37,0.12376114165821,1
725,525,37,0.11403784979838,1
726,521,37,0.107029748724787,1
726,522,37,0.107140104887601,1
726,523,37,0.118296839535839,1
726,524,37,0.1289512145437,1
726,525,37,0.123179536031803,1
727,523,37,0.103675263412896,1
727,524,37,0.124565311406483,1
727,525,37,0.12937497088027,1
727,526,37,0.101092323556747,1
728,524,37,0.11137737414449,1
728,525,37,0.11974252596525,1
729,525,37,0.100877940017082,1
736,505,37,0.102077457369064,1
737,505,37,0.108114498281742,1
754,511,37,0.117197940077048,1
754,512,37,0.11703725862826,1
755,511,37,0.114350171573151,1
755,512,37,0.117616729242535,1
755,513,37,0.105170708696491,1
755,517,37,0.102482445206125,1
755,518,37,0.131667146048432,1
755,519,37,0.117974093237545,1
756,516,37,0.116096458996444,1
756,517,37,0.195763870278604,1
756,518,37,0.245313645774189,1
756,519,37,0.183651717701195,1
756,520,37,0.11826624132625,1
756,534,37,0.105667512948156,1
756,535,37,0.104169605864858,1
757,514,37,0.108633317122792,1
757,515,37,0.130403099044046,1
757,516,37,0.168676851534965,1
757,517,37,0.232293470358362,1
757,518,37,0.247853329848822,1
757,519,37,0.17931048642497,1
757,520,37,0.145136981162311,1
757,521,37,0.139242528559892,1
757,525,37,0.127267909978308,1
757,527,37,0.112529736049939,1
757,533,37,0.108975518174495,1
757,534,37,0.125514378763852,1
757,535,37,0.124247771923491,1
758,514,37,0.168523762450749,1
758,515,37,0.237802999880595,1
758,516,37,0.233000311874995,1
758,517,37,0.187201186263937,1
758,518,37,0.162414054875141,1
758,519,37,0.14130427491864,1
758,520,37,0.144019345882768,1
758,521,37,0.144117480190417,1
758,522,37,0.111937553399142,1
758,523,37,0.102654237432336,1
758,524,37,0.12143745327526,1
758,525,37,0.158935847788772,1
758,526,37,0.176525428455997,1
758,527,37,0.152612290426533,1
758,528,37,0.127191822938799,1
758,529,37,0.115299794469391,1
758,533,37,0.103696188710376,1
758,534,37,0.116812330742962,1
758,535,37,0.120965572022362,1
758,536,37,0.109320616742663,1
759,514,37,0.190056263916511,1
759,515,37,0.275672777575924,1
759,516,37,0.224960161186771,1
759,517,37,0.126803915198796,1
759,519,37,0.10389112838955,1
759,520,37,0.10783266578737,1
759,521,37,0.115388560866664,1
759,522,37,0.127947442946902,1
759,523,37,0.149167165135294,1
759,524,37,0.156516715649176,1
759,525,37,0.154788859044902,1
759,526,37,0.164669379298184,1
759,527,37,0.158550695957286,1
759,528,37,0.13453900968925,1
759,529,37,0.116125553983205,1
759,534,37,0.103616452542988,1
759,535,37,0.114756673525959,1
759,536,37,0.121028228092692,1
759,537,37,0.120462983630685,1
759,538,37,0.119040041616234,1
759,539,37,0.106555732459757,1
760,515,37,0.157920910949956,1
760,516,37,0.125527646339245,1
760,523,37,0.167180077315247,1
760,524,37,0.166127875800389,1
760,525,37,0.139556266414139,1
760,526,37,0.134572559879899,1
760,527,37,0.12933335992953,1
760,535,37,0.107627279798834,1
760,536,37,0.126401062373867,1
760,537,37,0.144748310917975,1
760,538,37,0.147260130905699,1
723,520,38,0.130468750667111,1
723,521,38,0.168697308436925,1
723,522,38,0.167418381705128,1
724,520,38,0.127701851194182,1
724,521,38,0.157773573326995,1
724,522,38,0.151532159467251,1
724,523,38,0.14888045261319,1
725,521,38,0.110567333112854,1
725,522,38,0.114514120897651,1
725,523,38,0.126908007933161,1
725,524,38,0.125224986583664,1
725,525,38,0.113404372091495,1
726,523,38,0.106329192422441,1
726,524,38,0.116255691686999,1
726,525,38,0.115195276911183,1
726,526,38,0.100315691107812,1
727,524,38,0.106733494005603,1
727,525,38,0.117668764716798,1
727,526,38,0.102275784746061,1
728,525,38,0.107417340570138,1
753,512,38,0.105905381621276,1
754,511,38,0.111778821782863,1
754,512,38,0.138612493015424,1
754,513,38,0.119200548778317,1
755,512,38,0.12334226534937,1
755,513,38,0.125115981142811,1
755,514,38,0.105599236131601,1
755,517,38,0.116185443252098,1
755,518,38,0.16770727281104,1
755,519,38,0.149035382600724,1
756,513,38,0.103137479999794,1
756,514,38,0.10195106682942,1
756,515,38,0.101839697625135,1
756,516,38,0.125488224865232,1
756,517,38,0.207506306290809,1
756,518,38,0.270784885157577,1
756,519,38,0.204499076345057,1
756,520,38,0.133099063828174,1
756,521,38,0.111182194821096,1
756,533,38,0.108415295348167,1
756,534,38,0.137872417202794,1
756,535,38,0.135507346620404,1
757,514,38,0.116436982538615,1
757,515,38,0.13720242643128,1
757,516,38,0.177075509974697,1
757,517,38,0.239284436870302,1
757,518,38,0.252772441373143,1
757,519,38,0.189899318738955,1
757,520,38,0.164595056911561,1
757,521,38,0.160548838561748,1
757,528,38,0.110596809351781,1
757,531,38,0.101242482445741,1
757,532,38,0.110148750912829,1
757,533,38,0.123175995833114,1
757,534,38,0.150935118574561,1
757,535,38,0.153729838562724,1
757,536,38,0.110702350844379,1
758,515,38,0.201519906558757,1
758,516,38,0.202014292582395,1
758,518,38,0.167792368294595,1
758,519,38,0.155946416872734,1
758,520,38,0.163963855824756,1
758,521,38,0.167249998962577,1
758,522,38,0.140225875933486,1
758,523,38,0.13565406334698,1
758,524,38,0.140852730745594,1
758,529,38,0.122444699713232,1
758,533,38,0.108725329609939,1
758,534,38,0.127639837806076,1
758,535,38,0.136355088044844,1
758,536,38,0.117586915323117,1
759,515,38,0.202497480685258,1
759,516,38,0.171185752220385,1
759,534,38,0.106120963382035,1
759,535,38,0.115690109544502,1
759,536,38,0.116731483497833,1
759,537,38,0.119794398045728,1
759,538,38,0.122440081115558,1
722,520,39,0.108442244429877,1
723,520,39,0.123201779372486,1
723,521,39,0.164275730989846,1
723,522,39,0.17356544110013,1
724,520,39,0.112444662352222,1
724,521,39,0.14532039613314,1
724,522,39,0.150370440544345,1
724,523,39,0.161260265997298,1
724,524,39,0.150415689730045,1
725,521,39,0.0997138573307441,1
725,522,39,0.107698007522173,1
725,523,39,0.123346981983316,1
725,524,39,0.129289668431253,1
725,525,39,0.119558337597169,1
726,524,39,0.107997998512589,1
726,525,39,0.111866956390831,1
726,526,39,0.107359139703697,1
727,525,39,0.10657786687125,1
727,526,39,0.105778696972818,1
753,511,39,0.104841905935209,1
753,512,39,0.117453357242744,1
753,513,39,0.105182963230413,1
754,511,39,0.11065709076576,1
754,512,39,0.148662703161542,1
754,513,39,0.145972424481153,1
754,514,39,0.110526059842604,1
754,517,39,0.108664961052609,1
754,518,39,0.124846283360251,1
754,519,39,0.102502455498405,1
755,512,39,0.124418420393202,1
755,513,39,0.137927971089908,1
755,514,39,0.117948385948606,1
755,515,39,0.101537408228802,1
755,516,39,0.111328454045073,1
755,517,39,0.156162183813118,1
755,518,39,0.213907399450789,1
755,519,39,0.17273179511293,1
755,520,39,0.105040483849344,1
756,513,39,0.112136588815877,1
756,514,39,0.118281349804961,1
756,515,39,0.120033617440808,1
756,516,39,0.139555079085963,1
756,517,39,0.200084285186541,1
756,518,39,0.254714888482544,1
756,519,39,0.199864204650217,1
756,520,39,0.141419750753404,1
756,521,39,0.121864041770781,1
756,531,39,0.100542819362756,1
756,532,39,0.116030251834507,1
756,533,39,0.139964369626046,1
756,534,39,0.188184925782617,1
757,518,39,0.226753048517726,1
757,532,39,0.123433983727704,1
757,533,39,0.143499546679005,1
757,534,39,0.190322900788821,1
757,535,39,0.196770070996348,1
758,532,39,0.107574852179485,1
758,533,39,0.117769186537446,1
758,534,39,0.14230039968627,1
758,535,39,0.153159125855358,1
758,536,39,0.125885413372259,1
722,520,40,0.110166081547024,1
722,521,40,0.139226690255605,1
723,520,40,0.110806476257501,1
723,521,40,0.150679614265513,1
723,522,40,0.174319241990753,1
724,521,40,0.130980728755003,1
724,522,40,0.155687579330459,1
724,523,40,0.173352637033726,1
724,524,40,0.165279012405287,1
725,522,40,0.10626417258868,1
725,523,40,0.122505198985591,1
725,524,40,0.131620557033689,1
725,525,40,0.124885606797993,1
726,524,40,0.101075385067637,1
726,525,40,0.108429619536707,1
726,526,40,0.109528094171656,1
727,526,40,0.101943016962248,1
753,509,40,0.110650696622282,1
753,510,40,0.105785210938405,1
753,511,40,0.111551344954509,1
753,512,40,0.118062020880051,1
753,513,40,0.121003403130195,1
753,514,40,0.106867313516033,1
754,511,40,0.106645424755148,1
754,512,40,0.138955402106865,1
754,513,40,0.161369914120374,1
754,514,40,0.141490663656367,1
754,515,40,0.109568899046387,1
754,516,40,0.132875748094895,1
754,517,40,0.183007750113273,1
754,518,40,0.183828226561351,1
754,519,40,0.116080751407185,1
755,512,40,0.113682925817236,1
755,513,40,0.136808680086671,1
755,514,40,0.126668941038947,1
755,515,40,0.107005827874571,1
755,516,40,0.137527307741707,1
755,517,40,0.214154777642232,1
755,518,40,0.251105759402209,1
755,519,40,0.17251496066648,1
755,520,40,0.103811119899187,1
756,515,40,0.127374115938967,1
756,516,40,0.141192350175484,1
756,517,40,0.184280555024569,1
756,518,40,0.219316387330265,1
722,520,41,0.103797852323794,1
722,521,41,0.137090861154453,1
723,521,41,0.136784225483421,1
723,522,41,0.179483781874008,1
723,523,41,0.191023446198247,1
724,521,41,0.120162142992584,1
724,522,41,0.172761184208505,1
724,523,41,0.192428676326336,1
724,524,41,0.175194019640255,1
725,522,41,0.112328565621072,1
725,523,41,0.129554257434782,1
725,524,41,0.134506298253367,1
725,525,41,0.127915090977348,1
726,525,41,0.10236106540924,1
726,526,41,0.107690589444305,1
751,507,41,0.101972406057823,1
752,508,41,0.138244050921749,1
752,509,41,0.107849386418099,1
752,510,41,0.103006579791667,1
753,510,41,0.116066688648702,1
753,511,41,0.114117368107386,1
753,512,41,0.110817902929576,1
753,513,41,0.128030316274973,1
753,514,41,0.128528983215795,1
753,517,41,0.117817169845826,1
754,511,41,0.100451798131242,1
754,512,41,0.124570256791728,1
754,513,41,0.171243789693041,1
754,514,41,0.173099442023515,1
754,515,41,0.12367643831974,1
754,516,41,0.148534613326527,1
754,517,41,0.234413733478204,1
754,518,41,0.206697812053677,1
754,519,41,0.115240428060612,1
755,513,41,0.12900851129786,1
755,514,41,0.128837024073383,1
755,515,41,0.105633581505341,1
755,516,41,0.140016034741062,1
755,517,41,0.232105763577431,1
722,521,42,0.130013905939595,1
722,522,42,0.146813902477145,1
723,521,42,0.122991251926162,1
723,522,42,0.175572178217716,1
723,523,42,0.178783323607934,1
724,521,42,0.10584632021423,1
724,522,42,0.171629104918312,1
724,523,42,0.190093190912064,1
724,524,42,0.168362558141847,1
725,522,42,0.106880417697641,1
725,523,42,0.125688567432252,1
725,524,42,0.128115368186853,1
725,525,42,0.123084331919376,1
751,508,42,0.101239933502685,1
752,510,42,0.110478207249253,1
753,511,42,0.108252696745628,1
753,513,42,0.117389230628344,1
753,514,42,0.122532572891143,1
753,517,42,0.126991632872646,1
754,513,42,0.157360306871462,1
754,514,42,0.167164304368474,1
754,515,42,0.118382751988323,1
754,516,42,0.143458022871617,1
754,517,42,0.239467132908474,1
722,521,43,0.122367120343815,1
722,522,43,0.143876594178723,1
723,521,43,0.114252767091078,1
723,522,43,0.164508185882201,1
723,523,43,0.158892428613471,1
724,522,43,0.153559484201827,1
724,523,43,0.169734390580153,1
724,524,43,0.153211063293351,1
725,523,43,0.117786419135371,1
725,524,43,0.12126065030629,1
725,525,43,0.116311866470499,1
753,513,43,0.106346392341608,1
753,514,43,0.106143555296128,1
722,521,44,0.114397501306388,1
722,522,44,0.139696534532642,1
723,521,44,0.105517833347601,1
723,522,44,0.146011225058781,1
723,523,44,0.136937074923418,1
724,522,44,0.125106449838649,1
724,523,44,0.137110239657428,1
724,524,44,0.129827135949702,1
725,523,44,0.103385065156699,1
725,524,44,0.107666265556085,1
725,525,44,0.102312984064589,1
723,522,45,0.128194483457855,1
724,522,45,0.101335126722192,1
724,523,45,0.108967490093161,1
