x,y,z,signal,mito.p
701,538,52,0.171981120490072,1
702,537,52,0.22109596351415,1
702,538,52,0.203609277360195,1
702,539,52,0.197587475641257,1
703,537,52,0.287792413588714,1
703,538,52,0.20755700193603,1
703,539,52,0.1634935431522,1
704,537,52,0.19298780986076,1
712,543,52,0.188966732368096,1
712,544,52,0.149669611919023,1
695,538,53,0.117876895720933,1
695,539,53,0.136337692053134,1
695,540,53,0.110398819655275,1
696,538,53,0.11218021495664,1
696,539,53,0.132623010587283,1
696,540,53,0.114677318610738,1
699,537,53,0.130884990889543,1
699,538,53,0.112658076422092,1
700,537,53,0.170045481455073,1
700,538,53,0.1350559985199,1
701,536,53,0.143913510281356,1
701,537,53,0.155986197813076,1
701,538,53,0.140969274086424,1
701,539,53,0.124048224539561,1
702,536,53,0.1683985701322,1
702,537,53,0.179588942114439,1
702,538,53,0.172026685570424,1
702,539,53,0.167958714061285,1
702,540,53,0.132432722184539,1
702,541,53,0.10324691026449,1
703,536,53,0.212256969715065,1
703,537,53,0.245809643949846,1
703,538,53,0.205698778876662,1
703,539,53,0.159358177152948,1
703,540,53,0.133102418847239,1
703,541,53,0.133003227926443,1
703,542,53,0.109650683082554,1
704,536,53,0.151862007948761,1
704,537,53,0.178139236197902,1
704,538,53,0.146866101345194,1
704,539,53,0.107009662182073,1
704,540,53,0.104217610959076,1
704,541,53,0.12047827728902,1
705,547,53,0.106433187120535,1
711,543,53,0.112373716770501,1
711,544,53,0.113853007855157,1
711,545,53,0.102236025591558,1
712,542,53,0.141834509538846,1
712,543,53,0.205876529529589,1
712,544,53,0.165235451622038,1
712,545,53,0.104932556807476,1
713,543,53,0.217143206409717,1
713,544,53,0.166120316114573,1
714,544,53,0.116708749975792,1
714,547,53,0.107156509623678,1
714,548,53,0.119183239929959,1
714,549,53,0.103539788178771,1
715,545,53,0.12315069158218,1
715,546,53,0.115001404738075,1
715,547,53,0.157628457859518,1
715,548,53,0.195288002217337,1
715,549,53,0.166034087767437,1
715,550,53,0.110203487831014,1
686,537,54,0.101687371045252,1
687,535,54,0.138273265730619,1
687,536,54,0.13653217422971,1
687,537,54,0.102333255786926,1
687,539,54,0.107763212535558,1
687,540,54,0.109855001565024,1
688,535,54,0.0999224131587215,1
688,536,54,0.115194503513931,1
689,536,54,0.116803496585619,1
690,536,54,0.108217741368422,1
695,538,54,0.127151028956987,1
695,539,54,0.154709580380115,1
695,540,54,0.11812104960834,1
696,538,54,0.107356231294312,1
696,539,54,0.138205675167964,1
696,540,54,0.122928377997452,1
699,537,54,0.101207690462321,1
700,536,54,0.116376003977818,1
700,537,54,0.144804551058989,1
700,538,54,0.111120442863048,1
701,534,54,0.105160284172967,1
701,535,54,0.125676105932868,1
701,536,54,0.123971396781558,1
701,537,54,0.133151643948389,1
701,538,54,0.112255681099763,1
702,535,54,0.118275609236626,1
702,536,54,0.128818429860578,1
702,537,54,0.136947346946075,1
702,538,54,0.136235113434516,1
702,539,54,0.12669085759206,1
702,540,54,0.108153124572665,1
703,535,54,0.101156798744556,1
703,536,54,0.141908635852926,1
703,537,54,0.178556641962671,1
703,538,54,0.176948444074073,1
703,539,54,0.136445836953383,1
703,540,54,0.116678293374151,1
703,541,54,0.122659017895383,1
703,542,54,0.101496472639042,1
704,536,54,0.112973666072575,1
704,537,54,0.141123452462544,1
704,538,54,0.1354414444602,1
704,539,54,0.0997768184028067,1
704,541,54,0.119401065632042,1
704,542,54,0.101461898514003,1
711,543,54,0.108949745528042,1
711,544,54,0.11462806083083,1
712,542,54,0.127364050881772,1
712,543,54,0.192378416397877,1
712,544,54,0.167951350448013,1
712,545,54,0.107061730335094,1
713,542,54,0.13698583162905,1
713,543,54,0.196290586485959,1
713,544,54,0.161241334104003,1
714,543,54,0.112520139388263,1
714,544,54,0.107317496074199,1
714,547,54,0.0997274408007894,1
714,548,54,0.118203323825864,1
714,549,54,0.112148331382604,1
714,556,54,0.100291900972625,1
715,544,54,0.100364121025873,1
715,545,54,0.107911846415886,1
715,546,54,0.104518266417553,1
715,547,54,0.143784581691576,1
715,548,54,0.191334635109438,1
715,549,54,0.184322601692071,1
715,550,54,0.121703861396269,1
715,556,54,0.119834767203697,1
716,545,54,0.110289825107341,1
716,547,54,0.109496700778977,1
716,548,54,0.143911974379771,1
716,549,54,0.141893494695458,1
716,550,54,0.101372533006183,1
716,555,54,0.12234364610328,1
686,535,55,0.193433199534548,1
686,536,55,0.179336781931537,1
686,537,55,0.102740683637853,1
687,534,55,0.105150012150311,1
687,535,55,0.164934305982204,1
687,536,55,0.16118144483511,1
687,537,55,0.105399154994639,1
688,535,55,0.112240027975099,1
688,536,55,0.123893022229051,1
688,537,55,0.100798955461109,1
689,535,55,0.106167094894178,1
689,536,55,0.124001069093028,1
689,537,55,0.104293077102199,1
690,535,55,0.111280056805769,1
690,536,55,0.128387549554954,1
690,537,55,0.103591355257516,1
694,539,55,0.108652314373601,1
695,538,55,0.12374625103788,1
695,539,55,0.153665635697891,1
695,540,55,0.111184569477448,1
696,539,55,0.127799571570908,1
696,540,55,0.114766901976939,1
700,536,55,0.100384523463239,1
700,537,55,0.115208457343224,1
701,535,55,0.107817023555625,1
701,536,55,0.109277382746986,1
701,537,55,0.114124383147249,1
702,535,55,0.104340646479655,1
702,536,55,0.106903695865633,1
702,537,55,0.111467861622972,1
702,538,55,0.109006105491165,1
703,537,55,0.122214880907285,1
703,538,55,0.132116468065994,1
703,539,55,0.104720025064048,1
704,537,55,0.100199561697906,1
704,538,55,0.106190144310871,1
704,541,55,0.10378243884335,1
711,544,55,0.106625338212435,1
712,542,55,0.105527092328786,1
712,543,55,0.157138755791067,1
712,544,55,0.155906755754503,1
712,545,55,0.107166051820759,1
713,542,55,0.11074714252748,1
713,543,55,0.150032781839882,1
713,544,55,0.135966439586346,1
714,548,55,0.102894872906892,1
714,549,55,0.105664615431691,1
715,547,55,0.11360954022165,1
715,548,55,0.162751256077004,1
715,549,55,0.175558474925561,1
715,550,55,0.116692802742315,1
715,556,55,0.115890201574384,1
715,557,55,0.125412780507947,1
716,541,55,0.126672285165093,1
716,548,55,0.126747032375559,1
716,549,55,0.134440581272786,1
716,555,55,0.109434687390871,1
716,556,55,0.127754583815264,1
717,553,55,0.10586030672228,1
717,554,55,0.124034336067782,1
717,555,55,0.121068194212656,1
685,535,56,0.118835298309921,1
685,536,56,0.108853201586573,1
686,534,56,0.11221966910941,1
686,535,56,0.182950899968793,1
686,536,56,0.164477609458451,1
687,534,56,0.107742973491978,1
687,535,56,0.167044460473174,1
687,536,56,0.158858540742331,1
687,537,56,0.102434886721588,1
688,535,56,0.11492311732892,1
688,536,56,0.122106910293741,1
688,537,56,0.101896547769615,1
689,535,56,0.109504086178087,1
689,536,56,0.119990808268973,1
689,537,56,0.106939010709167,1
690,535,56,0.121957568373675,1
690,536,56,0.131204240560825,1
690,537,56,0.108456971656422,1
691,535,56,0.100321093995657,1
691,536,56,0.105498672703006,1
694,539,56,0.10716330680516,1
695,538,56,0.106270599410914,1
695,539,56,0.129629974115042,1
696,539,56,0.103119931507218,1
712,543,56,0.115517206240549,1
712,544,56,0.126706957326404,1
713,543,56,0.102137902176828,1
713,544,56,0.100114716751488,1
715,548,56,0.128787210754604,1
715,549,56,0.146995073506651,1
715,556,56,0.10196061991942,1
715,557,56,0.115555157170492,1
716,540,56,0.13385942225606,1
716,541,56,0.11979766592144,1
716,548,56,0.1041432014291,1
716,549,56,0.114607015711241,1
716,556,56,0.105807508743684,1
717,541,56,0.14311210733452,1
717,542,56,0.103409977262548,1
717,554,56,0.101217635697406,1
718,548,56,0.150105622789516,1
718,549,56,0.132275875043254,1
685,535,57,0.101155360879243,1
686,534,57,0.105314734872063,1
686,535,57,0.153400589191762,1
686,536,57,0.132616714480077,1
687,534,57,0.109105982665861,1
687,535,57,0.151193825401808,1
687,536,57,0.140708628319588,1
688,535,57,0.114970654027619,1
688,536,57,0.118557060478832,1
688,537,57,0.10371751704586,1
689,535,57,0.109112158950957,1
689,536,57,0.115123154894207,1
689,537,57,0.105039372771602,1
690,535,57,0.125145152380005,1
690,536,57,0.125455883788596,1
690,537,57,0.103850171013953,1
691,535,57,0.116648435883057,1
691,536,57,0.10860877537619,1
715,548,57,0.10115277925743,1
715,549,57,0.112913036085188,1
718,548,57,0.135703386484402,1
718,549,57,0.121607611563614,1
686,535,58,0.115078613748244,1
687,534,58,0.0999894372895867,1
687,535,58,0.121273536629516,1
687,536,58,0.11179852707341,1
688,535,58,0.107844953000049,1
688,536,58,0.108869976681898,1
689,535,58,0.105911231118801,1
689,536,58,0.109069959782589,1
690,535,58,0.120984220699762,1
690,536,58,0.113355735207972,1
691,535,58,0.119580232364444,1
691,536,58,0.101499620692645,1
688,535,59,0.105433151794968,1
688,536,59,0.102595764242919,1
689,535,59,0.113680769019265,1
689,536,59,0.11077021373001,1
690,535,59,0.122269421752928,1
690,536,59,0.106894033846443,1
691,535,59,0.110828806741537,1
688,535,60,0.0999857336971124,1
689,535,60,0.115628303121858,1
689,536,60,0.105731105809523,1
690,535,60,0.113504434445814,1
689,535,61,0.106159284671225,1
