x,y,z,signal,mito.p
6,628,1,0.130902027414925,1
7,628,1,0.156568609515492,1
8,628,1,0.120742376111192,1
20,592,1,0.145110587619473,1
20,593,1,0.121378435439891,1
21,591,1,0.17654471981562,1
21,592,1,0.189129930081183,1
21,593,1,0.153114976854481,1
21,619,1,0.132677159287841,1
22,589,1,0.119185669050906,1
22,590,1,0.175549880412437,1
22,591,1,0.239743573407921,1
22,592,1,0.258607080957103,1
22,593,1,0.193018767536677,1
22,594,1,0.103149494889498,1
23,588,1,0.103331232350794,1
23,589,1,0.176599946915163,1
23,590,1,0.250687297024293,1
23,592,1,0.31460352558594,1
23,593,1,0.21112992295347,1
23,616,1,0.117997284262185,1
23,617,1,0.10206886285594,1
24,588,1,0.136253206573045,1
24,592,1,0.268656909851054,1
24,593,1,0.171170393204536,1
24,615,1,0.107498667103705,1
24,616,1,0.120654001859005,1
25,588,1,0.160481553000826,1
25,591,1,0.259527489044473,1
25,592,1,0.204084687918863,1
25,593,1,0.131527749363452,1
25,613,1,0.105390015835562,1
25,614,1,0.133438345577574,1
25,615,1,0.133285256493358,1
26,588,1,0.162766397234473,1
26,591,1,0.23724865923055,1
26,592,1,0.187998460794457,1
26,593,1,0.124879419619977,1
26,612,1,0.11489468681022,1
26,613,1,0.143051542704647,1
26,614,1,0.172212584126795,1
27,589,1,0.193536420835389,1
27,590,1,0.210515409818636,1
27,591,1,0.194828081389547,1
27,592,1,0.159924249476801,1
27,593,1,0.110695804200035,1
27,611,1,0.107581921683943,1
27,612,1,0.161981976348423,1
27,613,1,0.170690560120738,1
28,590,1,0.137506317086713,1
28,591,1,0.132666440655503,1
28,592,1,0.112523124048081,1
28,611,1,0.1043553737062,1
32,603,1,0.122833729423897,1
32,604,1,0.17487799427301,1
32,605,1,0.150795569388715,1
6,628,2,0.107433941378758,1
7,628,2,0.128692583966887,1
21,592,2,0.148493525235901,1
21,593,2,0.120758345130508,1
21,619,2,0.121559780756101,1
22,589,2,0.107969709601837,1
22,592,2,0.239057646295848,1
22,593,2,0.174216968373868,1
23,588,2,0.106489427261548,1
23,593,2,0.210322561579918,1
23,616,2,0.111021970874908,1
23,617,2,0.102751500306461,1
24,593,2,0.154827365513716,1
24,616,2,0.105938594131435,1
25,592,2,0.186900977415141,1
25,593,2,0.116729958489167,1
25,614,2,0.116352192056792,1
25,615,2,0.12075650422719,1
26,592,2,0.194701462098603,1
26,593,2,0.127020030712589,1
26,612,2,0.110326479779917,1
26,613,2,0.129524192978226,1
26,614,2,0.15996417202509,1
27,591,2,0.188632232610156,1
27,592,2,0.167102715804211,1
27,593,2,0.110346588108469,1
27,611,2,0.107572423058538,1
27,612,2,0.168794549525213,1
27,613,2,0.173696112556957,1
27,614,2,0.156505397906292,1
28,590,2,0.13257722764855,1
28,591,2,0.12621172165508,1
28,592,2,0.111614436741601,1
28,611,2,0.104630463483685,1
28,612,2,0.168063819837121,1
28,613,2,0.165649698440285,1
32,603,2,0.148548251261168,1
32,604,2,0.225036803765151,1
32,605,2,0.175988527369338,1
32,606,2,0.103149331495712,1
33,604,2,0.284498612728806,1
33,605,2,0.228973265062696,1
7,628,3,0.101809567811065,1
21,592,3,0.117190325926637,1
21,619,3,0.100220563245819,1
22,592,3,0.211482178169449,1
22,593,3,0.153740241300409,1
23,588,3,0.101181133525696,1
23,592,3,0.30266774026074,1
23,593,3,0.198509757310701,1
23,616,3,0.106082162804408,1
23,617,3,0.117493780865308,1
24,593,3,0.131315402799648,1
25,592,3,0.161636801529821,1
25,614,3,0.100858027761074,1
25,615,3,0.113616086865994,1
26,592,3,0.189115987144809,1
26,593,3,0.123564709649126,1
26,612,3,0.108578808955906,1
26,613,3,0.120839464698613,1
26,614,3,0.139213727681945,1
27,591,3,0.165693389938562,1
27,592,3,0.162442485393841,1
27,593,3,0.106438393935837,1
27,611,3,0.11224172727047,1
27,612,3,0.167356422781617,1
27,613,3,0.176541343010717,1
27,614,3,0.140681210842359,1
28,590,3,0.115517467670606,1
28,591,3,0.107245820666903,1
28,592,3,0.100639276160873,1
28,611,3,0.108041112686157,1
28,612,3,0.161836806416351,1
28,613,3,0.171988396959992,1
28,614,3,0.117232993490525,1
29,613,3,0.102422218256742,1
30,608,3,0.116384718313051,1
30,609,3,0.125174726655204,1
31,607,3,0.100825915435738,1
31,608,3,0.123752928397252,1
32,603,3,0.155859012090342,1
32,604,3,0.250707841069606,1
32,605,3,0.193453721794023,1
32,606,3,0.126317077968054,1
33,603,3,0.194867426613127,1
33,604,3,0.325778353372707,1
33,605,3,0.259588053674346,1
21,592,4,0.10534592129928,1
22,593,4,0.13422382307677,1
23,592,4,0.265034426051974,1
23,593,4,0.172890526729209,1
23,616,4,0.101230445770199,1
23,617,4,0.131766946972694,1
24,593,4,0.113308721369387,1
25,592,4,0.151561145524822,1
25,615,4,0.104126774907185,1
26,592,4,0.180167900761519,1
26,593,4,0.116568743287346,1
26,612,4,0.100807397473367,1
26,613,4,0.112498015869689,1
26,614,4,0.121037672253501,1
27,591,4,0.143712514139194,1
27,592,4,0.151752762863689,1
27,593,4,0.100801842084655,1
27,611,4,0.112613578847805,1
27,612,4,0.159960544683049,1
27,613,4,0.175863727195874,1
27,614,4,0.129281193740238,1
28,590,4,0.103511183373367,1
28,611,4,0.121992491072124,1
28,612,4,0.168282680366512,1
28,613,4,0.185467621770085,1
28,614,4,0.118295292741335,1
29,609,4,0.110059668620903,1
29,610,4,0.109740734844274,1
29,611,4,0.11447093047365,1
29,612,4,0.120197828195366,1
29,613,4,0.117545740089139,1
30,591,4,0.109875654539528,1
30,607,4,0.0997994756744139,1
30,608,4,0.153721135120409,1
30,609,4,0.172360531753222,1
31,607,4,0.130591655472662,1
31,608,4,0.17984077550977,1
32,603,4,0.142241567030525,1
32,604,4,0.237673003784749,1
32,605,4,0.20711562085645,1
32,606,4,0.165677660563465,1
33,603,4,0.201265927258374,1
33,604,4,0.34235977259676,2
33,605,4,0.303861146685139,2
34,603,4,0.156164700077416,1
34,604,4,0.232929812902955,2
22,593,5,0.106269869585339,1
23,593,5,0.129659722676946,1
23,617,5,0.134225152012894,1
24,592,5,0.159093283147686,1
25,592,5,0.134873389625081,1
26,591,5,0.18533385672425,1
26,592,5,0.159440342441281,1
26,593,5,0.102007339649191,1
26,614,5,0.101204618659151,1
27,590,5,0.135287516621218,1
27,591,5,0.12432816166602,1
27,592,5,0.140161542353624,1
27,611,5,0.110671022809214,1
27,612,5,0.14069290983741,1
27,613,5,0.152809626547897,1
27,614,5,0.108481840190594,1
28,610,5,0.110467042007235,1
28,611,5,0.156237279596993,1
28,612,5,0.184856964728593,1
28,613,5,0.184994629439445,1
28,614,5,0.106980273086498,1
29,608,5,0.104127864199089,1
29,609,5,0.133620616791903,1
29,610,5,0.144120181634339,1
29,611,5,0.159941612789754,1
29,612,5,0.155727785094643,1
29,613,5,0.133510227950332,1
30,591,5,0.124759401437972,1
30,607,5,0.114834601468785,1
30,608,5,0.206538448648093,1
30,609,5,0.239572532793124,1
30,610,5,0.190598774856477,1
31,591,5,0.168431368711435,1
31,592,5,0.107251484984805,1
31,606,5,0.105227504376375,1
31,607,5,0.165930779323243,1
31,608,5,0.259420259149424,1
31,609,5,0.295305956998773,3
32,592,5,0.125190891747063,1
32,593,5,0.118960643129337,1
32,594,5,0.109253636183474,1
32,603,5,0.120942250282693,1
32,604,5,0.200764874768282,2
32,605,5,0.211096764907906,2
32,606,5,0.211057702900221,1
32,607,5,0.222592323802944,1
33,594,5,0.115894286419025,1
33,602,5,0.104905357188628,1
33,603,5,0.208621479770649,2
33,604,5,0.347805491399246,2
33,605,5,0.356161231737953,2
33,606,5,0.313118014644511,2
33,607,5,0.276919646446981,2
34,603,5,0.224917003441527,2
34,604,5,0.318088192173301,2
34,605,5,0.311184891873811,2
35,604,5,0.170453443059032,2
23,617,6,0.127016120154653,1
25,592,6,0.116825238852027,1
26,591,6,0.161581378357736,1
26,592,6,0.138111527668684,1
27,590,6,0.102664945171754,1
27,591,6,0.117336084076338,1
27,592,6,0.134462378003789,1
27,611,6,0.104210541454618,1
27,612,6,0.123718071056318,1
27,613,6,0.129474020193119,1
28,610,6,0.118519577944409,1
28,611,6,0.182507852272599,1
28,612,6,0.196434111587256,1
28,613,6,0.172522825354029,1
29,609,6,0.131034986384751,1
29,610,6,0.154650747724369,1
29,611,6,0.187948571225244,1
29,612,6,0.175959018451653,1
29,613,6,0.137184300613995,1
30,591,6,0.125548909317215,1
30,607,6,0.109806332002744,1
30,608,6,0.223703357973548,1
30,609,6,0.268617782485855,3
30,610,6,0.198069509094701,1
31,591,6,0.190354424896528,1
31,592,6,0.126072466578048,1
31,593,6,0.115001415630994,1
31,594,6,0.111473177367464,1
31,607,6,0.172275131267934,1
31,608,6,0.302600661665279,3
31,609,6,0.355802920058987,3
31,610,6,0.236071091110438,3
32,592,6,0.161051089272935,1
32,593,6,0.154843726678117,1
32,594,6,0.157481915419646,1
32,595,6,0.11801212041792,1
32,604,6,0.151657384464558,2
32,605,6,0.190195627922734,2
32,606,6,0.223902393390283,2
32,607,6,0.250350531539192,2
32,609,6,0.23810789268458,3
33,593,6,0.156489254600271,1
33,594,6,0.16143648074864,1
33,595,6,0.136040663936698,1
33,596,6,0.104018738936127,1
33,602,6,0.128781993046383,1
33,603,6,0.210110759662066,2
33,604,6,0.32980807984309,2
33,605,6,0.371224199833395,2
33,606,6,0.361223803006057,2
33,607,6,0.333868676846037,2
33,608,6,0.222752950787137,2
34,601,6,0.117257927382212,1
34,602,6,0.198850814605905,1
34,603,6,0.3135336012918,2
34,604,6,0.412514027320328,2
34,605,6,0.387435521240079,2
34,606,6,0.288048244685334,2
34,607,6,0.21682208315636,2
35,603,6,0.256617293221546,2
35,604,6,0.26059482082388,2
35,605,6,0.204147213274163,2
5,602,7,0.103687082230056,1
6,601,7,0.112209941732705,1
25,592,7,0.112949984866578,1
26,591,7,0.140914787705376,1
26,592,7,0.122750823417068,1
27,591,7,0.109659506346978,1
27,592,7,0.124256181256991,1
27,611,7,0.104655484518725,1
27,612,7,0.117378457531411,1
27,613,7,0.114602070325996,1
28,610,7,0.120795054267679,1
28,611,7,0.206462938933294,1
28,612,7,0.204293221961002,1
28,613,7,0.156827381700253,1
29,609,7,0.11920164896314,1
29,610,7,0.160407056327498,1
29,611,7,0.214976691955624,1
29,612,7,0.189867424272,1
29,613,7,0.138328623545191,1
30,591,7,0.122930436759151,1
30,592,7,0.101833891699286,1
30,608,7,0.205200623903035,1
30,609,7,0.269293709898247,3
30,610,7,0.201227954542594,1
31,591,7,0.197401293868991,1
31,592,7,0.149312563818666,1
31,593,7,0.130494773850703,1
31,594,7,0.128518667621463,1
31,607,7,0.164547694499567,1
31,608,7,0.314951793993549,3
31,609,7,0.392936750358002,3
31,610,7,0.243029073863519,3
32,592,7,0.198811316881459,1
32,593,7,0.193549296265697,1
32,594,7,0.210434584359345,1
32,595,7,0.157117852279426,1
32,604,7,0.115562607927116,1
32,605,7,0.1567088231694,2
32,606,7,0.207748739097007,2
32,607,7,0.25615562952671,2
32,608,7,0.274082302466607,1
32,609,7,0.26370838744532,3
33,593,7,0.20358080326982,1
33,594,7,0.222881356516804,1
33,595,7,0.179027793389993,1
33,596,7,0.122904228395936,1
33,597,7,0.11052360893582,1
33,598,7,0.117631086109832,1
33,599,7,0.103945015660051,1
33,600,7,0.101238386708181,1
33,601,7,0.127124668092906,1
33,602,7,0.152627660335301,1
33,603,7,0.194739609101088,2
33,604,7,0.274411965768493,2
33,605,7,0.316742045238096,2
33,606,7,0.342826860965279,2
33,607,7,0.346424029620506,2
33,608,7,0.235281093049839,2
34,595,7,0.196112225829566,1
34,596,7,0.154795536404275,1
34,597,7,0.113673841122755,1
34,598,7,0.1052542900643,1
34,599,7,0.100257413990938,1
34,600,7,0.126583496981982,1
34,601,7,0.198460935247555,1
34,602,7,0.279722263801449,2
34,603,7,0.368343153461825,2
34,604,7,0.441499039170758,2
34,605,7,0.380672238521954,2
34,606,7,0.279942888983725,2
34,607,7,0.221863260731466,2
35,601,7,0.188490254303363,1
35,602,7,0.288851161747917,2
35,603,7,0.361290794458165,2
35,604,7,0.355529224575138,2
35,605,7,0.23870698144605,2
36,603,7,0.186758258389853,2
36,604,7,0.169876739246194,2
4,601,8,0.106100974875593,1
4,602,8,0.129573091291805,1
4,603,8,0.101486505618119,1
5,601,8,0.140522936728679,1
5,602,8,0.142674756634985,1
6,601,8,0.1254760792605,1
6,602,8,0.10788064909575,1
7,600,8,0.103076446974402,1
7,601,8,0.104414936187521,1
26,592,8,0.104442778488592,1
27,592,8,0.103662431554264,1
27,611,8,0.100900259608199,1
27,612,8,0.109537679940413,1
27,613,8,0.102879176210552,1
28,610,8,0.111069910611612,1
28,611,8,0.203861709866074,1
28,612,8,0.192241318118815,1
28,613,8,0.135391042923793,1
29,610,8,0.15198732008942,1
29,611,8,0.221323080876175,1
29,612,8,0.190994928536195,1
30,591,8,0.115325207649516,1
30,592,8,0.113206600253369,1
30,608,8,0.158832190771169,1
30,609,8,0.230087022463061,3
30,610,8,0.18856465294042,1
31,591,8,0.190107308135142,1
31,592,8,0.171918954601099,1
31,593,8,0.147135200017207,1
31,594,8,0.142085275428111,1
31,595,8,0.111336743556464,1
31,607,8,0.146016900269602,1
31,608,8,0.286177342268201,3
31,609,8,0.368628896514134,3
31,610,8,0.224259310775612,3
32,592,8,0.229432336242801,1
32,593,8,0.242092478898453,1
32,594,8,0.273045253002137,4
32,595,8,0.205934675931435,1
32,596,8,0.117547875101271,1
32,605,8,0.127321078316151,1
32,606,8,0.17933674925278,1
32,607,8,0.242426390438765,1
32,608,8,0.28273167233101,1
32,609,8,0.265257752678172,3
33,593,8,0.279571135442661,4
33,594,8,0.312207235897575,4
33,595,8,0.239280646134475,1
33,596,8,0.152513197542008,1
33,597,8,0.129965138341045,1
33,598,8,0.134823805057602,1
33,599,8,0.116676289077047,1
33,600,8,0.113796822178738,1
33,601,8,0.146294266667167,1
33,602,8,0.154103149791211,2
33,603,8,0.161472558096507,2
33,604,8,0.206559123408434,2
33,605,8,0.238396489681678,2
33,606,8,0.283467902943218,2
33,607,8,0.311334560581447,2
34,595,8,0.216494358794064,1
34,596,8,0.171283374560839,1
34,597,8,0.138040200834798,1
34,598,8,0.138286620449365,1
34,599,8,0.135234075960398,1
34,600,8,0.178505129348521,1
34,601,8,0.281108104533644,2
34,602,8,0.318558199844124,2
34,603,8,0.350434562767537,2
34,604,8,0.402808785027351,2
34,605,8,0.318588090013975,2
34,606,8,0.240378979161476,2
35,600,8,0.165443441018225,1
35,601,8,0.272796545874571,2
35,602,8,0.337397416183843,2
35,603,8,0.404811644265758,2
35,604,8,0.431309236267118,2
35,605,8,0.265545151454175,2
36,602,8,0.171260902468856,2
36,603,8,0.208045701855929,2
36,604,8,0.221811497580178,2
1,626,9,0.102180656884068,1
3,602,9,0.109686488107445,1
3,603,9,0.108342552434805,1
4,601,9,0.106891169008735,1
4,602,9,0.151948966121473,1
4,603,9,0.127667048317843,1
5,601,9,0.134712926034674,1
5,602,9,0.168926560811082,1
5,603,9,0.12667994288718,1
6,600,9,0.120383541572112,1
6,601,9,0.134292317751706,1
6,602,9,0.121485937657916,1
7,600,9,0.138462715378597,1
7,601,9,0.124718640134917,1
25,592,9,0.100421973318905,1
26,591,9,0.101217918913301,1
28,611,9,0.173092459662409,1
28,612,9,0.159248605280305,1
29,610,9,0.140321700942298,1
29,611,9,0.215477613730687,1
30,591,9,0.105248418780936,1
30,592,9,0.116319883658913,1
30,593,9,0.100407747166636,1
30,608,9,0.113647937761273,1
30,609,9,0.179030799835648,1
30,610,9,0.173498613041807,1
31,591,9,0.163862094175066,1
31,592,9,0.176661186906017,1
31,593,9,0.159787750308287,1
31,594,9,0.153814095291513,4
31,595,9,0.126153302930258,1
31,607,9,0.122885340074317,1
31,608,9,0.23056763983703,1
31,609,9,0.299369800091596,3
32,592,9,0.24556980365838,1
32,593,9,0.290942231844726,4
32,594,9,0.324387828685324,4
32,595,9,0.256146958763152,4
32,596,9,0.155107291747256,1
32,597,9,0.104338816469256,1
32,605,9,0.109486330720049,1
32,606,9,0.152365914383642,1
32,607,9,0.213505625024845,1
32,608,9,0.264881228038568,1
33,592,9,0.259788483384718,4
33,593,9,0.377701652355859,4
33,594,9,0.400108081823439,4
33,595,9,0.307580119961093,4
33,596,9,0.20812652731522,1
33,597,9,0.163321761818908,1
33,598,9,0.159450037139229,1
33,599,9,0.134885524336893,1
33,600,9,0.12542378235618,1
33,601,9,0.154753903667697,2
33,602,9,0.146170098283008,2
33,603,9,0.137121099897713,2
33,604,9,0.159240805950271,2
33,605,9,0.176318059956195,1
33,606,9,0.218933326939235,1
33,607,9,0.2503615769591,1
34,593,9,0.243575462682664,4
34,594,9,0.244820131184074,4
34,595,9,0.228593864692465,1
34,596,9,0.194216269698636,1
34,597,9,0.170298011997222,1
34,598,9,0.185461282091203,1
34,599,9,0.181609622168399,1
34,600,9,0.229858728665779,2
34,601,9,0.345029496338916,2
34,602,9,0.319841668923162,2
34,603,9,0.30692876697406,2
34,604,9,0.35475957448731,2
34,605,9,0.256493680376258,2
35,597,9,0.117540119342913,1
35,598,9,0.132126870803679,1
35,599,9,0.148265373046567,1
35,600,9,0.218461140684604,2
35,601,9,0.343354100032748,2
35,602,9,0.338740687388421,2
35,603,9,0.396772277867705,2
35,604,9,0.484349909099757,2
35,605,9,0.292571093600746,2
35,606,9,0.144282388091793,1
36,601,9,0.157036591103373,2
36,602,9,0.16283873710983,2
36,603,9,0.208939923365922,2
36,604,9,0.264613480088516,2
36,605,9,0.167141352988053,1
1,626,10,0.100517362610955,1
3,602,10,0.128409640394772,1
3,603,10,0.139563390383192,1
3,604,10,0.100854182560652,1
4,601,10,0.120029870276658,1
4,602,10,0.181891574484881,1
4,603,10,0.173656364295373,1
4,604,10,0.102342896020278,1
5,600,10,0.106789843075807,1
5,601,10,0.145826677224372,1
5,602,10,0.197403886383723,1
5,603,10,0.168850844130822,1
6,600,10,0.148108907157448,1
6,601,10,0.149341451839965,1
6,602,10,0.133353587774508,1
7,600,10,0.16191788241278,1
7,601,10,0.136981387318081,1
8,600,10,0.100419544197959,1
28,611,10,0.128537087547563,1
29,591,10,0.10492739356385,1
29,592,10,0.105326150651219,1
29,610,10,0.114634901583989,1
30,591,10,0.135405356219414,1
30,592,10,0.14235770733335,1
30,593,10,0.118743972076673,1
30,609,10,0.12830004673629,1
30,610,10,0.142123062964267,1
31,591,10,0.163751193366299,1
31,592,10,0.189659827020898,1
31,593,10,0.181535626569347,4
31,594,10,0.157835118319582,4
31,595,10,0.127634467596989,1
31,607,10,0.100014447431707,1
31,608,10,0.171793043349893,1
31,609,10,0.211239440361518,1
32,592,10,0.25713174400206,4
32,593,10,0.33585465205993,4
32,594,10,0.325858067754256,4
32,595,10,0.271394866838089,4
32,596,10,0.189638215469519,1
32,597,10,0.118310346755451,1
32,606,10,0.130137932715807,1
32,607,10,0.179454109562538,1
32,608,10,0.221760213717329,1
33,592,10,0.285960703894294,4
33,593,10,0.44134335757181,4
33,594,10,0.408966029301657,4
33,595,10,0.33738573897463,4
33,596,10,0.266116942560526,4
33,597,10,0.195350745431018,1
33,598,10,0.182550901088653,1
33,599,10,0.162637087392526,1
33,600,10,0.146038598964333,1
33,601,10,0.157996987096545,2
33,602,10,0.130970195302289,1
33,603,10,0.121227753690783,1
33,604,10,0.137380002797502,2
33,605,10,0.150354841884277,1
33,606,10,0.181663792654795,1
33,607,10,0.19725918484717,1
34,593,10,0.272137829274265,4
34,594,10,0.245098423479758,4
34,595,10,0.23045916814921,4
34,596,10,0.213196462196596,1
34,597,10,0.201365401395066,1
34,598,10,0.246440017174804,1
34,599,10,0.259354444132572,1
34,600,10,0.299337644194584,2
34,601,10,0.380339699489441,2
34,602,10,0.286466788912984,2
34,603,10,0.258230185958251,2
34,604,10,0.32908868968372,2
34,605,10,0.254634389810824,2
35,597,10,0.130079677384771,1
35,598,10,0.178749501094309,1
35,599,10,0.213030650182939,1
35,600,10,0.289702813730293,2
35,601,10,0.390690325449817,2
35,602,10,0.302397661226013,2
35,603,10,0.342893242413921,2
35,604,10,0.495979276612306,2
35,605,10,0.344843880998441,2
35,606,10,0.178641879054174,2
36,601,10,0.168628661261123,2
36,602,10,0.147025954932135,2
36,603,10,0.188660619557179,2
36,604,10,0.27863005259495,2
36,605,10,0.200048186052836,2
3,602,11,0.136473624789859,1
3,603,11,0.15699955517863,1
3,604,11,0.12494703196847,1
3,605,11,0.108555748646294,1
4,601,11,0.145845554653072,1
4,602,11,0.201451586170526,1
4,603,11,0.206622084480497,1
4,604,11,0.123372046590031,1
5,600,11,0.14284002400269,1
5,601,11,0.177873775760849,1
5,602,11,0.206888917425349,1
5,603,11,0.189062437554799,1
6,600,11,0.159374102600587,1
6,601,11,0.157505509482291,1
6,602,11,0.133690658261343,1
6,603,11,0.104459575369755,1
6,627,11,0.102393853095557,1
7,600,11,0.1492189391795,1
7,601,11,0.126991327870913,1
7,627,11,0.113397444194984,1
8,626,11,0.102155788349895,1
8,627,11,0.108941793697141,1
29,591,11,0.146979932349182,1
29,592,11,0.139079417990158,1
29,593,11,0.101961142779534,1
30,591,11,0.200071235469528,1
30,592,11,0.182638447478993,1
30,593,11,0.139737001726883,1
31,592,11,0.197137728799852,1
31,593,11,0.209723734248505,4
31,594,11,0.173120094998018,4
31,595,11,0.136572216600108,1
31,596,11,0.0998675890971833,1
31,608,11,0.123365445481092,1
31,609,11,0.13962117731871,1
32,592,11,0.251115737316052,4
32,593,11,0.373929042346543,4
32,594,11,0.320966079598349,4
32,595,11,0.279719235569956,4
32,596,11,0.23481524647409,4
32,597,11,0.141239777944993,1
32,606,11,0.110598726505533,1
32,607,11,0.14794117799004,1
32,608,11,0.169193883937291,1
33,591,11,0.145216869830565,1
33,592,11,0.273959691769871,4
33,593,11,0.452750858109313,4
33,594,11,0.394705063263598,4
33,595,11,0.361612157355741,4
33,596,11,0.328309301326268,4
33,597,11,0.223111894255408,4
33,598,11,0.186989536846952,1
33,599,11,0.174848507141163,1
33,600,11,0.152171040061981,2
33,601,11,0.142525621680382,2
33,602,11,0.115288749049482,1
33,603,11,0.116492307674429,1
33,604,11,0.133187165757385,1
33,605,11,0.149211651816661,1
33,606,11,0.161008040456881,1
34,592,11,0.169210234208773,1
34,593,11,0.272549058753937,4
34,594,11,0.262646262481214,4
34,595,11,0.255268335913228,4
34,596,11,0.233761748701866,4
34,597,11,0.218390968500136,1
34,598,11,0.278469490968271,1
34,599,11,0.310821199092838,2
34,600,11,0.326269689379013,2
34,601,11,0.339774599692208,2
34,602,11,0.231572119473565,2
34,603,11,0.217310347359497,1
34,604,11,0.30253948703194,2
34,605,11,0.284190234190728,2
34,606,11,0.20680680660161,1
35,594,11,0.126196841927669,1
35,595,11,0.133806689634978,1
35,597,11,0.141839378673657,1
35,598,11,0.208753719807818,1
35,599,11,0.254987146101079,1
35,600,11,0.313536803809999,2
35,601,11,0.355798192532122,2
35,602,11,0.242993257945709,2
35,603,11,0.26846685019961,2
35,604,11,0.434687348320411,2
35,605,11,0.37337115060489,2
35,606,11,0.204310933847364,2
36,601,11,0.158866002391875,2
36,603,11,0.159931057551203,1
36,604,11,0.248497711367669,2
36,605,11,0.211906609867,2
2,605,12,0.104749969698495,1
3,601,12,0.104872874504045,1
3,602,12,0.141930922765286,1
3,603,12,0.167591895012547,1
3,604,12,0.156532782704763,1
3,605,12,0.143249292756935,1
4,600,12,0.12844433434192,1
4,601,12,0.192092324772159,1
4,602,12,0.227358607673106,1
4,603,12,0.231326113789922,1
4,604,12,0.153931934889709,1
4,605,12,0.10291013388647,1
5,601,12,0.238016043591218,1
5,602,12,0.226243826338352,1
5,603,12,0.198830880564058,1
5,604,12,0.111921475450636,1
6,600,12,0.150715059824076,1
6,601,12,0.16128832615675,1
6,602,12,0.135357449161467,1
6,603,12,0.110438153985935,1
6,626,12,0.1128071569121,1
6,627,12,0.132963261806478,1
7,600,12,0.112594951956244,1
7,601,12,0.103361819667463,1
7,626,12,0.157483669179612,1
7,627,12,0.160816150795038,1
8,626,12,0.151890002750699,1
29,591,12,0.157753170889629,1
29,592,12,0.143375922940797,1
30,591,12,0.23238218229104,1
30,592,12,0.190541739532374,1
30,593,12,0.142424687892539,1
30,594,12,0.109031453313776,1
31,592,12,0.189479287780697,1
31,593,12,0.229862388686577,4
31,594,12,0.191079653660504,4
31,595,12,0.142822649796818,1
31,596,12,0.11046129054598,1
32,592,12,0.230362504385632,4
32,593,12,0.383771796849506,4
32,594,12,0.323488923220143,4
32,595,12,0.272789356548003,4
32,596,12,0.259207651155563,4
32,597,12,0.167566449153665,1
32,598,12,0.10130684870436,1
32,606,12,0.100263100094678,1
32,607,12,0.125647163446973,1
33,592,12,0.231613011491649,4
33,593,12,0.408413366161144,4
33,594,12,0.391793473147034,4
33,595,12,0.365811878720692,4
33,596,12,0.35820923123287,4
33,597,12,0.256966912351117,4
33,598,12,0.19959867885565,1
33,599,12,0.183971032729991,2
33,600,12,0.15477910988236,2
33,601,12,0.127029431301722,1
33,602,12,0.115234850886063,1
33,603,12,0.127685021634262,1
33,604,12,0.144013844958652,1
33,605,12,0.178881621309368,2
33,606,12,0.162123715010997,1
34,592,12,0.146653776567228,1
34,593,12,0.249181873826856,4
34,594,12,0.299954226984035,4
34,595,12,0.281161153049378,4
34,596,12,0.252095010737924,4
34,597,12,0.244668414607658,1
34,598,12,0.295567408841619,2
34,599,12,0.338340372613629,2
34,600,12,0.324993235339838,2
34,601,12,0.27252799184851,2
34,602,12,0.200541308497865,1
34,603,12,0.20643490055968,1
34,604,12,0.289201957312744,2
34,605,12,0.35268192446676,2
34,606,12,0.240788988634216,2
35,593,12,0.104026396658214,1
35,594,12,0.138563322378869,1
35,595,12,0.13432365667979,1
35,597,12,0.163833772585556,1
35,598,12,0.224929290654206,1
35,599,12,0.274593289298866,2
35,600,12,0.303197637200455,2
35,601,12,0.287478240017706,2
35,602,12,0.212136602959651,1
35,603,12,0.228669287263911,2
35,604,12,0.355752986918098,2
35,605,12,0.393459479756988,2
35,606,12,0.222549253201052,2
36,604,12,0.222866716433611,2
36,605,12,0.222563915070083,2
2,604,13,0.110818502040123,1
2,605,13,0.117897603160032,1
3,601,13,0.11337816372828,1
3,602,13,0.143697253159616,1
3,603,13,0.170747671695275,1
3,604,13,0.193244490605065,1
3,605,13,0.181541988034067,1
3,606,13,0.103519570921029,1
4,601,13,0.225554696708082,1
4,602,13,0.253097115718108,1
4,603,13,0.243468646718538,1
4,604,13,0.188585305914923,1
4,605,13,0.134976011815375,1
5,603,13,0.203416821266562,1
5,604,13,0.126142442689973,1
6,601,13,0.148342821700956,1
6,602,13,0.136097775511235,1
6,603,13,0.113808880640118,1
6,626,13,0.156990699235449,1
6,627,13,0.160172553566363,1
7,625,13,0.100759904346344,1
7,626,13,0.223238557118027,1
7,627,13,0.199278862752578,1
8,626,13,0.187088466337691,1
29,591,13,0.141530226738328,1
29,592,13,0.129874727112996,1
30,592,13,0.176565089574229,1
30,593,13,0.140822797004066,1
30,594,13,0.120786394397041,1
31,593,13,0.231643511664966,4
31,594,13,0.206836696771462,4
31,595,13,0.152978717330186,1
31,596,13,0.119204905945934,1
32,592,13,0.190186870015825,4
32,593,13,0.352317142393883,4
32,594,13,0.34275283268747,4
32,595,13,0.273946598481183,4
32,596,13,0.253089403531426,4
32,597,13,0.187288394973787,1
32,598,13,0.117112496020083,1
32,605,13,0.0997189552168558,1
32,606,13,0.0998553345632611,1
32,607,13,0.104058781306525,1
33,592,13,0.171548693389944,4
33,593,13,0.339427812721588,4
33,594,13,0.419615164815459,4
33,595,13,0.368315006159021,4
33,596,13,0.344638375187796,4
33,597,13,0.290459087313539,4
33,598,13,0.217003864189333,1
33,599,13,0.186660614263561,1
33,600,13,0.154409142780019,1
33,601,13,0.117889379006155,1
33,602,13,0.120522774863306,1
33,603,13,0.142285541744697,1
33,604,13,0.17200399562006,1
33,605,13,0.241467486775501,2
34,593,13,0.211804151070491,4
34,594,13,0.324698690808944,4
34,595,13,0.288443221929795,4
34,596,13,0.259139330767331,4
34,597,13,0.281448007179429,4
34,598,13,0.292972475881605,1
34,599,13,0.322849487086542,2
34,600,13,0.294147908989584,2
34,601,13,0.211457516600738,1
34,602,13,0.184390867615707,1
34,603,13,0.207520096726316,1
34,604,13,0.292312125343443,2
34,605,13,0.423908630641686,2
34,606,13,0.273945770619336,2
35,594,13,0.139382709535043,1
35,595,13,0.132850879560722,1
35,596,13,0.138583191063201,1
35,597,13,0.187919639632269,1
35,598,13,0.223042223145215,1
35,599,13,0.265960716315626,1
35,600,13,0.269079424394854,1
35,601,13,0.222412133136152,1
35,603,13,0.216445209943347,2
35,604,13,0.298472288920053,2
35,605,13,0.393633853605012,2
35,606,13,0.237828118951906,2
36,604,13,0.216937308453986,2
36,605,13,0.23539193939401,2
2,604,14,0.109726868158333,1
2,605,14,0.122232472971537,1
3,602,14,0.135376838557362,1
3,603,14,0.161120063236309,1
3,604,14,0.206631539534225,1
3,605,14,0.210971910269847,1
3,606,14,0.121149869319633,1
4,603,14,0.245390288352569,1
4,604,14,0.204720246173285,1
4,605,14,0.159759232646235,1
5,604,14,0.138542549582256,1
5,626,14,0.124748584769364,1
6,603,14,0.122664900071665,1
6,625,14,0.10078802986331,1
6,626,14,0.214469299786649,1
6,627,14,0.192675357370961,1
7,625,14,0.127553936246511,1
7,626,14,0.274665705424657,1
8,625,14,0.100484498674206,1
29,592,14,0.10801083037122,1
30,592,14,0.151268267610541,1
30,593,14,0.130116353843185,1
30,594,14,0.120973480281587,1
31,593,14,0.202836816899254,1
31,594,14,0.21227749197454,4
31,595,14,0.171780429349643,1
31,596,14,0.127111444089189,1
32,592,14,0.144745827332433,1
32,593,14,0.280418255970716,4
32,594,14,0.351458911088405,4
32,595,14,0.288394334509135,4
32,596,14,0.229886222393441,4
32,597,14,0.191677674915907,4
32,598,14,0.133682336071195,1
32,604,14,0.115124309543625,1
32,605,14,0.13929690601175,1
32,606,14,0.104696627073946,1
33,592,14,0.120852394593516,1
33,593,14,0.26213523207728,4
33,594,14,0.414926198884656,4
33,595,14,0.355023313843154,4
33,596,14,0.303289660580522,4
33,597,14,0.315903704402788,4
33,598,14,0.243414182123328,4
33,599,14,0.185480366485365,1
33,600,14,0.151687285527328,1
33,601,14,0.119127936579983,1
33,602,14,0.127437763264929,1
33,603,14,0.156999413570683,1
33,604,14,0.221708929854479,1
33,605,14,0.312142401243437,2
34,593,14,0.163920523792807,1
34,594,14,0.285631890240094,4
34,595,14,0.255057754002309,4
34,596,14,0.251182576267293,4
34,597,14,0.327701476443727,4
34,598,14,0.300369682916295,4
34,599,14,0.28101059112238,1
34,600,14,0.250331534288383,1
34,601,14,0.179318383791275,1
34,603,14,0.205384387447273,1
34,604,14,0.294149651856631,2
34,605,14,0.432414867549877,2
34,606,14,0.266515274824052,2
35,594,14,0.118946711085882,1
35,595,14,0.119180821701932,1
35,596,14,0.139115582481377,1
35,597,14,0.198918829992403,4
35,598,14,0.209316905508126,1
35,604,14,0.258815614999242,2
35,605,14,0.343413161439794,2
35,606,14,0.230396904223966,2
36,605,14,0.223471229868764,2
2,604,15,0.103987051434634,1
2,605,15,0.119235144689194,1
3,602,15,0.122367142129653,1
3,603,15,0.152010903259145,1
3,604,15,0.202486021334426,1
3,605,15,0.218275002484015,1
3,606,15,0.140012342041507,1
4,604,15,0.219390894896512,1
4,605,15,0.174205487237197,1
4,606,15,0.108869486500541,1
5,604,15,0.161051230880883,1
5,625,15,0.101908747838942,1
5,626,15,0.176109547699894,1
6,603,15,0.135106781308474,1
6,625,15,0.138700235478307,1
6,626,15,0.273764795662372,1
7,625,15,0.142425417718115,1
30,593,15,0.112598426797418,1
30,594,15,0.116311637719199,1
30,595,15,0.106951777210284,1
31,593,15,0.161565823269344,1
31,594,15,0.215058018489191,4
31,595,15,0.20058718947287,4
31,596,15,0.136671723415556,1
31,597,15,0.10095301401512,1
32,592,15,0.105388610649006,1
32,593,15,0.207930585487493,4
32,594,15,0.346613392125132,4
32,595,15,0.312132924403871,4
32,596,15,0.208797661843234,4
32,597,15,0.190395774417211,4
32,598,15,0.161320928663443,1
32,599,15,0.113162592860439,1
32,601,15,0.106192126822136,1
32,602,15,0.108268284512777,1
32,603,15,0.127043058343443,1
32,604,15,0.172762774574685,1
32,605,15,0.191955487923154,2
32,606,15,0.111501596993245,1
33,593,15,0.192617929901771,4
33,594,15,0.358874113225353,4
33,595,15,0.319820449516868,4
33,596,15,0.25782429400891,4
33,597,15,0.336478097388377,4
33,598,15,0.292043004885592,4
33,599,15,0.187079948075,1
33,600,15,0.152311863719356,1
33,601,15,0.145248165186973,1
33,602,15,0.142991795043702,1
33,603,15,0.178016483893218,1
33,604,15,0.284272127156086,2
33,605,15,0.36032245752701,2
33,606,15,0.191850915900351,2
34,594,15,0.208919989324075,4
34,595,15,0.199264505885281,4
34,596,15,0.231508090895437,4
34,597,15,0.374845746841438,4
34,598,15,0.339027236516739,4
34,599,15,0.239324980314976,4
34,600,15,0.2017841034172,1
34,601,15,0.171664060295518,1
34,602,15,0.171773762883189,1
34,604,15,0.284080586067652,2
34,605,15,0.374334738223341,2
34,606,15,0.227127721361093,2
35,596,15,0.131510048370009,1
35,597,15,0.203569583563206,4
35,598,15,0.20518896847966,4
35,605,15,0.271805943816895,2
2,605,16,0.113627873004398,1
2,606,16,0.100754022170061,1
3,604,16,0.179024656229308,1
3,605,16,0.197546801481554,1
3,606,16,0.160045095520653,1
4,605,16,0.184425659599127,1
4,606,16,0.131403570086374,1
4,625,16,0.105358056011093,1
4,626,16,0.125527319551674,1
5,605,16,0.126699245139722,1
5,625,16,0.167873444291025,1
5,626,16,0.254117542588121,1
6,603,16,0.141170498979886,1
6,604,16,0.114683603825025,1
6,625,16,0.206058310562561,1
30,594,16,0.112601760030645,1
30,595,16,0.116557087863971,1
31,593,16,0.134770985293167,1
31,594,16,0.223966160538354,1
31,595,16,0.233101071376133,1
31,596,16,0.141377170332869,1
31,597,16,0.103882664591455,1
31,604,16,0.107175201872754,1
32,593,16,0.164243226519425,1
32,594,16,0.326163570561706,4
32,595,16,0.324542704208263,4
32,596,16,0.190809639983292,1
32,597,16,0.170711430953622,1
32,598,16,0.174260997552635,1
32,599,16,0.118937495676373,1
32,600,16,0.121394959998077,1
32,601,16,0.160188816694493,1
32,602,16,0.147465811003049,1
32,603,16,0.166410307405309,1
32,604,16,0.248863865948345,2
32,605,16,0.226625797437478,2
33,593,16,0.143342416321824,1
33,594,16,0.273077060325739,4
33,595,16,0.264234319362504,4
33,596,16,0.21017108464772,1
33,597,16,0.305439116723396,4
33,598,16,0.308038624709407,4
33,599,16,0.176755574049516,1
33,600,16,0.164860724314075,1
33,601,16,0.215150630086886,1
33,602,16,0.188984836399544,1
33,603,16,0.212314179325874,2
33,604,16,0.350605472667306,2
33,605,16,0.358262149033576,2
33,606,16,0.175027118334694,2
34,594,16,0.139120952690465,1
34,595,16,0.144046752467078,1
34,596,16,0.191510120035204,4
34,597,16,0.349400345462017,4
34,598,16,0.345190885827442,4
34,599,16,0.200438479342109,4
34,600,16,0.168158511982353,1
34,604,16,0.280863100998552,2
34,605,16,0.299035082475274,2
35,597,16,0.180497455134215,4
35,598,16,0.191823574673555,4
1,611,17,0.11056465345477,1
1,623,17,0.107624828892049,1
1,624,17,0.124286746787823,1
2,605,17,0.102072893235985,1
2,606,17,0.112192273418019,1
2,610,17,0.121893550688466,1
2,611,17,0.12361697387469,1
2,624,17,0.109463520947575,1
3,605,17,0.163137192198661,1
3,606,17,0.157729642184499,1
3,607,17,0.109245379350841,1
3,610,17,0.124483157011068,1
3,611,17,0.112292825953696,1
4,606,17,0.147399244374784,1
4,624,17,0.108697596238059,1
4,625,17,0.146559171565349,1
5,606,17,0.104280517566543,1
5,624,17,0.137222458509399,1
5,625,17,0.246882269687908,1
6,624,17,0.133324874039914,1
30,594,17,0.10609464608963,1
30,595,17,0.116465870559914,1
31,593,17,0.114219282257943,1
31,594,17,0.210191759408062,1
31,595,17,0.230365576188802,1
31,596,17,0.135231025943066,1
31,597,17,0.104710711618268,1
31,598,17,0.111513492060839,1
31,603,17,0.109663634763295,1
31,604,17,0.138816462924485,1
31,605,17,0.102862891296585,1
32,593,17,0.13266511171938,1
32,594,17,0.269459434768552,1
32,595,17,0.286262110964185,1
32,596,17,0.168106476508089,1
32,597,17,0.149168733715636,1
32,598,17,0.168504209661068,1
32,599,17,0.11444352388934,1
32,600,17,0.12807469402715,1
32,601,17,0.201730139896267,1
32,602,17,0.187402029905233,1
32,603,17,0.23048827402889,1
32,604,17,0.328304268797671,2
32,605,17,0.228967666102309,1
33,594,17,0.19175473142521,1
33,595,17,0.199114488604235,1
33,596,17,0.168803481718827,1
33,597,17,0.245417477078497,1
33,598,17,0.27590682283446,1
33,599,17,0.155587996264578,1
33,600,17,0.16985767663787,1
33,601,17,0.275087631750828,1
33,602,17,0.237653047957064,1
33,603,17,0.264699904508195,2
33,604,17,0.39410107268856,2
33,605,17,0.307588442151241,2
34,596,17,0.154505675828569,1
34,597,17,0.280007266135263,4
34,598,17,0.305535279412698,4
34,599,17,0.170206097546346,1
34,604,17,0.264748813714694,2
35,597,17,0.165327551252538,1
35,598,17,0.187831820918953,1
1,610,18,0.114992156649808,1
1,611,18,0.137377878678289,1
1,612,18,0.117366965501822,1
1,623,18,0.161630407386344,1
2,606,18,0.12209964471674,1
2,607,18,0.108995452216342,1
2,609,18,0.10452557556623,1
2,610,18,0.168570373251329,1
2,611,18,0.188938759351997,1
2,612,18,0.127671035126212,1
2,623,18,0.136417624293064,1
2,624,18,0.146661183752177,1
3,606,18,0.143890134077092,1
3,607,18,0.119637387510657,1
3,609,18,0.118178226540391,1
3,610,18,0.177481086029386,1
3,611,18,0.177463777181029,1
3,612,18,0.106894796350776,1
4,607,18,0.10746120635512,1
4,610,18,0.106426542439919,1
4,623,18,0.100367367115748,1
4,624,18,0.144602879555846,1
5,606,18,0.131048264853063,1
5,623,18,0.100900292286956,1
5,624,18,0.183921666020893,1
6,605,18,0.115165506563442,1
30,595,18,0.117935085694455,1
31,594,18,0.189551311761402,1
31,595,18,0.213942235005885,1
31,596,18,0.138404514512156,1
31,597,18,0.108098572834103,1
31,598,18,0.109015462508622,1
31,603,18,0.134590783733456,1
31,604,18,0.154009546937883,2
32,593,18,0.114094438512803,1
32,594,18,0.211604701722833,1
32,595,18,0.238074298922254,1
32,596,18,0.16160282651533,1
32,597,18,0.140920746132092,1
32,598,18,0.147310979051787,1
32,599,18,0.104365013939552,1
32,600,18,0.117833923155313,1
32,601,18,0.200615489276541,1
32,602,18,0.210622748642876,1
32,603,18,0.299449144113897,2
32,604,18,0.361491311311889,2
32,605,18,0.196927125103095,2
33,594,18,0.138540022425038,1
33,595,18,0.155653658780563,1
33,597,18,0.191068826098976,1
33,598,18,0.210842023103191,1
33,601,18,0.267526638785422,1
33,602,18,0.247782939805973,2
33,603,18,0.302983504197928,2
33,604,18,0.375367648378576,2
33,605,18,0.232281313860711,2
34,597,18,0.212896166204447,1
34,598,18,0.237745223837997,1
34,603,18,0.207543146143009,2
34,604,18,0.227599537256476,2
1,606,19,0.104746462178563,1
1,610,19,0.122322067230658,1
1,611,19,0.150176927837565,1
1,612,19,0.132494430570912,1
1,613,19,0.104065611166765,1
1,621,19,0.10107102790002,1
2,606,19,0.12910800722039,1
2,607,19,0.12983477188595,1
2,609,19,0.110239674108072,1
2,610,19,0.190967413022695,1
2,611,19,0.246051357823387,1
2,612,19,0.185810748719907,1
2,613,19,0.106002905925458,1
2,622,19,0.100451242592371,1
2,623,19,0.172440660065695,1
3,606,19,0.128922184914453,1
3,607,19,0.119674085754909,1
3,609,19,0.122657863245964,1
3,610,19,0.200832236579638,1
3,611,19,0.23593974429263,1
3,612,19,0.164051053641686,1
4,607,19,0.104526860930677,1
4,608,19,0.110392774085207,1
4,609,19,0.124837209558689,1
4,610,19,0.130146843123583,1
4,611,19,0.120645113237067,1
4,623,19,0.138210903769104,1
5,608,19,0.119022591159929,1
5,609,19,0.125039447493622,1
5,623,19,0.142865132181082,1
30,596,19,0.10028104073234,1
31,597,19,0.127212301626598,1
31,598,19,0.102611308438391,1
31,603,19,0.142599421206891,1
31,604,19,0.140087775505872,1
32,594,19,0.170817680485957,1
32,595,19,0.203363206319037,1
32,598,19,0.122294116000396,1
32,601,19,0.163485318998323,1
32,602,19,0.203712193659304,1
32,603,19,0.321892239146973,1
32,604,19,0.317774301818188,2
32,605,19,0.154135588904118,1
33,602,19,0.222118982898895,1
33,603,19,0.305641703231738,2
33,604,19,0.305783507251826,2
33,605,19,0.172390639781454,1
34,603,19,0.19141034089678,1
34,604,19,0.185857740772654,1
1,606,20,0.107691123197338,1
1,607,20,0.110617146431633,1
1,608,20,0.10079484883063,1
1,610,20,0.114760202831728,1
1,611,20,0.141200454507251,1
1,612,20,0.135889916830076,1
1,613,20,0.106862520631655,1
1,619,20,0.11282739595568,1
2,605,20,0.107397090633639,1
2,606,20,0.128334087108297,1
2,607,20,0.136251627099784,1
2,608,20,0.104687858274118,1
2,609,20,0.106683125147953,1
2,610,20,0.177112752864902,1
2,611,20,0.249240107372054,1
2,612,20,0.216452399269914,1
2,613,20,0.126116049147134,1
3,604,20,0.142401889012984,1
3,605,20,0.155230283696159,1
3,606,20,0.1290703721851,1
3,607,20,0.116310341461833,1
3,609,20,0.122526647143185,1
3,610,20,0.194810870577461,1
3,611,20,0.257856101332512,1
3,612,20,0.210905724893748,1
3,613,20,0.115231310687374,1
4,606,20,0.14224139274382,1
4,607,20,0.102652581708641,1
4,608,20,0.136236398798963,1
4,609,20,0.169986877550627,1
4,610,20,0.156952955270969,1
4,611,20,0.151826812927336,1
4,612,20,0.121123813457285,1
5,606,20,0.144254959721646,1
5,607,20,0.105759634364494,1
5,608,20,0.168656699634737,1
5,609,20,0.20224493925019,1
5,610,20,0.139693353800282,1
5,621,20,0.103728704073716,1
6,604,20,0.11468423561433,1
6,605,20,0.128542697400869,1
6,609,20,0.107092001757112,1
28,595,20,0.104456982855023,1
30,597,20,0.100227382213139,1
31,598,20,0.102876790661282,1
31,603,20,0.13573046628114,1
32,603,20,0.291904033024455,1
32,604,20,0.240249353424877,1
33,603,20,0.282189292106073,1
33,604,20,0.233533237046204,1
1,604,21,0.10059610752271,1
1,605,21,0.108501512802384,1
1,606,21,0.103411491378295,1
1,607,21,0.110496812354976,1
1,608,21,0.1069957192457,1
1,610,21,0.100282053773811,1
1,611,21,0.122867094434922,1
1,612,21,0.133193483650429,1
1,613,21,0.10935033262581,1
2,604,21,0.104091568992842,1
2,605,21,0.12562264348621,1
2,606,21,0.120435195794209,1
2,607,21,0.123714585322225,1
2,608,21,0.101180828523963,1
2,610,21,0.138334135362226,1
2,611,21,0.203099924465793,1
2,612,21,0.205747404867266,1
2,613,21,0.133484291910093,1
3,604,21,0.152646733836544,1
3,605,21,0.190861773493826,1
3,606,21,0.136781720112042,1
3,607,21,0.103724891552051,1
3,609,21,0.110397240182014,1
3,610,21,0.164935068486537,1
3,611,21,0.233079895541515,1
3,612,21,0.22260204028673,1
3,613,21,0.13919832509442,1
4,604,21,0.191226294136647,1
4,605,21,0.233372588276173,1
4,606,21,0.13840629005796,1
4,608,21,0.135095485351427,1
4,609,21,0.186514627362561,1
4,610,21,0.169629916593622,1
4,611,21,0.177104430674754,1
4,612,21,0.154420101056575,1
4,613,21,0.104202469801608,1
5,604,21,0.166410350976985,1
5,605,21,0.20752153459163,1
5,606,21,0.132133384769266,1
5,607,21,0.101909902488361,1
5,608,21,0.182390524641598,1
5,609,21,0.245553943568255,1
5,610,21,0.169159418741442,1
5,611,21,0.130373916913932,1
5,612,21,0.103196029439645,1
6,605,21,0.11513789301367,1
6,608,21,0.10463484243714,1
6,609,21,0.128615483885908,1
6,619,21,0.101402205317653,1
6,620,21,0.111355936879816,1
28,595,21,0.15848141699218,1
1,603,22,0.10986493590719,1
1,604,22,0.111353834546441,1
1,605,22,0.114977908711701,1
1,606,22,0.102032099254173,1
2,605,22,0.141249951931378,1
2,606,22,0.11552822987462,1
2,607,22,0.10722311982362,1
2,610,22,0.108194147305777,1
2,611,22,0.153788409788413,1
2,612,22,0.173821326661345,1
3,606,22,0.138497943078779,1
3,609,22,0.100629036816973,1
3,610,22,0.143895351785313,1
3,611,22,0.203613155239374,1
3,612,22,0.210316200115197,1
3,613,22,0.153525247757278,1
4,606,22,0.123726730926956,1
4,608,22,0.11825976003942,1
4,609,22,0.179523170669264,1
4,610,22,0.185445661645297,1
4,612,22,0.189539307764618,1
4,613,22,0.131671437858534,1
5,604,22,0.106406924292725,1
5,605,22,0.140886215578729,1
5,606,22,0.103913295479801,1
5,608,22,0.164246341894271,1
5,609,22,0.239713421808013,1
5,610,22,0.179580892247267,1
5,611,22,0.157940452846718,1
5,612,22,0.130044133789937,1
5,616,22,0.100820915585898,1
6,608,22,0.105999496441798,1
6,609,22,0.140943076616128,1
6,619,22,0.127525745372031,1
15,615,22,0.128233185999211,1
18,613,22,0.105615488366812,1
19,613,22,0.106159709495067,1
1,605,23,0.120497122038963,1
3,610,23,0.133951086169798,1
3,612,23,0.195288263647394,1
4,609,23,0.152279947466563,1
4,613,23,0.169675917390736,1
4,614,23,0.128984677590997,1
4,615,23,0.101239998860199,1
5,608,23,0.126299888941806,1
5,609,23,0.187202014125785,1
5,612,23,0.15835862111582,1
5,613,23,0.129281825529542,1
5,614,23,0.119061054057066,1
5,615,23,0.113273482776286,1
5,616,23,0.131048079673439,1
6,609,23,0.135976428393108,1
6,610,23,0.100583079591535,1
6,616,23,0.105297927097982,1
14,615,23,0.102850255510496,1
14,616,23,0.138341978263936,1
15,615,23,0.157144899397407,1
16,614,23,0.107937401203958,1
17,613,23,0.126527910416111,1
17,614,23,0.115897281971762,1
18,612,23,0.115515256408041,1
18,613,23,0.129358468107922,1
19,612,23,0.128097961302224,1
19,613,23,0.112100565932605,1
3,610,24,0.125583363620144,1
5,613,24,0.164877227086424,1
5,614,24,0.160162031006568,1
5,615,24,0.134212472655129,1
6,614,24,0.117953865086884,1
6,615,24,0.121068858680718,1
6,616,24,0.132149778612424,1
7,615,24,0.126654518814136,1
7,616,24,0.125036963908081,1
8,615,24,0.11738847901693,1
8,616,24,0.111082241395967,1
14,615,24,0.115847762761797,1
16,613,24,0.137022540766221,1
16,614,24,0.148736273936751,1
17,612,24,0.118810244596125,1
17,613,24,0.178013695305943,1
18,612,24,0.135900580997819,1
18,613,24,0.142921971432643,1
19,611,24,0.103160322451025,1
19,612,24,0.138153171298182,1
8,616,25,0.13436413476695,1
18,612,25,0.14107437986226,1
