x,y,z,signal,mito.p
190,749,43,0.21527110577149,1
191,749,43,0.186481752532892,1
192,749,43,0.189732112431661,1
193,749,43,0.184647940505097,1
193,750,43,0.147780725292552,1
194,749,43,0.174080937600872,1
195,749,43,0.192474012655389,1
196,749,43,0.196936122654223,1
197,749,43,0.160726970466842,1
198,749,43,0.162326889736968,1
200,778,43,0.135692635173308,1
201,777,43,0.109539575308326,1
202,776,43,0.126369244157346,1
203,751,43,0.177870496992217,1
203,752,43,0.188621927908742,1
204,752,43,0.15104633527798,1
204,753,43,0.140446882367928,1
205,753,43,0.107602574658446,1
205,754,43,0.106891267045006,1
206,757,43,0.10373025086822,1
206,758,43,0.115086903259635,1
206,759,43,0.116428104809595,1
207,759,43,0.128689098232793,1
185,748,44,0.124589569937189,1
186,748,44,0.138095689364397,1
187,778,44,0.109271827358275,1
187,779,44,0.140948751826949,1
187,780,44,0.117739372618028,1
188,749,44,0.236340843357593,1
188,778,44,0.138236229805877,1
189,749,44,0.213513511498232,1
189,778,44,0.127245307171295,1
190,749,44,0.195911861476708,1
190,750,44,0.22542929742407,1
190,752,44,0.105369929292849,1
191,749,44,0.184760638645505,1
191,750,44,0.18871530201077,1
191,751,44,0.138114229112607,1
192,749,44,0.194747931291236,1
192,750,44,0.168167803642296,1
192,751,44,0.108474596399431,1
193,750,44,0.147691054782999,1
194,749,44,0.195691650225356,1
194,750,44,0.152953478436765,1
194,751,44,0.103179167200968,1
195,749,44,0.207419838299454,1
195,750,44,0.184818785047351,1
195,751,44,0.131554665766405,1
195,780,44,0.144291440107517,1
196,749,44,0.194316549911337,1
196,750,44,0.219318631271587,1
197,749,44,0.164394365771132,1
197,750,44,0.195496187686067,1
197,754,44,0.104891000321331,1
198,749,44,0.176512280702713,1
200,777,44,0.104991367677384,1
200,778,44,0.150398097665793,1
201,775,44,0.102457271670219,1
201,776,44,0.10649828320473,1
201,777,44,0.104632184564894,1
201,778,44,0.105515327976221,1
202,751,44,0.151822510224315,1
202,752,44,0.155599651687953,1
202,775,44,0.167659921291964,1
202,776,44,0.128961573709709,1
203,751,44,0.147198749306897,1
203,752,44,0.178578068334426,1
203,753,44,0.159763600706771,1
203,769,44,0.112496545325619,1
204,752,44,0.157070435402836,1
204,753,44,0.135214719243261,1
204,754,44,0.104090806488509,1
204,760,44,0.1007522139455,1
205,757,44,0.112494192455105,1
205,758,44,0.124352757877217,1
205,759,44,0.11471402774791,1
206,757,44,0.106254107531485,1
206,758,44,0.123175255114619,1
206,759,44,0.129120839079021,1
207,759,44,0.158507048030685,1
181,777,45,0.100699067393494,1
186,748,45,0.13615866692868,1
186,749,45,0.176312025279046,1
187,748,45,0.164930035957939,1
187,749,45,0.232113236119894,1
187,751,45,0.152127795173385,1
187,778,45,0.118722643741189,1
187,779,45,0.131436760810694,1
188,749,45,0.231341167804038,1
188,750,45,0.233275249151614,1
188,751,45,0.170953624115601,1
188,778,45,0.15959021811438,1
188,779,45,0.173777918378962,1
188,780,45,0.122881178979243,1
189,749,45,0.201189655039243,1
189,750,45,0.216449741397668,1
189,751,45,0.173502730565205,1
189,778,45,0.142863639851173,1
190,749,45,0.178242871429667,1
190,750,45,0.189895157643881,1
190,751,45,0.153820739972129,1
191,749,45,0.177125236150124,1
191,750,45,0.17318124784552,1
191,751,45,0.124272095811711,1
192,749,45,0.18287463864258,1
192,750,45,0.160466738630929,1
192,751,45,0.104556696635933,1
193,750,45,0.139712841232448,1
194,749,45,0.197818884813384,1
194,750,45,0.150102757951808,1
194,751,45,0.10317471199708,1
194,781,45,0.1595872552404,1
195,749,45,0.201594653769223,1
195,750,45,0.174148473698932,1
195,751,45,0.134704821702906,1
195,779,45,0.108361615043128,1
195,780,45,0.152511345745771,1
196,749,45,0.181665470164327,1
196,750,45,0.197266897033852,1
196,751,45,0.177869625558694,1
196,752,45,0.133855903843209,1
197,749,45,0.172584370346616,1
197,750,45,0.188248627573174,1
197,751,45,0.177876259346391,1
197,752,45,0.178786014158937,1
197,753,45,0.14752902261225,1
198,749,45,0.188400758080514,1
198,750,45,0.198523830962104,1
198,751,45,0.18202404327335,1
198,754,45,0.13249501878854,1
199,749,45,0.180984063613657,1
199,754,45,0.144005206873851,1
200,754,45,0.139465081788838,1
201,751,45,0.159911363153575,1
201,752,45,0.153670352331836,1
201,753,45,0.154521862706265,1
201,754,45,0.122366085516506,1
201,778,45,0.112890313456066,1
202,750,45,0.161424934254455,1
202,751,45,0.134012249910218,1
202,752,45,0.133892035655671,1
202,753,45,0.13153220456734,1
202,754,45,0.110382600098821,1
202,771,45,0.11462374723489,1
202,775,45,0.143951766213032,1
202,776,45,0.121881742764224,1
203,751,45,0.133899617127325,1
203,752,45,0.159520960935111,1
203,753,45,0.138732543876186,1
203,754,45,0.103540082287585,1
203,769,45,0.102729834290487,1
203,770,45,0.152443112500892,1
204,752,45,0.161802319434664,1
204,753,45,0.128223523980021,1
204,761,45,0.117859859195552,1
204,762,45,0.116865422830373,1
204,763,45,0.103469550636788,1
204,766,45,0.116843571634775,1
204,769,45,0.147392458086221,1
205,758,45,0.107675274000132,1
205,759,45,0.106448600600979,1
205,760,45,0.143727742440015,1
205,764,45,0.13317881088848,1
205,765,45,0.127500724336991,1
206,757,45,0.10687530891861,1
206,758,45,0.127120212889018,1
206,759,45,0.144033147211194,1
206,760,45,0.172402415026939,1
207,758,45,0.119721796740313,1
207,759,45,0.182355525692716,1
207,760,45,0.212328950124094,1
207,764,45,0.171492093782602,1
181,776,46,0.101887909684815,1
181,777,46,0.111577673139834,1
185,749,46,0.119385597687002,1
186,748,46,0.127837282856631,1
186,749,46,0.152148829400055,1
186,750,46,0.13752874560702,1
186,751,46,0.105675039955214,1
187,748,46,0.15308577293853,1
187,749,46,0.204120351335806,1
187,750,46,0.183289539035969,1
187,751,46,0.127477043130994,1
187,778,46,0.121917732968739,1
187,779,46,0.114461486312841,1
188,748,46,0.169954405758963,1
188,749,46,0.210349205659894,1
188,750,46,0.195659755758401,1
188,751,46,0.133696801867682,1
188,778,46,0.170276160801624,1
188,779,46,0.157598001257877,1
188,780,46,0.105160491138429,1
189,749,46,0.181364052201517,1
189,750,46,0.172188793991607,1
189,751,46,0.125884389437869,1
189,778,46,0.155641905320916,1
190,749,46,0.157738225804704,1
190,750,46,0.149384184761367,1
190,751,46,0.114019386300604,1
191,750,46,0.145728826132618,1
191,751,46,0.104482156390929,1
192,749,46,0.156261723307323,1
192,750,46,0.139103208125345,1
193,749,46,0.152716176195436,1
193,750,46,0.12650245366431,1
194,748,46,0.165057287038188,1
194,749,46,0.179354286852437,1
194,750,46,0.139256133815776,1
194,751,46,0.10081805074819,1
194,781,46,0.151491256556249,1
195,748,46,0.178619363390514,1
195,749,46,0.181254338720926,1
195,750,46,0.155021074293039,1
195,751,46,0.130381040882986,1
195,779,46,0.110643921226638,1
195,780,46,0.15696783499838,1
196,748,46,0.163959226334163,1
196,749,46,0.172397992501808,1
196,750,46,0.166506666167154,1
196,751,46,0.155917910103602,1
196,752,46,0.120302236824383,1
197,748,46,0.162797300445795,1
197,749,46,0.185223881813603,1
197,750,46,0.174002334297065,1
197,751,46,0.156166965804577,1
197,752,46,0.15141142235259,1
197,753,46,0.132727865825981,1
198,748,46,0.159334626661979,1
198,749,46,0.189356829584827,1
198,750,46,0.186049412576117,1
198,751,46,0.159587451312943,1
198,752,46,0.173274534804195,1
198,753,46,0.174268775096831,1
198,754,46,0.114321686589856,1
199,748,46,0.165848701178262,1
199,749,46,0.162446831668539,1
199,750,46,0.161812340920183,1
199,751,46,0.149890988712713,1
199,752,46,0.161231868157356,1
199,753,46,0.166320615109917,1
199,754,46,0.117601337547929,1
200,749,46,0.169117666182755,1
200,750,46,0.152443831433549,1
200,751,46,0.14641884898225,1
200,752,46,0.150696988471385,1
200,753,46,0.149328020870787,1
200,754,46,0.112728913074622,1
201,749,46,0.177769312667237,1
201,750,46,0.156160843984075,1
201,751,46,0.136413898914752,1
201,752,46,0.130480983415196,1
201,753,46,0.128316800045777,1
201,754,46,0.103788429948823,1
201,778,46,0.120675450016599,1
202,750,46,0.147167922346009,1
202,751,46,0.124569069463552,1
202,752,46,0.116345852377909,1
202,753,46,0.11229891509544,1
202,771,46,0.105609573511772,1
202,772,46,0.124666495731464,1
202,774,46,0.138455014084835,1
202,775,46,0.125777519009148,1
202,776,46,0.119475954450455,1
203,750,46,0.132743921988649,1
203,751,46,0.144056120377454,1
203,752,46,0.143918531917035,1
203,753,46,0.118469938912335,1
203,770,46,0.129029861419183,1
203,771,46,0.169731939673369,1
203,775,46,0.16727156694228,1
204,751,46,0.169697986444715,1
204,752,46,0.165413147810369,1
204,753,46,0.118160296795648,1
204,766,46,0.10330012217401,1
204,769,46,0.135834439193396,1
204,770,46,0.155379494901196,1
205,752,46,0.114854165151384,1
205,759,46,0.102222180691455,1
205,760,46,0.133050154621675,1
205,761,46,0.166034654199227,1
205,762,46,0.157826981309058,1
205,763,46,0.151339202299342,1
205,764,46,0.120503995470878,1
205,765,46,0.116010187077631,1
205,770,46,0.155439188097546,1
206,757,46,0.11194804328018,1
206,758,46,0.130601557136071,1
206,759,46,0.158441984625248,1
206,760,46,0.189946201862511,1
206,761,46,0.196252178053417,1
206,764,46,0.195620149104764,1
207,757,46,0.10157335486164,1
207,758,46,0.132985113002076,1
207,759,46,0.199682946477359,1
207,760,46,0.234514536551018,1
207,761,46,0.190731341681218,1
207,762,46,0.177806250555708,1
207,763,46,0.21078313598285,1
207,764,46,0.201300849956823,1
208,759,46,0.17528345050559,1
208,760,46,0.220749329044397,1
208,761,46,0.170554605598175,1
208,762,46,0.13570443220463,1
208,763,46,0.131944762983135,1
186,749,47,0.127427523921029,1
186,750,47,0.115879079904042,1
187,748,47,0.135635109667847,1
187,749,47,0.167966676785105,1
187,750,47,0.153150367948449,1
187,751,47,0.108233895567361,1
187,778,47,0.12197139148794,1
187,779,47,0.101248299264509,1
188,748,47,0.148297921088665,1
188,749,47,0.184956210113984,1
188,750,47,0.166671693890639,1
188,751,47,0.110658027556797,1
188,778,47,0.171512311040344,1
188,779,47,0.134963604780586,1
189,749,47,0.17180502556084,1
189,750,47,0.14893616989409,1
189,751,47,0.101097007511935,1
189,778,47,0.159244967045345,1
189,780,47,0.100241641044165,1
190,749,47,0.145033356823465,1
190,750,47,0.124560148162857,1
191,749,47,0.133777529290702,1
191,750,47,0.118412151976817,1
192,749,47,0.125421483950262,1
192,750,47,0.114386205349342,1
193,749,47,0.126996349506591,1
193,750,47,0.111535354149356,1
193,782,47,0.148417503553907,1
194,748,47,0.139658213243452,1
194,749,47,0.148431969350395,1
194,750,47,0.124750022634677,1
194,778,47,0.100011996524923,1
194,781,47,0.134605097029077,1
194,782,47,0.117453291885229,1
195,748,47,0.157909898208805,1
195,749,47,0.152722799090214,1
195,750,47,0.130628495324862,1
195,751,47,0.116802734081286,1
195,779,47,0.110219064705244,1
195,780,47,0.148193207457914,1
195,781,47,0.136716754742876,1
195,782,47,0.12024485292687,1
196,748,47,0.171912680279731,1
196,749,47,0.160532281324805,1
196,750,47,0.132370959333571,1
196,751,47,0.124247837281005,1
196,752,47,0.10252923029341,1
196,780,47,0.148938381156656,1
197,748,47,0.186504823735423,1
197,749,47,0.186206575612054,1
197,750,47,0.148796740530353,1
197,751,47,0.128798615640841,1
197,752,47,0.121002052408234,1
197,753,47,0.111106227603698,1
197,779,47,0.112360340265918,1
198,748,47,0.165102993726488,1
198,749,47,0.175049328996621,1
198,750,47,0.157232772575319,1
198,751,47,0.132603196367546,1
198,752,47,0.13040259796977,1
198,753,47,0.132253424737108,1
199,748,47,0.16698367798492,1
199,749,47,0.145483223486979,1
199,750,47,0.133501143255851,1
199,751,47,0.122539696860197,1
199,752,47,0.122612123878907,1
199,753,47,0.123353038446303,1
200,748,47,0.185446402363792,1
200,749,47,0.143654814347029,1
200,750,47,0.119996124013466,1
200,751,47,0.115876465603472,1
200,752,47,0.11747694041247,1
200,753,47,0.114057511517251,1
200,777,47,0.104155575785132,1
201,748,47,0.16419359838027,1
201,749,47,0.152516944706159,1
201,750,47,0.127661492929132,1
201,751,47,0.114079852894206,1
201,752,47,0.108928351835043,1
201,753,47,0.104629101868805,1
201,777,47,0.117315474673511,1
201,778,47,0.130906308332108,1
202,749,47,0.151626557503669,1
202,750,47,0.142702010718428,1
202,751,47,0.123499373920713,1
202,752,47,0.10502074588004,1
202,772,47,0.117867353523852,1
202,773,47,0.125468432431333,1
202,774,47,0.117058325533687,1
202,775,47,0.114102444808299,1
202,776,47,0.120207773430451,1
202,777,47,0.112810871397493,1
203,750,47,0.167618212304953,1
203,751,47,0.176006413542405,1
203,752,47,0.133957001024838,1
203,770,47,0.112712846019035,1
203,771,47,0.139576352956852,1
203,774,47,0.184245436253578,1
203,775,47,0.153877001898981,1
204,751,47,0.219028836053395,1
204,752,47,0.162412725939018,1
204,753,47,0.0999287310517658,1
204,770,47,0.123569938250266,1
205,752,47,0.113788663382376,1
205,760,47,0.117761626851631,1
205,761,47,0.130324582883591,1
205,762,47,0.121264898544716,1
205,763,47,0.114526789362497,1
205,764,47,0.100524410329575,1
205,765,47,0.101996838875234,1
206,756,47,0.105063075763437,1
206,757,47,0.120427919324289,1
206,758,47,0.135760781274834,1
206,759,47,0.165698520503431,1
206,760,47,0.202933349947803,1
206,761,47,0.200942124346933,1
206,762,47,0.183989986409124,1
206,763,47,0.196763186671513,1
206,764,47,0.178356364753165,1
206,765,47,0.155996938231251,1
207,756,47,0.119077230041843,1
207,757,47,0.133450741719443,1
207,758,47,0.156901834801905,1
207,759,47,0.208664528586703,1
207,760,47,0.254891135912643,1
207,761,47,0.233041508894812,1
207,762,47,0.204603060150231,1
207,763,47,0.223442232918274,1
207,764,47,0.210728497100935,1
207,765,47,0.178460631774235,1
208,758,47,0.118941438913066,1
208,759,47,0.161775043565383,1
208,760,47,0.195714852142915,1
208,761,47,0.173700763833388,1
208,762,47,0.146566219283969,1
208,763,47,0.142761355341369,1
208,764,47,0.132680732165286,1
186,749,48,0.105733382429603,1
187,749,48,0.131444549247809,1
187,750,48,0.120493429339407,1
187,777,48,0.100958373331288,1
187,778,48,0.119319096416251,1
188,748,48,0.126811006489092,1
188,749,48,0.157891630783572,1
188,750,48,0.137317967623558,1
188,777,48,0.117427802454671,1
188,778,48,0.160425062322675,1
188,779,48,0.109326771241922,1
189,748,48,0.132822340112832,1
189,749,48,0.163046726506018,1
189,750,48,0.130807879915645,1
189,777,48,0.10429204227489,1
189,778,48,0.1458372760346,1
189,779,48,0.109014558396341,1
190,749,48,0.130096899089776,1
190,750,48,0.104575083883276,1
190,778,48,0.111945450765448,1
191,749,48,0.105265095839989,1
193,782,48,0.14161501722015,1
194,748,48,0.104972697214146,1
194,749,48,0.110363352310874,1
194,750,48,0.100824695428805,1
194,778,48,0.110608660847699,1
194,781,48,0.119008397686417,1
194,782,48,0.108824150171488,1
195,748,48,0.125022857577921,1
195,749,48,0.119090628332265,1
195,750,48,0.103528034719125,1
195,779,48,0.10640152140488,1
195,780,48,0.127431053226799,1
195,781,48,0.11447615907479,1
195,782,48,0.102729060893235,1
196,747,48,0.11632526476092,1
196,748,48,0.161022636968398,1
196,749,48,0.137369828811117,1
196,750,48,0.10445314854752,1
196,780,48,0.133179224819404,1
196,781,48,0.147320967858548,1
197,747,48,0.135189502135678,1
197,748,48,0.188334834134472,1
197,749,48,0.163051421354125,1
197,750,48,0.118268027764973,1
197,751,48,0.100926489757252,1
197,779,48,0.10779889773834,1
198,747,48,0.161484671022481,1
198,748,48,0.161715088938976,1
198,749,48,0.146877201229698,1
198,750,48,0.122531538063834,1
198,751,48,0.103899472365537,1
199,747,48,0.228201981037011,1
199,748,48,0.165113374678335,1
199,749,48,0.128348977728627,1
199,750,48,0.108658915482541,1
200,747,48,0.212456353705209,1
200,748,48,0.173600037011007,1
200,749,48,0.12512565405492,1
200,777,48,0.122209238375221,1
201,748,48,0.165818113861592,1
201,749,48,0.137480206759769,1
201,750,48,0.105632067389594,1
201,776,48,0.108513211797435,1
201,777,48,0.152408581947529,1
201,778,48,0.149754456865441,1
202,748,48,0.155032729716414,1
202,749,48,0.154439152771979,1
202,750,48,0.143927692861949,1
202,751,48,0.124362714005221,1
202,771,48,0.101601153591035,1
202,772,48,0.118659922313346,1
202,773,48,0.126873825953207,1
202,774,48,0.119378321217082,1
202,775,48,0.120364740393846,1
202,776,48,0.127427687314815,1
202,777,48,0.135295185236223,1
203,749,48,0.15294501463867,1
203,750,48,0.212698111150426,1
203,751,48,0.209996166153744,1
203,752,48,0.127719312543406,1
203,770,48,0.112188809469764,1
203,771,48,0.131457402892279,1
203,775,48,0.171288080301865,1
204,750,48,0.237904216884333,1
204,751,48,0.254120614391291,1
204,752,48,0.151275598545056,1
204,770,48,0.125914443001506,1
205,751,48,0.152115083136863,1
205,752,48,0.108096753716623,1
205,760,48,0.106635980594339,1
205,761,48,0.107066958936234,1
206,756,48,0.104061896681371,1
206,757,48,0.119807197225602,1
206,758,48,0.136845345652166,1
206,759,48,0.164000118352246,1
206,760,48,0.207965137826695,1
206,761,48,0.216729558702018,1
206,762,48,0.182618742188446,1
206,763,48,0.166068716357072,1
206,764,48,0.15245837348047,1
206,765,48,0.135787185710592,1
207,756,48,0.144669871007954,1
207,757,48,0.160944338666324,1
207,758,48,0.180720890689604,1
207,759,48,0.208550784726067,1
207,760,48,0.274020408900611,1
207,761,48,0.310590966355967,2
207,762,48,0.261181622372671,1
207,763,48,0.223781068057993,1
207,764,48,0.198533111729127,1
207,765,48,0.166172939806465,1
208,757,48,0.135888653251468,1
208,758,48,0.140096947343705,1
208,759,48,0.154215793467024,1
208,760,48,0.18798728465952,1
208,761,48,0.216501809550689,1
208,762,48,0.190746874983772,1
208,763,48,0.158203397019472,1
208,764,48,0.139705706370475,1
208,765,48,0.134787139492106,1
186,776,49,0.102893260754874,1
186,777,49,0.117527679629367,1
187,749,49,0.109835416096587,1
187,776,49,0.10315014846464,1
187,777,49,0.138443609198598,1
187,778,49,0.114121311344079,1
188,749,49,0.137626160982013,1
188,750,49,0.111300698887354,1
188,777,49,0.144547205846622,1
188,778,49,0.137319862991472,1
189,749,49,0.153560551707893,1
189,750,49,0.115097469391106,1
189,777,49,0.118774690108372,1
189,778,49,0.1254863186044,1
190,749,49,0.116254613288014,1
190,778,49,0.105290846700604,1
193,782,49,0.139643889054912,1
194,778,49,0.130552027033187,1
194,781,49,0.106887214879123,1
194,782,49,0.105886079368733,1
195,779,49,0.10564871176989,1
195,780,49,0.102166615911422,1
196,747,49,0.107727560011534,1
196,748,49,0.132053899139017,1
196,749,49,0.10762595086271,1
196,780,49,0.107317975362637,1
196,781,49,0.103079377169624,1
197,747,49,0.131901441844105,1
197,748,49,0.163776323330529,1
197,749,49,0.127366883040723,1
197,779,49,0.101481854341688,1
197,780,49,0.126527169697616,1
197,781,49,0.116745775007616,1
198,746,49,0.187924737518381,1
198,747,49,0.160656939890321,1
198,748,49,0.149065185627223,1
198,749,49,0.118669725940483,1
198,779,49,0.138280945238544,1
199,746,49,0.281205639730745,1
199,747,49,0.223762354023079,1
199,748,49,0.158071265911493,1
199,749,49,0.114792641944635,1
199,778,49,0.125408052981083,1
200,747,49,0.20186028849298,1
200,748,49,0.168126094655284,1
200,749,49,0.118341424253478,1
200,776,49,0.0998430582435008,1
200,777,49,0.13590726925011,1
200,778,49,0.158436886739136,1
201,747,49,0.16855842371914,1
201,748,49,0.183107354964992,1
201,749,49,0.132464496829384,1
201,776,49,0.131283464761017,1
201,777,49,0.190062167878632,1
202,747,49,0.149117536996139,1
202,748,49,0.179170882774528,1
202,749,49,0.153439869057827,1
202,750,49,0.13899605448073,1
202,751,49,0.118024614596061,1
202,771,49,0.11034759025702,1
202,772,49,0.124105532186641,1
202,773,49,0.143462783077238,1
202,774,49,0.144182216808283,1
202,775,49,0.135723233382896,1
202,776,49,0.135825997181138,1
203,748,49,0.133412638288635,1
203,749,49,0.171718459533213,1
203,750,49,0.24296129812124,1
203,751,49,0.214905996911042,1
203,752,49,0.115267769287408,1
203,770,49,0.118365987785917,1
203,771,49,0.135671241480309,1
204,749,49,0.162308480703787,1
204,750,49,0.26709005059022,1
204,751,49,0.250752284179298,1
204,752,49,0.132186019354077,1
204,770,49,0.145122744117123,1
205,750,49,0.16276120131209,1
205,751,49,0.151027512313875,1
205,752,49,0.103849114400806,1
206,756,49,0.100999189098938,1
206,757,49,0.116040828858896,1
206,758,49,0.133684863228412,1
206,759,49,0.155374625766384,1
206,760,49,0.192235588443398,1
206,761,49,0.21251933656311,2
206,762,49,0.173520061199401,1
206,763,49,0.134554107275042,1
206,764,49,0.119470616920124,1
206,765,49,0.112501207494968,1
207,755,49,0.137399599158859,1
207,756,49,0.164161388018662,1
207,757,49,0.181073069655149,1
207,758,49,0.199229343542613,1
207,759,49,0.207336049966183,1
207,760,49,0.271360510571431,2
207,761,49,0.357157585256883,2
207,762,49,0.297246879099508,2
207,763,49,0.200616317138388,1
207,764,49,0.166279025945015,1
207,765,49,0.154300965201013,1
208,756,49,0.180563662296152,1
208,757,49,0.164009660549327,1
208,758,49,0.163447771106386,1
208,759,49,0.159402663834315,1
208,760,49,0.19158907191242,1
208,761,49,0.263602943988994,2
208,762,49,0.237549608797841,1
208,763,49,0.168760432902773,1
208,764,49,0.157631191982197,1
186,775,50,0.103331461102094,1
186,776,50,0.149120347369252,1
187,776,50,0.153975757103015,1
187,777,50,0.174026897829505,1
188,776,50,0.119130256771739,1
188,777,50,0.160952061745925,1
188,778,50,0.116077026028873,1
189,777,50,0.125095219239117,1
189,778,50,0.10764152773694,1
190,778,50,0.102391761655101,1
193,777,50,0.104411581168456,1
194,778,50,0.156216975195899,1
194,781,50,0.110479089575695,1
195,779,50,0.10601697957686,1
197,747,50,0.119829102885795,1
197,748,50,0.125403924564766,1
198,746,50,0.168896550819122,1
198,747,50,0.155984716376086,1
198,748,50,0.133228656886016,1
198,779,50,0.104411265273804,1
199,746,50,0.236220215172122,1
199,747,50,0.201497576074721,1
199,748,50,0.146919552898933,1
199,749,50,0.102945187299947,1
199,778,50,0.104519573567838,1
200,746,50,0.180667286634998,1
200,747,50,0.200455908012576,1
200,748,50,0.174572622180588,1
200,749,50,0.115388048899469,1
200,773,50,0.111902031590146,1
200,774,50,0.106625893751306,1
200,776,50,0.106578400624283,1
200,777,50,0.133520314793364,1
201,747,50,0.212167582421407,1
201,748,50,0.220997578669363,1
201,749,50,0.133832996034464,1
201,772,50,0.115483830336605,1
201,773,50,0.143878936156317,1
201,774,50,0.133319634545854,1
201,775,50,0.113528954406577,1
201,776,50,0.14035113360955,1
202,747,50,0.184051052113274,1
202,748,50,0.203166436629463,1
202,749,50,0.148206573069579,1
202,750,50,0.127659662918733,1
202,751,50,0.104280245243567,1
202,770,50,0.108546849131437,1
202,771,50,0.117735756168907,1
202,772,50,0.133123965041104,1
203,748,50,0.137371310248107,1
203,749,50,0.176958018949911,1
203,750,50,0.238430998449203,1
203,751,50,0.186869736523329,1
203,752,50,0.0997221686279731,1
203,769,50,0.100346626997892,1
203,770,50,0.120198056946666,1
204,748,50,0.101845220335089,1
204,749,50,0.172867738742573,1
204,750,50,0.261354100852781,1
204,751,50,0.216903976121718,1
204,752,50,0.113813706203253,1
205,749,50,0.133868583200974,1
205,750,50,0.169441643380901,1
205,751,50,0.156374759128221,1
205,752,50,0.106181898371156,1
206,750,50,0.112129628240609,1
206,751,50,0.103441348869389,1
206,756,50,0.102134558050682,1
206,757,50,0.117512277041842,1
206,758,50,0.135433165841728,1
206,759,50,0.151576559005266,1
206,760,50,0.171063261345758,1
206,761,50,0.185959959924944,2
206,762,50,0.151158020376917,1
206,763,50,0.106345411978895,1
207,754,50,0.116692911671505,1
207,755,50,0.14883043232895,1
207,756,50,0.176618769879268,1
207,757,50,0.194442885986385,1
207,758,50,0.214586311522998,1
207,759,50,0.224216719462157,1
207,760,50,0.26761990395826,2
207,761,50,0.340968049688283,2
207,762,50,0.280361525648346,2
207,763,50,0.163017827591799,1
207,764,50,0.129013271503482,1
208,756,50,0.19802188525265,1
208,757,50,0.185060422670459,1
208,758,50,0.192166701623377,1
208,759,50,0.205640741404007,1
208,760,50,0.236335244397205,1
208,761,50,0.291322874007728,2
208,762,50,0.250730171553642,1
208,763,50,0.164651209909222,1
186,775,51,0.137524268617294,1
187,775,51,0.126152159173758,1
187,776,51,0.19815684851958,1
188,776,51,0.140184079803122,1
188,777,51,0.152360173815307,1
189,777,51,0.117188506809157,1
191,778,51,0.127124232376144,1
192,777,51,0.109175446810591,1
193,777,51,0.110816519528858,1
194,778,51,0.165246704007408,1
195,779,51,0.104030688468316,1
198,747,51,0.145252881820918,1
198,748,51,0.118611634003233,1
199,747,51,0.162198331506435,1
199,748,51,0.127988019070333,1
200,747,51,0.191382542167384,1
200,748,51,0.166629233292214,1
200,749,51,0.104428802873462,1
200,772,51,0.117847125373192,1
200,773,51,0.15882490340833,1
200,774,51,0.138119947895104,1
200,775,51,0.10644358985822,1
200,776,51,0.114235044311796,1
201,748,51,0.237912691575348,1
201,749,51,0.125592241349164,1
201,771,51,0.109606468724163,1
201,772,51,0.148626331704861,1
201,774,51,0.17202423466364,1
201,775,51,0.122551744428657,1
202,748,51,0.200127094358375,1
202,749,51,0.132544320140124,1
202,750,51,0.111337843741287,1
202,770,51,0.117078477433915,1
202,771,51,0.123276646405062,1
202,772,51,0.146544237373342,1
203,748,51,0.130555665268147,1
203,749,51,0.165370436674806,1
203,750,51,0.199130762625283,1
203,751,51,0.142011791796254,1
203,769,51,0.111036469350153,1
203,770,51,0.128459845858636,1
204,749,51,0.175986784502291,1
204,750,51,0.233813119708068,1
204,751,51,0.17541988431659,1
205,750,51,0.189589938052325,1
205,751,51,0.174252272324483,1
205,752,51,0.111201627788667,1
206,756,51,0.110162813671312,1
206,757,51,0.126695182080919,1
206,758,51,0.138021225369827,1
206,759,51,0.145375285552192,1
206,760,51,0.15045531816952,1
206,761,51,0.155371869857866,1
206,762,51,0.130972853174535,1
207,756,51,0.180609205590666,1
207,757,51,0.203103736987458,1
207,758,51,0.220969496724073,1
207,759,51,0.243099768908101,1
207,760,51,0.271070257850639,1
207,761,51,0.294850502267791,2
207,762,51,0.235991442086403,1
207,763,51,0.137537481728092,1
191,778,52,0.11150495201231,1
192,778,52,0.152917455553494,1
193,778,52,0.193708420027062,1
194,778,52,0.148957585372927,1
194,779,52,0.147259520902232,1
200,748,52,0.154794196575233,1
200,774,52,0.162124575551601,1
202,749,52,0.118201689888007,1
202,771,52,0.12823501600961,1
203,749,52,0.144611343353941,1
203,750,52,0.149183689693481,1
204,750,52,0.19567772907482,1
204,751,52,0.138174706599128,1
204,767,52,0.127538500980229,1
206,760,52,0.143042730333142,1
206,761,52,0.134601905403798,1
