x,y,z,signal,mito.p
25,553,26,0.102430507768133,1
26,552,26,0.123370957298127,1
26,553,26,0.23351508944308,1
26,554,26,0.202055358887183,1
27,552,26,0.153210115609394,1
27,553,26,0.287520286685208,1
27,554,26,0.25618314504021,1
27,555,26,0.125120643312161,1
28,553,26,0.154401038448251,1
28,554,26,0.147907061367601,1
25,553,27,0.10616536292005,1
25,554,27,0.117942721630704,1
26,552,27,0.114769941101352,1
26,553,27,0.213098316996028,1
26,554,27,0.209527574562397,1
26,555,27,0.131447708194332,1
27,552,27,0.147058001899956,1
27,553,27,0.250609151223086,1
27,554,27,0.24096619464119,1
27,555,27,0.144853961339763,1
28,552,27,0.113635585191079,1
28,553,27,0.150499739493373,1
28,554,27,0.155109579260255,1
30,547,27,0.112133048617188,1
30,548,27,0.110240088038995,1
25,553,28,0.100612087434944,1
25,554,28,0.144287747407962,1
25,555,28,0.156456063875951,1
26,552,28,0.100550487977762,1
26,553,28,0.175380462842578,1
26,554,28,0.217674454071394,1
26,555,28,0.197937203700018,1
26,556,28,0.11034179522409,1
27,552,28,0.141083224912522,1
27,553,28,0.211099466351828,1
27,554,28,0.226570918911344,1
27,555,28,0.189749236100395,1
27,556,28,0.110018689459468,1
28,551,28,0.106889077568279,1
28,552,28,0.129014491510415,1
28,553,28,0.152528436735748,1
28,554,28,0.158914225344474,1
28,555,28,0.147388700029151,1
29,547,28,0.116058203064768,1
29,548,28,0.101683035663474,1
29,551,28,0.103130072814846,1
29,552,28,0.110161539199784,1
29,553,28,0.109266969116382,1
29,554,28,0.112794521126011,1
30,546,28,0.113110241491524,1
30,547,28,0.112208133508145,1
30,548,28,0.120746275776209,1
30,549,28,0.106708952259001,1
31,548,28,0.100233471354884,1
25,554,29,0.147230055556224,1
25,555,29,0.199490425026211,1
26,553,29,0.139007317759019,1
26,554,29,0.218559874102801,1
26,555,29,0.262201962099331,1
26,556,29,0.158487103095919,1
27,552,29,0.125813814215396,1
27,553,29,0.178118811974698,1
27,554,29,0.222053973958052,1
27,555,29,0.235655090532225,1
27,556,29,0.1399330524838,1
28,551,29,0.110817783107467,1
28,552,29,0.137138789998237,1
28,553,29,0.153655832070753,1
28,554,29,0.161089617527587,1
28,555,29,0.161530867892138,1
29,547,29,0.122148139992315,1
29,548,29,0.103454681802296,1
29,551,29,0.111524439444476,1
29,552,29,0.122029821105681,1
29,553,29,0.123945188418343,1
29,554,29,0.123499264991522,1
30,546,29,0.118042424518695,1
30,547,29,0.111874984472165,1
30,548,29,0.120250560816448,1
30,549,29,0.12031897924095,1
30,550,29,0.100754414315146,1
30,552,29,0.102884067131202,1
31,548,29,0.102121878692917,1
31,549,29,0.101418065407778,1
25,554,30,0.128023181413001,1
25,555,30,0.199471384203726,1
25,556,30,0.162341911072327,1
26,553,30,0.107973631052692,1
26,554,30,0.208095526067627,1
26,555,30,0.294590684362802,1
26,556,30,0.200724505610313,1
27,552,30,0.107586681889564,1
27,553,30,0.15348815736794,1
27,554,30,0.229918814007215,1
27,555,30,0.272786284744833,1
27,556,30,0.16638743227532,1
28,551,30,0.107223305003243,1
28,552,30,0.139167988314888,1
28,553,30,0.159691032080113,1
28,554,30,0.170628993342312,1
28,555,30,0.166612599804837,1
29,547,30,0.112080098137725,1
29,549,30,0.101886580748692,1
29,550,30,0.105886776515552,1
29,551,30,0.115474604034176,1
29,552,30,0.131432577929782,1
29,553,30,0.140003518777083,1
29,554,30,0.13108479970353,1
30,547,30,0.102767610933725,1
30,548,30,0.108227468745127,1
30,549,30,0.12523947416599,1
30,550,30,0.118240610287744,1
30,551,30,0.104629178119238,1
30,552,30,0.103289392648753,1
30,553,30,0.110451791920576,1
31,549,30,0.108378041565044,1
31,550,30,0.10385884177751,1
24,556,31,0.115864581428798,1
25,554,31,0.109705692323716,1
25,555,31,0.181398626326556,1
25,556,31,0.183757389908821,1
25,557,31,0.125782497073151,1
26,554,31,0.198632607651657,1
26,555,31,0.306566272414181,1
26,556,31,0.23966501367579,1
26,557,31,0.124999426909062,1
27,553,31,0.148784540461026,1
27,554,31,0.247094093391598,1
27,555,31,0.297937642667635,1
27,556,31,0.187002739064831,1
28,551,31,0.103278837410202,1
28,552,31,0.143210775395202,1
28,553,31,0.183634942605871,1
28,554,31,0.197031697125898,1
28,555,31,0.171588496116124,1
28,556,31,0.102513370203285,1
29,549,31,0.104978459568319,1
29,550,31,0.112537165020726,1
29,551,31,0.118766128274005,1
29,552,31,0.14233405880611,1
29,553,31,0.164454897722248,1
29,554,31,0.147542344652238,1
29,555,31,0.109027433826649,1
30,548,31,0.100077212431227,1
30,549,31,0.120820837807052,1
30,550,31,0.128400882487862,1
30,551,31,0.113277284405032,1
30,552,31,0.107695948760474,1
30,553,31,0.118351140737263,1
31,549,31,0.112062342679687,1
31,550,31,0.115042906759624,1
24,556,32,0.127834069445513,1
25,555,32,0.157360361336057,1
25,556,32,0.185406534280098,1
25,557,32,0.142716901338759,1
26,554,32,0.174787822689181,1
26,555,32,0.28800837660164,1
26,556,32,0.250849710447209,1
26,557,32,0.143018755018331,1
27,553,32,0.154634844062568,1
27,554,32,0.252034990754003,1
27,555,32,0.299554151853462,1
27,556,32,0.196848979301888,1
27,557,32,0.106718069632239,1
28,552,32,0.141065001058964,1
28,553,32,0.212526787319735,1
28,554,32,0.243028093500805,1
28,555,32,0.192245108854641,1
28,556,32,0.106738842428852,1
29,549,32,0.0997922645620082,1
29,550,32,0.108976324250504,1
29,551,32,0.118369495305849,1
29,552,32,0.145572795960261,1
29,553,32,0.186114835447883,1
29,554,32,0.179777051933375,1
29,555,32,0.122492432484474,1
30,549,32,0.103067797996683,1
30,550,32,0.1161069597704,1
30,551,32,0.11103047824468,1
30,552,32,0.109195413531195,1
30,553,32,0.122156549325815,1
30,554,32,0.133706616387739,1
31,549,32,0.102168369671388,1
31,550,32,0.107214503524657,1
24,556,33,0.139331055312946,1
25,555,33,0.137618089329003,1
25,556,33,0.182115217005732,1
25,557,33,0.148711448974254,1
26,554,33,0.15123064346817,1
26,555,33,0.240708228532439,1
26,556,33,0.239550703383364,1
26,557,33,0.154409850819756,1
27,552,33,0.109955968031624,1
27,553,33,0.165123908131048,1
27,554,33,0.247992258138284,1
27,555,33,0.285379109160806,1
27,556,33,0.205800780170571,1
27,557,33,0.119059278511262,1
28,552,33,0.137026669182538,1
28,553,33,0.221083022726328,1
28,554,33,0.290802780695151,1
28,555,33,0.240865979786004,1
28,556,33,0.130173868455727,1
29,551,33,0.11287048834341,1
29,552,33,0.140188633043282,1
29,553,33,0.189540004911437,1
29,554,33,0.213944348232179,1
29,555,33,0.1557648863769,1
30,552,33,0.107976256246181,1
30,553,33,0.123172771529078,1
30,554,33,0.133756854530361,1
25,555,34,0.119310371188098,1
25,556,34,0.172086803590617,1
26,553,34,0.106825517385669,1
26,554,34,0.132043343900465,1
26,555,34,0.190756460752529,1
26,556,34,0.2175427151085,1
26,557,34,0.158449370024358,1
27,552,34,0.116871272327898,1
27,553,34,0.168351970224538,1
27,554,34,0.234389464054578,1
27,555,34,0.27923482746016,1
27,556,34,0.226895723971337,1
27,557,34,0.133992697120538,1
28,551,34,0.100582469588069,1
28,552,34,0.135468589614452,1
28,553,34,0.203443617847405,1
28,554,34,0.305406808325517,1
28,555,34,0.308674226535506,1
28,556,34,0.188401041296409,1
29,551,34,0.112781700160299,1
29,552,34,0.144014444069199,1
29,553,34,0.181551519338229,1
29,554,34,0.227737703041605,1
29,555,34,0.199099935664395,1
29,556,34,0.114936025437985,1
30,552,34,0.117177308888382,1
30,553,34,0.128677693346556,1
30,554,34,0.132602455649051,1
30,555,34,0.107878928014541,1
26,553,35,0.109221251535163,1
26,554,35,0.113620171710635,1
26,555,35,0.145061580376703,1
26,556,35,0.177742243763417,1
27,552,35,0.116693750426272,1
27,553,35,0.158348523379868,1
27,554,35,0.196895274207816,1
27,555,35,0.253096004640366,1
27,556,35,0.228648416431027,1
27,557,35,0.13797649904424,1
28,551,35,0.104224103138825,1
28,552,35,0.138624747549346,1
28,553,35,0.177833047136551,1
28,554,35,0.266268506636076,1
28,555,35,0.336375921807764,1
28,556,35,0.249508312824706,1
28,557,35,0.123165865418405,1
29,551,35,0.120516903579943,1
29,552,35,0.15932767697963,1
29,553,35,0.179098009146137,1
29,554,35,0.219275386382991,1
29,555,35,0.228315376324238,1
29,556,35,0.159794057308412,1
30,549,35,0.101049383669884,1
30,551,35,0.112485641513658,1
30,552,35,0.142341934386577,1
30,553,35,0.150210946423733,1
30,554,35,0.146313601598467,1
30,555,35,0.121060373096784,1
31,548,35,0.108530313680331,1
31,549,35,0.100060666087202,1
31,551,35,0.105380865783567,1
31,552,35,0.119280524589923,1
31,553,35,0.118404472468893,1
32,548,35,0.110175493029077,1
32,552,35,0.105005430435867,1
26,555,36,0.106036924511626,1
26,556,36,0.132138526227054,1
27,552,36,0.109848400456085,1
27,553,36,0.135521104377154,1
27,554,36,0.154091930084598,1
27,555,36,0.204633364251006,1
27,556,36,0.206210353926549,1
27,557,36,0.128876009830634,1
28,551,36,0.103009444629375,1
28,552,36,0.13766792443362,1
28,553,36,0.154122517401268,1
28,554,36,0.211383967611366,1
28,555,36,0.304623476731372,1
28,556,36,0.276771785963906,1
28,557,36,0.143205481436548,1
29,551,36,0.122204205846624,1
29,552,36,0.167825994735678,1
29,553,36,0.175150567786197,1
29,554,36,0.205913826884389,1
29,555,36,0.239161477600156,1
29,556,36,0.201968585894095,1
30,549,36,0.106203575280049,1
30,550,36,0.0999863219147407,1
30,551,36,0.117952078648161,1
30,552,36,0.156245176963298,1
30,553,36,0.165777178271833,1
30,554,36,0.166541567079764,1
30,555,36,0.14731128405352,1
31,548,36,0.110413917241067,1
31,549,36,0.106270947984324,1
31,551,36,0.113063946585595,1
31,552,36,0.137710265209936,1
31,553,36,0.145500957159179,1
32,548,36,0.110630315970755,1
32,552,36,0.125017901299757,1
32,553,36,0.143682231824257,1
27,554,37,0.117375211441537,1
27,555,37,0.151602691118048,1
27,556,37,0.168692417516275,1
28,552,37,0.126376226518452,1
28,553,37,0.136527522953279,1
28,554,37,0.16771147747779,1
28,555,37,0.240130773108186,1
28,556,37,0.258138227935699,1
28,557,37,0.151979248436409,1
29,551,37,0.106042980974614,1
29,552,37,0.16242010044521,1
29,553,37,0.172686807357286,1
29,554,37,0.201504917902155,1
29,555,37,0.246072599015519,1
29,556,37,0.232912188159945,1
29,557,37,0.138175066065456,1
30,551,37,0.107138993809859,1
30,552,37,0.158884759998465,1
30,553,37,0.178835206581331,1
30,554,37,0.193895952521288,1
30,555,37,0.191187842132428,1
30,556,37,0.146952580229468,1
31,548,37,0.100758488266868,1
31,551,37,0.109226305849598,1
31,552,37,0.155823533853022,1
31,553,37,0.18399014980291,1
31,554,37,0.153585932209261,1
32,548,37,0.100409337532816,1
32,552,37,0.151662863602836,1
32,553,37,0.197086401365326,1
32,554,37,0.152211703328765,1
33,553,37,0.161541978669561,1
27,555,38,0.112494181562186,1
28,553,38,0.135530080142444,1
28,554,38,0.1519150019999,1
28,555,38,0.200616600354283,1
28,556,38,0.222206627325506,1
29,552,38,0.157847754105671,1
29,553,38,0.187143606293882,1
29,554,38,0.218339662851448,1
29,555,38,0.279726969542475,1
29,556,38,0.257991195314471,1
29,557,38,0.149603077969515,1
30,551,38,0.105767259407824,1
30,552,38,0.162425361725107,1
30,553,38,0.199147428791418,1
30,554,38,0.220132179823155,1
30,555,38,0.244629287242459,1
30,556,38,0.181481347153761,1
31,551,38,0.108686681533178,1
31,552,38,0.168661002337758,1
31,553,38,0.219670341841614,1
31,554,38,0.171226066913759,1
31,555,38,0.128909581807121,1
32,552,38,0.161743846245247,1
32,553,38,0.229312361632472,1
32,554,38,0.160751457748848,1
33,553,38,0.155046912297006,1
11,547,39,0.142230238394721,1
11,548,39,0.141271378303133,1
11,549,39,0.125396408450627,1
11,550,39,0.105786616124961,1
12,546,39,0.128023007126296,1
12,547,39,0.181982051070444,1
12,548,39,0.159854414972823,1
12,549,39,0.125457528619372,1
13,546,39,0.137192982270471,1
13,547,39,0.183378969901304,1
13,548,39,0.14668946177001,1
13,549,39,0.106831889743309,1
13,561,39,0.104696539930594,1
14,546,39,0.106202736525283,1
14,547,39,0.134982460423448,1
14,548,39,0.124645145610141,1
15,547,39,0.10064760924394,1
15,548,39,0.10805938011139,1
20,543,39,0.119157794071077,1
20,544,39,0.106863337600583,1
20,545,39,0.103997127384748,1
21,543,39,0.15931391922288,1
21,544,39,0.130642285760369,1
21,545,39,0.107432656014311,1
22,543,39,0.154845861690249,1
22,544,39,0.144036338836473,1
22,545,39,0.130266785055155,1
22,558,39,0.106229271676069,1
23,544,39,0.15490974866043,1
23,545,39,0.174943428037695,1
23,546,39,0.124268795257242,1
23,558,39,0.165726330125745,1
23,559,39,0.184075670110309,1
23,560,39,0.122276818044957,1
24,544,39,0.135003396613846,1
24,545,39,0.145158908608343,1
24,546,39,0.110356424414364,1
24,558,39,0.177111249642074,1
24,559,39,0.196554848701917,1
25,545,39,0.1105620391542,1
26,546,39,0.108708696122562,1
27,545,39,0.164773308638764,1
27,546,39,0.135688005682715,1
28,553,39,0.133677673901845,1
28,554,39,0.147990806129195,1
28,555,39,0.185449299880257,1
28,556,39,0.200643048361717,1
29,552,39,0.149785131325463,1
29,553,39,0.196189478411411,1
29,554,39,0.237131407849982,1
29,555,39,0.310917623212197,1
29,556,39,0.27782937947369,1
29,557,39,0.160592780597164,1
30,552,39,0.161679273021166,1
30,553,39,0.210197663370182,1
30,554,39,0.2331833129149,1
30,555,39,0.271819995682459,1
30,556,39,0.202124376422233,1
31,552,39,0.166732225841756,1
31,553,39,0.22550696393684,1
31,554,39,0.176464689539419,1
31,555,39,0.138623636471604,1
32,552,39,0.146735898283885,1
32,553,39,0.215186533148048,1
32,554,39,0.155744527511211,1
33,553,39,0.134980096660016,1
10,547,40,0.12241561561939,1
10,548,40,0.120647509679256,1
10,549,40,0.112907840162805,1
10,550,40,0.100213678920984,1
10,557,40,0.109441321178567,1
10,558,40,0.10093299282992,1
11,546,40,0.13282622888493,1
11,547,40,0.190640298663865,1
11,548,40,0.174987609717329,1
11,549,40,0.134789111110453,1
11,550,40,0.104073236210094,1
12,546,40,0.140106424183272,1
12,547,40,0.202134855410352,1
12,548,40,0.172111236408028,1
12,549,40,0.12230463856019,1
13,546,40,0.126418523723092,1
13,547,40,0.165508831211234,1
13,548,40,0.133738924785618,1
13,560,40,0.114247952420861,1
13,561,40,0.122135417062874,1
14,546,40,0.100942905386249,1
14,547,40,0.124349239464366,1
14,548,40,0.11200307430718,1
14,561,40,0.11227367620202,1
15,547,40,0.10104476507221,1
15,548,40,0.103078680022806,1
17,545,40,0.109742989678515,1
19,543,40,0.100737584755227,1
20,542,40,0.111705152971382,1
20,543,40,0.125399393110445,1
20,544,40,0.122610021545532,1
20,545,40,0.115708366076817,1
21,542,40,0.119147914193506,1
21,543,40,0.142272045418004,1
21,544,40,0.137918047640661,1
21,545,40,0.118238976349888,1
22,542,40,0.107158372312834,1
22,543,40,0.138532408274628,1
22,544,40,0.150700158310826,1
22,545,40,0.132767276407075,1
22,558,40,0.106345945731928,1
22,559,40,0.100810044452694,1
23,543,40,0.139591003932963,1
23,544,40,0.182694851013792,1
23,545,40,0.181902892227766,1
23,546,40,0.119930995250514,1
23,558,40,0.169796905042535,1
23,559,40,0.165955549821145,1
23,560,40,0.10684802215641,1
24,543,40,0.142803554509738,1
24,544,40,0.169615962764329,1
24,545,40,0.165644371802873,1
24,546,40,0.116893406739392,1
24,558,40,0.165042287488667,1
24,559,40,0.168638301494475,1
24,560,40,0.113961806330548,1
25,544,40,0.143774963244062,1
25,545,40,0.12578512226664,1
25,546,40,0.102013298075907,1
25,558,40,0.0999189818892233,1
25,559,40,0.105641032261965,1
26,545,40,0.129433335140497,1
26,546,40,0.124447297521582,1
27,544,40,0.146376911243939,1
27,545,40,0.169957935064732,1
27,546,40,0.165167490700135,1
27,547,40,0.110414276707395,1
27,557,40,0.110557507699878,1
28,545,40,0.147237027024411,1
28,546,40,0.132702256573313,1
28,553,40,0.121731616553988,1
28,554,40,0.140823461472128,1
28,555,40,0.175200021638648,1
28,556,40,0.19072722415782,1
29,551,40,0.103839158272801,1
29,552,40,0.134262427581855,1
29,553,40,0.190599341288267,1
29,554,40,0.243314315841552,1
29,555,40,0.312984794244628,1
29,556,40,0.281064445714123,1
29,557,40,0.170698806060452,1
30,552,40,0.153958546290929,1
30,553,40,0.208680410462666,1
30,554,40,0.2333577303346,1
30,555,40,0.261293797652965,1
30,556,40,0.201830768682376,1
31,552,40,0.153524931862626,1
31,553,40,0.206188480945113,1
31,554,40,0.179130208614825,1
31,555,40,0.146713742086554,1
32,553,40,0.176165177837441,1
9,547,41,0.099705763891896,1
9,548,41,0.103800717161502,1
9,549,41,0.108157797634934,1
10,546,41,0.11673731120952,1
10,547,41,0.155020660362115,1
10,548,41,0.156305915879876,1
10,549,41,0.151019429767946,1
10,550,41,0.115948794585911,1
10,557,41,0.106465495518413,1
10,558,41,0.109155327589121,1
11,546,41,0.155120167177564,1
11,547,41,0.227849442605137,1
11,548,41,0.206093037188467,1
11,549,41,0.161783431113045,1
11,550,41,0.1149624625525,1
11,558,41,0.105505818457897,1
12,546,41,0.144399672151118,1
12,547,41,0.208182168345687,1
12,548,41,0.178057680913035,1
12,549,41,0.128868014428057,1
12,560,41,0.104191609561323,1
12,561,41,0.103365000399824,1
13,546,41,0.116351603839164,1
13,547,41,0.147466660650734,1
13,548,41,0.126461757718769,1
13,560,41,0.131988225730113,1
13,561,41,0.147199359310364,1
13,562,41,0.110888423687454,1
14,546,41,0.100635474532127,1
14,547,41,0.11876197807185,1
14,548,41,0.107535855529314,1
14,560,41,0.104274624497342,1
14,561,41,0.122052750700264,1
15,547,41,0.103368845600246,1
16,545,41,0.108537383184789,1
16,546,41,0.100100555956734,1
17,544,41,0.10339858326923,1
17,545,41,0.120863788586834,1
17,546,41,0.0999293628410703,1
18,544,41,0.102861050393266,1
18,545,41,0.106741631016127,1
19,543,41,0.106037501836336,1
19,544,41,0.103259774801878,1
20,542,41,0.103963468264908,1
20,543,41,0.126728252983131,1
20,544,41,0.126976317428473,1
20,545,41,0.115668596029395,1
20,563,41,0.105832987281323,1
21,542,41,0.102435649225921,1
21,543,41,0.125934006684105,1
21,544,41,0.132183078265935,1
21,545,41,0.1146411432266,1
22,543,41,0.125132669094783,1
22,544,41,0.147592473865669,1
22,545,41,0.120876849196765,1
22,558,41,0.104832723204457,1
23,543,41,0.14924929774487,1
23,544,41,0.202934330310517,1
23,545,41,0.169312159252249,1
23,546,41,0.107321646276354,1
23,558,41,0.151984335429602,1
23,559,41,0.139413852390584,1
24,542,41,0.119162946421784,1
24,543,41,0.155385333505802,1
24,544,41,0.19835616715221,1
24,545,41,0.176292799276937,1
24,546,41,0.118769385256798,1
24,558,41,0.136364957029496,1
24,559,41,0.133234462811865,1
24,560,41,0.102093164958322,1
25,543,41,0.173066000762056,1
25,544,41,0.15727368637924,1
25,545,41,0.139348843449742,1
25,546,41,0.110433088778581,1
26,544,41,0.129262207382348,1
26,545,41,0.131544284814558,1
26,546,41,0.140571225038792,1
26,547,41,0.100645844591055,1
27,544,41,0.123605100592934,1
27,545,41,0.165931432898386,1
27,546,41,0.198460804532527,1
27,547,41,0.132423659275896,1
27,557,41,0.109380909049561,1
27,558,41,0.10779912648964,1
28,545,41,0.130672012536434,1
28,546,41,0.147892268783542,1
28,547,41,0.112094171789128,1
28,553,41,0.10551431493475,1
28,554,41,0.130623048865341,1
28,555,41,0.160702624792783,1
28,556,41,0.184518282089741,1
28,557,41,0.180298321681209,1
29,546,41,0.10482904139782,1
29,551,41,0.101440591964357,1
29,552,41,0.119305948662967,1
29,553,41,0.171849686528912,1
29,554,41,0.23306074578984,1
29,555,41,0.282342751549536,1
29,556,41,0.267286035989623,1
29,557,41,0.178693925421356,1
30,551,41,0.114677895935447,1
30,552,41,0.141470773186197,1
30,553,41,0.193711557187746,1
30,554,41,0.23023438187186,1
30,555,41,0.237429176684913,1
30,556,41,0.194764444956504,1
31,553,41,0.173603435601748,1
31,554,41,0.179176209411939,1
31,555,41,0.15841808556087,1
7,551,42,0.0997460350135941,1
9,547,42,0.11245161203457,1
9,548,42,0.119101434107954,1
9,549,42,0.126397870748588,1
9,550,42,0.103368867386084,1
10,546,42,0.126565109734639,1
10,547,42,0.177936998262969,1
10,548,42,0.190825979361854,1
10,549,42,0.196790484326632,1
10,550,42,0.133424903715476,1
10,558,42,0.115299674647281,1
10,559,42,0.10480266964082,1
11,546,42,0.156013244931057,1
11,547,42,0.234890538330508,1
11,548,42,0.220139412721399,1
11,549,42,0.187990182175985,1
11,550,42,0.122946449350143,1
11,557,42,0.101801027762536,1
11,558,42,0.124639317898454,1
11,559,42,0.115199459792095,1
12,546,42,0.135054560654587,1
12,547,42,0.19306421279492,1
12,548,42,0.167399275525128,1
12,549,42,0.12718363146368,1
12,560,42,0.109684995777536,1
12,561,42,0.121091363451459,1
12,562,42,0.100259385609285,1
13,546,42,0.104941423643576,1
13,547,42,0.127647059811401,1
13,548,42,0.1134304606326,1
13,560,42,0.137577469633895,1
13,561,42,0.170573635527741,1
13,562,42,0.135140614715018,1
14,547,42,0.103655264013535,1
14,560,42,0.102744910090441,1
14,561,42,0.123316067879075,1
14,562,42,0.104398182878035,1
17,545,42,0.101395658673309,1
18,564,42,0.122590283576228,1
18,565,42,0.177810814688787,1
19,543,42,0.108211782941706,1
19,544,42,0.106265000450527,1
19,563,42,0.126390180347744,1
19,564,42,0.146983951836309,1
20,543,42,0.129609582570596,1
20,544,42,0.131302777906478,1
20,545,42,0.113288090180722,1
20,562,42,0.107594372290408,1
20,563,42,0.156046468334135,1
20,564,42,0.151745312107064,1
21,543,42,0.116528711809867,1
21,544,42,0.125259985532546,1
21,545,42,0.108319818912764,1
21,562,42,0.107050663129347,1
21,563,42,0.156119908394316,1
22,543,42,0.117026463745489,1
22,544,42,0.144454648713523,1
22,545,42,0.114054777394571,1
22,562,42,0.102421346823219,1
22,563,42,0.136288238200684,1
23,543,42,0.154262175516305,1
23,544,42,0.220883333734451,1
23,545,42,0.167810210895986,1
23,546,42,0.103672071787617,1
23,558,42,0.116016886222842,1
23,559,42,0.107529069240751,1
23,562,42,0.100359502428199,1
24,542,42,0.121959746957484,1
24,543,42,0.159855101226723,1
24,544,42,0.223080958365328,1
24,545,42,0.192876440656475,1
24,546,42,0.124932413671116,1
24,558,42,0.101351357171565,1
24,559,42,0.1009721093022,1
25,542,42,0.211386451196908,1
25,543,42,0.176755377976973,1
25,544,42,0.168171692414394,1
25,545,42,0.15639251458626,1
25,546,42,0.120414793356844,1
26,543,42,0.186383040900534,1
26,544,42,0.128225452026691,1
26,545,42,0.136033126036721,1
26,546,42,0.150710484798078,1
26,547,42,0.107260515214691,1
27,544,42,0.110716805747948,1
27,545,42,0.158740733822892,1
27,546,42,0.214606659495768,1
27,547,42,0.147326283603041,1
27,557,42,0.103211649885551,1
27,558,42,0.0998926210251417,1
28,545,42,0.12556476940734,1
28,546,42,0.167265140120045,1
28,547,42,0.132363105538942,1
28,554,42,0.117688546257779,1
28,555,42,0.143605088171602,1
28,556,42,0.173525409622651,1
28,557,42,0.178428715521442,1
29,546,42,0.121761169043349,1
29,547,42,0.126407870448269,1
29,548,42,0.102539545887743,1
29,552,42,0.106602321474499,1
29,553,42,0.148298629128402,1
29,554,42,0.207754098413176,1
29,555,42,0.238211331843802,1
29,556,42,0.244503648314229,1
29,557,42,0.18927606948305,1
30,552,42,0.124869964566248,1
30,553,42,0.17183605948719,1
30,554,42,0.220963331331895,1
30,555,42,0.220486025405314,1
30,556,42,0.197906376739129,1
31,554,42,0.174827952202931,1
31,555,42,0.174247686405566,1
7,552,43,0.10313366747813,1
9,547,43,0.12335637167953,1
9,548,43,0.136094888887689,1
9,549,43,0.143893369274048,1
9,550,43,0.108792419098319,1
10,546,43,0.126023600943225,1
10,547,43,0.187662501385364,1
10,548,43,0.219024152098207,1
10,549,43,0.229168989032042,1
10,550,43,0.142910348688025,1
10,558,43,0.116849617204843,1
10,559,43,0.119491607575118,1
11,546,43,0.140308705689881,1
11,547,43,0.214618271347467,1
11,548,43,0.219514464170124,1
11,549,43,0.20038832834284,1
11,550,43,0.126132039952288,1
11,558,43,0.137418977661835,1
11,559,43,0.132353704949809,1
11,560,43,0.100106002416255,1
12,546,43,0.121588930207457,1
12,547,43,0.169738508103551,1
12,548,43,0.15535647816326,1
12,549,43,0.125742901312433,1
12,560,43,0.117577765271122,1
12,561,43,0.1569744252144,1
12,562,43,0.14153930053989,1
13,547,43,0.115191268316976,1
13,548,43,0.105648221588533,1
13,560,43,0.139423699589398,1
13,561,43,0.208546645416831,1
13,562,43,0.189087164481024,1
13,563,43,0.112407680892074,1
14,561,43,0.129192743237617,1
14,562,43,0.123734933294995,1
18,563,43,0.109501983844712,1
18,564,43,0.146892887033118,1
18,565,43,0.216703067122908,1
19,543,43,0.101377009995909,1
19,544,43,0.100812125000231,1
19,562,43,0.117466788211922,1
19,563,43,0.179260346318619,1
19,564,43,0.203260377163281,1
19,565,43,0.234231974231069,1
20,543,43,0.119214121355443,1
20,544,43,0.12142551463599,1
20,545,43,0.101217788198272,1
20,562,43,0.136260722687184,1
20,563,43,0.211429587156314,1
20,564,43,0.203740297390432,1
21,543,43,0.10257949022187,1
21,544,43,0.108013520922223,1
21,562,43,0.132525921999862,1
21,563,43,0.186644100598293,1
22,543,43,0.107553109913077,1
22,544,43,0.133439238796935,1
22,545,43,0.109761344247101,1
22,562,43,0.124409509985426,1
22,563,43,0.156293715810549,1
23,543,43,0.148628237965693,1
23,544,43,0.221795136415777,1
23,545,43,0.172902813941888,1
23,546,43,0.102912791758716,1
23,562,43,0.099700339218213,1
24,542,43,0.123411239312744,1
24,543,43,0.158592884232736,1
24,544,43,0.238650207552003,1
24,545,43,0.214491935272418,1
24,546,43,0.131215351338247,1
25,542,43,0.213488305283568,1
25,543,43,0.169929068829271,1
25,544,43,0.17511300900134,1
25,545,43,0.178265517808355,1
25,546,43,0.135823339308892,1
26,543,43,0.180849078560889,1
26,544,43,0.130572974116505,1
26,545,43,0.145992206022134,1
26,546,43,0.16182692653878,1
26,547,43,0.116236324076943,1
27,544,43,0.104037333148932,1
27,545,43,0.149265016227048,1
27,546,43,0.223272085522839,1
27,547,43,0.164499090294801,1
28,545,43,0.127172901938424,1
28,546,43,0.204040244809171,1
28,547,43,0.171100144769634,1
28,548,43,0.110209740366544,1
28,554,43,0.100050241563679,1
28,555,43,0.120377441537449,1
28,556,43,0.148285198159224,1
28,557,43,0.15656045071913,1
29,546,43,0.150416169018483,1
29,547,43,0.145353031318589,1
29,548,43,0.105408544690853,1
29,553,43,0.123591146763641,1
29,554,43,0.170392333783207,1
29,555,43,0.187461091312279,1
29,556,43,0.206847676833856,1
30,548,43,0.106381859686009,1
30,553,43,0.146929062417257,1
30,554,43,0.200153629509162,1
30,555,43,0.201392916908566,1
6,551,44,0.105958615316634,1
6,552,44,0.123249207141995,1
7,552,44,0.10457867854656,1
8,548,44,0.100567916648229,1
8,549,44,0.101243767810188,1
9,547,44,0.129252447326886,1
9,548,44,0.150972960575313,1
9,549,44,0.152501041044357,1
9,550,44,0.110341054505595,1
10,546,44,0.115647572695644,1
10,547,44,0.180620806549446,1
10,548,44,0.225712230103266,1
10,549,44,0.223515193690017,1
10,550,44,0.135848992133236,1
10,558,44,0.115082774843318,1
10,559,44,0.121694264734593,1
11,546,44,0.116840739475824,1
11,547,44,0.178978993112685,1
11,548,44,0.201352983467358,1
11,549,44,0.182562469368676,1
11,550,44,0.116376276300794,1
11,558,44,0.134977144678955,1
11,559,44,0.131743853984325,1
11,560,44,0.102806847228114,1
12,546,44,0.102631972305814,1
12,547,44,0.136711852929307,1
12,548,44,0.1348361031632,1
12,549,44,0.112250234640242,1
12,560,44,0.11792877869433,1
12,561,44,0.175670802706722,1
12,562,44,0.169116380818308,1
12,563,44,0.100901719259351,1
13,560,44,0.129131830034335,1
13,561,44,0.222013626585921,1
13,562,44,0.223697976871541,1
13,563,44,0.126274519333357,1
14,561,44,0.126186918478421,1
14,562,44,0.133554224450342,1
17,564,44,0.111929002457694,1
18,563,44,0.140396785833254,1
18,564,44,0.181016165046074,1
18,565,44,0.232061734398663,1
19,544,44,0.105468586460612,1
19,562,44,0.142536383884395,1
19,563,44,0.24429112746372,1
19,564,44,0.272172141969247,2
19,565,44,0.27894466188272,1
19,566,44,0.274653287496949,1
20,543,44,0.106880962343593,1
20,544,44,0.11367172789646,1
20,562,44,0.165635276215473,1
20,563,44,0.263573685608447,1
20,564,44,0.252516588490686,1
20,565,44,0.193635698899538,1
21,562,44,0.163303755823732,1
21,563,44,0.208250249089699,1
21,564,44,0.182280451694679,1
22,544,44,0.115265361952299,1
22,545,44,0.104980845117589,1
22,562,44,0.151396814948155,1
22,563,44,0.166309177544923,1
23,543,44,0.128933894802423,1
23,544,44,0.193368887740524,1
23,545,44,0.168290468803627,1
23,546,44,0.10298436912974,1
23,562,44,0.105831919775257,1
24,542,44,0.123824549339953,1
24,543,44,0.148823253895301,1
24,544,44,0.224468433035379,1
24,545,44,0.217165994396353,1
24,546,44,0.134314365019847,1
25,542,44,0.199041026758216,1
25,543,44,0.157432712104334,1
25,544,44,0.168557715679403,1
25,545,44,0.187830426625315,1
25,546,44,0.151218508756357,1
25,547,44,0.100951216683478,1
26,543,44,0.164342166903083,1
26,544,44,0.130789503561221,1
26,545,44,0.157813702840745,1
26,546,44,0.171577886412977,1
26,547,44,0.131222061376377,1
27,544,44,0.103468243486503,1
27,545,44,0.145213253381443,1
27,546,44,0.220672664680179,1
27,547,44,0.186800217914003,1
27,548,44,0.112105838105421,1
28,545,44,0.1426750507438,1
28,546,44,0.254303157928596,1
28,547,44,0.227431241657278,1
28,548,44,0.131525145955801,1
28,555,44,0.102113055428493,1
28,556,44,0.122806693198834,1
28,557,44,0.130347980873693,1
29,545,44,0.118038873427087,1
29,546,44,0.197972888902799,1
29,547,44,0.177901334846025,1
29,548,44,0.11135315918546,1
29,553,44,0.106889219176226,1
29,554,44,0.139150537858583,1
29,555,44,0.150409088621106,1
29,556,44,0.176012883936316,1
30,546,44,0.144527751093213,1
30,554,44,0.176867422542239,1
6,552,45,0.10292161502314,1
8,548,45,0.104025492545933,1
8,549,45,0.104435120766506,1
9,547,45,0.130280466561471,1
9,548,45,0.155161647413275,1
9,549,45,0.149738008557688,1
9,550,45,0.108489018624243,1
10,546,45,0.105541819555331,1
10,547,45,0.164253215326186,1
10,548,45,0.208779427096757,1
10,549,45,0.192222516940548,1
10,550,45,0.121412541169411,1
10,558,45,0.104814412207547,1
10,559,45,0.110250174882028,1
11,546,45,0.100100686671762,1
11,547,45,0.147005606959364,1
11,548,45,0.174236248840572,1
11,549,45,0.152673900776634,1
11,550,45,0.104244886828357,1
11,558,45,0.113176492225137,1
11,559,45,0.112854138071928,1
12,547,45,0.112249319635042,1
12,548,45,0.117425340654968,1
12,549,45,0.100122178401032,1
12,560,45,0.110694900087754,1
12,561,45,0.167477149003359,1
12,562,45,0.169335546349432,1
12,563,45,0.101851821444029,1
13,560,45,0.11352062132351,1
13,561,45,0.201491628540924,1
13,562,45,0.218212259270334,1
13,563,45,0.126882540288441,1
14,561,45,0.11340806479105,1
14,562,45,0.128836000138993,1
16,563,45,0.113971261384276,1
16,564,45,0.101582428663202,1
17,563,45,0.113475295887377,1
17,564,45,0.128451599918921,1
17,565,45,0.140043038287367,1
18,562,45,0.100661497715719,1
18,563,45,0.163517943290854,1
18,564,45,0.21083520413587,2
18,565,45,0.232315016552227,1
18,566,45,0.227825086038159,1
19,544,45,0.109604355497868,1
19,562,45,0.156464396959018,1
19,563,45,0.286028283564031,2
19,564,45,0.32375854475227,2
19,565,45,0.294929846290093,2
19,566,45,0.280096500928055,1
19,567,45,0.159950599447964,1
20,544,45,0.105374656819713,1
20,562,45,0.186238056148085,1
20,563,45,0.294795558384143,2
20,564,45,0.282683307770464,2
20,565,45,0.205801891248313,1
20,566,45,0.18338242295664,1
21,562,45,0.182292205154325,1
21,563,45,0.219180901203221,1
21,564,45,0.191020897255191,1
22,544,45,0.101801049548374,1
22,545,45,0.103426883072901,1
22,562,45,0.16161930750184,1
22,563,45,0.164168947704478,1
23,543,45,0.114536756383421,1
23,544,45,0.160212802902223,1
23,545,45,0.156545113489119,1
23,546,45,0.104314862940283,1
23,562,45,0.107357287907459,1
24,542,45,0.12351759777427,1
24,543,45,0.140174112782199,1
24,544,45,0.194252347046503,1
24,545,45,0.19793831477776,1
24,546,45,0.133142722647694,1
25,542,45,0.169004510539747,1
25,543,45,0.144298564076571,1
25,544,45,0.160921714073474,1
25,545,45,0.189759802231865,1
25,546,45,0.166006485110585,1
25,547,45,0.113212406179218,1
26,543,45,0.142517277704396,1
26,544,45,0.137232305708213,1
26,545,45,0.174520118310805,1
26,546,45,0.185866716537945,1
26,547,45,0.147743297222724,1
27,544,45,0.113304451345123,1
27,545,45,0.151418535428724,1
27,546,45,0.22244126080167,1
27,547,45,0.21458992797212,1
27,548,45,0.144578011021673,1
28,544,45,0.106961504586989,1
28,545,45,0.171857420501431,1
28,546,45,0.30303579020933,1
28,547,45,0.285252032367263,1
28,548,45,0.169659327475035,1
28,549,45,0.112136675959229,1
28,550,45,0.11611492249422,1
28,551,45,0.105934029998356,1
28,556,45,0.103086784354573,1
29,545,45,0.164796532342161,1
29,546,45,0.256039489223884,1
29,547,45,0.215202110022278,1
29,548,45,0.126234193747064,1
29,554,45,0.115813667925195,1
29,555,45,0.126207713060873,1
30,546,45,0.148686493296729,1
30,547,45,0.124464573691183,1
30,554,45,0.155231198701358,1
7,552,46,0.100615573169038,1
7,553,46,0.102918619470403,1
8,548,46,0.105546514403438,1
8,549,46,0.103302594866632,1
9,547,46,0.122964596953267,1
9,548,46,0.145710569600304,1
9,549,46,0.135510146100598,1
9,550,46,0.102458938286832,1
10,547,46,0.139296601010016,1
10,548,46,0.173128123079352,1
10,549,46,0.152641984523841,1
10,550,46,0.105779753585965,1
11,547,46,0.119489439884229,1
11,548,46,0.141689644608507,1
11,549,46,0.12254682082925,1
11,553,46,0.101722130349915,1
12,560,46,0.104360613200259,1
12,561,46,0.145986280274175,1
12,562,46,0.151633812187751,1
13,560,46,0.101252296965797,1
13,561,46,0.165237281632437,1
13,562,46,0.187228963207494,1
13,563,46,0.122588606066695,1
14,561,46,0.10434092969555,1
14,562,46,0.125451188940489,1
14,563,46,0.10580607087837,1
15,563,46,0.105287981862896,1
16,563,46,0.132899963053925,1
16,564,46,0.1249082640696,1
16,565,46,0.112440708222609,1
17,563,46,0.13644314640238,1
17,564,46,0.154587928260254,1
17,565,46,0.160082273053343,1
18,562,46,0.114156419222152,1
18,563,46,0.185917346825652,1
18,564,46,0.2344844938803,2
18,565,46,0.23642478419173,1
18,566,46,0.212339646970594,1
19,544,46,0.102877781916915,1
19,562,46,0.174201293463366,1
19,563,46,0.305396568981618,2
19,564,46,0.346568774728736,2
19,565,46,0.296211572502084,2
19,566,46,0.252533603230229,1
20,561,46,0.104670287995703,1
20,562,46,0.215476633367974,2
20,563,46,0.321640830575484,2
20,564,46,0.302119499645358,2
20,565,46,0.214432481720287,1
21,561,46,0.105555936778409,1
21,562,46,0.191102942721415,1
21,563,46,0.229086747493275,2
21,564,46,0.194984394777799,1
22,545,46,0.102186822276245,1
22,562,46,0.150011366361046,1
22,563,46,0.156363354241984,1
23,543,46,0.112132602007508,1
23,544,46,0.137417518010683,1
23,545,46,0.144221333280563,1
23,546,46,0.106699377383163,1
23,562,46,0.0997046310283156,1
24,542,46,0.126127530283805,1
24,543,46,0.143937191487353,1
24,544,46,0.169904712262293,1
24,545,46,0.171035800296853,1
24,546,46,0.128801883516554,1
25,542,46,0.144548796212802,1
25,543,46,0.144926856753992,1
25,544,46,0.165745022374821,1
25,545,46,0.186939167989302,1
25,546,46,0.168140625809286,1
25,547,46,0.118809896022715,1
26,543,46,0.129174606527412,1
26,544,46,0.146499750691975,1
26,545,46,0.183815525417748,1
26,546,46,0.185554133333117,1
26,547,46,0.153591084559967,1
26,548,46,0.115942324192,1
27,544,46,0.122513913320825,1
27,545,46,0.155696653132021,1
27,546,46,0.20652688036807,1
27,547,46,0.227722322239917,1
27,548,46,0.187546143224158,1
27,549,46,0.119787840508464,1
28,544,46,0.127673366210887,1
28,545,46,0.191161198052452,1
28,546,46,0.300785422064451,1
28,547,46,0.310279102083796,1
28,548,46,0.22092984649876,1
28,549,46,0.138589726814626,1
28,550,46,0.125455578786863,1
28,551,46,0.116616323557721,1
29,544,46,0.138950162612806,1
29,545,46,0.218466282142392,1
29,546,46,0.285151338223639,1
29,547,46,0.235445358268991,1
29,548,46,0.148994327188855,1
29,549,46,0.102916179456538,1
29,550,46,0.100929779418803,1
29,554,46,0.106723123946675,1
30,545,46,0.153818180136154,1
30,546,46,0.157560475151777,1
30,547,46,0.122034875420116,1
7,551,47,0.10289614737842,1
7,552,47,0.118598257498649,1
7,553,47,0.114601961396806,1
7,554,47,0.102039550010798,1
8,548,47,0.0998782096932492,1
8,552,47,0.105125862548795,1
8,553,47,0.107603369841536,1
8,554,47,0.101621011382449,1
9,547,47,0.106515777232711,1
9,548,47,0.122315978088913,1
9,549,47,0.113108258980258,1
10,547,47,0.110804221423259,1
10,548,47,0.129591053715306,1
10,549,47,0.116136174579271,1
10,553,47,0.102749180114706,1
11,548,47,0.108761003919802,1
11,553,47,0.11365183742629,1
12,561,47,0.118640184344042,1
12,562,47,0.12005258201286,1
13,561,47,0.126525296115541,1
13,562,47,0.146727619665414,1
13,563,47,0.115717679522598,1
14,561,47,0.103299152704215,1
14,562,47,0.131516976266519,1
14,563,47,0.12502445883702,1
15,562,47,0.10924219861848,1
15,563,47,0.123889939532962,1
15,564,47,0.11126231224065,1
16,562,47,0.105694255064404,1
16,563,47,0.144787830428259,1
16,564,47,0.153567032994723,1
16,565,47,0.148562401163003,1
17,562,47,0.11657700011998,1
17,563,47,0.172151071812965,1
17,564,47,0.194072722811501,1
17,565,47,0.198387909118298,1
18,562,47,0.149424412311389,1
18,563,47,0.230910941073556,2
18,564,47,0.259477098400985,2
18,565,47,0.247691896788621,1
18,566,47,0.202860149531842,1
19,561,47,0.111235973162407,1
19,562,47,0.209633889452247,2
19,563,47,0.323317403316909,2
19,564,47,0.351672216229085,2
19,565,47,0.295978769036319,2
19,566,47,0.220997752956068,1
20,561,47,0.151604978631047,1
20,562,47,0.260042375541748,2
20,563,47,0.341179328746021,2
20,564,47,0.315439056048134,2
20,565,47,0.228158474718358,2
21,561,47,0.135722993738677,1
21,562,47,0.198915583902529,1
21,563,47,0.225159980893677,2
21,564,47,0.191622033885441,2
22,557,47,0.147255479629268,1
22,558,47,0.132227085658865,1
22,561,47,0.105376889868117,1
22,562,47,0.129465240500371,1
22,563,47,0.139903510887358,1
23,542,47,0.104884943858344,1
23,543,47,0.115319870119185,1
23,544,47,0.119922095735657,1
23,545,47,0.126117083974443,1
23,546,47,0.104925498195937,1
23,557,47,0.131775432556628,1
23,558,47,0.117622676776332,1
24,541,47,0.100351899170708,1
24,542,47,0.134724766637672,1
24,543,47,0.152218881762414,1
24,544,47,0.152068374300011,1
24,545,47,0.142071898923527,1
24,546,47,0.121621652536259,1
25,542,47,0.133741844087921,1
25,543,47,0.150569987928275,1
25,544,47,0.171752532583976,1
25,545,47,0.172277353423418,1
25,546,47,0.156514918317534,1
25,547,47,0.118991382946873,1
26,543,47,0.123095126802146,1
26,544,47,0.153516598779558,1
26,545,47,0.181826859652853,1
26,546,47,0.17672494316117,1
26,547,47,0.152347200348728,1
26,548,47,0.129824804865027,1
27,544,47,0.129160772520229,1
27,545,47,0.162684308196573,1
27,546,47,0.196745932287751,1
27,547,47,0.234612877824129,1
27,548,47,0.232503398694139,1
27,549,47,0.142092628148464,1
28,544,47,0.144712484107246,1
28,545,47,0.198113233271736,1
28,546,47,0.270677306689119,1
28,547,47,0.319478629717331,1
28,548,47,0.287354648958256,1
28,549,47,0.167609683149343,1
28,550,47,0.124344708010045,1
28,551,47,0.120178918087909,1
28,552,47,0.110792707607832,1
28,553,47,0.113495774575176,1
29,544,47,0.175070646439186,1
29,545,47,0.253313405518605,1
29,546,47,0.276843069226116,1
29,547,47,0.241839022458185,1
29,548,47,0.182357312131439,1
29,549,47,0.115512282641142,1
29,552,47,0.104265975519622,1
29,553,47,0.119125856032446,1
29,554,47,0.110644051941666,1
30,545,47,0.197066227679261,1
30,546,47,0.168723298941759,1
30,547,47,0.125824652669843,1
30,553,47,0.10564007368509,1
6,552,48,0.107205702046072,1
6,553,48,0.102869742942662,1
7,551,48,0.120922141954142,1
7,552,48,0.143339562377035,1
7,553,48,0.129682053160982,1
7,554,48,0.122377762725719,1
7,555,48,0.107426447050457,1
8,548,48,0.100903723556455,1
8,551,48,0.105035124533175,1
8,552,48,0.123266919028357,1
8,553,48,0.120693227260475,1
8,554,48,0.119566670680236,1
8,555,48,0.111975166648594,1
9,548,48,0.109267655370281,1
9,549,48,0.101522550287228,1
9,553,48,0.106709921728796,1
9,554,48,0.100797822597529,1
10,548,48,0.10052481336758,1
10,553,48,0.117216305538553,1
10,554,48,0.101119741033976,1
11,553,48,0.121025820757583,1
11,554,48,0.109164107281869,1
12,560,48,0.101258571287166,1
13,561,48,0.100430731225815,1
13,562,48,0.116137231192418,1
13,563,48,0.111787067722578,1
14,561,48,0.11187219588489,1
14,562,48,0.146097496977593,1
14,563,48,0.14208641918461,1
14,564,48,0.114547170014025,1
15,561,48,0.119383223030651,1
15,562,48,0.145091710190773,1
15,563,48,0.139672831540807,1
15,564,48,0.129836928683921,1
15,565,48,0.124578720589823,1
16,562,48,0.121941076494246,1
16,563,48,0.1513737873173,1
16,564,48,0.183670780309519,1
16,565,48,0.203694764988837,1
17,562,48,0.140779911581798,1
17,563,48,0.205158032589581,1
17,564,48,0.229039646511338,1
17,565,48,0.243076828420599,1
17,566,48,0.190829704740167,1
18,562,48,0.193759398888178,1
18,563,48,0.282293885914713,2
18,564,48,0.273353479039348,2
18,565,48,0.245592809503397,1
18,566,48,0.188331065184484,1
19,561,48,0.131089755981694,1
19,562,48,0.233223398856974,2
19,563,48,0.330760251682385,2
19,564,48,0.339331562888933,2
19,565,48,0.281785295524644,2
19,566,48,0.19780187007384,1
20,560,48,0.106190852350608,1
20,561,48,0.196888215596277,1
20,562,48,0.280903208726464,2
20,563,48,0.333566311199271,2
20,564,48,0.3161662237517,2
20,565,48,0.241374962321159,2
21,560,48,0.113042008246645,1
21,561,48,0.18298424319398,1
21,562,48,0.206907391816044,1
21,563,48,0.207542383638676,2
21,564,48,0.184024527855407,2
22,557,48,0.178491001232524,1
22,558,48,0.155928312841287,1
22,560,48,0.101403153001609,1
22,561,48,0.126791943880769,1
22,562,48,0.123607268283823,1
23,542,48,0.115457611080471,1
23,543,48,0.121602023496146,1
23,544,48,0.112178809770084,1
23,545,48,0.114664268893726,1
23,546,48,0.104618426808144,1
23,557,48,0.149002431520622,1
23,558,48,0.129852146091822,1
24,541,48,0.104612860526514,1
24,542,48,0.14570526474873,1
24,543,48,0.164851160331157,1
24,544,48,0.148826826772747,1
24,545,48,0.128608773847778,1
24,546,48,0.117749426782304,1
25,541,48,0.11958379434897,1
25,542,48,0.133438247541302,1
25,543,48,0.159682110779418,1
25,544,48,0.176827521779788,1
25,545,48,0.155536494543347,1
25,546,48,0.138814720057438,1
25,547,48,0.115072470141904,1
26,542,48,0.122580076911085,1
26,543,48,0.122687731629977,1
26,544,48,0.155441475610544,1
26,545,48,0.167084339449787,1
26,546,48,0.158834347569139,1
26,547,48,0.141654961554277,1
26,548,48,0.133552797477948,1
26,549,48,0.102099951246886,1
27,543,48,0.117402476417899,1
27,544,48,0.133073901185187,1
27,545,48,0.161954733157899,1
27,546,48,0.182740677524202,1
27,547,48,0.220104707881332,1
27,548,48,0.249867060220434,1
27,549,48,0.157899539042796,1
27,550,48,0.106440877521378,1
27,551,48,0.108647565060899,1
27,552,48,0.122170437797593,1
27,553,48,0.124064324273905,1
28,544,48,0.156238325317221,1
28,545,48,0.189273934470918,1
28,546,48,0.22738562211233,1
28,547,48,0.299797957167459,1
28,548,48,0.329259752084355,1
28,549,48,0.191675125972852,1
28,550,48,0.123081826547996,1
28,551,48,0.127432621807141,1
28,552,48,0.145077767254399,1
28,553,48,0.153554190243172,1
28,554,48,0.113262230390916,1
29,544,48,0.2038748249406,1
29,545,48,0.252165967212563,1
29,546,48,0.238739311629766,1
29,547,48,0.227037462633911,1
29,548,48,0.207119433378115,1
29,549,48,0.12829140865149,1
29,551,48,0.103369771498364,1
29,552,48,0.124529016200235,1
29,553,48,0.141368347068445,1
30,545,48,0.222471347044064,1
30,546,48,0.169648521699345,1
30,547,48,0.124856729669612,1
6,551,49,0.101037739139428,1
6,552,49,0.109521754492773,1
6,553,49,0.100465054813716,1
6,554,49,0.10231877909752,1
7,551,49,0.135054277438692,1
7,552,49,0.161395893732289,1
7,553,49,0.135279041930203,1
7,554,49,0.141407931936243,1
7,555,49,0.135648682244973,1
8,548,49,0.106161376111681,1
8,551,49,0.119236070587313,1
8,552,49,0.144338279659398,1
8,553,49,0.12821590982961,1
8,554,49,0.134101136129601,1
8,555,49,0.135545079691965,1
8,556,49,0.108323152145991,1
9,548,49,0.107323824860163,1
9,552,49,0.11025515294603,1
9,553,49,0.1130904926293,1
9,554,49,0.106155537507074,1
9,555,49,0.10364690914463,1
9,556,49,0.10523267851292,1
9,557,49,0.100309416786444,1
9,558,49,0.0999199840377751,1
10,552,49,0.103159461910421,1
10,553,49,0.119120398680006,1
10,554,49,0.102382840354405,1
10,556,49,0.119344204594642,1
10,557,49,0.111152206614974,1
11,553,49,0.112993240648094,1
11,554,49,0.105799099410183,1
11,555,49,0.103328933944876,1
11,556,49,0.117784926805462,1
11,557,49,0.102600023374264,1
11,558,49,0.100656356257931,1
11,559,49,0.109699287287319,1
11,560,49,0.103851696022619,1
12,559,49,0.11985622625421,1
12,560,49,0.116160999541767,1
13,563,49,0.107464169229099,1
13,564,49,0.115476248864952,1
14,561,49,0.119638084657476,1
14,562,49,0.15188577629811,1
14,563,49,0.141446046259971,1
14,564,49,0.127921920837587,1
14,565,49,0.0998227974140828,1
15,561,49,0.142678917730059,1
15,562,49,0.171031040091232,1
15,563,49,0.143316044564824,1
15,564,49,0.140857948453815,1
15,565,49,0.149974450258413,1
16,561,49,0.117080449052261,1
16,562,49,0.139553325325997,1
16,563,49,0.156010772238434,1
16,564,49,0.213705422945913,1
16,565,49,0.270521036872543,1
16,566,49,0.189999032519865,1
17,561,49,0.103705894301242,1
17,562,49,0.161892556376008,1
17,563,49,0.221440419400095,1
17,564,49,0.256544811738241,1
17,565,49,0.289691114735242,1
17,566,49,0.200812890755419,1
18,561,49,0.123842174082963,1
18,562,49,0.227870030222126,1
18,563,49,0.311409961367056,2
18,564,49,0.284381535634943,2
18,565,49,0.240605486520035,1
18,566,49,0.173153133221473,1
19,561,49,0.152097414822177,1
19,562,49,0.242921756825117,2
19,563,49,0.328774821114445,2
19,564,49,0.326191260361911,2
19,565,49,0.259229415207808,2
19,566,49,0.18275059008053,1
20,560,49,0.129223265196773,1
20,561,49,0.223469922718479,1
20,562,49,0.2748389464091,2
20,563,49,0.308389594560939,2
20,564,49,0.304829701474674,2
20,565,49,0.244781809894885,1
20,566,49,0.174420644174114,1
21,560,49,0.145034064863203,1
21,561,49,0.236662663757769,1
21,562,49,0.225016521149894,1
21,563,49,0.197171257204663,2
21,564,49,0.181352908745337,1
21,565,49,0.160267398212461,1
22,556,49,0.103831195548982,1
22,557,49,0.175377870327846,1
22,558,49,0.149878276676191,1
22,560,49,0.120978632632293,1
22,561,49,0.168053678529493,1
22,562,49,0.147506855521999,1
23,542,49,0.115131814764845,1
23,543,49,0.121000396684539,1
23,544,49,0.106212039078145,1
23,545,49,0.105143160504233,1
23,546,49,0.102198913416382,1
23,557,49,0.149374424705905,1
23,558,49,0.128590756959682,1
23,561,49,0.114500079925006,1
24,541,49,0.105644093172216,1
24,542,49,0.147256982852096,1
24,543,49,0.166810981646429,1
24,544,49,0.145922262588965,1
24,545,49,0.126363721447391,1
24,546,49,0.118474633760442,1
25,541,49,0.123281079823112,1
25,542,49,0.133666323480203,1
25,543,49,0.16199895840921,1
25,544,49,0.172021631255989,1
25,545,49,0.147588410806866,1
25,546,49,0.129628481785134,1
25,547,49,0.110190165791026,1
25,553,49,0.105605717418431,1
25,554,49,0.103597760293912,1
26,542,49,0.121690288819143,1
26,543,49,0.126070059242939,1
26,544,49,0.155317503298928,1
26,545,49,0.157172131695012,1
26,546,49,0.145593982687798,1
26,547,49,0.129465284072047,1
26,548,49,0.129072594340584,1
26,549,49,0.110260131010033,1
26,551,49,0.104218678465142,1
26,552,49,0.120736439470315,1
26,553,49,0.132069791907899,1
26,554,49,0.118812303357824,1
26,555,49,0.112001734478137,1
26,556,49,0.106681828890587,1
27,543,49,0.115892347479436,1
27,544,49,0.140177718338402,1
27,545,49,0.165618642728096,1
27,546,49,0.175413501066032,1
27,547,49,0.194996202702041,1
27,548,49,0.228526459309433,1
27,549,49,0.1588261452011,1
27,550,49,0.115231386937807,1
27,551,49,0.127905592351943,1
27,552,49,0.1728349183775,1
27,553,49,0.185120203010161,1
27,554,49,0.135879623021582,1
27,555,49,0.109405385438648,1
27,556,49,0.106499971607181,1
28,544,49,0.165563382949796,1
28,545,49,0.184327852079049,1
28,546,49,0.199703643023538,1
28,547,49,0.260698194625588,1
28,548,49,0.31535576878914,1
28,549,49,0.200553181779621,1
28,550,49,0.126538596369691,1
28,551,49,0.139848534324954,1
28,552,49,0.195394121034644,1
28,553,49,0.206101686166186,1
28,554,49,0.135353767354831,1
29,544,49,0.216793609065985,1
29,545,49,0.22459439875118,1
29,546,49,0.197759736262986,1
29,547,49,0.200082760177875,1
29,548,49,0.210744967194527,1
29,549,49,0.145421460636011,1
29,550,49,0.105603996337223,1
29,551,49,0.109523116107654,1
29,552,49,0.144219993451521,1
29,553,49,0.156100290247121,1
29,554,49,0.11706784594493,1
30,545,49,0.215246487774455,1
30,547,49,0.123860604901982,1
30,548,49,0.104935290930156,1
6,552,50,0.102109471658128,1
6,554,50,0.102501050311849,1
7,551,50,0.132254829923665,1
7,552,50,0.158385896985101,1
7,553,50,0.131088993477361,1
7,554,50,0.151624476956132,1
7,555,50,0.162356572941357,1
7,556,50,0.10555228765053,1
8,551,50,0.131023897393166,1
8,552,50,0.160607889075875,1
8,553,50,0.13157734482385,1
8,554,50,0.142712489706547,1
8,555,50,0.161182272696958,1
8,556,50,0.118373057290376,1
9,551,50,0.101285226260061,1
9,552,50,0.122373492701455,1
9,553,50,0.115759595475071,1
9,554,50,0.111087774998841,1
9,555,50,0.118246743001165,1
9,556,50,0.113963636340947,1
9,557,50,0.104940094707453,1
9,558,50,0.103092819031722,1
10,552,50,0.102384354470152,1
10,553,50,0.110857106545208,1
10,554,50,0.104228678164823,1
10,555,50,0.115245863627214,1
10,556,50,0.135244642091869,1
10,557,50,0.115144210906715,1
11,554,50,0.100826645261314,1
11,555,50,0.12158764484301,1
11,556,50,0.137019980930247,1
11,557,50,0.109344940630884,1
11,558,50,0.111241681051985,1
11,559,50,0.126029559369941,1
11,560,50,0.105378665413921,1
12,558,50,0.115781130776017,1
12,559,50,0.155220665248645,1
12,560,50,0.132055772721092,1
13,559,50,0.112253753053092,1
13,560,50,0.110943323999425,1
13,563,50,0.103562227591997,1
13,564,50,0.120764053020086,1
14,561,50,0.125197765178978,1
14,562,50,0.148229448199567,1
14,563,50,0.131895004128952,1
14,564,50,0.128085347301973,1
14,565,50,0.101590500316212,1
15,560,50,0.0998683733873543,1
15,561,50,0.153306212941182,1
15,562,50,0.181311591903411,1
15,563,50,0.144260406181167,1
15,564,50,0.148506890847565,1
15,565,50,0.170986106800184,1
16,561,50,0.132331428930368,1
16,562,50,0.153087308840115,1
16,563,50,0.159982047305238,1
16,564,50,0.235876957507272,1
16,565,50,0.321385021264703,1
16,566,50,0.211512874415309,1
17,561,50,0.134664365401584,1
17,562,50,0.17492142434123,1
17,563,50,0.217304051252291,1
17,564,50,0.275288911108885,2
17,565,50,0.319352838288235,1
17,566,50,0.202677213849451,1
18,560,50,0.106572115409996,1
18,561,50,0.170496535446762,1
18,562,50,0.240303186230782,1
18,563,50,0.302564889319146,2
18,564,50,0.298808575116716,2
18,565,50,0.242102587527324,2
18,566,50,0.161862786028266,1
19,560,50,0.118778840310527,1
19,561,50,0.18198448019139,1
19,562,50,0.243104191433232,2
19,563,50,0.314055350328072,2
19,564,50,0.316226047663078,2
19,565,50,0.23793495670187,2
19,566,50,0.169548383094593,1
20,560,50,0.140984742031463,1
20,561,50,0.227795588013394,1
20,562,50,0.247114702794425,1
20,563,50,0.269592720525949,2
20,564,50,0.274786573254346,2
20,565,50,0.234122108249612,1
20,566,50,0.179218768046636,1
21,560,50,0.168859634716489,1
21,561,50,0.282749318859858,1
21,562,50,0.238759855675079,1
21,563,50,0.187633417291522,1
21,564,50,0.179028555894325,1
21,565,50,0.184051749260092,1
22,556,50,0.105122224313835,1
22,557,50,0.146169520958299,1
22,558,50,0.120904179530642,1
22,560,50,0.142278777241972,1
22,561,50,0.223934549287295,1
22,562,50,0.180698734492272,1
23,542,50,0.107870943504883,1
23,543,50,0.113327130402568,1
23,546,50,0.102344943889058,1
23,556,50,0.105754688979249,1
23,557,50,0.138644529090327,1
23,558,50,0.117461036750668,1
23,560,50,0.101787890902172,1
23,561,50,0.152338398870142,1
24,541,50,0.107517805962462,1
24,542,50,0.141447843591613,1
24,543,50,0.153836610955173,1
24,544,50,0.134457345475192,1
24,545,50,0.128899407820736,1
24,546,50,0.127342254150769,1
24,547,50,0.105778086969351,1
24,552,50,0.106716021763459,1
24,553,50,0.133046723352177,1
24,554,50,0.121319101709869,1
25,541,50,0.124395120439371,1
25,542,50,0.131485670017193,1
25,543,50,0.150248439851075,1
25,544,50,0.156443765770352,1
25,545,50,0.149549038198148,1
25,546,50,0.133448770101097,1
25,547,50,0.1098557313906,1
25,548,50,0.10190433620673,1
25,549,50,0.104945944204979,1
25,550,50,0.106168412937382,1
25,551,50,0.106952757572998,1
25,552,50,0.116433801806254,1
25,553,50,0.138798794609799,1
25,554,50,0.139778318568809,1
25,555,50,0.127965056796993,1
25,556,50,0.105276555190821,1
26,542,50,0.118201689888007,1
26,543,50,0.121742019291673,1
26,544,50,0.147263398781411,1
26,545,50,0.151037620942746,1
26,546,50,0.137820762980697,1
26,547,50,0.123399322459312,1
26,548,50,0.127358288527599,1
26,549,50,0.125706268425695,1
26,550,50,0.12164108550383,1
26,551,50,0.128329011008023,1
26,552,50,0.150423804954732,1
26,553,50,0.169576824506211,1
26,554,50,0.166572742614062,1
26,555,50,0.171982656391657,1
26,556,50,0.138742619826299,1
27,543,50,0.111963565689814,1
27,544,50,0.14380772914454,1
27,545,50,0.162810339269888,1
27,546,50,0.164990132192294,1
27,547,50,0.172313583272152,1
27,548,50,0.194200148178454,1
27,549,50,0.161717147700675,1
27,550,50,0.130741269715703,1
27,551,50,0.157067570565128,1
27,552,50,0.238409757257071,1
27,553,50,0.261306934513329,1
27,554,50,0.19440837721886,1
27,555,50,0.157482961139874,1
27,556,50,0.123291635061663,1
28,544,50,0.167668069195408,1
28,545,50,0.178174017288403,1
28,546,50,0.180622407808545,1
28,547,50,0.215213612944786,1
28,548,50,0.260988926634818,1
28,549,50,0.203332531859015,1
28,550,50,0.137806275398372,1
28,551,50,0.166206065173272,1
28,552,50,0.267281657036169,1
28,553,50,0.274870492302646,1
28,554,50,0.169995700815051,1
28,555,50,0.114112008791217,1
29,545,50,0.191728457704481,1
29,546,50,0.167173497992145,1
29,547,50,0.173143144414711,1
29,548,50,0.197222954998436,1
29,549,50,0.16725860436862,1
29,550,50,0.117699210425521,1
29,551,50,0.119993411676624,1
29,552,50,0.167076267796777,1
29,553,50,0.167977090415709,1
29,554,50,0.120426830032385,1
7,551,51,0.112050687256312,1
7,552,51,0.132214689516995,1
7,553,51,0.116807614109017,1
7,554,51,0.146908638194053,1
7,555,51,0.16340700980333,1
7,556,51,0.103368943636517,1
8,551,51,0.127112130343088,1
8,552,51,0.153372147780143,1
8,553,51,0.122905916798388,1
8,554,51,0.137518909301126,1
8,555,51,0.160546954086754,1
8,556,51,0.113897396500253,1
9,551,51,0.103653357752703,1
9,552,51,0.121954768893482,1
9,553,51,0.10686996049536,1
9,554,51,0.106225361118133,1
9,555,51,0.118679464210107,1
9,556,51,0.109063816176249,1
9,557,51,0.0999226201241833,1
10,555,51,0.119628782104614,1
10,556,51,0.126864871973755,1
10,557,51,0.10688008001715,1
11,555,51,0.128893983147053,1
11,556,51,0.133654297697581,1
11,557,51,0.106885559155428,1
11,558,51,0.112569342703576,1
11,559,51,0.123866476185346,1
12,558,51,0.126406704905931,1
12,559,51,0.166871306632083,1
12,560,51,0.132264143369446,1
13,559,51,0.122578072613982,1
13,560,51,0.122339463222368,1
13,564,51,0.103287540852516,1
14,560,51,0.109298961619608,1
14,561,51,0.126200251411329,1
14,562,51,0.132649022877955,1
14,563,51,0.117095415923025,1
14,564,51,0.116092690046455,1
15,560,51,0.104308207366748,1
15,561,51,0.148452698575332,1
15,562,51,0.170443813718599,1
15,563,51,0.143057283272982,1
15,564,51,0.150867266581849,1
15,565,51,0.178304144099278,1
16,558,51,0.11600440293762,1
16,560,51,0.106445648619919,1
16,561,51,0.146067955381151,1
16,562,51,0.162749905355043,1
16,563,51,0.167419906713794,1
16,564,51,0.238350172989911,1
16,565,51,0.321418615027028,1
16,566,51,0.207098845761125,1
17,558,51,0.101696902349414,1
17,559,51,0.102833785416904,1
17,560,51,0.129794108619167,1
17,561,51,0.182154387942607,1
17,562,51,0.184461867662022,1
17,563,51,0.207385874177881,1
17,564,51,0.277885173005023,2
17,565,51,0.31389426584128,1
17,566,51,0.192496452068615,1
18,560,51,0.160604152804644,1
18,561,51,0.242692656951827,1
18,562,51,0.242777730649545,1
18,563,51,0.272709947168187,2
18,564,51,0.309845280690031,2
18,565,51,0.256859987457801,2
18,566,51,0.1631174215506,1
19,560,51,0.147375443346677,1
19,561,51,0.223485194590976,1
19,562,51,0.241693340558917,1
19,563,51,0.289035557081459,2
19,564,51,0.309952379870051,2
19,565,51,0.239283216863369,1
19,566,51,0.165395664675307,1
20,560,51,0.141655222984334,1
20,561,51,0.219674437579174,1
20,562,51,0.219465228176054,1
20,563,51,0.236340690856726,1
20,564,51,0.246933401049891,1
20,565,51,0.222641124080252,1
20,566,51,0.169820063388418,1
21,560,51,0.171052488248826,1
21,561,51,0.287349071783707,1
21,562,51,0.230872990143614,1
21,563,51,0.18361289533773,1
21,564,51,0.188663865647054,1
21,565,51,0.215616716306853,1
22,556,51,0.101257405744828,1
22,557,51,0.111776523376945,1
22,560,51,0.15811040416961,1
22,561,51,0.2621149930337,1
22,562,51,0.200929967849282,1
23,543,51,0.10223725649141,1
23,546,51,0.105536220594944,1
23,547,51,0.101721291595149,1
23,551,51,0.101387826664517,1
23,552,51,0.111293836348358,1
23,553,51,0.121845480236734,1
23,554,51,0.108323326432696,1
23,556,51,0.112784107495407,1
23,557,51,0.121795307451626,1
23,558,51,0.101300944742239,1
23,560,51,0.116385360995275,1
23,561,51,0.192473860154522,1
24,541,51,0.107354477534347,1
24,542,51,0.125880097627767,1
24,543,51,0.128341810187897,1
24,544,51,0.114060071353225,1
24,545,51,0.123843971414605,1
24,546,51,0.132400435572499,1
24,547,51,0.112535879656279,1
24,548,51,0.102073361631504,1
24,549,51,0.102642385936418,1
24,550,51,0.10402177806054,1
24,551,51,0.11152018031313,1
24,552,51,0.136009128936072,1
24,553,51,0.17270427959943,1
24,554,51,0.153339577952208,1
24,555,51,0.114814798141967,1
24,556,51,0.105750658599204,1
24,557,51,0.105097638995557,1
24,560,51,0.100396647282132,1
25,541,51,0.127161529730944,1
25,542,51,0.125299592186182,1
25,543,51,0.128326581887077,1
25,544,51,0.132148700213439,1
25,545,51,0.146157974464114,1
25,546,51,0.136072318759434,1
25,547,51,0.108893178599457,1
25,548,51,0.105990803892403,1
25,549,51,0.117063913601156,1
25,550,51,0.121336290736117,1
25,551,51,0.127533555594984,1
25,552,51,0.143252658668919,1
25,553,51,0.175030821927169,1
25,554,51,0.179410788423508,1
25,555,51,0.164260851262435,1
25,556,51,0.125786178879787,1
26,542,51,0.111867043534184,1
26,543,51,0.111412906846405,1
26,544,51,0.133337074109241,1
26,545,51,0.145472896999727,1
26,546,51,0.132311473102683,1
26,547,51,0.119901268474448,1
26,548,51,0.126797826057052,1
26,549,51,0.139567932730433,1
26,550,51,0.143697874056002,1
26,551,51,0.155068763492605,1
26,552,51,0.177863710703654,1
26,553,51,0.200410332039305,1
26,554,51,0.220166753948195,1
26,555,51,0.236054250657599,1
26,556,51,0.162415231310398,1
27,543,51,0.109654811498871,1
27,544,51,0.144782209682034,1
27,545,51,0.157818484832205,1
27,546,51,0.153638403400286,1
27,547,51,0.156343496450571,1
27,548,51,0.165270417892163,1
27,549,51,0.161857938679292,1
27,550,51,0.147127041220844,1
27,551,51,0.181965319546795,1
27,552,51,0.281058868539574,1
27,553,51,0.307343329686959,3
27,554,51,0.253583375624141,1
27,555,51,0.217585742138716,1
27,556,51,0.139459678900994,1
28,544,51,0.165607586415268,1
28,545,51,0.16984142440266,1
28,546,51,0.166159944554048,1
28,547,51,0.17927250281627,1
28,548,51,0.201488534951916,1
28,549,51,0.191620596020127,1
28,550,51,0.147632418199796,1
28,551,51,0.187074632330508,1
28,552,51,0.319332207099569,1
28,553,51,0.323551426789606,1
28,554,51,0.20657986352629,1
28,555,51,0.139192007201376,1
29,545,51,0.163060331761901,1
29,546,51,0.148312898852347,1
29,547,51,0.153298326467796,1
29,548,51,0.175684255461739,1
29,549,51,0.177172892670932,1
29,550,51,0.128685808571242,1
29,551,51,0.126528727385039,1
29,552,51,0.180314966061505,1
29,553,51,0.174607316127736,1
7,552,52,0.103772809502917,1
7,553,52,0.102199752171148,1
7,554,52,0.129168757029887,1
7,555,52,0.140307311396244,1
8,551,52,0.119233173070848,1
8,552,52,0.135953248261386,1
8,553,52,0.114274629179595,1
8,554,52,0.125593657428639,1
8,555,52,0.140512000237961,1
8,556,52,0.105043043685319,1
9,551,52,0.112322204156352,1
9,552,52,0.122623147512977,1
9,553,52,0.104296824266349,1
9,554,52,0.107628979094204,1
9,555,52,0.121463008063332,1
9,556,52,0.107359281311644,1
10,554,52,0.103566301543719,1
10,555,52,0.127670032977661,1
10,556,52,0.118445669488709,1
11,555,52,0.124548993813758,1
11,556,52,0.120491980581175,1
11,557,52,0.103362102883359,1
11,558,52,0.108841818486174,1
11,559,52,0.111019018893848,1
12,558,52,0.131796913392979,1
12,559,52,0.157331593136867,1
12,560,52,0.120761896222116,1
13,559,52,0.126340323457289,1
13,560,52,0.124662563387689,1
14,560,52,0.112757735738407,1
14,561,52,0.119007667860841,1
14,562,52,0.110723744537377,1
14,563,52,0.100739109763893,1
15,560,52,0.102678692035585,1
15,561,52,0.132313150612215,1
15,562,52,0.146051387251289,1
15,563,52,0.14011997497456,1
15,564,52,0.159928508608147,1
15,565,52,0.180153576572979,1
16,558,52,0.125486351283157,1
16,559,52,0.112263807217368,1
16,560,52,0.119765640739457,1
16,561,52,0.150104272067555,1
16,562,52,0.162081036554191,1
16,563,52,0.176427653614676,1
16,564,52,0.236015929368409,1
16,565,52,0.286022205315205,1
16,566,52,0.184010715634061,1
17,558,52,0.108957414143047,1
17,559,52,0.126033284748254,1
17,560,52,0.173872893740089,1
17,561,52,0.216057400239615,1
17,562,52,0.189833743366322,1
17,563,52,0.208277307100599,1
17,564,52,0.273816406312793,1
17,565,52,0.28724260439299,1
17,566,52,0.175952253948928,1
18,559,52,0.113199280211773,1
18,560,52,0.213132695048525,1
18,561,52,0.29004975320178,1
18,562,52,0.238024757926452,1
18,563,52,0.246548684935167,1
18,564,52,0.305305177390856,2
18,565,52,0.276096882485904,1
18,566,52,0.168350379858358,1
19,560,52,0.165732375695813,1
19,561,52,0.243596725660634,1
19,562,52,0.228467419688226,1
19,563,52,0.248407169424592,1
19,564,52,0.288463504545051,1
19,565,52,0.256958285159236,1
19,566,52,0.165591149000434,1
20,546,52,0.0998655303354844,1
20,560,52,0.134058032848952,1
20,561,52,0.20018491397265,1
20,562,52,0.191484630604646,1
20,563,52,0.201583041917524,1
20,564,52,0.227386123186606,1
20,565,52,0.224494619612756,1
20,566,52,0.157776503522217,1
21,560,52,0.15248293701291,1
21,561,52,0.244607414261023,1
21,562,52,0.19806144833461,1
21,564,52,0.206374466644835,1
21,565,52,0.244190542249287,1
22,551,52,0.0997864368503207,1
22,552,52,0.105242928749739,1
22,553,52,0.100847766631336,1
22,560,52,0.159408306366379,1
22,561,52,0.25522260743909,1
22,562,52,0.191972960165297,1
23,546,52,0.106355629536956,1
23,547,52,0.108850707108112,1
23,548,52,0.112858113987378,1
23,549,52,0.105815471467503,1
23,550,52,0.105371007691834,1
23,551,52,0.128728465242211,1
23,552,52,0.147607299128485,1
23,553,52,0.151597135729336,1
23,554,52,0.133780110912515,1
23,555,52,0.119250699777586,1
23,556,52,0.116550443183356,1
23,557,52,0.105099164004223,1
23,560,52,0.141339197617089,1
23,561,52,0.220138410572847,1
24,541,52,0.102020454723717,1
24,542,52,0.107904962091051,1
24,543,52,0.103857491055549,1
24,545,52,0.115438341506686,1
24,546,52,0.130215566549819,1
24,547,52,0.116324099218583,1
24,548,52,0.11608069694259,1
24,549,52,0.115252410271558,1
24,550,52,0.116171097277719,1
24,551,52,0.140243435318982,1
24,552,52,0.175009711450065,1
24,553,52,0.203199420388322,1
24,554,52,0.177930691262843,1
24,555,52,0.134728023620466,1
24,556,52,0.118434427996258,1
24,557,52,0.112271595654483,1
25,541,52,0.126659769201114,1
25,542,52,0.115867359123153,1
25,543,52,0.107034105892404,1
25,544,52,0.113058946735755,1
25,545,52,0.139439570572442,1
25,546,52,0.137352650677788,1
25,547,52,0.111776871950354,1
25,548,52,0.111614001024839,1
25,549,52,0.125626096541546,1
25,550,52,0.134385691853734,1
25,551,52,0.150914607208005,1
25,552,52,0.171733894799496,1
25,553,52,0.20516589727713,1
25,554,52,0.217436857721251,1
25,555,52,0.188477161014675,1
25,556,52,0.135327112381935,1
25,557,52,0.105138247797745,1
26,542,52,0.106990131178231,1
26,543,52,0.102228302511957,1
26,544,52,0.123588151210905,1
26,545,52,0.145411776830983,1
26,546,52,0.137150979174645,1
26,547,52,0.123259936667251,1
26,548,52,0.128185496799645,1
26,549,52,0.149682530921007,1
26,550,52,0.165002310475783,1
26,551,52,0.182965507373228,1
26,552,52,0.199429119677843,1
26,553,52,0.22656721531887,3
26,554,52,0.278805385019849,3
26,555,52,0.275462152093329,1
26,556,52,0.164673899859587,1
27,543,52,0.108595191906145,1
27,544,52,0.142089850454108,1
27,545,52,0.153685547953899,1
27,546,52,0.146541797359477,1
27,547,52,0.144328606747288,1
27,548,52,0.147554697222432,1
27,549,52,0.160402208978525,1
27,550,52,0.1655842646756,1
27,551,52,0.201432283917983,1
27,552,52,0.285052779092147,3
27,553,52,0.314390612590346,3
27,554,52,0.308801869760839,3
27,555,52,0.266117269348097,1
27,556,52,0.148838928805803,1
28,544,52,0.158588232956305,1
28,545,52,0.157945289302772,1
28,546,52,0.151126169481638,1
28,547,52,0.152956419524907,1
28,548,52,0.159840635430235,1
28,549,52,0.168855604336443,1
28,550,52,0.150961708189943,1
28,551,52,0.190736984213282,1
28,552,52,0.319977808625348,1
28,553,52,0.330255473813981,3
28,554,52,0.234176943204069,1
28,555,52,0.160142293037264,1
29,546,52,0.136002037645775,1
29,547,52,0.139994848013525,1
29,548,52,0.155713744121998,1
29,549,52,0.168103263096972,1
29,550,52,0.130892703076225,1
29,551,52,0.123636668272318,1
29,552,52,0.175217188879058,1
29,553,52,0.17232542387515,1
29,554,52,0.122925436909311,1
7,554,53,0.102288518568421,1
7,555,53,0.104930857512106,1
8,551,53,0.101053076369439,1
8,552,53,0.108605670894263,1
8,554,53,0.102076172004617,1
8,555,53,0.107187510871271,1
9,551,53,0.10700322446692,1
9,552,53,0.11036135890669,1
9,554,53,0.100065698615799,1
9,555,53,0.115833144464442,1
9,556,53,0.100256967381257,1
10,554,53,0.102433764750927,1
10,555,53,0.129390340789038,1
10,556,53,0.109560609534996,1
11,555,53,0.109287524054614,1
11,556,53,0.103388180531545,1
12,557,53,0.107974349985348,1
12,558,53,0.126833522152752,1
12,559,53,0.130212189744916,1
12,560,53,0.102253236403644,1
13,558,53,0.115428211091977,1
13,559,53,0.124577446118296,1
13,560,53,0.117686563746513,1
14,559,53,0.0999867903102595,1
14,560,53,0.111535267006004,1
14,561,53,0.11319203642061,1
14,562,53,0.100331082802419,1
15,560,53,0.100684427310302,1
15,561,53,0.1198295059238,1
15,562,53,0.130575403237451,1
15,563,53,0.145630158071936,1
15,564,53,0.175648504901443,1
15,565,53,0.173198273477983,1
16,558,53,0.120566891185426,1
16,559,53,0.12354727008574,1
16,560,53,0.133823464730302,1
16,561,53,0.151547387768072,1
16,562,53,0.160695282965349,1
16,563,53,0.186855379656031,1
16,564,53,0.228596065062111,1
16,565,53,0.231446066614412,1
16,566,53,0.15331931712279,1
17,550,53,0.122388873503142,1
17,551,53,0.133586598205735,1
17,558,53,0.107635068235949,1
17,559,53,0.146809719596233,1
17,560,53,0.207085164254809,1
17,561,53,0.227910987597724,1
17,562,53,0.195834216749777,1
17,563,53,0.220935401887471,1
17,564,53,0.262728090089058,1
17,565,53,0.249824621407846,1
17,566,53,0.160952846036096,1
18,550,53,0.110142520163137,1
18,551,53,0.108476306587721,1
18,559,53,0.124747462798702,1
18,560,53,0.233510013342806,1
18,561,53,0.289011832303786,1
18,562,53,0.228132919930285,1
18,563,53,0.234016904437505,1
18,564,53,0.281683555660792,1
18,565,53,0.276576802713055,1
18,566,53,0.171502409376935,1
19,546,53,0.103024770966467,1
19,547,53,0.110443349908318,1
19,560,53,0.169780685486082,1
19,561,53,0.239265744621226,1
19,562,53,0.21087864509701,1
19,563,53,0.213317003238715,1
19,564,53,0.257441364332909,1
19,565,53,0.270123989973464,1
19,566,53,0.169623533343063,1
20,546,53,0.113899760263685,1
20,547,53,0.118326740598609,1
20,560,53,0.129212579243193,1
20,561,53,0.18381061271126,1
20,562,53,0.171592668104117,1
20,563,53,0.174994232612107,1
20,564,53,0.214587945460854,1
20,565,53,0.226794223751704,1
20,566,53,0.148209427014368,1
21,546,53,0.110841998066497,1
21,547,53,0.106476181471993,1
21,560,53,0.129073193451132,1
21,561,53,0.185195865225827,1
21,562,53,0.16364805920881,1
21,564,53,0.219988349720125,1
21,565,53,0.244367944328804,1
22,546,53,0.10663358415215,1
22,547,53,0.101862398468419,1
22,551,53,0.114852149961362,1
22,552,53,0.127899742854417,1
22,553,53,0.123173773677629,1
22,554,53,0.111696558458258,1
22,555,53,0.100947883450251,1
22,560,53,0.144752406655535,1
22,561,53,0.20656053948791,1
23,546,53,0.108603034807855,1
23,547,53,0.111975635044113,1
23,548,53,0.121985552282694,1
23,549,53,0.113488803106989,1
23,550,53,0.113058478340236,1
23,551,53,0.156634762212834,1
23,552,53,0.187556948999848,1
23,553,53,0.184244390533349,1
23,554,53,0.165635145500445,1
23,555,53,0.14327447718576,1
23,556,53,0.116551543368179,1
23,560,53,0.155281502201494,1
24,545,53,0.108770110400121,1
24,546,53,0.12101835910804,1
24,547,53,0.116125967914128,1
24,548,53,0.127941506306024,1
24,549,53,0.124522175447077,1
24,550,53,0.127371839318887,1
24,551,53,0.1797842739387,1
24,552,53,0.222774257336783,1
24,553,53,0.227737136609815,1
24,554,53,0.202953000773755,1
24,555,53,0.159550611460743,1
24,556,53,0.126393132328805,1
24,557,53,0.113023806178926,1
25,541,53,0.121399741989537,1
25,542,53,0.108108343782484,1
25,544,53,0.101049133132746,1
25,545,53,0.127568815973923,1
25,546,53,0.13332309849411,1
25,547,53,0.116879267730475,1
25,548,53,0.121532308814277,1
25,549,53,0.13226648534704,1
25,550,53,0.144156248089287,1
25,551,53,0.17799326018982,1
25,552,53,0.204040397310038,1
25,553,53,0.231752702285443,1
25,554,53,0.252736516526143,3
25,555,53,0.20382036034539,1
25,556,53,0.141244788687752,1
25,557,53,0.113572286438526,1
26,542,53,0.1066382463215,1
26,543,53,0.100863909937356,1
26,544,53,0.116223383289121,1
26,545,53,0.144540277950112,1
26,546,53,0.145969864645179,1
26,547,53,0.130723612293936,1
26,548,53,0.133888114204816,1
26,549,53,0.157708499028638,1
26,550,53,0.185685850510172,1
26,551,53,0.210696275846409,1
26,552,53,0.216916285120235,1
26,553,53,0.252315919136095,3
26,554,53,0.325562586432323,3
26,555,53,0.278548747847221,3
26,556,53,0.159367523277486,1
26,557,53,0.104837951805597,1
27,543,53,0.111985591172117,1
27,544,53,0.136784171018826,1
27,545,53,0.152547651844938,1
27,546,53,0.145816546809663,1
27,547,53,0.137014654292835,1
27,548,53,0.139469711279431,1
27,549,53,0.163284235712809,1
27,550,53,0.195167221530999,1
27,551,53,0.229501549850393,1
27,552,53,0.268727997040722,3
27,553,53,0.298643961324154,3
27,554,53,0.337138905429139,3
27,555,53,0.275059941950623,3
27,556,53,0.149988262479758,1
28,544,53,0.146728371276827,1
28,545,53,0.145411820402659,1
28,546,53,0.137344121522178,1
28,547,53,0.135933510292082,1
28,548,53,0.136878307625187,1
28,549,53,0.148214437757127,1
28,550,53,0.1549683089932,1
28,551,53,0.188474917073352,1
28,552,53,0.275322483085373,1
28,553,53,0.29393135775903,3
28,554,53,0.240505271664849,3
28,555,53,0.172260186183008,1
29,546,53,0.125478083557604,1
29,547,53,0.133264984771021,1
29,548,53,0.142472834594705,1
29,549,53,0.149509246364888,1
29,550,53,0.124037756444362,1
29,551,53,0.117206000837139,1
29,552,53,0.157938503014209,1
29,553,53,0.164605819115574,1
29,554,53,0.125827375899603,1
9,551,54,0.10223031770198,1
9,552,54,0.101296849004679,1
9,555,54,0.109616261458381,1
10,551,54,0.100502809671115,1
10,554,54,0.100537002543988,1
10,555,54,0.131758570317951,1
10,556,54,0.105107322800585,1
12,557,54,0.120731112832903,1
12,558,54,0.127019148386146,1
12,559,54,0.111384530792301,1
13,557,54,0.137582861628821,1
13,558,54,0.154620225765214,1
13,559,54,0.130960053994661,1
13,560,54,0.106461345316258,1
14,557,54,0.109096113681209,1
14,558,54,0.129609103282158,1
14,559,54,0.118120733713688,1
14,560,54,0.10849394222365,1
14,561,54,0.104559888261213,1
15,558,54,0.106136453112913,1
15,559,54,0.104671203000902,1
15,560,54,0.103805880405128,1
15,561,54,0.112053726380725,1
15,562,54,0.124149757437951,1
15,563,54,0.151205099573016,1
16,551,54,0.106149840510415,1
16,558,54,0.114852803536504,1
16,559,54,0.136734172520424,1
16,560,54,0.150222492917917,1
16,561,54,0.151500776967491,1
16,562,54,0.160614294112272,1
16,563,54,0.196640750261482,1
16,564,54,0.214213490475868,1
16,565,54,0.178521904443846,1
17,550,54,0.150598374875298,1
17,551,54,0.168909230176887,1
17,558,54,0.10704995508961,1
17,559,54,0.165553797181039,1
17,560,54,0.223177578557231,1
17,561,54,0.220734885033747,1
17,562,54,0.199162940308133,1
17,563,54,0.23534122196295,1
17,564,54,0.248671910928988,1
17,565,54,0.209535940324221,1
18,549,54,0.102671252171879,1
18,550,54,0.132050968943794,1
18,551,54,0.12683571162948,1
18,559,54,0.131033069230999,1
18,560,54,0.222520495894781,1
18,561,54,0.252577675980673,1
18,562,54,0.209337471339277,1
18,563,54,0.222581953744016,1
18,564,54,0.252298250821409,1
18,565,54,0.247393474378547,1
18,566,54,0.16100066595069,1
19,546,54,0.113330191312819,1
19,547,54,0.126586939144399,1
19,548,54,0.113260291451327,1
19,549,54,0.105159815777449,1
19,560,54,0.16213095880216,1
19,561,54,0.214001732129692,1
19,562,54,0.183516307824585,1
19,563,54,0.178732617069793,1
19,564,54,0.222416664590473,1
19,565,54,0.252255071290326,1
19,566,54,0.162263013659706,1
20,546,54,0.130722784432089,1
20,547,54,0.143203477139444,1
20,548,54,0.113274169030186,1
20,560,54,0.122198617779155,1
20,561,54,0.162811896957311,1
20,562,54,0.147109144154858,1
20,564,54,0.198708226295646,1
20,565,54,0.220606653590785,1
21,546,54,0.123829309545575,1
21,547,54,0.125117331864772,1
21,552,54,0.104040459416697,1
21,560,54,0.109089784895245,1
21,561,54,0.138081866250133,1
22,546,54,0.113357837541347,1
22,547,54,0.10857307928049,1
22,551,54,0.129297827227615,1
22,552,54,0.151488108502645,1
22,553,54,0.14396656969001,1
22,554,54,0.126883215649422,1
22,555,54,0.102616297395313,1
22,560,54,0.125759327834348,1
22,561,54,0.154787127070775,1
23,545,54,0.100541207210738,1
23,546,54,0.107533099620797,1
23,547,54,0.109811429888856,1
23,548,54,0.120137492316792,1
23,549,54,0.11047004845289,1
23,550,54,0.116693902927138,1
23,551,54,0.177223675459506,1
23,552,54,0.222823994405129,1
23,553,54,0.212651467671089,1
23,554,54,0.197443275178979,1
23,555,54,0.159658233500878,1
23,556,54,0.110747806995541,1
23,559,54,0.100718685540689,1
23,560,54,0.153456055935523,1
24,545,54,0.104190803485314,1
24,546,54,0.110061498631302,1
24,547,54,0.114941384754153,1
24,548,54,0.135103012358485,1
24,549,54,0.124568601068033,1
24,550,54,0.134166569894286,1
24,551,54,0.215300974155503,1
24,552,54,0.270232744877179,1
24,553,54,0.248858593775529,1
24,554,54,0.232421266084562,1
24,555,54,0.186789629996694,1
24,556,54,0.131765923038304,1
24,557,54,0.107567423208698,1
25,542,54,0.100650888012572,1
25,545,54,0.114438175466091,1
25,546,54,0.125612654679448,1
25,547,54,0.121361932667542,1
25,548,54,0.131600176382162,1
25,549,54,0.13236256089299,1
25,550,54,0.148482022313393,1
25,551,54,0.200667383142857,1
25,552,54,0.23430314856409,1
25,553,54,0.250262538539171,1
25,554,54,0.278681663245371,3
25,555,54,0.216450961404601,1
25,556,54,0.149101796728123,1
25,557,54,0.118340127996112,1
26,543,54,0.101103597727956,1
26,544,54,0.109345975458193,1
26,545,54,0.135604086634415,1
26,546,54,0.149259232087037,1
26,547,54,0.135668572715144,1
26,548,54,0.138169586927178,1
26,549,54,0.157127557870292,1
26,550,54,0.194348814737539,1
26,551,54,0.225523020099508,1
26,552,54,0.229878815208493,1
26,553,54,0.280809616766056,3
26,554,54,0.357152792372505,3
26,555,54,0.267194949400595,3
26,556,54,0.159151168119474,1
26,557,54,0.116761972778231,1
27,544,54,0.126396650741655,1
27,545,54,0.143540122802436,1
27,546,54,0.143011336940463,1
27,547,54,0.128470793242273,1
27,548,54,0.132670601750577,1
27,549,54,0.164475768555132,1
27,550,54,0.223713161600686,1
27,551,54,0.257059284304593,1
27,552,54,0.251269872120495,1
27,553,54,0.283247669906028,3
27,554,54,0.336003993979995,3
27,555,54,0.252095446454686,3
27,556,54,0.144221670961053,1
28,545,54,0.130662121765944,1
28,546,54,0.123233619374846,1
28,547,54,0.121150261464719,1
28,548,54,0.127484777103514,1
28,549,54,0.13930804946793,1
28,550,54,0.160854058153304,1
28,551,54,0.18525279162074,1
28,552,54,0.218319619880411,1
28,553,54,0.239626060597296,1
28,554,54,0.222482632108192,3
28,555,54,0.166843072185927,1
29,548,54,0.14499202908862,1
29,549,54,0.141311496923965,1
29,553,54,0.141435752451477,1
9,551,55,0.10047080627497,1
9,555,55,0.102748624575834,1
10,551,55,0.108269352018843,1
10,552,55,0.106260545246639,1
10,554,55,0.100311203225167,1
10,555,55,0.130384450366646,1
10,556,55,0.101519086338973,1
11,555,55,0.100232480099251,1
12,557,55,0.123037285402034,1
12,558,55,0.122713144810102,1
13,556,55,0.103709423607012,1
13,557,55,0.163725061253518,1
13,558,55,0.180365803314674,1
13,559,55,0.132113298226552,1
14,557,55,0.127132489208778,1
14,558,55,0.155849099534014,1
14,559,55,0.130054307776322,1
14,560,55,0.101604563074695,1
15,558,55,0.1078202696455,1
15,559,55,0.110934380912892,1
15,560,55,0.105246218411289,1
15,561,55,0.106193063613174,1
15,562,55,0.123247311774082,1
16,551,55,0.112702693818488,1
16,558,55,0.10575547326942,1
16,559,55,0.14193679404865,1
16,560,55,0.157702660424032,1
16,561,55,0.146048152054333,1
16,562,55,0.15779704756753,1
16,563,55,0.205084570743562,1
16,564,55,0.195500958784607,1
17,549,55,0.1054366593149,1
17,550,55,0.164381610162934,1
17,551,55,0.177907489345284,1
17,552,55,0.101974007316922,1
17,558,55,0.10250888232064,1
17,559,55,0.166061646852613,1
17,560,55,0.212167625993083,1
17,561,55,0.196794732565059,1
17,562,55,0.190697225058779,1
17,563,55,0.245106876384935,1
17,564,55,0.243636811602708,1
17,565,55,0.180634771271658,1
18,548,55,0.103792362292597,1
18,549,55,0.127697995100841,1
18,550,55,0.147136398238301,1
18,551,55,0.132034509743122,1
18,559,55,0.123707178137276,1
18,560,55,0.184896767454772,1
18,561,55,0.201470256633763,1
18,562,55,0.185392242770315,1
18,563,55,0.220538354988392,1
18,564,55,0.247438418562514,1
18,565,55,0.212938539659521,1
19,546,55,0.124747223154484,1
19,547,55,0.144088287167385,1
19,548,55,0.129280856059748,1
19,549,55,0.123042982398693,1
19,550,55,0.102237855601957,1
19,560,55,0.140903862107577,1
19,561,55,0.177684511292495,1
19,562,55,0.158685179935778,1
19,563,55,0.163430059220023,1
19,564,55,0.206134822425912,1
19,565,55,0.215960932548579,1
20,546,55,0.15193501229218,1
20,547,55,0.17383160957692,1
20,548,55,0.128291397758571,1
20,560,55,0.112338412819886,1
20,561,55,0.139758820243724,1
21,546,55,0.142976512278286,1
21,547,55,0.154843704892279,1
21,548,55,0.109957384111099,1
21,551,55,0.104300429822552,1
21,552,55,0.11485058138102,1
22,545,55,0.101813108009754,1
22,546,55,0.1203331945003,1
22,547,55,0.11807033217728,1
22,550,55,0.100588787481113,1
22,551,55,0.155885884921618,1
22,552,55,0.182871403445625,1
22,553,55,0.159097171919783,1
22,554,55,0.130417771805995,1
22,560,55,0.105789382926398,1
23,544,55,0.110994629648113,1
23,545,55,0.109685878103978,1
23,546,55,0.106595110362094,1
23,547,55,0.104322956379131,1
23,548,55,0.106475233788037,1
23,550,55,0.118711543856685,1
23,551,55,0.198927522541799,1
23,552,55,0.252919996854486,1
23,553,55,0.234369595370246,1
23,554,55,0.21611271448251,1
23,555,55,0.159768295554878,1
23,556,55,0.102199871993258,1
24,544,55,0.115155506863761,1
24,545,55,0.110087173241484,1
24,546,55,0.104766341755815,1
24,547,55,0.112391592050649,1
24,548,55,0.129386266837317,1
24,549,55,0.116175530695769,1
24,550,55,0.135672287200537,1
24,551,55,0.233834251971009,1
24,552,55,0.292550222767862,1
24,553,55,0.264063605535278,1
24,554,55,0.261868050559019,1
24,555,55,0.210501662954805,1
24,556,55,0.138047716948937,1
24,557,55,0.105183758413503,1
25,544,55,0.110408579710736,1
25,545,55,0.113048620248503,1
25,546,55,0.119993825607548,1
25,547,55,0.127087762883192,1
25,548,55,0.140183949088094,1
25,549,55,0.133817942020348,1
25,550,55,0.154321334959621,1
25,551,55,0.222179765387149,1
25,552,55,0.256312683633457,1
25,553,55,0.261831232492657,1
25,554,55,0.292958271515174,3
25,555,55,0.235532044118727,1
25,556,55,0.167715769287892,1
25,557,55,0.124544342537327,1
26,544,55,0.114003046922041,1
26,545,55,0.129270300821196,1
26,546,55,0.146444676093299,1
26,547,55,0.141812266198162,1
26,548,55,0.145900792645534,1
26,549,55,0.157662334837738,1
26,550,55,0.191763903263043,1
26,551,55,0.227671212663773,1
26,552,55,0.238003037445882,1
26,553,55,0.296268498896997,3
26,554,55,0.351339633624896,3
26,555,55,0.254974858888399,3
26,556,55,0.172017034444153,1
27,545,55,0.139394256029228,1
27,546,55,0.144047046575892,1
27,547,55,0.130422314153236,1
27,548,55,0.135068765021017,1
27,549,55,0.168754202153081,1
27,550,55,0.233454786243264,1
27,551,55,0.266033132441417,1
27,552,55,0.239406110776001,1
27,553,55,0.26774144714893,1
27,554,55,0.296683736970877,3
27,555,55,0.213577256860465,1
28,547,55,0.118984988803396,1
28,548,55,0.133477429371096,1
28,549,55,0.146212242986781,1
28,550,55,0.170136382864478,1
28,551,55,0.19019499613343,1
28,552,55,0.18179494340006,1
28,553,55,0.1918383019001,1
28,554,55,0.187490131834444,1
10,551,56,0.100173843516048,1
10,555,56,0.114512421602281,1
10,556,56,0.0999621614203056,1
12,557,56,0.1190963689006,1
12,558,56,0.119254512299251,1
13,556,56,0.104211979319931,1
13,557,56,0.164907041005842,1
13,558,56,0.18152467918571,1
13,559,56,0.127739791231205,1
14,552,56,0.10286340326378,1
14,557,56,0.134073620616101,1
14,558,56,0.165055152026055,1
14,559,56,0.133711932132232,1
15,556,56,0.100183331248534,1
15,558,56,0.1108819859723,1
15,559,56,0.115644163211983,1
15,560,56,0.106518794571286,1
15,561,56,0.100178069968636,1
16,551,56,0.106589097470782,1
16,559,56,0.140321690049379,1
16,560,56,0.160357667832562,1
16,561,56,0.137165336041943,1
16,563,56,0.207716060339881,1
16,564,56,0.178543298136844,1
17,549,56,0.117419055440681,1
17,550,56,0.154158540284539,1
17,551,56,0.157622597469073,1
17,552,56,0.109432792022958,1
17,559,56,0.156308105356604,1
17,560,56,0.196406029641965,1
17,561,56,0.170024686872622,1
17,562,56,0.175661031758341,1
17,563,56,0.237802215590424,1
17,564,56,0.235227238458095,1
17,565,56,0.156880528252259,1
18,547,56,0.103092459565394,1
18,548,56,0.115900549847474,1
18,549,56,0.147448044652092,1
18,550,56,0.145657956801331,1
18,551,56,0.123749409984402,1
18,559,56,0.113527854221754,1
18,560,56,0.153093365303102,1
18,561,56,0.157878156242717,1
18,563,56,0.209568488366319,1
18,564,56,0.245484490316443,1
18,565,56,0.184175078889485,1
19,546,56,0.12447188283986,1
19,547,56,0.147534676037232,1
19,548,56,0.134505699142819,1
19,549,56,0.129460948690268,1
19,550,56,0.100154530370587,1
19,560,56,0.117748174096614,1
19,561,56,0.139147542305846,1
19,564,56,0.18910825317229,1
20,546,56,0.161597445413323,1
20,547,56,0.191404153718764,1
20,548,56,0.136282802634082,1
21,546,56,0.160852947075562,1
21,547,56,0.186031722475592,1
21,548,56,0.12518057615273,1
21,551,56,0.112730743085021,1
21,552,56,0.125167570007394,1
22,545,56,0.104646018572077,1
22,546,56,0.125784076546412,1
22,547,56,0.128851794871604,1
22,550,56,0.106614053148307,1
22,551,56,0.196143227077159,1
22,552,56,0.229160340054323,1
22,553,56,0.173519897805615,1
22,554,56,0.124181924227882,1
23,544,56,0.120570649242496,1
23,545,56,0.113129314992766,1
23,546,56,0.102222866945355,1
23,550,56,0.121229017269392,1
23,551,56,0.227318957447794,1
23,552,56,0.284431621276698,1
23,553,56,0.248113888472306,1
23,554,56,0.216378872066381,1
23,555,56,0.149080871430644,1
24,543,56,0.101681815656541,1
24,544,56,0.132432983614596,1
24,545,56,0.113333426509774,1
24,547,56,0.105764372784277,1
24,548,56,0.112889888632224,1
24,549,56,0.101006247710478,1
24,550,56,0.132853428503778,1
24,551,56,0.233028938466237,1
24,552,56,0.285422920481193,1
24,553,56,0.269737639920883,1
24,554,56,0.283021532906716,1
24,555,56,0.22946394749386,1
24,556,56,0.147465778324292,1
24,557,56,0.106602789870018,1
25,544,56,0.128454072611544,1
25,545,56,0.113271935981782,1
25,546,56,0.114312220643209,1
25,547,56,0.132815586503026,1
25,548,56,0.141102657880093,1
25,549,56,0.128760610246304,1
25,550,56,0.15602822269474,1
25,551,56,0.231860847185692,1
25,552,56,0.25880984175215,1
25,553,56,0.261462659683953,1
25,554,56,0.295170558015082,3
25,555,56,0.261775112173753,1
25,556,56,0.197289009659507,1
26,545,56,0.124386504140409,1
26,546,56,0.136087449023983,1
26,547,56,0.146193093235105,1
26,548,56,0.14936357535854,1
26,549,56,0.151307286046549,1
26,550,56,0.178981073660222,1
26,551,56,0.221006423719625,1
26,552,56,0.2396467135718,1
26,553,56,0.28812401583019,3
26,554,56,0.315855688415651,3
26,555,56,0.247657889095372,3
26,556,56,0.189841782340575,1
27,547,56,0.126603539953019,1
27,548,56,0.131818350657653,1
27,549,56,0.158049196857514,1
27,550,56,0.211141186231759,1
27,551,56,0.245125002202221,1
27,552,56,0.227018334668074,1
27,553,56,0.245455340865087,1
27,554,56,0.244391407676421,3
27,555,56,0.183501068630845,1
28,551,56,0.193089767582993,1
28,552,56,0.165726221196554,1
28,553,56,0.157518504734708,1
28,554,56,0.150247328773333,1
10,555,57,0.111557063737007,1
10,556,57,0.116100380447299,1
11,555,57,0.10292752987818,1
11,556,57,0.115681406102188,1
11,557,57,0.107279980861019,1
12,556,57,0.102443317840926,1
12,557,57,0.118350781270935,1
12,558,57,0.114306774183688,1
13,556,57,0.100764414014827,1
13,557,57,0.146094664818642,1
13,558,57,0.160048352503447,1
13,559,57,0.121325060136585,1
14,551,57,0.102431575274199,1
14,552,57,0.116114454098701,1
14,557,57,0.128683030876887,1
14,558,57,0.154327957854399,1
14,559,57,0.130887931977684,1
15,556,57,0.108057582779748,1
15,557,57,0.10205805708025,1
15,558,57,0.110717622716876,1
15,559,57,0.114686947951171,1
15,560,57,0.109198975515722,1
16,559,57,0.126238823237656,1
16,560,57,0.150625356635765,1
17,549,57,0.119322418756559,1
17,550,57,0.12962568230494,1
17,551,57,0.127541834213456,1
17,552,57,0.118620435481818,1
17,553,57,0.101466353717891,1
17,559,57,0.134647764592965,1
17,560,57,0.170999777413582,1
17,563,57,0.212771551210607,1
17,564,57,0.209151725283773,1
18,547,57,0.106384092734413,1
18,548,57,0.122658680214892,1
18,549,57,0.149836055721985,1
18,550,57,0.13062715549582,1
18,551,57,0.112863974377823,1
18,552,57,0.106311633036946,1
18,559,57,0.101651326376142,1
18,560,57,0.127541823320537,1
18,564,57,0.226654489386234,1
19,546,57,0.114305303639617,1
19,547,57,0.138755778472502,1
19,548,57,0.133992511940914,1
19,549,57,0.126224509942035,1
20,546,57,0.150184770739275,1
20,547,57,0.18054413129231,1
20,548,57,0.134115623711927,1
21,546,57,0.164894808257758,1
21,547,57,0.195286106849423,1
21,548,57,0.132084268597306,1
21,551,57,0.111680600331861,1
21,552,57,0.128739641377148,1
22,545,57,0.106716381229788,1
22,546,57,0.129800720621025,1
22,547,57,0.136882686578642,1
22,550,57,0.107814648899274,1
22,551,57,0.216057291310424,1
22,552,57,0.258886506116367,1
22,553,57,0.183593658442702,1
22,554,57,0.117437105007533,1
23,544,57,0.120217707772617,1
23,545,57,0.111570843279595,1
23,550,57,0.125642610206814,1
23,551,57,0.246266231544409,1
23,552,57,0.300414038882634,1
23,553,57,0.247725120191699,1
23,554,57,0.201239457465102,1
23,555,57,0.141588994036559,1
24,544,57,0.134095297524994,1
24,545,57,0.11018113556114,1
24,550,57,0.134499392142694,1
24,551,57,0.222204514099212,1
24,552,57,0.260278904385825,1
24,553,57,0.258872519608318,1
24,554,57,0.277988176447483,1
24,555,57,0.237639693238318,1
24,556,57,0.167409874335356,1
25,545,57,0.112510978443349,1
25,546,57,0.111380685591879,1
25,547,57,0.138720256663506,1
25,548,57,0.138096179545754,1
25,549,57,0.129571500925625,1
25,550,57,0.162322739534813,1
25,551,57,0.230195407007528,1
25,552,57,0.24779287414814,1
25,553,57,0.25117453729304,1
25,554,57,0.281266422219,1
25,555,57,0.276005381965951,1
25,556,57,0.225084187962983,1
26,547,57,0.153405175110678,1
26,548,57,0.152664304114958,1
26,549,57,0.145774195140428,1
26,550,57,0.169050685623566,1
26,551,57,0.214575767177365,1
26,552,57,0.238135582484785,1
26,553,57,0.259429714203152,1
26,554,57,0.263675403686461,3
26,555,57,0.236845076580045,1
26,556,57,0.200597559531798,1
27,551,57,0.207910738588999,1
27,552,57,0.210841957745676,1
27,553,57,0.212666739543586,1
27,554,57,0.193448732837102,1
27,555,57,0.164270742032925,1
9,555,58,0.104455937134795,1
10,555,58,0.11594880547883,1
10,556,58,0.141057506730664,1
11,555,58,0.112665407356607,1
11,556,58,0.139864427093836,1
11,557,58,0.131640654469322,1
12,556,58,0.109921437478261,1
12,557,58,0.116721244153934,1
12,558,58,0.104895978385333,1
13,557,58,0.116454531031191,1
13,558,58,0.125762334280004,1
14,551,58,0.115856389953678,1
14,552,58,0.114908063314804,1
14,557,58,0.111527184460074,1
14,558,58,0.127108764431104,1
14,559,58,0.116485096562023,1
15,551,58,0.10071650695688,1
15,555,58,0.105051540162171,1
15,556,58,0.11215383230672,1
15,557,58,0.101438010342544,1
15,558,58,0.10536695552595,1
15,559,58,0.106777795507346,1
16,547,58,0.101134424688844,1
16,559,58,0.106501649116713,1
17,548,58,0.103957825732844,1
17,549,58,0.110601308127346,1
17,550,58,0.103507915497654,1
17,551,58,0.100990180654891,1
17,552,58,0.120879158495602,1
17,553,58,0.116901369463211,1
17,559,58,0.109788511187192,1
18,547,58,0.10634796092195,1
18,548,58,0.125484760916977,1
18,549,58,0.133647925339941,1
18,550,58,0.109252143853566,1
18,551,58,0.100243329446617,1
18,552,58,0.116335939821581,1
18,553,58,0.102070398757525,1
19,546,58,0.104536468485272,1
19,547,58,0.128518329940972,1
19,548,58,0.133347727384064,1
19,549,58,0.116529844673447,1
20,546,58,0.135234086853317,1
20,547,58,0.163472062315849,1
20,548,58,0.132221323304692,1
21,545,58,0.101369504774689,1
21,546,58,0.160699139058689,1
21,547,58,0.191035406623355,1
21,548,58,0.134997645152592,1
21,551,58,0.10509214896436,1
21,552,58,0.127423526219741,1
21,553,58,0.103744836486817,1
22,545,58,0.108639297335346,1
22,546,58,0.133886883304965,1
22,547,58,0.144796817086469,1
22,548,58,0.106175634942707,1
22,550,58,0.105029078963107,1
22,551,58,0.204443478886267,1
22,552,58,0.257488399957332,1
22,553,58,0.189528153415519,1
22,554,58,0.114101464445585,1
23,544,58,0.111677572100368,1
23,545,58,0.107038168951206,1
23,550,58,0.126123445439164,1
23,551,58,0.235456991906528,1
23,552,58,0.283643235368117,1
23,553,58,0.230678464395363,1
23,554,58,0.178327160837214,1
23,555,58,0.138346716683719,1
24,545,58,0.104795643708038,1
24,550,58,0.133633535793887,1
24,551,58,0.198840008830215,1
24,552,58,0.225980152340022,1
24,553,58,0.232598341376508,1
24,554,58,0.249975183334844,1
24,555,58,0.235773932278973,1
24,556,58,0.184506288985875,1
25,547,58,0.143062326694498,1
25,548,58,0.133778640368445,1
25,549,58,0.126733928193952,1
25,550,58,0.1571490713854,1
25,551,58,0.203896414706141,1
25,552,58,0.219726309659652,1
25,553,58,0.233434046125408,1
25,554,58,0.260556477748852,1
25,555,58,0.273651443946822,1
25,556,58,0.23071055493486,1
25,557,58,0.17481171086064,1
26,551,58,0.201592148397843,1
26,552,58,0.223837123019383,1
26,553,58,0.220233004681808,1
26,554,58,0.214631843924593,1
26,555,58,0.218406567160204,1
26,556,58,0.192878357810226,1
27,552,58,0.187642044483404,1
27,553,58,0.170932698818121,1
27,554,58,0.151009027030261,1
27,555,58,0.1506763463898,1
9,551,59,0.101691978750007,1
9,552,59,0.111127719332968,1
10,552,59,0.102919915727769,1
10,553,59,0.106447369701127,1
11,555,59,0.106834416900526,1
12,556,59,0.108073344833602,1
18,547,59,0.102406249237427,1
18,548,59,0.119684205276699,1
18,549,59,0.108739697370156,1
19,547,59,0.114650772567033,1
19,548,59,0.123097261814279,1
20,546,59,0.116508614374234,1
20,547,59,0.13774671291705,1
20,548,59,0.120886543894713,1
21,546,59,0.144140769251329,1
21,547,59,0.164756816759334,1
21,548,59,0.122640325646307,1
22,546,59,0.132392527313274,1
22,547,59,0.140886694867167,1
22,551,59,0.173766535278564,1
22,552,59,0.227247804900612,1
22,553,59,0.186260430203797,1
23,550,59,0.120652269884877,1
23,551,59,0.200400397697138,1
23,552,59,0.239389771397438,1
23,553,59,0.204085755424929,1
24,552,59,0.192793741615109,1
24,553,59,0.199441406890522,1
24,554,59,0.210706798406204,1
24,555,59,0.218260972404289,1
25,552,59,0.189781043423997,1
25,553,59,0.209998431880905,1
25,554,59,0.232539497827844,1
25,555,59,0.250228051557484,1
25,556,59,0.216508606732171,1
26,552,59,0.199431908265118,1
26,553,59,0.185571474860232,1
26,554,59,0.180130407334177,1
26,555,59,0.195110752638686,1
23,552,60,0.182475282444664,1
25,554,60,0.193708528956252,1
25,555,60,0.215840936152413,1
