x,y,z,signal,mito.p
837,118,55,0.182923515170321,1
836,118,56,0.113476908039395,1
837,117,56,0.134413087545125,1
837,118,56,0.19274688027739,1
837,119,56,0.167900088371001,1
838,117,56,0.145504007176511,1
838,118,56,0.215313392083211,1
836,118,57,0.108524823649134,1
836,119,57,0.111653814643937,1
837,117,57,0.110812870400979,1
837,118,57,0.165500443663572,1
837,119,57,0.173205451911631,1
837,120,57,0.124771296505566,1
838,117,57,0.119152042609823,1
838,118,57,0.174885292528768,1
838,119,57,0.194507328495437,1
839,118,57,0.139658572709781,1
811,89,58,0.203859618425618,1
811,90,58,0.20225744432125,1
812,90,58,0.17501693345539,1
813,83,58,0.149748465759968,1
814,83,58,0.145939974475327,1
814,84,58,0.152558076368461,1
814,85,58,0.157242118699857,1
814,97,58,0.130726346416616,1
815,82,58,0.181938936896876,1
815,83,58,0.176956243404107,1
815,84,58,0.179123988758052,1
815,85,58,0.187930750409692,1
815,86,58,0.180801225967538,1
815,98,58,0.117398511395367,1
816,82,58,0.248148157595612,1
816,83,58,0.218060542693917,1
816,84,58,0.206508798122461,1
816,85,58,0.213973083752612,1
816,86,58,0.202766601143109,1
816,87,58,0.156700740623471,1
816,97,58,0.103735784471093,1
817,82,58,0.182517590542223,1
817,83,58,0.175972612814618,1
817,84,58,0.176875831875739,1
817,85,58,0.186411362490043,1
817,86,58,0.176930753973548,1
817,87,58,0.138451049062303,1
818,84,58,0.134187593228037,1
818,85,58,0.139285588268865,1
818,86,58,0.125576675367853,1
836,119,58,0.104606956564393,1
837,118,58,0.124288446083193,1
837,119,58,0.155995228042961,1
838,118,58,0.129913353403919,1
838,119,58,0.169846326216228,1
839,118,58,0.109928975378238,1
808,95,59,0.142106647335271,1
809,86,59,0.108799521281534,1
809,87,59,0.110794047436874,1
809,88,59,0.109668253360969,1
809,94,59,0.147201592358767,1
809,95,59,0.157542055225677,1
809,96,59,0.157812548191327,1
809,97,59,0.134469338579057,1
810,86,59,0.113788903026595,1
810,87,59,0.121279614878342,1
810,88,59,0.128953077232856,1
810,89,59,0.139017143171995,1
810,90,59,0.142523998635445,1
810,93,59,0.155695258838384,1
810,94,59,0.17138023439696,1
810,95,59,0.169278630847438,1
810,96,59,0.157807069053049,1
810,97,59,0.136612629329753,1
810,98,59,0.125841710981063,1
811,85,59,0.111457916387887,1
811,86,59,0.116214244130045,1
811,87,59,0.12576613590875,1
811,88,59,0.142478880164773,1
811,89,59,0.159127606735587,1
811,90,59,0.16392434720739,1
811,91,59,0.150986337079897,1
811,92,59,0.147788829624319,1
811,93,59,0.159993430405637,1
811,94,59,0.16960276054645,1
811,95,59,0.167028382524668,1
811,96,59,0.169612161135583,1
811,97,59,0.152158219096269,1
811,98,59,0.139171975123257,1
812,83,59,0.133236336393941,1
812,84,59,0.126024439697992,1
812,85,59,0.118617298321134,1
812,86,59,0.113429872414972,1
812,87,59,0.114554283090159,1
812,88,59,0.12527790438437,1
812,89,59,0.137204746623036,1
812,90,59,0.144807611969239,1
812,91,59,0.142656216886776,1
812,92,59,0.141215312448825,1
812,94,59,0.141751821390398,1
812,95,59,0.160967137545879,1
812,96,59,0.200212603772855,1
812,97,59,0.17074567829109,1
812,98,59,0.132420162648884,1
813,82,59,0.149921695851492,1
813,83,59,0.150749993415443,1
813,84,59,0.140512980600675,1
813,85,59,0.130736041114563,1
813,86,59,0.12349075762175,1
813,87,59,0.112707094557781,1
813,88,59,0.109396965212229,1
813,89,59,0.112284580013981,1
813,90,59,0.116989329784475,1
813,91,59,0.11752082798329,1
813,92,59,0.117575042041361,1
813,95,59,0.135175101696705,1
813,96,59,0.177367298597074,1
813,97,59,0.148695665134563,1
813,98,59,0.113244681898339,1
814,81,59,0.143760693520117,1
814,82,59,0.162618286214259,1
814,83,59,0.160520571436835,1
814,84,59,0.152369421903573,1
814,85,59,0.14875982442772,1
814,86,59,0.143317068499214,1
814,87,59,0.121537439379146,1
814,88,59,0.105707544425635,1
814,89,59,0.101423697046923,1
814,90,59,0.101603626283658,1
814,96,59,0.127619489833306,1
814,97,59,0.125023935976906,1
814,98,59,0.11176804868593,1
815,81,59,0.198328608067034,1
815,82,59,0.199436069360192,1
815,83,59,0.170977185499489,1
815,84,59,0.159538574785202,1
815,85,59,0.166383837612037,1
815,86,59,0.164159361935721,1
815,87,59,0.134263810982574,1
815,88,59,0.111024519817964,1
815,89,59,0.100471448957193,1
815,95,59,0.100330113332624,1
815,96,59,0.120701102840942,1
815,97,59,0.131873120254596,1
815,98,59,0.116229374394594,1
816,81,59,0.252865859046847,1
816,82,59,0.23693973604652,1
816,83,59,0.184433186606185,1
816,84,59,0.171859021760531,1
816,85,59,0.193949676398003,1
816,86,59,0.19686941441801,1
816,87,59,0.152361361143482,1
816,88,59,0.118972973913692,1
816,89,59,0.103554798621211,1
816,91,59,0.099905670742154,1
816,92,59,0.100902078725679,1
816,97,59,0.100947948807765,1
817,81,59,0.176541441046989,1
817,82,59,0.174390623289235,1
817,83,59,0.162695331830643,1
817,84,59,0.171257634593143,1
817,85,59,0.197775465638083,1
817,86,59,0.196616110478609,1
817,87,59,0.147463501704212,1
817,88,59,0.113193790180575,1
817,89,59,0.10128239410111,1
817,90,59,0.102724986941513,1
817,91,59,0.109589290590833,1
817,92,59,0.111261146698313,1
817,93,59,0.101052923868572,1
818,82,59,0.10741412715902,1
818,83,59,0.12937486195108,1
818,84,59,0.154164117459089,1
818,85,59,0.162047780472356,1
818,86,59,0.146399699230574,1
818,87,59,0.113060341029392,1
819,83,59,0.103392766450462,1
819,84,59,0.13760288281402,1
819,85,59,0.136215375465212,1
819,86,59,0.107268456152672,1
820,84,59,0.128849474679848,1
820,85,59,0.12390030959189,1
821,84,59,0.110326523351593,1
821,85,59,0.0999250492451297,1
837,119,59,0.124286953753285,1
838,119,59,0.135241995112542,1
807,91,60,0.10673624991412,1
807,92,60,0.137836906286717,1
807,93,60,0.143022044679881,1
807,94,60,0.125459532916475,1
807,95,60,0.117224562371186,1
808,89,60,0.100984941160831,1
808,90,60,0.10271024882205,1
808,91,60,0.1016777308119,1
808,92,60,0.107719161570952,1
808,93,60,0.112627717856722,1
808,94,60,0.120742615755411,1
808,95,60,0.13630294364139,1
808,96,60,0.143173990007598,1
808,97,60,0.13064921365688,1
808,98,60,0.113131711434955,1
809,86,60,0.102028461019213,1
809,87,60,0.108637859470032,1
809,88,60,0.11319987932232,1
809,89,60,0.12019766480158,1
809,90,60,0.120446851217584,1
809,91,60,0.114529338305553,1
809,92,60,0.116481501898739,1
809,93,60,0.120647487893418,1
809,94,60,0.135712100819636,1
809,95,60,0.156283400216217,1
809,96,60,0.158135054845402,1
809,97,60,0.137433988104274,1
809,98,60,0.117726486294802,1
810,86,60,0.105723698624575,1
810,87,60,0.113356258068086,1
810,88,60,0.120613719844388,1
810,89,60,0.1282262581027,1
810,90,60,0.132168547111933,1
810,91,60,0.129657075697619,1
810,92,60,0.134286631647966,1
810,93,60,0.140624208197012,1
810,94,60,0.152773167947864,1
810,95,60,0.1604413799154,1
810,96,60,0.156477588283978,1
810,97,60,0.142505393529721,1
810,98,60,0.127487129974027,1
810,99,60,0.107642115954569,1
811,86,60,0.105599127202411,1
811,87,60,0.11235304201016,1
811,88,60,0.119750466903231,1
811,89,60,0.126201634812047,1
811,90,60,0.135621624234073,1
811,91,60,0.141423639525502,1
811,92,60,0.14754073250022,1
811,93,60,0.14977744092462,1
811,94,60,0.154355876405903,1
811,95,60,0.154741104487822,1
811,96,60,0.161514986016175,1
811,97,60,0.153921760903324,1
811,98,60,0.136393518263224,1
811,99,60,0.111761327754881,1
812,81,60,0.119083482577373,1
812,82,60,0.117653983025659,1
812,83,60,0.113258123760437,1
812,84,60,0.109188888672689,1
812,85,60,0.106092685364202,1
812,86,60,0.105415635981149,1
812,87,60,0.105291685455371,1
812,88,60,0.106940764469133,1
812,89,60,0.11088482902417,1
812,90,60,0.121218516495436,1
812,91,60,0.131814592600584,1
812,92,60,0.137702868917906,1
812,93,60,0.133225890084579,1
812,94,60,0.132109986779164,1
812,95,60,0.143925307312679,1
812,96,60,0.172597866673309,1
812,97,60,0.157330863311291,1
812,98,60,0.125244593837939,1
812,99,60,0.100055546415252,1
813,80,60,0.110651088767368,1
813,81,60,0.138929444280788,1
813,82,60,0.15971880902367,1
813,83,60,0.149956760157889,1
813,84,60,0.133491285164118,1
813,85,60,0.123103481671052,1
813,86,60,0.117180565871176,1
813,87,60,0.10703994449701,1
813,88,60,0.100327008850697,1
813,89,60,0.103078995917458,1
813,90,60,0.107268009542992,1
813,91,60,0.109118215413945,1
813,92,60,0.109954181592901,1
813,93,60,0.104743270553284,1
813,94,60,0.104773596439897,1
813,95,60,0.119889907159888,1
813,96,60,0.148559579896971,1
813,97,60,0.133052932316031,1
813,98,60,0.107499647466419,1
814,80,60,0.116281409868857,1
814,81,60,0.185154363204277,1
814,82,60,0.219006244139302,1
814,83,60,0.183948669567198,1
814,84,60,0.150595150571262,1
814,85,60,0.138641860325161,1
814,86,60,0.130934314026965,1
814,87,60,0.112105478639093,1
814,89,60,0.100948286488255,1
814,96,60,0.114990348425247,1
814,97,60,0.116124192368325,1
814,98,60,0.106066052177145,1
815,80,60,0.131410835663375,1
815,81,60,0.22603566265546,1
815,82,60,0.240160902922256,1
815,83,60,0.180944195529964,1
815,84,60,0.14784396958051,1
815,85,60,0.147792761968094,1
815,86,60,0.145041210618094,1
815,87,60,0.121429795553173,1
815,88,60,0.105652262861498,1
815,89,60,0.101670835594147,1
815,96,60,0.11028063148367,1
815,97,60,0.120599994766395,1
815,98,60,0.108042735731094,1
816,80,60,0.13714478110371,1
816,81,60,0.226391708607266,1
816,82,60,0.216569411006263,1
816,83,60,0.161461665177465,1
816,84,60,0.149822613859887,1
816,85,60,0.172813895043749,1
816,86,60,0.177923469257519,1
816,87,60,0.140405576418921,1
816,88,60,0.113328165229877,1
816,89,60,0.101315508574998,1
816,92,60,0.100022083367955,1
817,80,60,0.108495053301392,1
817,81,60,0.155179969303104,1
817,82,60,0.157108571512402,1
817,83,60,0.147709169707366,1
817,84,60,0.164374573337233,1
817,85,60,0.199140936611669,1
817,86,60,0.20149315354959,1
817,87,60,0.149368095919942,1
817,88,60,0.112735274539342,1
817,89,60,0.101136123984215,1
817,90,60,0.105490012832368,1
817,91,60,0.11128221360374,1
817,92,60,0.106379855388905,1
818,82,60,0.108150815273828,1
818,83,60,0.133388554044633,1
818,84,60,0.164678910602346,1
818,85,60,0.181499407613532,1
818,86,60,0.16915966927858,1
818,87,60,0.125488987369565,1
818,90,60,0.105257601511688,1
818,91,60,0.106454624385209,1
819,83,60,0.113671107000075,1
819,84,60,0.151485951704675,1
819,85,60,0.144431087329635,1
819,86,60,0.113699014658661,1
820,83,60,0.108758694620965,1
820,84,60,0.140008878093251,1
820,85,60,0.118306425304596,1
821,81,60,0.0999011937524278,1
821,84,60,0.108918766066286,1
806,91,61,0.11790638285278,1
806,92,61,0.165269143420635,1
806,93,61,0.184719071266441,1
806,94,61,0.148275579711709,1
806,95,61,0.109145077352302,1
806,96,61,0.103441076546413,1
807,91,61,0.107410085886056,1
807,92,61,0.131434266332234,1
807,93,61,0.146835644743553,1
807,94,61,0.13370432887474,1
807,95,61,0.118250675344939,1
807,96,61,0.118317231080285,1
807,97,61,0.117675213324871,1
807,98,61,0.107096151959267,1
808,88,61,0.101781725509994,1
808,89,61,0.109447170676093,1
808,90,61,0.111973728783281,1
808,91,61,0.10969438547375,1
808,92,61,0.112051297259778,1
808,93,61,0.116356505652733,1
808,94,61,0.123336001920921,1
808,95,61,0.133413204720425,1
808,96,61,0.13162930404768,1
808,97,61,0.120766787142765,1
808,98,61,0.106798394017255,1
808,103,61,0.116002071852945,1
809,87,61,0.104204441419954,1
809,88,61,0.119266755940254,1
809,89,61,0.131943935121288,1
809,90,61,0.132367887530401,1
809,91,61,0.124537861250497,1
809,92,61,0.12024723847614,1
809,93,61,0.11849784657092,1
809,94,61,0.131083242016107,1
809,95,61,0.150755330945774,1
809,96,61,0.145429412466912,1
809,97,61,0.128314708605321,1
809,98,61,0.112015819022459,1
809,103,61,0.106670064538021,1
809,104,61,0.12294215754004,1
810,87,61,0.104133005656877,1
810,88,61,0.116500150576139,1
810,89,61,0.128793114716725,1
810,90,61,0.133830675842708,1
810,91,61,0.133553026229248,1
810,92,61,0.136714260264415,1
810,93,61,0.134188148766908,1
810,94,61,0.139838785162411,1
810,95,61,0.149841589324858,1
810,96,61,0.147188324783374,1
810,97,61,0.138382619744882,1
810,98,61,0.122182038756373,1
810,99,61,0.102163249999438,1
811,88,61,0.105818063982235,1
811,89,61,0.113971577278928,1
811,90,61,0.123613488140596,1
811,91,61,0.133363957833436,1
811,92,61,0.145037180238049,1
811,93,61,0.14276236838284,1
811,94,61,0.142205522361415,1
811,95,61,0.144334249279352,1
811,96,61,0.149207599650778,1
811,97,61,0.143859492295827,1
811,98,61,0.124953709327843,1
811,99,61,0.101822105560882,1
812,80,61,0.110802772665027,1
812,81,61,0.109943778855216,1
812,82,61,0.110458316779082,1
812,83,61,0.107436381392623,1
812,84,61,0.104995082162777,1
812,85,61,0.10060895027426,1
812,86,61,0.100050993175093,1
812,89,61,0.102370607606321,1
812,90,61,0.111637780267107,1
812,91,61,0.120893112324895,1
812,92,61,0.129784468385815,1
812,93,61,0.126949237631735,1
812,94,61,0.126139272850532,1
812,95,61,0.131579338228035,1
812,96,61,0.144908709150868,1
812,97,61,0.137075240708546,1
812,98,61,0.114201265369847,1
813,80,61,0.110595099163492,1
813,81,61,0.146792116639061,1
813,82,61,0.17279113973587,1
813,83,61,0.153664818728962,1
813,84,61,0.132289099046971,1
813,85,61,0.120684883284489,1
813,86,61,0.115471227229273,1
813,87,61,0.103334391297316,1
813,89,61,0.100564801273383,1
813,90,61,0.105242678212601,1
813,91,61,0.10381426795279,1
813,92,61,0.103691493862268,1
813,93,61,0.101531308194138,1
813,94,61,0.103800913234045,1
813,95,61,0.110118838957139,1
813,96,61,0.1223320451445,1
813,97,61,0.117088477133595,1
813,98,61,0.102199643241958,1
814,80,61,0.123371469265322,1
814,81,61,0.216680496994653,1
814,82,61,0.267128350093572,1
814,83,61,0.207265442064953,1
814,84,61,0.154202667499578,1
814,85,61,0.136086043837427,1
814,86,61,0.126652481838275,1
814,87,61,0.107622563164888,1
814,89,61,0.103585418616638,1
814,90,61,0.10200609785642,1
814,96,61,0.102646492566897,1
814,97,61,0.106056303014602,1
815,80,61,0.127437469156115,1
815,81,61,0.230433983720385,1
815,82,61,0.266417652483598,1
815,83,61,0.198106218231873,1
815,84,61,0.150651521427304,1
815,85,61,0.138919063328941,1
815,86,61,0.131381729783694,1
815,87,61,0.113402814404072,1
815,88,61,0.103563937780287,1
815,89,61,0.104790153676841,1
815,97,61,0.104834302677718,1
816,80,61,0.11475677156223,1
816,81,61,0.181302420065578,1
816,82,61,0.191856231644843,1
816,83,61,0.158581773455313,1
816,84,61,0.148248543486647,1
816,85,61,0.156288378280219,1
816,86,61,0.152955450055112,1
816,87,61,0.128444824523277,1
816,88,61,0.111041643486698,1
816,89,61,0.103117807388005,1
817,80,61,0.0999047884157116,1
817,81,61,0.135071292178235,1
817,82,61,0.145935453913925,1
817,83,61,0.148472861368478,1
817,84,61,0.167445003999266,1
817,85,61,0.194968730760217,1
817,86,61,0.190805130314808,1
817,87,61,0.144720294330199,1
817,88,61,0.115002570280412,1
817,89,61,0.105686139839718,1
817,90,61,0.108289068202309,1
817,91,61,0.110484285498078,1
818,81,61,0.105370005543282,1
818,82,61,0.117046626538636,1
818,83,61,0.142530621530222,1
818,84,61,0.174335058509202,1
818,85,61,0.200155437733723,1
818,86,61,0.189435084315225,1
818,87,61,0.137070643896711,1
818,88,61,0.108172546647317,1
818,89,61,0.103931247010382,1
818,90,61,0.110645881952066,1
818,91,61,0.106676295287713,1
819,83,61,0.130625870131373,1
819,84,61,0.15797077873333,1
819,85,61,0.150082856588718,1
819,86,61,0.124163231978806,1
820,83,61,0.126218595086995,1
820,84,61,0.141043596473047,1
820,85,61,0.107267399539525,1
821,83,61,0.104777953607514,1
821,84,61,0.102897933817143,1
805,90,62,0.106009997215755,1
805,91,62,0.108214299206005,1
805,92,62,0.117693753073081,1
805,93,62,0.125680800780975,1
805,94,62,0.114750497240862,1
805,95,62,0.0999685773496213,1
805,96,62,0.102151790648606,1
806,90,62,0.105240379806683,1
806,91,62,0.115699335846931,1
806,92,62,0.139317047019058,1
806,93,62,0.162260453823731,1
806,94,62,0.143420965161036,1
806,95,62,0.110588813949205,1
806,96,62,0.106846780363639,1
806,97,62,0.117632534868065,1
806,98,62,0.113760853760062,1
806,99,62,0.104919104052459,1
807,90,62,0.104231837111345,1
807,91,62,0.114053797031857,1
807,92,62,0.129190619118404,1
807,93,62,0.145874627853995,1
807,94,62,0.136626223692718,1
807,95,62,0.117750733932589,1
807,96,62,0.11425842051606,1
807,97,62,0.118418088617695,1
807,98,62,0.111155071452682,1
807,99,62,0.101473902510787,1
807,103,62,0.102810844929402,1
808,88,62,0.104551097675546,1
808,89,62,0.116295243876041,1
808,90,62,0.12358115795688,1
808,91,62,0.124811687449374,1
808,92,62,0.121329471768797,1
808,93,62,0.122445658290108,1
808,94,62,0.125550347182528,1
808,95,62,0.12751017939072,1
808,96,62,0.119865234698258,1
808,97,62,0.114492443988758,1
808,98,62,0.105385408130808,1
808,103,62,0.12232851583873,1
808,104,62,0.155684747171508,1
809,88,62,0.121292000127293,1
809,89,62,0.140352854690758,1
809,90,62,0.147294095027272,1
809,91,62,0.143337046112737,1
809,92,62,0.128987226534053,1
809,93,62,0.119276309030254,1
809,94,62,0.125713762753996,1
809,95,62,0.139183380009494,1
809,96,62,0.134851952360406,1
809,97,62,0.130261360381472,1
809,98,62,0.116164278310399,1
809,103,62,0.115420901943299,1
809,104,62,0.132054182354912,1
809,105,62,0.104064826876594,1
810,88,62,0.112221586263161,1
810,89,62,0.130791769288382,1
810,90,62,0.141894235413953,1
810,91,62,0.146540468423354,1
810,92,62,0.142106298761862,1
810,93,62,0.129742323682041,1
810,94,62,0.126272939860096,1
810,95,62,0.133950868311417,1
810,96,62,0.138234345330882,1
810,97,62,0.142693644956604,1
810,98,62,0.124757811071792,1
810,99,62,0.0999380553904658,1
811,89,62,0.106279106780686,1
811,90,62,0.115585330556238,1
811,91,62,0.127029888804322,1
811,92,62,0.139008483301357,1
811,93,62,0.133783858076666,1
811,94,62,0.12637669491397,1
811,95,62,0.127718887719564,1
811,96,62,0.132604252980693,1
811,97,62,0.134335170495217,1
811,98,62,0.116695994367594,1
812,81,62,0.101373905513982,1
812,82,62,0.103635515151312,1
812,83,62,0.101414721281632,1
812,84,62,0.100266531364176,1
812,90,62,0.100465839103887,1
812,91,62,0.108400361156161,1
812,92,62,0.119021229545048,1
812,93,62,0.11910944040345,1
812,94,62,0.11589968930687,1
812,95,62,0.115446053693367,1
812,96,62,0.117124783232762,1
812,97,62,0.116473277744862,1
812,98,62,0.103657268310639,1
813,80,62,0.108408814061337,1
813,81,62,0.15135775294047,1
813,82,62,0.178974145763711,1
813,83,62,0.152753266584774,1
813,84,62,0.127355336546538,1
813,85,62,0.117220139846055,1
813,86,62,0.111899972828447,1
813,90,62,0.0997367106748941,1
813,94,62,0.100812114107312,1
813,95,62,0.100772082629833,1
813,96,62,0.101674343114078,1
813,97,62,0.103844637411079,1
814,80,62,0.127532281123456,1
814,81,62,0.232282163508397,1
814,82,62,0.287715792796173,1
814,83,62,0.216434491311009,1
814,84,62,0.152451053438874,1
814,85,62,0.130114295081486,1
814,86,62,0.118104361656367,1
814,87,62,0.100845598940447,1
814,89,62,0.100844106610538,1
814,90,62,0.104234309803967,1
815,80,62,0.121735407289815,1
815,81,62,0.219804150459126,1
815,82,62,0.266382664427636,1
815,83,62,0.206410957923626,1
815,84,62,0.152516694169021,1
815,85,62,0.127047023365975,1
815,86,62,0.113452802009555,1
815,87,62,0.103531509560299,1
815,88,62,0.100840261410116,1
815,89,62,0.106681828890587,1
815,90,62,0.103811021862916,1
816,80,62,0.101425832059055,1
816,81,62,0.150865643536912,1
816,82,62,0.173517207254612,1
816,83,62,0.162617697996631,1
816,84,62,0.151035845396942,1
816,85,62,0.138840721455191,1
816,86,62,0.125620399544887,1
816,87,62,0.114096137808173,1
816,88,62,0.108329742362011,1
816,89,62,0.106539305937842,1
816,90,62,0.102256591422709,1
817,80,62,0.101291674868134,1
817,81,62,0.131045498051626,1
817,82,62,0.142378556380396,1
817,83,62,0.149615288931761,1
817,84,62,0.167294213320968,1
817,85,62,0.183041289411003,1
817,86,62,0.169044629160578,1
817,87,62,0.132821958860665,1
817,88,62,0.115661875098346,1
817,89,62,0.11150961418166,1
817,90,62,0.109743153072301,1
817,91,62,0.105653450189673,1
818,80,62,0.110899534464877,1
818,81,62,0.130158215331063,1
818,82,62,0.135858523437398,1
818,83,62,0.148400978995721,1
818,84,62,0.172934392514191,1
818,85,62,0.202941454279571,1
818,86,62,0.187574007311068,1
818,87,62,0.133544377251528,1
818,88,62,0.11013713906113,1
818,89,62,0.106081770659322,1
818,90,62,0.10501836033077,1
819,80,62,0.105518367100634,1
819,81,62,0.111169613499603,1
819,82,62,0.12309838378494,1
819,83,62,0.147799265040762,1
819,84,62,0.152143818657295,1
819,85,62,0.144677452479607,1
819,86,62,0.122863107626553,1
820,82,62,0.110788045438482,1
820,83,62,0.140827339351307,1
820,84,62,0.129371735683315,1
821,83,62,0.110790017056829,1
845,115,62,0.101612024724239,1
805,90,63,0.135242191185084,1
805,91,63,0.121285900092629,1
805,92,63,0.114293125356128,1
805,93,63,0.116952707790656,1
805,94,63,0.110014844259046,1
805,95,63,0.102214980471969,1
805,96,63,0.105840743039681,1
805,97,63,0.113632807496724,1
806,90,63,0.118650554402969,1
806,91,63,0.122555763915784,1
806,92,63,0.130212701712111,1
806,93,63,0.143327874274903,1
806,94,63,0.130663777489639,1
806,95,63,0.107608162725915,1
806,96,63,0.107354619142294,1
806,97,63,0.12307086827144,1
806,98,63,0.1212041378423,1
806,99,63,0.107357930589683,1
807,89,63,0.100493082294411,1
807,90,63,0.118135493618989,1
807,91,63,0.131650915599059,1
807,92,63,0.135711044206488,1
807,93,63,0.143352742809076,1
807,94,63,0.135286296614285,1
807,95,63,0.117255530940023,1
807,96,63,0.11067880035341,1
807,97,63,0.117134325429843,1
807,98,63,0.11521964437108,1
807,99,63,0.105342228599725,1
807,103,63,0.111346645219873,1
807,104,63,0.144877283079432,1
808,88,63,0.109675410008779,1
808,89,63,0.124865040966841,1
808,90,63,0.139586581407832,1
808,91,63,0.14705624813999,1
808,92,63,0.135793361995689,1
808,93,63,0.129796221845461,1
808,94,63,0.129610628290824,1
808,95,63,0.126896330723948,1
808,96,63,0.115292616035742,1
808,97,63,0.113915903569705,1
808,98,63,0.111109756909467,1
808,99,63,0.105334298554663,1
808,103,63,0.129218755528289,1
808,104,63,0.161620614652125,1
808,105,63,0.132893361944985,1
809,88,63,0.124267008818519,1
809,89,63,0.148923239999187,1
809,90,63,0.168713081383698,1
809,91,63,0.173640231882272,1
809,92,63,0.145223340224476,1
809,93,63,0.124210866713776,1
809,94,63,0.125662500676984,1
809,95,63,0.134063882346477,1
809,96,63,0.129776832449566,1
809,97,63,0.135690794269989,1
809,98,63,0.123797567579486,1
809,99,63,0.105591828946653,1
809,103,63,0.116226956166566,1
809,104,63,0.124621780298796,1
810,88,63,0.111415935077899,1
810,89,63,0.137608220344351,1
810,90,63,0.16721084981154,1
810,91,63,0.182960790739283,1
810,92,63,0.158629495333636,1
810,93,63,0.130240609370697,1
810,94,63,0.121604452617092,1
810,95,63,0.126747598807349,1
810,96,63,0.131848110112476,1
810,97,63,0.147645772918541,1
810,98,63,0.129110447234255,1
810,99,63,0.101021639405084,1
811,89,63,0.105328852095142,1
811,90,63,0.121398042694166,1
811,91,63,0.136545975558136,1
811,92,63,0.1380349395549,1
811,93,63,0.127491737678782,1
811,94,63,0.118021139754887,1
811,95,63,0.118303288143912,1
811,96,63,0.121316509195137,1
811,97,63,0.130861080932246,1
811,98,63,0.116203797820683,1
812,81,63,0.103396731472993,1
812,82,63,0.110326730317055,1
812,83,63,0.108221466746734,1
812,84,63,0.105755451483582,1
812,85,63,0.10627270174429,1
812,86,63,0.104959625711295,1
812,91,63,0.10475457740325,1
812,92,63,0.114345335117096,1
812,93,63,0.115411730105466,1
812,94,63,0.110005650635374,1
812,95,63,0.107563436400329,1
812,96,63,0.107758539473289,1
812,97,63,0.112396090826214,1
812,98,63,0.103292137664352,1
813,80,63,0.113751572993038,1
813,81,63,0.16111163211697,1
813,82,63,0.18685720966643,1
813,83,63,0.158101265010534,1
813,84,63,0.128461381760221,1
813,85,63,0.118806410288622,1
813,86,63,0.114264553229481,1
813,91,63,0.0997072780076428,1
813,92,63,0.101556699588425,1
813,93,63,0.101422433468314,1
813,97,63,0.102285838910337,1
814,80,63,0.135268323297866,1
814,81,63,0.234947813298831,1
814,82,63,0.281343217298245,1
814,83,63,0.217244663057674,1
814,84,63,0.152085160288254,1
814,85,63,0.124433354585208,1
814,86,63,0.111259338473752,1
814,90,63,0.106713385677051,1
814,91,63,0.100994886395917,1
815,80,63,0.120514507137754,1
815,81,63,0.203076809691586,1
815,82,63,0.245449197258747,1
815,83,63,0.206910463619214,1
815,84,63,0.154056048809274,1
815,85,63,0.11737096320311,1
815,86,63,0.101046682225961,1
815,88,63,0.101341847653241,1
815,89,63,0.108546043055428,1
815,90,63,0.111037743821681,1
815,91,63,0.100357748668233,1
816,80,63,0.103806904339518,1
816,81,63,0.143999400948002,1
816,82,63,0.164813547081705,1
816,83,63,0.166054021809284,1
816,84,63,0.151285587351817,1
816,85,63,0.12687596096534,1
816,86,63,0.11020615659618,1
816,87,63,0.108571586950581,1
816,88,63,0.111500344307555,1
816,89,63,0.112797919716752,1
816,90,63,0.108990844511587,1
817,80,63,0.11871182707258,1
817,81,63,0.152141171677968,1
817,82,63,0.152065237139327,1
817,83,63,0.150007292409324,1
817,84,63,0.161851446499543,1
817,85,63,0.171168127477375,1
817,86,63,0.1498058605504,1
817,87,63,0.124160519641964,1
817,88,63,0.117141394934301,1
817,89,63,0.113044306652563,1
817,90,63,0.103915495849447,1
818,80,63,0.137119160958124,1
818,81,63,0.170526981155484,1
818,82,63,0.166006245466366,1
818,83,63,0.152216441748548,1
818,84,63,0.162327957243034,1
818,85,63,0.192337764024012,1
818,86,63,0.170038771416943,1
818,87,63,0.123154798212658,1
818,88,63,0.106289672912157,1
819,80,63,0.111689695919261,1
819,81,63,0.128683706237867,1
819,82,63,0.148442470124351,1
819,83,63,0.153310929575127,1
819,84,63,0.135313376411024,1
819,85,63,0.130662328731406,1
819,86,63,0.112204168485613,1
820,82,63,0.120106218746223,1
820,83,63,0.139267767453312,1
820,84,63,0.108822352839846,1
821,82,63,0.106583073686552,1
821,83,63,0.115715250401651,1
822,82,63,0.110976405794556,1
822,83,63,0.114326348759206,1
838,78,63,0.148175757001609,1
855,103,63,0.104765524786887,1
855,104,63,0.113989496130753,1
855,105,63,0.10459448417209,1
804,90,64,0.183144728570225,1
804,91,64,0.158313197643415,1
805,89,64,0.12176183351141,1
805,90,64,0.172371490029779,1
805,91,64,0.150806429629,1
805,92,64,0.123815965719748,1
805,93,64,0.117202493317207,1
805,94,64,0.10866016816823,1
805,95,64,0.1039608321785,1
805,96,64,0.111342941627399,1
805,97,64,0.117672849561439,1
806,89,64,0.10686223741576,1
806,90,64,0.139502858432076,1
806,91,64,0.143027556496916,1
806,92,64,0.137129226015318,1
806,93,64,0.135339661024672,1
806,94,64,0.120979896210902,1
806,95,64,0.105189956484438,1
806,96,64,0.108255125866574,1
806,97,64,0.125828628585293,1
806,98,64,0.12356409964566,1
806,99,64,0.107744640108592,1
807,89,64,0.113462387778312,1
807,90,64,0.141972348536403,1
807,91,64,0.161378824528151,1
807,92,64,0.154355397117466,1
807,93,64,0.146048206518928,1
807,94,64,0.133482854044779,1
807,95,64,0.115996701643858,1
807,96,64,0.105998483400327,1
807,97,64,0.112047288665571,1
807,98,64,0.115400989687291,1
807,99,64,0.108080675768117,1
807,100,64,0.101312393200152,1
807,103,64,0.122968180723631,1
807,104,64,0.160495844510609,1
808,88,64,0.116627957195258,1
808,89,64,0.136853526234366,1
808,90,64,0.158942862828635,1
808,91,64,0.172224500980226,1
808,92,64,0.155213160027425,1
808,93,64,0.139292385450347,1
808,94,64,0.134031606627356,1
808,95,64,0.124888580564891,1
808,96,64,0.109449044258168,1
808,97,64,0.108901380967496,1
808,98,64,0.113761518228123,1
808,99,64,0.108835565950644,1
808,100,64,0.103698323722508,1
808,101,64,0.100730417214497,1
808,102,64,0.110581918731451,1
808,103,64,0.133594658965826,1
808,104,64,0.156908163587868,1
808,105,64,0.124717409235066,1
809,88,64,0.128120313572098,1
809,89,64,0.155141168725477,1
809,90,64,0.186983327883098,1
809,91,64,0.202290972726061,1
809,92,64,0.161891183868208,1
809,93,64,0.12963807844681,1
809,94,64,0.127131007771788,1
809,95,64,0.127701284762392,1
809,96,64,0.120160171374238,1
809,97,64,0.126128619575709,1
809,98,64,0.122953431711249,1
809,99,64,0.106177704597325,1
809,102,64,0.105948386865653,1
809,103,64,0.113465753690296,1
809,104,64,0.111018234603677,1
810,88,64,0.111660001821953,1
810,89,64,0.142134217313366,1
810,90,64,0.194402800044311,1
810,91,64,0.225910720874049,1
810,92,64,0.175692534080211,1
810,93,64,0.129061766779057,1
810,94,64,0.119392765227732,1
810,95,64,0.11993536331105,1
810,96,64,0.119446772320342,1
810,97,64,0.131420268931265,1
810,98,64,0.121183299688173,1
811,89,64,0.104907655594546,1
811,90,64,0.131016054491456,1
811,91,64,0.151917180583708,1
811,92,64,0.136436360113816,1
811,93,64,0.119066337122801,1
811,94,64,0.111707429591462,1
811,95,64,0.109948800490894,1
811,96,64,0.10934577938565,1
811,97,64,0.117532853765912,1
811,98,64,0.109532091872944,1
812,81,64,0.111511367941625,1
812,82,64,0.123120648911462,1
812,83,64,0.121649680016954,1
812,84,64,0.113926840060423,1
812,85,64,0.116151402880091,1
812,86,64,0.11437542135949,1
812,91,64,0.10337198276093,1
812,92,64,0.110853010807648,1
812,93,64,0.111405946271137,1
812,94,64,0.104194921008712,1
812,95,64,0.0997326585090105,1
812,97,64,0.105320725977536,1
812,98,64,0.100271934252021,1
813,80,64,0.125346769418553,1
813,81,64,0.174207949036901,1
813,82,64,0.194304175555305,1
813,83,64,0.163771138301065,1
813,84,64,0.127433678420288,1
813,85,64,0.116623817886022,1
813,86,64,0.112358717220981,1
813,91,64,0.102262179490178,1
813,92,64,0.109743545217387,1
813,93,64,0.107595167473498,1
813,97,64,0.100830610283845,1
814,80,64,0.143457086080579,1
814,81,64,0.232125414403383,1
814,82,64,0.267556267525216,1
814,83,64,0.214483743797299,1
814,84,64,0.145065262183339,1
814,85,64,0.110084297510857,1
814,90,64,0.10506724775143,1
814,91,64,0.105811669838758,1
814,92,64,0.1026230401122,1
815,80,64,0.12032558034989,1
815,81,64,0.187173714322114,1
815,82,64,0.223707148709375,1
815,83,64,0.203350853748844,1
815,84,64,0.146981707894986,1
815,85,64,0.101644855982232,1
815,88,64,0.100998731596339,1
815,89,64,0.108755622817795,1
815,90,64,0.112148189774657,1
815,91,64,0.103249709744684,1
816,77,64,0.143924795345484,1
816,78,64,0.113369699930184,1
816,80,64,0.112786024649159,1
816,81,64,0.146732695765687,1
816,82,64,0.16123375263235,1
816,83,64,0.164975481216182,1
816,84,64,0.143094537056106,1
816,85,64,0.11281192801064,1
816,87,64,0.101447672361734,1
816,88,64,0.111840421240045,1
816,89,64,0.113671085214237,1
816,90,64,0.107155420331774,1
817,80,64,0.139585285150466,1
817,81,64,0.17876585136579,1
817,82,64,0.168953172212302,1
817,83,64,0.149588786459732,1
817,84,64,0.149357420859281,1
817,85,64,0.152592574243067,1
817,86,64,0.130629965868933,1
817,87,64,0.114948759260345,1
817,88,64,0.112432843535061,1
817,89,64,0.104911969190487,1
818,80,64,0.157788050016402,1
818,81,64,0.212971871991789,1
818,82,64,0.208249704443747,1
818,83,64,0.161542065812913,1
818,84,64,0.148042776245945,1
818,85,64,0.167048022457701,1
818,86,64,0.142981882487374,1
818,87,64,0.108581739151128,1
819,80,64,0.11180522621862,1
819,81,64,0.144978173295598,1
819,82,64,0.172157977923637,1
819,83,64,0.15051854067164,1
819,84,64,0.117171568320047,1
819,85,64,0.112342661058313,1
820,82,64,0.121809272173838,1
820,83,64,0.124568252494624,1
821,82,64,0.11158237888086,1
821,83,64,0.114646099504764,1
822,82,64,0.114591743838744,1
822,83,64,0.116990680506436,1
837,77,64,0.127421543708475,1
838,77,64,0.126635042274889,1
838,78,64,0.109779306670601,1
839,78,64,0.109085438620548,1
841,78,64,0.104296617300887,1
852,106,64,0.103853166566689,1
852,107,64,0.102781586548855,1
852,111,64,0.111478079181033,1
853,94,64,0.120661637795253,1
853,95,64,0.116162426514162,1
853,107,64,0.103108134475895,1
853,110,64,0.118231133448178,1
854,95,64,0.148208522902087,1
854,96,64,0.103075510183365,1
854,98,64,0.103051436832282,1
854,99,64,0.114749429734796,1
854,100,64,0.111368714273852,1
854,108,64,0.09994357810042,1
854,109,64,0.12752166052739,1
855,101,64,0.101373219260082,1
855,102,64,0.123497086407714,1
855,103,64,0.137414064955347,1
855,104,64,0.134268211721866,1
855,105,64,0.114309508306367,1
856,102,64,0.114437859571439,1
856,103,64,0.157398116193457,1
805,90,65,0.208611676143511,1
805,91,65,0.196247014809791,1
805,92,65,0.140448363804918,1
806,89,65,0.119652103844283,1
806,90,65,0.16899105778473,1
806,91,65,0.176694344951581,1
806,92,65,0.152472599632739,1
806,93,65,0.136788604436876,1
806,94,65,0.120742506826221,1
806,95,65,0.107742091165536,1
806,96,65,0.11161683318379,1
806,97,65,0.126014298390363,1
806,98,65,0.122670106886967,1
806,99,65,0.112002562339985,1
806,100,65,0.107892979880105,1
806,101,65,0.107194427874863,1
807,89,65,0.131990491457273,1
807,90,65,0.173355992052791,1
807,91,65,0.194164593690701,1
807,92,65,0.180394255619211,1
807,93,65,0.15834338192208,1
807,94,65,0.138491755900763,1
807,95,65,0.11944246961732,1
807,96,65,0.106587267460383,1
807,97,65,0.107902609220538,1
807,98,65,0.111764987775679,1
807,99,65,0.11038340617483,1
807,100,65,0.110860581386383,1
807,101,65,0.109650704868392,1
807,102,65,0.118316414111357,1
807,103,65,0.143314748307458,1
808,88,65,0.122508935256822,1
808,89,65,0.154953679802926,1
808,90,65,0.184152181973659,1
808,91,65,0.197207639554263,1
808,92,65,0.181562183505971,1
808,93,65,0.157850335727484,1
808,94,65,0.145336975155922,1
808,95,65,0.131689040815706,1
808,96,65,0.112797396856638,1
808,97,65,0.110881953293543,1
808,98,65,0.117615944952364,1
808,99,65,0.111002973624099,1
808,100,65,0.109946828872548,1
808,101,65,0.115717047733293,1
808,102,65,0.129168767922806,1
808,103,65,0.14042003132249,1
808,104,65,0.146778446025663,1
809,88,65,0.127025052348267,1
809,89,65,0.161028737003061,1
809,90,65,0.200254280081109,1
809,91,65,0.217460669642276,1
809,92,65,0.177177620197796,1
809,93,65,0.141878582289289,1
809,94,65,0.138074382814751,1
809,95,65,0.136908219580876,1
809,96,65,0.123451140075195,1
809,97,65,0.126280466867154,1
809,98,65,0.128283097354261,1
809,99,65,0.109957885185375,1
809,100,65,0.103254001554786,1
809,101,65,0.11149153193605,1
809,102,65,0.121122560771595,1
809,103,65,0.113112136859437,1
809,104,65,0.100597066099585,1
810,88,65,0.106955622410706,1
810,89,65,0.14115442103138,1
810,90,65,0.207026908923772,1
810,91,65,0.246935448918671,1
810,92,65,0.186501032999596,1
810,93,65,0.134709952267775,1
810,94,65,0.129912155182824,1
810,95,65,0.13303998063529,1
810,96,65,0.122641142615235,1
810,97,65,0.124206716511621,1
810,98,65,0.119200428956208,1
810,108,65,0.101044961144753,1
811,82,65,0.100512809370796,1
811,83,65,0.108539224088107,1
811,84,65,0.106094537160439,1
811,85,65,0.103242324345573,1
811,89,65,0.104181620754561,1
811,90,65,0.139109950842232,1
811,91,65,0.165457176989137,1
811,92,65,0.140329739916551,1
811,93,65,0.119400215984356,1
811,94,65,0.118034548938228,1
811,95,65,0.120749347579379,1
811,96,65,0.113796549855762,1
811,97,65,0.113826919314051,1
811,98,65,0.107346732668908,1
812,80,65,0.109348938332173,1
812,81,65,0.136914755332301,1
812,82,65,0.150399589995701,1
812,83,65,0.143716032552045,1
812,84,65,0.125242142931155,1
812,85,65,0.123609327045522,1
812,86,65,0.11825043570072,1
812,91,65,0.107701918080109,1
812,92,65,0.112976596267798,1
812,93,65,0.11172108931194,1
812,94,65,0.105750299132875,1
812,95,65,0.103430205413209,1
812,96,65,0.10360040727324,1
812,97,65,0.107825073422797,1
812,98,65,0.102266111833952,1
813,79,65,0.120108484473384,1
813,80,65,0.154526230766801,1
813,81,65,0.200686750752913,1
813,82,65,0.215181348118584,1
813,83,65,0.183320507604806,1
813,84,65,0.135694454290788,1
813,85,65,0.116725971680798,1
813,86,65,0.109886863353222,1
813,91,65,0.105029547358626,1
813,92,65,0.11808920960598,1
813,93,65,0.112411068589896,1
813,97,65,0.103324130167578,1
814,79,65,0.119037427315664,1
814,80,65,0.159215338305551,1
814,81,65,0.22407968654061,1
814,82,65,0.254408644956598,1
814,83,65,0.220235205051454,1
814,84,65,0.147367524194534,1
814,85,65,0.104743531983341,1
814,90,65,0.103747243821925,1
814,91,65,0.110330804268777,1
814,92,65,0.115040434067002,1
814,93,65,0.101929193847984,1
815,77,65,0.127934992340437,1
815,78,65,0.104224288318449,1
815,79,65,0.101751443195057,1
815,80,65,0.128409215570929,1
815,81,65,0.176991329496341,1
815,82,65,0.209547138244997,1
815,83,65,0.202494016737003,1
815,84,65,0.143660119198602,1
815,88,65,0.102210133122995,1
815,89,65,0.108853136229059,1
815,90,65,0.110445877065536,1
815,91,65,0.105751802355703,1
816,77,65,0.154386899439335,1
816,78,65,0.125923277158849,1
816,79,65,0.107469637474458,1
816,80,65,0.130773654364015,1
816,81,65,0.157436938556922,1
816,82,65,0.162555346928035,1
816,83,65,0.159676958428711,1
816,84,65,0.132061382574399,1
816,85,65,0.105705997631132,1
816,88,65,0.110169643531551,1
816,89,65,0.112080686355354,1
816,90,65,0.104909986679221,1
817,77,65,0.115812785598753,1
817,78,65,0.102517956122202,1
817,79,65,0.104829477114582,1
817,80,65,0.151199783828524,1
817,81,65,0.18391374686875,1
817,82,65,0.170689557972186,1
817,83,65,0.141266117023236,1
817,84,65,0.128605255434927,1
817,85,65,0.127226451528434,1
817,86,65,0.11528502367117,1
817,87,65,0.106020421739278,1
817,88,65,0.105451811365287,1
818,80,65,0.157266649553539,1
818,81,65,0.217554784462799,1
818,82,65,0.222407972041078,1
818,83,65,0.15915065615228,1
818,84,65,0.125895369500263,1
818,85,65,0.129040699873629,1
818,86,65,0.113670518782447,1
819,80,65,0.110972342735753,1
819,81,65,0.154024775238704,1
819,82,65,0.184062707536649,1
819,83,65,0.140889548811956,1
819,84,65,0.0997586272280066,1
820,82,65,0.120548700010626,1
820,83,65,0.108197502324842,1
821,82,65,0.105766921727333,1
821,83,65,0.102117260095243,1
822,82,65,0.102149492242688,1
837,77,65,0.101432879777675,1
837,117,65,0.107879701411793,1
837,118,65,0.117933299255733,1
838,117,65,0.130211699563559,1
838,118,65,0.155479513683839,1
838,119,65,0.105608407969435,1
839,117,65,0.124435293524798,1
839,118,65,0.161231998872384,1
841,77,65,0.11722395236772,1
841,78,65,0.107179330289071,1
842,78,65,0.102985295027859,1
845,115,65,0.128400806237429,1
846,115,65,0.138614170524957,1
851,112,65,0.103104855707264,1
852,107,65,0.102586265617514,1
852,110,65,0.105092007356412,1
852,111,65,0.124269176509408,1
852,112,65,0.125577884481866,1
853,94,65,0.129087277995453,1
853,95,65,0.148905713292449,1
853,96,65,0.121144727861845,1
853,97,65,0.100854596491575,1
853,99,65,0.102824450185285,1
853,107,65,0.105401475186394,1
853,108,65,0.104775894845815,1
853,109,65,0.114881190483527,1
853,110,65,0.14043663213111,1
853,111,65,0.150335267308759,1
854,94,65,0.178398465885262,1
854,95,65,0.16425908660955,1
854,96,65,0.125532395651947,1
854,97,65,0.113975476943946,1
854,98,65,0.12370906261227,1
854,99,65,0.131014551268628,1
854,100,65,0.121880925795296,1
854,101,65,0.102324628595045,1
854,102,65,0.108288784986414,1
854,103,65,0.121352227076676,1
854,104,65,0.114852226211795,1
854,108,65,0.102966613671702,1
854,109,65,0.135495157443996,1
854,110,65,0.171084055928209,1
855,95,65,0.114268964861693,1
855,101,65,0.101305748519536,1
855,102,65,0.136118395806982,1
855,103,65,0.165030152776854,1
855,104,65,0.153251563166349,1
855,105,65,0.122467062876025,1
855,108,65,0.108247511716164,1
855,109,65,0.156512500089507,1
856,102,65,0.117997175332995,1
856,103,65,0.155322655649635,1
856,104,65,0.173936453922699,1
857,103,65,0.124052135097497,1
806,89,66,0.121738849452232,1
806,90,66,0.179542146134235,1
806,91,66,0.192262733597651,1
806,92,66,0.154931872179004,1
807,88,66,0.101057379072461,1
807,89,66,0.143960861800432,1
807,90,66,0.190107809209418,1
807,91,66,0.207079543508583,1
807,92,66,0.191945357508444,1
807,93,66,0.163926351504494,1
807,94,66,0.137259636042089,1
807,95,66,0.119303051146502,1
807,96,66,0.109980030489788,1
807,97,66,0.108722355843041,1
807,98,66,0.110118555741244,1
807,99,66,0.115404584350575,1
807,100,66,0.124558339938296,1
807,101,66,0.129885576460362,1
807,102,66,0.142403359557055,1
808,88,66,0.121355712810769,1
808,89,66,0.173315165392222,1
808,90,66,0.205982953348629,1
808,91,66,0.211219353818804,1
808,92,66,0.201631123262175,1
808,93,66,0.177045815877389,1
808,94,66,0.152308889952457,1
808,95,66,0.13722709889291,1
808,96,66,0.124813125314687,1
808,97,66,0.126238049840404,1
808,98,66,0.127034812403729,1
808,99,66,0.117348077180203,1
808,100,66,0.118129774836492,1
808,101,66,0.130619149200324,1
808,102,66,0.145489519594185,1
808,103,66,0.142907625458264,1
809,88,66,0.11653254611737,1
809,89,66,0.164488687557116,1
809,90,66,0.204664169426057,1
809,91,66,0.21428873876061,1
809,92,66,0.188997123612224,1
809,93,66,0.16247365003522,1
809,94,66,0.150464348399406,1
809,95,66,0.14776165179131,1
809,96,66,0.138756268653859,1
809,97,66,0.145334055853618,1
809,98,66,0.144321929387916,1
809,99,66,0.120572457467057,1
809,100,66,0.110153108080445,1
809,101,66,0.123235787065735,1
809,102,66,0.13456732038584,1
809,103,66,0.112751733740015,1
810,89,66,0.130907909591207,1
810,90,66,0.191016344015032,1
810,91,66,0.223478593482036,1
810,92,66,0.180095473742809,1
810,93,66,0.142629180661714,1
810,94,66,0.139199959032276,1
810,95,66,0.144126063810622,1
810,96,66,0.132152480056346,1
810,97,66,0.131197519629776,1
810,98,66,0.126540916561447,1
810,99,66,0.107719749788581,1
811,82,66,0.103921356239892,1
811,83,66,0.109542973899067,1
811,84,66,0.107412678400788,1
811,85,66,0.105268527109487,1
811,89,66,0.100113126385308,1
811,90,66,0.135265610961025,1
811,91,66,0.158824075546482,1
811,92,66,0.137022617016655,1
811,93,66,0.119260198402991,1
811,94,66,0.122248224132472,1
811,95,66,0.127873185917793,1
811,96,66,0.117464500698924,1
811,97,66,0.113097050166564,1
811,98,66,0.107645405616119,1
812,80,66,0.1214433681303,1
812,81,66,0.163058055141821,1
812,82,66,0.17366469737844,1
812,83,66,0.153150204554663,1
812,84,66,0.128634698995098,1
812,85,66,0.12153545686788,1
812,86,66,0.111518971199117,1
812,90,66,0.100037224525424,1
812,91,66,0.108086645087752,1
812,92,66,0.109655072928928,1
812,93,66,0.106720302680643,1
812,94,66,0.105261871535953,1
812,95,66,0.106487205106064,1
812,96,66,0.106721435544223,1
812,97,66,0.110449852980986,1
812,98,66,0.106771597436411,1
813,79,66,0.131923500005165,1
813,80,66,0.175032782652596,1
813,81,66,0.217443284543485,1
813,82,66,0.224530675174785,1
813,83,66,0.189754312200668,1
813,84,66,0.139662014872198,1
813,85,66,0.112498898196132,1
813,86,66,0.101713361550086,1
813,91,66,0.102612789875381,1
813,92,66,0.11517485268798,1
813,93,66,0.108475729263012,1
813,97,66,0.109548747146159,1
813,98,66,0.106726762181635,1
814,78,66,0.101933300478463,1
814,79,66,0.135572682348817,1
814,80,66,0.165013650004505,1
814,81,66,0.201482718133147,1
814,82,66,0.225406073720673,1
814,83,66,0.207399838900093,1
814,84,66,0.143996143965209,1
814,91,66,0.111989381907944,1
814,92,66,0.125391528422896,1
814,93,66,0.107343737116171,1
815,77,66,0.125235247713401,1
815,78,66,0.106435136953043,1
815,79,66,0.113715822432742,1
815,80,66,0.131734039464269,1
815,81,66,0.163953311479123,1
815,82,66,0.191780743715882,1
815,83,66,0.18820455482273,1
815,84,66,0.13574786227285,1
815,89,66,0.10494819903922,1
815,90,66,0.105829697619772,1
815,91,66,0.110615730352157,1
815,92,66,0.115659642049942,1
816,77,66,0.135677657409625,1
816,78,66,0.119205777379457,1
816,79,66,0.114301273259572,1
816,80,66,0.13947814239877,1
816,81,66,0.16425407586679,1
816,82,66,0.166643023727721,1
816,83,66,0.153292030360589,1
816,84,66,0.119706100043974,1
816,88,66,0.101639736310282,1
816,89,66,0.106396881021368,1
816,90,66,0.101152626756563,1
817,77,66,0.104721702573581,1
817,79,66,0.106093001258854,1
817,80,66,0.14360704889703,1
817,81,66,0.167747990542418,1
817,82,66,0.159612962529339,1
817,83,66,0.13006626820143,1
817,84,66,0.103524483627517,1
818,80,66,0.135446324487931,1
818,81,66,0.184283746649848,1
818,82,66,0.197776337071606,1
818,83,66,0.140751034453418,1
819,80,66,0.105766246366353,1
819,81,66,0.150138671905889,1
819,82,66,0.176153740272447,1
819,83,66,0.125161764081544,1
820,82,66,0.11230857711463,1
821,76,66,0.104821187603191,1
822,76,66,0.106351871479887,1
837,117,66,0.118765801486433,1
837,118,66,0.144911552202738,1
838,117,66,0.142781234918621,1
838,118,66,0.189260688681363,1
838,119,66,0.130035375883027,1
839,117,66,0.131962779871231,1
839,118,66,0.172617964108941,1
840,117,66,0.105155513074427,1
841,77,66,0.108497700280719,1
842,81,66,0.103165768910546,1
844,116,66,0.105015223170086,1
845,115,66,0.1126698080959,1
846,115,66,0.109191764403316,1
852,107,66,0.103484876973881,1
852,110,66,0.115628575444834,1
852,111,66,0.126929793771245,1
853,94,66,0.117880926100979,1
853,95,66,0.150644027099003,1
853,96,66,0.146178017435151,1
853,97,66,0.142874227768482,1
853,98,66,0.134334070310394,1
853,99,66,0.123929731366222,1
853,100,66,0.113655290481626,1
853,107,66,0.105247983064174,1
853,108,66,0.108808638654772,1
853,109,66,0.125178234175136,1
853,110,66,0.154627567592648,1
854,94,66,0.142510164628261,1
854,95,66,0.148542837480404,1
854,96,66,0.129634854142773,1
854,97,66,0.128456349231623,1
854,98,66,0.13506668447348,1
854,99,66,0.135383069307054,1
854,100,66,0.121097877417046,1
854,101,66,0.10254128875479,1
854,102,66,0.112587697272162,1
854,103,66,0.138373633086672,1
854,104,66,0.13852214714489,1
854,105,66,0.11345786721691,1
854,108,66,0.103345850648148,1
854,109,66,0.13601630736972,1
855,102,66,0.129260715052439,1
855,103,66,0.169813832638726,1
855,104,66,0.162252491099911,1
855,105,66,0.127433678420288,1
856,102,66,0.112017093493987,1
856,103,66,0.137937905432075,1
856,104,66,0.137256956384004,1
807,89,67,0.150981740268061,1
807,99,67,0.114257777833837,1
807,102,67,0.175993908471345,1
808,88,67,0.118998005841651,1
808,89,67,0.184784428780693,1
808,90,67,0.215116382749418,1
808,91,67,0.214206039719243,1
808,92,67,0.211169638536297,1
808,93,67,0.193706023584873,1
808,94,67,0.157885933786913,1
808,95,67,0.140798582045036,1
808,96,67,0.136035337299287,1
808,97,67,0.13510943918072,1
808,98,67,0.126202353744704,1
808,99,67,0.116175890162098,1
808,100,67,0.124586138667691,1
808,101,67,0.142009798392069,1
808,102,67,0.155667405644394,1
808,103,67,0.141587545278326,1
808,104,67,0.118685607816446,1
809,88,67,0.109836472709734,1
809,89,67,0.168546899010794,1
809,90,67,0.201152880544557,1
809,91,67,0.200039624218469,1
809,92,67,0.195844412522,1
809,93,67,0.186022746710302,1
809,94,67,0.1591292733522,1
809,95,67,0.150496722154799,1
809,96,67,0.149598012762161,1
809,97,67,0.156022928736085,1
809,98,67,0.149087298252878,1
809,99,67,0.125689961725889,1
809,100,67,0.116715416442246,1
809,101,67,0.127077915684378,1
809,102,67,0.135000793206195,1
809,103,67,0.108992336841496,1
810,89,67,0.125805295952705,1
810,90,67,0.169031002118857,1
810,91,67,0.186763203775098,1
810,92,67,0.170241248996095,1
810,93,67,0.154556763618875,1
810,94,67,0.141949418941819,1
810,95,67,0.141392246132823,1
810,96,67,0.134400484437793,1
810,97,67,0.135122554255246,1
810,98,67,0.129090687479113,1
810,99,67,0.112957664374503,1
810,100,67,0.102929719354907,1
810,101,67,0.101325497381759,1
810,102,67,0.100762180966423,1
810,106,67,0.100368652480194,1
810,108,67,0.0998164141635242,1
811,82,67,0.105754558264221,1
811,83,67,0.10246886173608,1
811,84,67,0.100150565348055,1
811,90,67,0.127433079309741,1
811,91,67,0.145193515412139,1
811,92,67,0.134272209423155,1
811,93,67,0.12419445108478,1
811,94,67,0.124724195523629,1
811,95,67,0.127235100506153,1
811,96,67,0.11712593788218,1
811,97,67,0.1102125180609,1
811,98,67,0.103787351549838,1
812,80,67,0.129289515930386,1
812,81,67,0.180452075233486,1
812,82,67,0.184165068296886,1
812,83,67,0.14865078630811,1
812,84,67,0.123105899899079,1
812,85,67,0.10884982478167,1
812,90,67,0.102260654481512,1
812,91,67,0.112233579367027,1
812,92,67,0.111635470968271,1
812,93,67,0.108160226755881,1
812,94,67,0.110682721804265,1
812,95,67,0.113018697399895,1
812,96,67,0.11119080022714,1
812,97,67,0.109177483786452,1
812,98,67,0.105258342230183,1
812,99,67,0.100085545514294,1
813,79,67,0.132810608439024,1
813,80,67,0.181882598719591,1
813,81,67,0.226382253553537,1
813,82,67,0.228602709742727,1
813,83,67,0.188448948354356,1
813,84,67,0.141899507586769,1
813,85,67,0.107815542118636,1
813,91,67,0.1049784486754,1
813,92,67,0.11155042994931,1
813,93,67,0.103667562119133,1
813,95,67,0.100014992077659,1
813,96,67,0.108746440087043,1
813,97,67,0.115409017768625,1
813,98,67,0.113122746562584,1
813,99,67,0.102063841220262,1
814,78,67,0.105132768659467,1
814,79,67,0.143630098313723,1
814,80,67,0.164060835482986,1
814,81,67,0.183811582181055,1
814,82,67,0.20388517321369,1
814,83,67,0.19252778010378,1
814,84,67,0.144189776494098,1
814,85,67,0.102694356053167,1
814,91,67,0.11301159521668,1
814,92,67,0.126607210866736,1
814,93,67,0.106776913180904,1
815,77,67,0.111525114805456,1
815,78,67,0.105019776410245,1
815,79,67,0.122523106944496,1
815,80,67,0.133314297015524,1
815,81,67,0.157114606189551,1
815,82,67,0.18479002774108,1
815,83,67,0.176904197036924,1
815,84,67,0.133400024288384,1
815,85,67,0.100982675433671,1
815,89,67,0.100165760970119,1
815,90,67,0.10335912911646,1
815,91,67,0.114114383447569,1
815,92,67,0.130502954432903,1
815,93,67,0.112037016642914,1
816,77,67,0.103907489553951,1
816,78,67,0.102956799151645,1
816,79,67,0.113547025759268,1
816,80,67,0.137346191176796,1
816,81,67,0.164049278095883,1
816,82,67,0.173857131686236,1
816,83,67,0.152435127991235,1
816,84,67,0.116996693397748,1
816,89,67,0.102081553106624,1
816,90,67,0.10061122689434,1
816,92,67,0.102940350843892,1
817,79,67,0.101060145873897,1
817,80,67,0.126557092546224,1
817,81,67,0.144145801779926,1
817,82,67,0.145078823867546,1
817,83,67,0.123583391005283,1
818,80,67,0.113660388367738,1
818,81,67,0.142080438972056,1
818,82,67,0.156623411791192,1
818,83,67,0.122736913159452,1
819,78,67,0.104133724589534,1
819,80,67,0.101751911590576,1
819,81,67,0.135367394396553,1
819,82,67,0.153786242097523,1
819,83,67,0.11295178219822,1
820,76,67,0.103088102397777,1
820,77,67,0.126511124427867,1
820,78,67,0.107314653022329,1
820,81,67,0.100258405246571,1
820,82,67,0.105223060065406,1
821,76,67,0.14729900773376,1
821,77,67,0.131202573944211,1
822,76,67,0.150407018966488,1
822,77,67,0.107595548725664,1
823,76,67,0.0998285161965798,1
837,75,67,0.109102943541448,1
837,117,67,0.115624893638198,1
837,118,67,0.154506993871773,1
837,119,67,0.10958569592755,1
838,117,67,0.137701561767621,1
838,118,67,0.197717580666294,1
838,119,67,0.149857754416716,1
839,117,67,0.123122729458999,1
839,118,67,0.16012880760349,1
839,119,67,0.135878435693406,1
840,117,67,0.100801341010379,1
840,118,67,0.114274966860085,1
842,81,67,0.104168712645497,1
844,116,67,0.111081326390768,1
844,117,67,0.109122180436476,1
845,115,67,0.111445694532722,1
845,116,67,0.127498905219511,1
846,115,67,0.105981555804136,1
846,116,67,0.117218778231175,1
847,115,67,0.101813903192844,1
852,96,67,0.101368252088999,1
852,97,67,0.114710890587225,1
852,98,67,0.109448575862649,1
852,107,67,0.106952463464184,1
852,110,67,0.119771108984816,1
853,95,67,0.125471504234503,1
853,96,67,0.147251220497923,1
853,97,67,0.171282666521101,1
853,98,67,0.161141032105465,1
853,99,67,0.136227945893787,1
853,100,67,0.121404469516401,1
853,101,67,0.113311433706229,1
853,102,67,0.113625846921456,1
853,103,67,0.108761864460406,1
853,104,67,0.104397398587864,1
853,105,67,0.101134718797658,1
853,106,67,0.101898007420767,1
853,107,67,0.107776305824247,1
853,108,67,0.109781888292414,1
853,109,67,0.126705421424819,1
854,95,67,0.117036615946036,1
854,96,67,0.117898844952803,1
854,97,67,0.129912732507534,1
854,98,67,0.134819633069609,1
854,99,67,0.129405656233211,1
854,100,67,0.11498655768942,1
854,101,67,0.10396298897647,1
854,102,67,0.119293835736992,1
854,103,67,0.145629820391446,1
854,104,67,0.151181625332481,1
854,105,67,0.131224054780562,1
854,106,67,0.108280996549299,1
855,98,67,0.102822326066072,1
855,99,67,0.108361201112205,1
855,100,67,0.100170335996117,1
855,102,67,0.121476722248406,1
855,103,67,0.156818100933229,1
855,104,67,0.15990288846256,1
855,105,67,0.132147066275583,1
806,102,68,0.208604791818677,1
807,89,68,0.160354726744421,1
807,98,68,0.11395939899544,1
807,101,68,0.196945512350438,1
807,102,68,0.226295219130392,1
808,88,68,0.1192967005747,1
808,89,68,0.188501125436567,1
808,90,68,0.222008354413105,1
808,91,68,0.228067845631928,1
808,92,68,0.230971026414992,1
808,93,68,0.221696228710876,1
808,94,68,0.173831511540649,1
808,95,68,0.146522832787425,1
808,96,68,0.14746125776289,1
808,97,68,0.14774197917952,1
808,98,68,0.13162441312703,1
808,99,68,0.118251405170515,1
808,100,68,0.128349555053336,1
808,101,68,0.150828716541359,1
808,102,68,0.162418553650706,1
808,103,68,0.139314563433517,1
808,104,68,0.114189925841125,1
808,105,68,0.101332000454427,1
809,88,68,0.109495426307449,1
809,89,68,0.170323534106538,1
809,90,68,0.201669509908879,1
809,91,68,0.206124735582879,1
809,92,68,0.220225641068535,1
809,93,68,0.226065705326178,1
809,94,68,0.179485317775593,1
809,95,68,0.152316961605467,1
809,96,68,0.15103871023465,1
809,97,68,0.153321789815412,1
809,98,68,0.142616610233139,1
809,99,68,0.123576615609639,1
809,100,68,0.117442812897111,1
809,101,68,0.123119995336319,1
809,102,68,0.123812109626407,1
809,103,68,0.102596733712713,1
809,107,68,0.100983612224708,1
810,89,68,0.124042048254464,1
810,90,68,0.154527178450757,1
810,91,68,0.166932067334499,1
810,92,68,0.170923744838669,1
810,93,68,0.172948063127589,1
810,94,68,0.149382877611082,1
810,95,68,0.135859198798378,1
810,96,68,0.127617746966259,1
810,97,68,0.125524901323646,1
810,98,68,0.120059564373966,1
810,99,68,0.109446604244303,1
810,100,68,0.102637778231663,1
810,106,68,0.102180079559358,1
810,109,68,0.106148108536288,1
811,81,68,0.103153971879224,1
811,82,68,0.107543230035506,1
811,89,68,0.100261357227631,1
811,90,68,0.119959752556785,1
811,91,68,0.132780195409058,1
811,92,68,0.132584907156474,1
811,93,68,0.130637885021076,1
811,94,68,0.127170657997101,1
811,95,68,0.123354824885026,1
811,96,68,0.112758062525978,1
811,97,68,0.103697833541151,1
812,80,68,0.132201018903597,1
812,81,68,0.182831415539822,1
812,82,68,0.17915823609552,1
812,83,68,0.139153043229962,1
812,84,68,0.112836611365189,1
812,90,68,0.103286309952665,1
812,91,68,0.112477700575676,1
812,92,68,0.112697683075728,1
812,93,68,0.109853171554625,1
812,94,68,0.114101311944718,1
812,95,68,0.115531791859147,1
812,96,68,0.11220238204689,1
812,97,68,0.104444706535263,1
812,99,68,0.10040474072098,1
813,79,68,0.124509452517636,1
813,80,68,0.173354281864502,1
813,81,68,0.218951953830797,1
813,82,68,0.215275441153269,1
813,83,68,0.174158135718122,1
813,84,68,0.134459545844839,1
813,85,68,0.102234206474078,1
813,90,68,0.100441123070581,1
813,91,68,0.107916312512693,1
813,92,68,0.109334134855195,1
813,93,68,0.102302200074738,1
813,94,68,0.104656650061062,1
813,95,68,0.10762174619596,1
813,96,68,0.113451647360137,1
813,97,68,0.113205761498602,1
813,98,68,0.110288234741161,1
813,99,68,0.106883064676968,1
814,77,68,0.106125756266413,1
814,78,68,0.103088821330434,1
814,79,68,0.138617928582026,1
814,80,68,0.15719489789581,1
814,81,68,0.175137833963837,1
814,82,68,0.187256914437756,1
814,83,68,0.173374706087705,1
814,84,68,0.137323664620217,1
814,85,68,0.104862482659279,1
814,90,68,0.102688724414023,1
814,91,68,0.113274637425705,1
814,92,68,0.121740014994569,1
814,93,68,0.108472864425304,1
814,97,68,0.100251085204975,1
815,78,68,0.102174545956485,1
815,79,68,0.12591496586162,1
815,80,68,0.133118104650659,1
815,81,68,0.152532042291951,1
815,82,68,0.175483248426658,1
815,83,68,0.162792246131359,1
815,84,68,0.128133058287377,1
815,85,68,0.104655440947049,1
815,90,68,0.104277173440398,1
815,91,68,0.115321427806608,1
815,92,68,0.133455774248041,1
815,93,68,0.126538770656396,1
815,94,68,0.0997785939486105,1
816,79,68,0.111574503300393,1
816,80,68,0.128395141919527,1
816,81,68,0.154217743299532,1
816,82,68,0.169451610401824,1
816,83,68,0.146846875343085,1
816,84,68,0.113278972807484,1
816,90,68,0.09979792887991,1
816,92,68,0.108807309718649,1
816,93,68,0.113446473223592,1
817,80,68,0.112950671120478,1
817,81,68,0.126910077587779,1
817,82,68,0.131724987448545,1
817,83,68,0.115881530810827,1
818,80,68,0.10029184650803,1
818,81,68,0.112483430251092,1
818,82,68,0.119893131463924,1
818,83,68,0.10331854210011,1
819,77,68,0.11020592784488,1
819,78,68,0.119387819842486,1
819,79,68,0.101007217180272,1
819,81,68,0.115197106921582,1
819,82,68,0.122034897205954,1
820,76,68,0.115858895325058,1
820,77,68,0.149437723458458,1
820,78,68,0.119303519542021,1
820,81,68,0.0997670256685879,1
821,75,68,0.105059786101886,1
821,76,68,0.17044232138869,1
821,77,68,0.161513559043781,1
822,75,68,0.120793616402366,1
822,76,68,0.172375433266472,1
822,77,68,0.128420054025376,1
823,75,68,0.099892675489737,1
823,76,68,0.109136068908255,1
837,75,68,0.119284032109855,1
837,117,68,0.101299822771577,1
837,118,68,0.138969835224596,1
837,119,68,0.112675897237644,1
838,75,68,0.143005498335857,1
838,117,68,0.121208168222346,1
838,118,68,0.177089137016419,1
838,119,68,0.149388607286498,1
839,117,68,0.108764391617624,1
839,118,68,0.141827592535254,1
839,119,68,0.133118050186064,1
840,118,68,0.100447854894549,1
844,116,68,0.102752023166575,1
844,117,68,0.107018289373955,1
845,115,68,0.102596483175575,1
845,116,68,0.124822471439225,1
845,117,68,0.127600492582497,1
846,115,68,0.102217387807077,1
846,116,68,0.117377411811183,1
846,117,68,0.120576019451584,1
847,115,68,0.100641313136734,1
847,116,68,0.113167287708546,1
848,115,68,0.102780606186142,1
850,112,68,0.101265717042057,1
850,113,68,0.106546310084786,1
851,107,68,0.101856657900083,1
851,108,68,0.101898410458771,1
851,109,68,0.0997355451325567,1
851,110,68,0.107865769368338,1
851,111,68,0.11708478443404,1
851,112,68,0.122704277974002,1
852,96,68,0.10224146115816,1
852,97,68,0.125175554517052,1
852,98,68,0.127420977276685,1
852,99,68,0.11490890206957,1
852,100,68,0.106898968338769,1
852,101,68,0.108669808401582,1
852,102,68,0.100926576900605,1
852,107,68,0.106865777614448,1
852,108,68,0.104719251666796,1
852,109,68,0.108926086107883,1
852,110,68,0.123913076093007,1
853,95,68,0.0999414430882878,1
853,96,68,0.130492115978457,1
853,97,68,0.168469809822734,1
853,98,68,0.164209033646552,1
853,99,68,0.137860021060925,1
853,100,68,0.122275805003486,1
853,101,68,0.124525290821923,1
853,102,68,0.129435295865925,1
853,103,68,0.118628801243643,1
853,104,68,0.109670290336829,1
853,105,68,0.109215380251799,1
853,106,68,0.108932262392979,1
853,107,68,0.106938825529544,1
853,108,68,0.108311006541259,1
853,109,68,0.124567882135377,1
854,96,68,0.105406965217592,1
854,97,68,0.123850986454468,1
854,98,68,0.128955702426345,1
854,99,68,0.122832237093988,1
854,100,68,0.110756848118346,1
854,101,68,0.108766461272242,1
854,102,68,0.125687380104076,1
854,103,68,0.144517184961743,1
854,104,68,0.150901666420183,1
854,105,68,0.139531169128666,1
854,106,68,0.117155381442351,1
805,102,69,0.17643239203446,1
806,101,69,0.221972059206857,1
806,102,69,0.25270198597278,1
806,103,69,0.218086337126209,1
807,101,69,0.223018193365809,1
807,102,69,0.25560168102175,1
807,103,69,0.200272601970938,1
808,88,69,0.119550091657455,1
808,89,69,0.179817083410854,1
808,90,69,0.223755012195645,1
808,91,69,0.247223762699873,1
808,92,69,0.256933601804687,1
808,93,69,0.2456600841714,1
808,94,69,0.194582010348389,1
808,95,69,0.15494090240889,1
808,96,69,0.155670553697997,1
808,97,69,0.158755711586575,1
808,98,69,0.138834850171828,1
808,99,69,0.121226947614774,1
808,100,69,0.126241274144441,1
808,101,69,0.150025843050453,1
808,102,69,0.156612453514636,1
808,103,69,0.128587761406946,1
808,104,69,0.110891615312733,1
808,105,69,0.102660359252837,1
809,88,69,0.110516681039309,1
809,89,69,0.161220158269385,1
809,90,69,0.199175532522546,1
809,91,69,0.225291414854837,1
809,92,69,0.252323195606015,1
809,93,69,0.257266075479685,1
809,94,69,0.202357833463141,1
809,95,69,0.156303268900549,1
809,96,69,0.150737324950597,1
809,97,69,0.147662994623547,1
809,98,69,0.134154435182473,1
809,99,69,0.11768511498828,1
809,100,69,0.112200628286925,1
809,101,69,0.11451481804447,1
809,102,69,0.107274991904097,1
809,107,69,0.100054511587943,1
810,89,69,0.121309265403974,1
810,90,69,0.144767427990894,1
810,91,69,0.162969212494115,1
810,92,69,0.181863296467048,1
810,93,69,0.190409346994338,1
810,94,69,0.162016659402653,1
810,95,69,0.134484871881611,1
810,96,69,0.123476346289858,1
810,97,69,0.117146841393822,1
810,98,69,0.113190707484486,1
810,99,69,0.10480551269269,1
810,109,69,0.103888361588114,1
811,81,69,0.105709526936901,1
811,82,69,0.106277745165806,1
811,89,69,0.100047147974671,1
811,90,69,0.112910988216408,1
811,91,69,0.12428359873422,1
811,92,69,0.135441313745171,1
811,93,69,0.139500451096968,1
811,94,69,0.131234501089923,1
811,95,69,0.121760417431935,1
811,96,69,0.112668816840267,1
811,97,69,0.102259554296688,1
811,111,69,0.115854941195445,1
812,80,69,0.126556373613568,1
812,81,69,0.16280314994332,1
812,82,69,0.154261097117319,1
812,83,69,0.12344983292491,1
812,84,69,0.102498621190902,1
812,90,69,0.102009213231266,1
812,91,69,0.110462597696265,1
812,92,69,0.115661014557741,1
812,93,69,0.116513962797484,1
812,94,69,0.11780041653634,1
812,95,69,0.117335103713624,1
812,96,69,0.114904947939958,1
812,97,69,0.104162024393205,1
812,99,69,0.102051488650068,1
812,111,69,0.101207265638478,1
812,112,69,0.105293025284413,1
813,79,69,0.112961498682006,1
813,80,69,0.154616772709877,1
813,81,69,0.188486637854241,1
813,82,69,0.177960341788476,1
813,83,69,0.1444796915344,1
813,84,69,0.118426487058276,1
813,90,69,0.100944397716157,1
813,91,69,0.106863119742202,1
813,92,69,0.107161411437247,1
813,93,69,0.106280915005247,1
813,94,69,0.11145833031881,1
813,95,69,0.111939884483817,1
813,96,69,0.115410226882638,1
813,97,69,0.110978943844693,1
813,98,69,0.1084151428473,1
813,99,69,0.113921687709716,1
814,77,69,0.103015315912739,1
814,78,69,0.100917579349476,1
814,79,69,0.126893727316297,1
814,80,69,0.146359689538933,1
814,81,69,0.159979716220563,1
814,82,69,0.162637163642959,1
814,83,69,0.146882113936186,1
814,84,69,0.124211498503081,1
814,85,69,0.105663210245135,1
814,90,69,0.10395548375525,1
814,91,69,0.11099091516272,1
814,92,69,0.113985280571083,1
814,93,69,0.112956466153408,1
814,94,69,0.110021075008738,1
814,95,69,0.103381252635034,1
814,96,69,0.104646225537539,1
814,97,69,0.10369989230285,1
814,98,69,0.10043396642277,1
815,78,69,0.10154697221172,1
815,79,69,0.123439157864249,1
815,80,69,0.128612314046466,1
815,81,69,0.140745631565573,1
815,82,69,0.158712466697979,1
815,83,69,0.147177072398004,1
815,84,69,0.122754919154628,1
815,85,69,0.104588765389593,1
815,90,69,0.103537914596696,1
815,91,69,0.112955725434913,1
815,92,69,0.127351458667359,1
815,93,69,0.133996259105065,1
815,94,69,0.115423494458031,1
816,79,69,0.112659830182057,1
816,80,69,0.119563293875333,1
816,81,69,0.137252697252659,1
816,82,69,0.156222890050938,1
816,83,69,0.140037145218165,1
816,84,69,0.113485132193272,1
816,92,69,0.111444082380703,1
816,93,69,0.123023712824907,1
816,94,69,0.10512602594258,1
817,79,69,0.103769421805095,1
817,80,69,0.107369074045863,1
817,81,69,0.115505169565008,1
817,82,69,0.122622624652863,1
817,83,69,0.110894523722117,1
818,78,69,0.111689902884723,1
818,79,69,0.10744130499203,1
818,81,69,0.100681518900918,1
818,82,69,0.102638453592644,1
819,77,69,0.124933404926749,1
819,78,69,0.133576783685678,1
819,79,69,0.110164262429544,1
819,81,69,0.103252846905368,1
819,82,69,0.101832301333106,1
820,76,69,0.128473734330414,1
820,77,69,0.164444091946558,1
820,78,69,0.133709655512152,1
820,81,69,0.101143444025811,1
821,75,69,0.109772966991719,1
821,76,69,0.17684193311168,1
821,77,69,0.181959306655484,1
821,78,69,0.115035031179157,1
822,75,69,0.121485011759797,1
822,76,69,0.173632574160186,1
822,77,69,0.146455405618555,1
823,75,69,0.102185166552551,1
823,76,69,0.112824509332134,1
837,75,69,0.121830262828832,1
837,118,69,0.113106439862778,1
837,119,69,0.105972220572517,1
838,75,69,0.157955735612134,1
838,117,69,0.102453263076012,1
838,118,69,0.142817007264754,1
838,119,69,0.133123812540237,1
839,75,69,0.136250298163661,1
839,118,69,0.124218034254506,1
844,117,69,0.104103387810002,1
845,114,69,0.103960701463471,1
845,115,69,0.103188426182154,1
845,116,69,0.120434596683662,1
845,117,69,0.133991901937448,1
846,114,69,0.108262620194875,1
846,115,69,0.102146442225357,1
846,116,69,0.111630678083892,1
847,92,69,0.114400649359991,1
847,114,69,0.100963656397023,1
847,115,69,0.0997603156304581,1
848,91,69,0.0998275576197041,1
848,92,69,0.11700211807143,1
849,92,69,0.10179257485736,1
850,108,69,0.102125702107501,1
850,109,69,0.109632350299806,1
850,111,69,0.0999328158964066,1
850,112,69,0.103593305090024,1
851,107,69,0.103561007585065,1
851,108,69,0.121153954164274,1
851,109,69,0.128304327653474,1
851,110,69,0.11227003796706,1
851,111,69,0.113740375072263,1
852,96,69,0.0999072720012532,1
852,97,69,0.123743778345257,1
852,98,69,0.137972697415495,1
852,99,69,0.136221671572418,1
852,100,69,0.120932980408589,1
852,101,69,0.117025603204885,1
852,102,69,0.107202445063278,1
852,106,69,0.105163018295647,1
852,107,69,0.108514671448587,1
852,108,69,0.109029764911324,1
852,109,69,0.113003055168151,1
853,96,69,0.117979899163394,1
853,97,69,0.15073490672257,1
853,98,69,0.157571716644228,1
853,99,69,0.143122488286367,1
853,100,69,0.126804176628853,1
853,101,69,0.134139130631219,1
853,102,69,0.138000354536942,1
853,103,69,0.12294159110825,1
853,104,69,0.114577779116533,1
853,105,69,0.11870887509152,1
853,106,69,0.121982524051201,1
853,107,69,0.110397795720885,1
853,108,69,0.10496559503093,1
854,96,69,0.104200149609852,1
854,97,69,0.121532265242601,1
854,98,69,0.128561433221621,1
854,99,69,0.125168811800165,1
854,100,69,0.113869619556696,1
854,101,69,0.120379609228338,1
854,103,69,0.137615355206323,1
854,104,69,0.142241120420844,1
854,105,69,0.139113349432973,1
806,102,70,0.262379407750525,1
807,102,70,0.247793810939177,1
808,101,70,0.150019536050327,1
808,102,70,0.15043541680643,1
809,88,70,0.108603241773317,1
809,89,70,0.145176500672595,1
809,90,70,0.187783064213321,1
809,91,70,0.231154768173392,1
809,92,70,0.263292060079536,1
809,93,70,0.26165143397095,1
809,94,70,0.212711117295763,1
809,95,70,0.166532275419821,1
809,96,70,0.155521723745126,1
809,97,70,0.149762670126399,1
809,98,70,0.134091288930787,1
809,99,70,0.118160754298248,1
809,100,70,0.111329085834377,1
809,101,70,0.110147073403296,1
809,102,70,0.10031878469682,1
810,89,70,0.117228777930856,1
810,90,70,0.138743850726151,1
810,91,70,0.165561237044745,1
810,92,70,0.193034976200212,1
810,93,70,0.201126824682209,1
810,94,70,0.174603351105205,1
810,95,70,0.143271274667561,1
810,96,70,0.128439857352194,1
810,97,70,0.120396743789991,1
810,98,70,0.114903825969297,1
810,99,70,0.106754016265078,1
811,81,70,0.102403645829775,1
811,82,70,0.100951554363968,1
811,89,70,0.10183100507574,1
811,90,70,0.111706002619067,1
811,91,70,0.124807765998519,1
811,92,70,0.143264379449808,1
811,93,70,0.150507517037569,1
811,94,70,0.14026881582035,1
811,95,70,0.127420345487381,1
811,96,70,0.117800002605416,1
811,97,70,0.108962991317597,1
811,98,70,0.1046669111908,1
811,99,70,0.101192331446471,1
812,80,70,0.114100919799633,1
812,81,70,0.130826909845211,1
812,82,70,0.121341758981476,1
812,83,70,0.103348486734556,1
812,90,70,0.103780543475436,1
812,91,70,0.11186094349952,1
812,92,70,0.12068372863507,1
812,93,70,0.125264909131953,1
812,94,70,0.12400150480979,1
812,95,70,0.121720701849108,1
812,96,70,0.118425975091081,1
812,97,70,0.109118912560763,1
812,98,70,0.103133580334777,1
812,99,70,0.106053285676027,1
812,110,70,0.101648330823406,1
812,111,70,0.115249153288765,1
813,79,70,0.101984573448393,1
813,80,70,0.128175573350398,1
813,81,70,0.142125208869319,1
813,82,70,0.128191041295438,1
813,83,70,0.108635277848219,1
813,84,70,0.100512155795653,1
813,90,70,0.104031527223082,1
813,91,70,0.10935840427882,1
813,92,70,0.110911178995332,1
813,93,70,0.115634686372417,1
813,94,70,0.120648479149051,1
813,95,70,0.119361306477538,1
813,96,70,0.117909389298435,1
813,97,70,0.111707004767619,1
813,98,70,0.109108847503569,1
813,99,70,0.115320186013837,1
813,100,70,0.103473526552239,1
814,79,70,0.111018496033734,1
814,80,70,0.126145383778114,1
814,81,70,0.130606883773483,1
814,82,70,0.124623697452548,1
814,83,70,0.114288626580564,1
814,84,70,0.109227721929074,1
814,85,70,0.105006334548147,1
814,90,70,0.104785774723386,1
814,91,70,0.110757490800569,1
814,92,70,0.112506283595242,1
814,93,70,0.120121512404558,1
814,94,70,0.123355794354821,1
814,95,70,0.115584230371415,1
814,96,70,0.109836548960167,1
814,97,70,0.105608157432297,1
814,98,70,0.102985839673811,1
814,99,70,0.104670244424027,1
815,79,70,0.111792307216637,1
815,80,70,0.115831259989448,1
815,81,70,0.119544100551982,1
815,82,70,0.127864286402936,1
815,83,70,0.124163264657563,1
815,84,70,0.115287311184169,1
815,85,70,0.10463655262543,1
815,90,70,0.102672559322164,1
815,91,70,0.112442908592256,1
815,92,70,0.122599030590218,1
815,93,70,0.134482791334074,1
815,94,70,0.126822084587758,1
815,95,70,0.110133032430651,1
816,79,70,0.10693079744821,1
816,80,70,0.107386513609249,1
816,81,70,0.114972070107095,1
816,82,70,0.12928629162635,1
816,83,70,0.125450317506966,1
816,84,70,0.111322680797981,1
816,91,70,0.100643262969242,1
816,92,70,0.111090944838282,1
816,93,70,0.121614321601744,1
816,94,70,0.109412160834292,1
817,79,70,0.10386725111101,1
817,80,70,0.100323054721085,1
817,81,70,0.10341256977728,1
817,82,70,0.110342296298366,1
817,83,70,0.106432337472849,1
818,77,70,0.100491742465369,1
818,78,70,0.114413731755761,1
818,79,70,0.107952455218074,1
818,113,70,0.104501317035524,1
819,77,70,0.12525072655136,1
819,78,70,0.128993893000506,1
819,79,70,0.109794273541365,1
820,77,70,0.153459149524531,1
820,78,70,0.13228570045623,1
820,79,70,0.105298482636853,1
820,80,70,0.100096678077555,1
821,76,70,0.155889588514093,1
821,77,70,0.16773103026747,1
821,78,70,0.123526301216584,1
822,76,70,0.148945701198252,1
822,77,70,0.141358728620931,1
822,78,70,0.10152411886757,1
823,76,70,0.107634567161673,1
838,76,70,0.103830465723406,1
838,118,70,0.10684346891625,1
845,114,70,0.107172337035046,1
845,115,70,0.101625216049199,1
845,116,70,0.10872225780677,1
846,114,70,0.111956757615413,1
846,115,70,0.101379820369022,1
847,91,70,0.120386504446092,1
847,92,70,0.137973710456965,1
847,93,70,0.10330182146938,1
847,114,70,0.104981803694465,1
848,91,70,0.117896655476075,1
848,92,70,0.134184477853191,1
848,93,70,0.106335183527914,1
849,92,70,0.102169535213726,1
850,108,70,0.118854611455383,1
850,109,70,0.128262651345219,1
850,110,70,0.109696237269987,1
850,111,70,0.102519208807892,1
851,107,70,0.109870001114545,1
851,108,70,0.137936652746385,1
851,109,70,0.147008646083777,1
852,97,70,0.112148843349799,1
852,98,70,0.131332363074596,1
852,99,70,0.139114438724878,1
852,100,70,0.126630990109005,1
852,101,70,0.118415801104696,1
852,102,70,0.109253679755151,1
852,105,70,0.100716604993152,1
852,106,70,0.111813385014983,1
852,107,70,0.113492277948163,1
852,108,70,0.117781027140445,1
853,96,70,0.105067334894782,1
853,97,70,0.124425479004741,1
853,98,70,0.138476647422052,1
853,99,70,0.138844697370642,1
853,100,70,0.130070690726561,1
853,101,70,0.135101792351553,1
853,103,70,0.12045939986032,1
853,104,70,0.115045009092999,1
853,105,70,0.121934769494121,1
