x,y,z,signal,mito.p
231,584,30,0.189635993314035,1
231,585,30,0.247655645154049,1
231,586,30,0.184966438564965,1
230,580,31,0.181275078838782,1
230,581,31,0.193928021274948,1
230,582,31,0.16302316512213,1
230,584,31,0.158897450249149,1
230,585,31,0.21372330911898,1
230,586,31,0.205184437025339,1
231,581,31,0.171453097132432,1
231,582,31,0.161526695904145,1
231,583,31,0.153806993108298,1
231,584,31,0.216498519889138,1
231,585,31,0.326047691688938,2
231,586,31,0.282316695687187,2
231,587,31,0.181727712303733,1
232,581,31,0.166932067334499,1
232,582,31,0.185901290662984,1
232,583,31,0.166674133904505,1
232,584,31,0.177669762280112,1
232,585,31,0.223000721123665,1
232,586,31,0.17994663289702,1
233,582,31,0.186706059521804,1
229,580,32,0.152007504668404,1
229,581,32,0.191091701228964,1
229,582,32,0.17173304515181,1
229,585,32,0.109649746291516,1
229,586,32,0.109480012827004,1
230,579,32,0.129063727504484,1
230,580,32,0.217829721739418,1
230,581,32,0.276569177669725,1
230,582,32,0.244136077654077,3
230,583,32,0.186375437643043,1
230,584,32,0.173308357317821,1
230,585,32,0.221514600178771,2
230,586,32,0.242152694954917,2
230,587,32,0.204908671886873,1
231,580,32,0.17287562521596,1
231,581,32,0.216599911179581,1
231,582,32,0.229953605990635,3
231,583,32,0.207689176615685,1
231,584,32,0.227757419225071,2
231,585,32,0.338300264885716,2
231,586,32,0.370289935953004,2
231,587,32,0.265443128374428,2
231,588,32,0.189475932761632,1
232,580,32,0.142077628598943,1
232,581,32,0.190298152076757,1
232,582,32,0.235242139971345,1
232,583,32,0.214730315912733,1
232,584,32,0.192086464381714,1
232,585,32,0.229581133516914,2
232,586,32,0.232934889003229,2
232,587,32,0.160717820414846,1
233,581,32,0.207597087878105,1
233,582,32,0.221994716478464,1
233,583,32,0.181693018356584,1
233,585,32,0.106429189419246,1
234,582,32,0.14072303965148,1
228,581,33,0.14100218159485,1
228,582,33,0.122034123808702,1
229,580,33,0.1716524375509,1
229,581,33,0.239857186553528,1
229,582,33,0.218345958958655,3
229,583,33,0.149406874711731,1
229,585,33,0.113640726648867,1
229,586,33,0.110437086479869,1
229,587,33,0.104104139421416,1
230,579,33,0.134361476894704,1
230,580,33,0.218227749001211,1
230,581,33,0.324847052366295,3
230,582,33,0.335137375126855,3
230,583,33,0.248022954384144,3
230,584,33,0.188156974552355,1
230,585,33,0.204651206852397,1
230,586,33,0.252972261080049,2
230,587,33,0.227084171470763,1
230,588,33,0.188118914693223,1
231,580,33,0.176162454607681,1
231,581,33,0.247838319406383,3
231,582,33,0.314816351438182,3
231,583,33,0.297920279354682,3
231,584,33,0.246585328714824,1
231,585,33,0.291857237044251,2
231,586,33,0.399512369866872,2
231,587,33,0.339392693950597,2
231,588,33,0.206156760764862,1
232,580,33,0.141866240612015,1
232,581,33,0.199625562579846,1
232,582,33,0.266185175805405,3
232,583,33,0.269762584705489,3
232,584,33,0.214731492347989,1
232,585,33,0.207837581744713,1
232,586,33,0.258188139290749,2
232,587,33,0.214998935296308,1
233,580,33,0.15830528938419,1
233,581,33,0.213735857761716,1
233,582,33,0.229776661413717,1
233,583,33,0.204321303906292,1
233,584,33,0.147659933713296,1
233,585,33,0.107487981150125,1
233,586,33,0.10013470525793,1
234,581,33,0.15233319205484,1
234,582,33,0.135349530009324,1
202,575,34,0.106787686277836,1
202,576,34,0.119156813708364,1
202,577,34,0.122653549650023,1
202,578,34,0.124071382885444,1
203,574,34,0.103106293572577,1
203,575,34,0.117417007571901,1
203,576,34,0.125835077193366,1
203,577,34,0.119276483316959,1
203,578,34,0.111650546768225,1
204,575,34,0.100304613009147,1
208,579,34,0.111608630815751,1
222,591,34,0.105903181251629,1
223,590,34,0.103780652404627,1
223,591,34,0.13272775689679,1
223,592,34,0.109318307443827,1
227,581,34,0.105104403498282,1
228,581,34,0.180754658738634,1
228,582,34,0.150163616690495,1
228,583,34,0.103283238149495,1
229,580,34,0.176287036922764,1
229,581,34,0.255918861038414,3
229,582,34,0.250978116176875,3
229,583,34,0.169602357508446,1
229,584,34,0.124343466217274,1
229,585,34,0.112721375174645,1
229,586,34,0.102917780715637,1
230,579,34,0.134538911652978,1
230,580,34,0.199200368377962,3
230,581,34,0.313136859394454,3
230,582,34,0.375290265081702,3
230,583,34,0.292026948722924,3
230,584,34,0.196375420539458,1
230,585,34,0.174804369033205,1
230,586,34,0.214462916536091,1
230,587,34,0.204855340155243,1
231,579,34,0.144072361719745,1
231,580,34,0.188010660863784,1
231,581,34,0.272431415228284,3
231,582,34,0.380387976906635,3
231,583,34,0.387213784980061,3
231,584,34,0.285627598429991,3
231,585,34,0.241103619707824,1
231,586,34,0.333736589309735,2
231,587,34,0.325679837812891,1
231,588,34,0.184508837928931,1
232,580,34,0.154721715091928,1
232,581,34,0.212283047363252,1
232,582,34,0.284463080026891,3
232,583,34,0.333454941994986,3
232,584,34,0.27787349579581,3
232,585,34,0.204788871563249,1
232,586,34,0.228802202662061,1
232,587,34,0.217952702795402,1
233,581,34,0.199306095050183,1
233,582,34,0.212660312721351,1
233,583,34,0.213812347839229,3
233,584,34,0.175468597450546,1
233,585,34,0.118796497732294,1
234,582,34,0.137969930614058,1
234,583,34,0.116255528293214,1
199,565,35,0.126972700979351,1
199,566,35,0.114599357989155,1
200,562,35,0.115879820622537,1
201,578,35,0.104015895884257,1
202,575,35,0.108702574302061,1
202,576,35,0.110357393884158,1
202,577,35,0.103334783442401,1
202,578,35,0.100688272510724,1
203,574,35,0.111937891079633,1
203,575,35,0.123801739567479,1
203,576,35,0.115501956153891,1
204,572,35,0.100973514488756,1
204,573,35,0.107818254455477,1
204,574,35,0.11269470930883,1
204,575,35,0.10467748821519,1
205,574,35,0.103224459958344,1
213,588,35,0.123992648866609,1
227,580,35,0.106839699966262,1
227,581,35,0.124930452945688,1
227,582,35,0.104747834686363,1
228,580,35,0.169245766910688,1
228,581,35,0.219972772845895,1
228,582,35,0.195525337137423,1
228,583,35,0.141977119634943,1
228,584,35,0.101550261873271,1
229,580,35,0.177124473645791,1
229,581,35,0.256569625807819,1
229,582,35,0.277748052940122,3
229,583,35,0.22092348503404,3
229,584,35,0.159564815827174,1
229,585,35,0.116675276035576,1
230,579,35,0.130221960693297,1
230,580,35,0.185951376304739,1
230,581,35,0.286553278690177,3
230,582,35,0.366451859500246,3
230,583,35,0.321514930217197,3
230,584,35,0.218330883158701,3
230,585,35,0.158564562643227,1
230,586,35,0.166950846726928,1
230,587,35,0.163155753732709,1
230,588,35,0.118152584608966,1
231,579,35,0.139939980380311,1
231,580,35,0.208392772042444,3
231,581,35,0.306327848202191,3
231,582,35,0.409380962373803,3
231,583,35,0.443057293025549,3
231,584,35,0.333021098815382,3
231,585,35,0.217570165264486,3
231,586,35,0.241753752687924,1
231,587,35,0.250200644973175,1
231,588,35,0.148753147068347,1
232,580,35,0.185497686226641,1
232,581,35,0.245532048800981,3
232,582,35,0.307026955746304,3
232,583,35,0.401968330965749,3
232,584,35,0.368104903536539,3
232,585,35,0.228380624909299,3
232,586,35,0.188458425193922,1
232,587,35,0.185240003333785,1
233,581,35,0.190444291478624,1
233,582,35,0.203378216761477,3
233,583,35,0.230724846444644,3
233,584,35,0.21573943593278,3
233,585,35,0.137984265695517,1
234,582,35,0.148071566230973,1
234,583,35,0.122443043989538,1
198,563,36,0.124982020024433,1
198,564,36,0.132592815415699,1
198,565,36,0.146640748636054,1
198,566,36,0.128729075245677,1
198,567,36,0.126472694209487,1
198,568,36,0.138104534414659,1
198,569,36,0.112914615558449,1
199,562,36,0.151952375605133,1
199,563,36,0.1101493064517,1
199,564,36,0.112683805496869,1
199,565,36,0.139895232268886,1
199,566,36,0.130583474890461,1
199,567,36,0.115485954455818,1
199,568,36,0.112291453445896,1
200,561,36,0.158457408998611,1
200,562,36,0.124101970202114,1
200,566,36,0.0997858595256115,1
201,561,36,0.102820038553073,1
202,575,36,0.104966891288296,1
203,574,36,0.115416512096926,1
203,575,36,0.124176739198418,1
203,576,36,0.100971531977491,1
204,573,36,0.113575281991263,1
204,574,36,0.121017346066569,1
204,575,36,0.106208934596218,1
205,573,36,0.105321749911926,1
205,574,36,0.107359847743434,1
211,588,36,0.134030375727504,1
212,588,36,0.145985387054813,1
213,589,36,0.122126637370126,1
213,590,36,0.135780747995438,1
213,591,36,0.147695237663911,1
213,592,36,0.155859131912451,1
213,595,36,0.146938375863037,1
214,593,36,0.111263249031688,1
214,594,36,0.121315158473176,1
214,595,36,0.121373065230803,1
214,596,36,0.116887197775538,1
215,597,36,0.112099694499082,1
227,580,36,0.101090624261377,1
227,581,36,0.124196596989831,1
227,582,36,0.106411510211641,1
228,580,36,0.164126759429028,1
228,581,36,0.222320109756086,1
228,582,36,0.213707819388102,1
228,583,36,0.165811970255253,1
228,584,36,0.111552597640199,1
229,580,36,0.175470394782188,1
229,581,36,0.241413915399653,1
229,582,36,0.277345559581522,3
229,583,36,0.260306572400192,3
229,584,36,0.190102123105678,1
229,585,36,0.114558128290581,1
230,580,36,0.188263921231509,1
230,581,36,0.272052407003138,3
230,582,36,0.331038435048879,3
230,583,36,0.327627099592508,3
230,584,36,0.242813067278917,3
230,585,36,0.150606936709665,1
230,586,36,0.122581253346342,1
230,587,36,0.114465876159215,1
231,579,36,0.131136813391955,1
231,580,36,0.225077782926586,3
231,581,36,0.339041201238951,3
231,582,36,0.40057708734571,3
231,583,36,0.441801208744982,3
231,584,36,0.359252751091252,3
231,585,36,0.203048967390515,3
231,586,36,0.159132922480079,1
231,587,36,0.156662462905958,1
232,579,36,0.120913612798532,1
232,580,36,0.214179940285219,1
232,581,36,0.30059555848555,3
232,582,36,0.343688120502251,3
232,583,36,0.448955765115094,3
232,584,36,0.440408875833039,3
232,585,36,0.243883209431437,3
232,586,36,0.144478460634549,1
233,580,36,0.149478996728708,1
233,581,36,0.204317513170465,1
233,582,36,0.217593323610369,3
233,583,36,0.251988761205589,3
233,584,36,0.256808224306514,3
233,585,36,0.152770738826917,1
234,581,36,0.146421049351897,1
234,582,36,0.153256595694946,1
234,583,36,0.127136377980876,1
234,584,36,0.106277461949911,1
197,563,37,0.139996819631872,1
197,564,37,0.158826983955867,1
197,565,37,0.144516346206976,1
197,566,37,0.111787318259715,1
197,568,37,0.110214032176647,1
197,569,37,0.109619322368632,1
198,562,37,0.18033821155074,1
198,563,37,0.162832996541495,1
198,564,37,0.173015414046025,1
198,565,37,0.175217711739172,1
198,566,37,0.142624758136583,1
198,567,37,0.123141715816889,1
198,568,37,0.141277009942278,1
198,569,37,0.124586291168558,1
199,561,37,0.236355025938186,1
199,562,37,0.187119380441932,1
199,563,37,0.139608487068026,1
199,564,37,0.125480981074069,1
199,565,37,0.136223686762441,1
199,566,37,0.132115389667009,1
199,567,37,0.119405215834196,1
199,568,37,0.123773799230137,1
200,560,37,0.201936887499683,1
200,561,37,0.188124274009391,1
200,562,37,0.136705121105339,1
201,561,37,0.12022631317866,1
203,574,37,0.109724417251549,1
203,575,37,0.113149575822184,1
204,573,37,0.115489080723583,1
204,574,37,0.120146696833383,1
205,573,37,0.109516569463309,1
205,574,37,0.106008287027465,1
210,589,37,0.129709808318701,1
211,588,37,0.139675217090077,1
211,589,37,0.222170266761744,1
212,588,37,0.139511147943467,1
212,589,37,0.214072318245084,1
212,590,37,0.268647040866402,1
212,596,37,0.132562130062757,1
213,589,37,0.109071452112498,1
213,590,37,0.13480938283279,1
213,591,37,0.140919351838454,1
213,596,37,0.139994749977254,1
213,597,37,0.138963604474904,1
214,593,37,0.114003014243284,1
214,595,37,0.107528840489451,1
214,596,37,0.128831294397967,1
214,597,37,0.16240452357098,1
215,597,37,0.105494043212413,1
215,598,37,0.104160499384539,1
215,607,37,0.229778099279031,1
227,581,37,0.114771019500337,1
227,582,37,0.101979682527743,1
228,579,37,0.108903919017632,1
228,580,37,0.152974763200573,1
228,581,37,0.201903250165681,1
228,582,37,0.206915474361973,1
228,583,37,0.169465433516088,1
228,584,37,0.10825631319475,1
229,580,37,0.186727910717402,1
229,581,37,0.235519952978591,1
229,582,37,0.26985933561242,3
229,583,37,0.276387984854381,3
229,584,37,0.20247347269169,1
229,585,37,0.108429674001302,1
230,579,37,0.134589411225657,1
230,580,37,0.206021819283771,1
230,581,37,0.268255985072796,3
230,582,37,0.295563117031516,3
230,583,37,0.31991025074145,3
230,584,37,0.268746471431417,3
230,585,37,0.153312389226279,1
231,579,37,0.12322311860089,1
231,580,37,0.221648387010444,3
231,581,37,0.33163887453231,3
231,582,37,0.360701901468918,3
231,583,37,0.397187646656613,3
231,584,37,0.367994797910863,3
231,585,37,0.197911561768593,3
231,586,37,0.108912208529023,1
232,579,37,0.114294181969275,1
232,580,37,0.216870317001878,3
232,581,37,0.340532594356662,3
232,582,37,0.381204640833049,3
232,583,37,0.445810151525833,3
232,584,37,0.458051875375245,3
232,585,37,0.240874824836266,3
232,586,37,0.111256778637777,1
233,580,37,0.152955003445431,1
233,581,37,0.235135411150572,3
233,582,37,0.25652731771026,3
233,583,37,0.266360355729438,3
233,584,37,0.278784296328584,3
233,585,37,0.158093182464605,1
234,581,37,0.144720414152309,1
234,582,37,0.15709336499742,1
234,583,37,0.129966532634682,1
234,584,37,0.114247233488204,1
196,565,38,0.106577812406655,1
197,563,38,0.140356057208957,1
197,564,38,0.166206794998848,1
197,565,38,0.15280083596223,1
197,566,38,0.11391198211885,1
197,569,38,0.100350090946147,1
197,573,38,0.105977122386086,1
197,574,38,0.11686796088051,1
197,575,38,0.132447765305736,1
198,562,38,0.193433896681367,1
198,563,38,0.192937462788948,1
198,564,38,0.193649946837645,1
198,565,38,0.177780663088878,1
198,566,38,0.144390478527447,1
198,567,38,0.121699656729519,1
198,568,38,0.133529965919636,1
198,569,38,0.122378721302595,1
198,576,38,0.111681537122899,1
199,561,38,0.231084225629676,1
199,562,38,0.210398833799049,1
199,563,38,0.161426437477283,1
199,564,38,0.129371659432881,1
199,565,38,0.123302582445301,1
199,566,38,0.125591870989916,1
199,567,38,0.117950869534147,1
199,568,38,0.122135133846978,1
199,569,38,0.100322346681347,1
200,560,38,0.216828248548538,1
200,561,38,0.202404585871669,1
200,562,38,0.14445115208651,1
201,561,38,0.141953612715651,1
204,573,38,0.112335896555588,1
204,574,38,0.110202659969167,1
205,573,38,0.107166389501249,1
210,589,38,0.115618597530992,1
210,595,38,0.162362084758392,1
211,588,38,0.126073381583247,1
211,596,38,0.157416993622156,1
211,597,38,0.134481331682922,1
211,603,38,0.290239594994843,4
211,604,38,0.290480568149889,1
212,588,38,0.11959391387076,1
212,589,38,0.202528220502795,1
212,597,38,0.148754062073547,1
212,598,38,0.139526093028392,1
212,604,38,0.263698692747373,1
213,590,38,0.131796858928384,1
213,596,38,0.16051698766647,1
213,597,38,0.1868150322839,1
213,598,38,0.16511615237269,1
213,599,38,0.122517050481509,1
214,595,38,0.100190727540563,1
214,596,38,0.129454358474248,1
214,597,38,0.173832720654663,1
214,598,38,0.150561480558503,1
214,599,38,0.100921784016226,1
214,603,38,0.178076776200115,1
214,607,38,0.20468061773381,1
215,603,38,0.181210799723516,1
215,604,38,0.173084344437723,1
215,605,38,0.191024404775123,1
215,606,38,0.230442806984809,1
215,607,38,0.281526697626588,1
215,608,38,0.243139484490928,1
216,606,38,0.178489574260129,1
216,607,38,0.247450204700918,1
216,608,38,0.221277548474579,1
217,607,38,0.150184160735809,1
218,607,38,0.126157518489927,1
219,607,38,0.123455584386164,1
220,607,38,0.12355613692184,1
221,607,38,0.14214565487836,1
227,581,38,0.10010856225223,1
228,579,38,0.10655695246669,1
228,580,38,0.144104724582219,1
228,581,38,0.17808752751121,1
228,582,38,0.188641251947123,1
228,583,38,0.158077616483294,1
229,580,38,0.208386497721076,1
229,581,38,0.244784881698054,1
229,582,38,0.269830578306149,3
229,583,38,0.272879767776051,3
229,584,38,0.197984696827041,1
229,585,38,0.100979919525153,1
230,579,38,0.147866757567146,1
230,580,38,0.24087046766865,1
230,581,38,0.280305623187822,3
230,582,38,0.287435234773328,3
230,583,38,0.320984336130663,3
230,584,38,0.296649053916647,3
230,585,38,0.164336023296743,1
231,579,38,0.123479341842595,1
231,580,38,0.216544749437552,3
231,581,38,0.304733059496934,3
231,582,38,0.330116480167006,3
231,583,38,0.353464994630849,3
231,584,38,0.367304840418745,3
231,585,38,0.204117039888417,3
232,580,38,0.201268781203163,3
232,581,38,0.353581679579626,3
232,582,38,0.422152125660331,3
232,583,38,0.409334645682037,3
232,584,38,0.414762064380532,3
232,585,38,0.226159275500748,3
233,580,38,0.148621255604587,1
233,581,38,0.264167632912129,3
233,582,38,0.323146580560493,3
233,583,38,0.28209267191417,3
233,584,38,0.269261859002969,3
233,585,38,0.156316209688371,1
234,581,38,0.145236324583974,1
234,582,38,0.171545926588508,3
234,583,38,0.142331019681697,1
234,584,38,0.120850662619389,1
196,572,39,0.10170979956556,1
196,573,39,0.142220805126831,1
196,574,39,0.172125876491221,1
196,575,39,0.162536970573611,1
197,563,39,0.1423077959783,1
197,564,39,0.162991935123237,1
197,565,39,0.143643964999663,1
197,566,39,0.110569337409958,1
197,573,39,0.110584674639969,1
197,574,39,0.12388416628587,1
197,575,39,0.113214857086003,1
197,576,39,0.103917750683689,1
198,562,39,0.187772999156126,1
198,563,39,0.204539598003893,1
198,564,39,0.18956213932293,1
198,565,39,0.158842833153073,1
198,566,39,0.134914140035217,1
198,567,39,0.123332537972666,1
198,568,39,0.119402960999955,1
198,569,39,0.105382902759428,1
199,561,39,0.195443770959637,1
199,562,39,0.204854621222586,1
199,563,39,0.170094183696109,1
199,564,39,0.130300193637856,1
199,565,39,0.114369484718612,1
199,566,39,0.117246228387161,1
199,567,39,0.117142070295282,1
199,568,39,0.110431901450405,1
200,560,39,0.199854989240707,1
200,561,39,0.197127467670115,1
200,562,39,0.146570238771095,1
200,563,39,0.105281293610605,1
201,560,39,0.197296656488674,1
201,561,39,0.168359431874082,1
201,562,39,0.107457480976807,1
202,561,39,0.128038943466855,1
210,590,39,0.134808173718776,1
210,595,39,0.130847758892257,1
210,596,39,0.136316472646841,1
210,597,39,0.121601304563489,1
210,603,39,0.214341525846287,4
210,604,39,0.190534288775749,1
211,589,39,0.178659111652098,1
211,596,39,0.156063755396654,1
211,597,39,0.136436741365983,1
211,598,39,0.112535857870441,1
211,602,39,0.268719130204622,4
211,603,39,0.335229376721083,4
211,604,39,0.311806746836078,4
211,605,39,0.212522931226394,1
212,589,39,0.165295907322721,1
212,597,39,0.201328125826104,1
212,598,39,0.17988727738116,1
212,599,39,0.137415372105632,1
212,600,39,0.142527898300462,1
212,601,39,0.188415202091164,1
212,603,39,0.259676634891995,4
212,604,39,0.274344647528814,1
212,605,39,0.222230112458961,1
213,590,39,0.116296365846702,1
213,597,39,0.23992413443396,1
213,598,39,0.223610049229035,1
213,599,39,0.15101415759513,1
213,600,39,0.126529272030991,1
213,601,39,0.147268616489633,1
213,602,39,0.148586125940677,1
213,603,39,0.174127722688157,1
213,604,39,0.223634558296879,1
214,596,39,0.117772399948564,1
214,597,39,0.168164862554154,1
214,598,39,0.153243992587614,1
214,599,39,0.104250224358688,1
214,601,39,0.107154276575274,1
214,602,39,0.135570068048247,1
214,603,39,0.184081628537024,1
214,604,39,0.223557414644224,1
214,605,39,0.251897173542284,1
214,606,39,0.217516027456848,1
214,607,39,0.188440364734151,1
215,602,39,0.129978024664271,1
215,603,39,0.18006351391834,1
215,604,39,0.171628189913112,1
215,605,39,0.184900427475571,1
215,606,39,0.245074829417113,1
215,607,39,0.321196900552848,1
215,608,39,0.264300417595251,1
216,603,39,0.103473842446891,1
216,605,39,0.120225256565513,1
216,606,39,0.212656935916448,1
216,607,39,0.3189439181074,5
216,608,39,0.263418635798804,1
216,609,39,0.145425186014323,1
217,606,39,0.128229112047489,1
217,607,39,0.197770433109485,1
217,608,39,0.187470698866874,1
218,607,39,0.149584636257577,1
218,608,39,0.178556500354723,1
219,607,39,0.138964770017241,1
219,608,39,0.187610237159801,1
220,607,39,0.134470231798419,1
220,608,39,0.170077332350351,1
220,609,39,0.166442180086425,1
221,607,39,0.135834831338481,1
221,608,39,0.132873362545624,1
221,609,39,0.118607701659458,1
222,607,39,0.11826919330731,1
222,608,39,0.105313384150102,1
228,579,39,0.100635256673746,1
228,580,39,0.137060981877521,1
228,581,39,0.158402062076959,1
228,582,39,0.163435015498187,1
228,583,39,0.135154056577116,1
229,580,39,0.222361851421854,1
229,581,39,0.251508862764276,1
229,582,39,0.263593314648561,1
229,583,39,0.249362783426305,3
229,584,39,0.17911139654364,1
230,579,39,0.15838169231835,1
230,580,39,0.26325824845883,1
230,581,39,0.283810812034659,1
230,582,39,0.281612904187886,3
230,583,39,0.313401535541336,3
230,584,39,0.303092651246729,3
230,585,39,0.169597172478982,1
231,580,39,0.20318432280253,1
231,581,39,0.260806775242599,3
231,582,39,0.287311316926307,3
231,583,39,0.309850945007932,3
231,584,39,0.345113001456292,3
231,585,39,0.211813998269305,3
232,580,39,0.173439943779848,3
232,581,39,0.31671936618065,3
232,582,39,0.406467585818517,3
232,583,39,0.347065687909592,3
232,584,39,0.327177461680294,3
232,585,39,0.202330448664669,3
233,580,39,0.139721403066815,1
233,581,39,0.268984133139075,3
233,582,39,0.3676496448781,3
233,583,39,0.29364358862378,3
233,584,39,0.232043020363749,3
233,585,39,0.146441538932615,1
234,581,39,0.146637252009041,1
234,582,39,0.190436426791076,3
234,583,39,0.163848641420049,1
234,584,39,0.127712079645162,1
195,573,40,0.120543907126248,1
195,574,40,0.143394898405769,1
195,575,40,0.148742973081962,1
196,573,40,0.144758201688465,1
196,574,40,0.163613332582904,1
196,575,40,0.135766728808631,1
196,576,40,0.105680736951873,1
197,563,40,0.132916825292602,1
197,564,40,0.142465819554842,1
197,565,40,0.119804419531246,1
197,573,40,0.108894224319685,1
197,574,40,0.12372419287682,1
198,562,40,0.16301509346912,1
198,563,40,0.191154204798427,1
198,564,40,0.168702319179685,1
198,565,40,0.132907119701735,1
198,566,40,0.117523028352936,1
198,567,40,0.117815982517651,1
198,568,40,0.101912582146445,1
199,561,40,0.150876743421415,1
199,562,40,0.176081945043042,1
199,563,40,0.164752078339551,1
199,564,40,0.133772507655024,1
199,565,40,0.114393438247586,1
199,566,40,0.110651568055805,1
199,567,40,0.113861297366548,1
200,560,40,0.160426968583507,1
200,561,40,0.172560939677756,1
200,562,40,0.142604726058465,1
200,563,40,0.116125957021209,1
200,564,40,0.10729895632599,1
200,565,40,0.101724526792104,1
201,559,40,0.182798420888043,1
201,560,40,0.176163075504066,1
201,561,40,0.181981223208596,1
201,562,40,0.124083789920233,1
202,560,40,0.157493047982907,1
202,561,40,0.172275752164319,1
202,562,40,0.122958398882332,1
203,561,40,0.130130340351235,1
203,562,40,0.103591834545954,1
204,566,40,0.0997562416787364,1
210,590,40,0.108013313956762,1
210,595,40,0.101303504578214,1
210,602,40,0.197351709301512,1
210,603,40,0.204257928903306,4
210,604,40,0.173309718932701,1
211,589,40,0.128040392225087,1
211,596,40,0.147403677792834,1
211,597,40,0.131123142778557,1
211,598,40,0.107281582120118,1
211,599,40,0.103489931288316,1
211,600,40,0.150288111862226,1
211,601,40,0.237241600619011,1
211,602,40,0.291989433509744,4
211,603,40,0.344766170913996,4
211,604,40,0.302211218023691,4
211,605,40,0.19181396711896,1
212,589,40,0.121580477302281,1
212,597,40,0.225305096361154,1
212,598,40,0.194986508004093,1
212,599,40,0.138731705121419,1
212,600,40,0.145054380157216,1
212,601,40,0.205901735744252,1
212,602,40,0.242324149500637,1
212,603,40,0.285868462655847,4
212,604,40,0.27360734941054,1
212,605,40,0.197994718312559,1
213,596,40,0.172067839018565,1
213,597,40,0.25359304853625,1
213,598,40,0.24637093428224,1
213,599,40,0.156724781295797,1
213,600,40,0.118599553756015,1
213,601,40,0.134932559961317,1
213,602,40,0.151854883979707,1
213,603,40,0.187439915477661,1
213,604,40,0.220601403203807,1
213,605,40,0.218747471954541,1
213,606,40,0.160645458753651,1
214,597,40,0.142056757766059,1
214,598,40,0.14020047364628,1
214,602,40,0.11666000416308,1
214,603,40,0.168656950171875,1
214,604,40,0.205109210526435,1
214,605,40,0.213414364149112,1
214,606,40,0.184923128318854,1
214,607,40,0.163890666301713,1
215,602,40,0.105486058702755,1
215,603,40,0.156082741754545,1
215,604,40,0.16399927959748,1
215,605,40,0.17171042055896,1
215,606,40,0.229830755649679,1
215,607,40,0.310336987055585,5
215,608,40,0.239806055191545,1
216,605,40,0.121425438385557,1
216,606,40,0.220859195025854,5
216,607,40,0.345965917017277,5
216,608,40,0.267665327430665,5
216,609,40,0.135928739193542,1
217,606,40,0.142338296151617,1
217,607,40,0.231903242426603,5
217,608,40,0.20804716150708,1
217,609,40,0.124366537419805,1
218,607,40,0.159606971423866,1
218,608,40,0.189232083875959,1
218,609,40,0.141506534639411,1
219,607,40,0.150592928415777,1
219,608,40,0.206190049525455,1
219,609,40,0.186651485997404,1
220,607,40,0.151391934920424,1
220,608,40,0.187228767134952,1
220,609,40,0.178403781629755,1
220,610,40,0.115632115643523,1
221,607,40,0.126994900748359,1
221,608,40,0.127471988816559,1
221,609,40,0.117801996009601,1
221,610,40,0.103698018720775,1
224,607,40,0.116832493536109,1
225,606,40,0.108395230591292,1
226,604,40,0.122481702959217,1
226,606,40,0.141951183594704,1
227,604,40,0.139798666541579,1
228,580,40,0.130382053924457,1
228,581,40,0.142627622974291,1
228,582,40,0.137166327297575,1
228,583,40,0.107471696236157,1
229,580,40,0.222220831691937,1
229,581,40,0.24276311235219,1
229,582,40,0.239214678616757,1
229,583,40,0.209692319069988,1
229,584,40,0.14919961514112,1
230,579,40,0.159622994907777,1
230,580,40,0.270832988288067,1
230,581,40,0.278315247234637,1
230,582,40,0.267137783361462,1
230,583,40,0.284982846551898,3
230,584,40,0.271447544994576,1
230,585,40,0.154721725984847,1
231,580,40,0.194223371881852,1
231,581,40,0.228770090336726,1
231,582,40,0.249564237071067,3
231,583,40,0.272713389330604,3
231,584,40,0.301333728037347,3
231,585,40,0.200578823711046,1
232,580,40,0.145420948668816,1
232,581,40,0.252698500238687,3
232,582,40,0.340452858189274,3
232,583,40,0.295538455462805,3
232,584,40,0.250200884617393,3
232,585,40,0.171185545254923,1
233,580,40,0.122411988277349,1
233,581,40,0.236811766033615,3
233,582,40,0.357904185928019,3
233,583,40,0.31145993807962,3
233,584,40,0.210517326972388,1
233,585,40,0.134371040877623,1
234,581,40,0.132823418511817,1
234,582,40,0.189767841206118,3
234,583,40,0.187077921992059,1
234,584,40,0.139940644848372,1
194,575,41,0.111806522475986,1
195,573,41,0.103808745242836,1
195,574,41,0.112630855017406,1
195,575,41,0.111867522822621,1
195,576,41,0.100304907117961,1
196,573,41,0.128443844160563,1
196,574,41,0.135453339527794,1
196,575,41,0.105729504550424,1
197,563,41,0.120207424857042,1
197,564,41,0.119517892188767,1
197,565,41,0.10156175390286,1
197,573,41,0.100709132450689,1
197,574,41,0.111086326240608,1
198,562,41,0.136079224870107,1
198,563,41,0.163976480717925,1
198,564,41,0.146420025417507,1
198,565,41,0.116844965928412,1
198,566,41,0.10584768182911,1
198,567,41,0.108926314859183,1
199,561,41,0.118258202351997,1
199,562,41,0.14559384107985,1
199,563,41,0.15464061730966,1
199,564,41,0.142254387996237,1
199,565,41,0.122280750388731,1
199,566,41,0.10781606497875,1
199,567,41,0.105792291335782,1
200,561,41,0.143631764930336,1
200,562,41,0.136976387468241,1
200,563,41,0.128692856289863,1
200,564,41,0.129380526268982,1
200,565,41,0.118663201081977,1
201,560,41,0.154067355659239,1
201,561,41,0.177313955972526,1
201,562,41,0.133458889622887,1
201,563,41,0.107831925068875,1
201,564,41,0.116012213160573,1
201,565,41,0.118559511385617,1
202,560,41,0.169566301946417,1
202,561,41,0.206443484179885,1
202,562,41,0.144233250133995,1
202,563,41,0.106305260679306,1
202,564,41,0.119074506812083,1
202,565,41,0.133102299025129,1
202,566,41,0.111876095549907,1
203,561,41,0.163364320453605,1
203,562,41,0.12245609370655,1
203,564,41,0.1078746144186,1
203,565,41,0.134242613362118,1
203,566,41,0.1315444808871,1
204,565,41,0.118011085590611,1
204,566,41,0.139980436681633,1
204,567,41,0.108645952908881,1
205,566,41,0.101049242061936,1
210,603,41,0.171772542876256,1
211,590,41,0.153728368018653,1
211,596,41,0.147324540735994,1
211,597,41,0.12476556683015,1
211,598,41,0.102284215865399,1
211,600,41,0.136243392052988,1
211,601,41,0.219466949257263,1
211,602,41,0.282067400341993,1
211,603,41,0.31953174359058,4
211,604,41,0.263132086670486,1
212,590,41,0.149116796277644,1
212,597,41,0.221398786663516,1
212,598,41,0.184547268147311,1
212,599,41,0.132932903241108,1
212,600,41,0.140306636035263,1
212,601,41,0.201725673799459,1
212,602,41,0.269442833959932,6
212,603,41,0.329759780640058,6
212,604,41,0.285156283608884,6
212,605,41,0.178362497466586,1
213,591,41,0.108733466620464,1
213,596,41,0.168974979836224,1
213,597,41,0.236050198491715,1
213,598,41,0.227343096156391,1
213,599,41,0.143400726117456,1
213,600,41,0.109949824425284,1
213,601,41,0.125732008393391,1
213,602,41,0.161976704175607,1
213,603,41,0.213507258962701,6
213,604,41,0.223704708695509,1
213,605,41,0.185266080981971,1
214,597,41,0.120687584728411,1
214,598,41,0.123505659135,1
214,603,41,0.14425354364217,1
214,604,41,0.178084466600959,1
214,605,41,0.172322515465766,1
214,606,41,0.147376489066905,1
214,607,41,0.13167251625752,1
215,603,41,0.129624266225464,1
215,604,41,0.158465208328645,1
215,605,41,0.158662119626167,1
215,606,41,0.191592492288999,1
215,607,41,0.251262443149709,1
215,608,41,0.192907027973145,1
216,604,41,0.105861722801755,1
216,605,41,0.123379595382927,1
216,606,41,0.206523764993224,1
216,607,41,0.319950423826877,5
216,608,41,0.245123695051936,1
216,609,41,0.120947762099729,1
217,606,41,0.156447894186669,1
217,607,41,0.248798595577446,1
217,608,41,0.211774478759021,1
217,609,41,0.117578756526755,1
218,606,41,0.103609916791563,1
218,607,41,0.163007751641685,1
218,608,41,0.181357712522635,1
218,609,41,0.134941448583255,1
219,607,41,0.154848879028824,1
219,608,41,0.203781908341172,1
219,609,41,0.185287278602427,1
220,606,41,0.101356749166491,1
220,607,41,0.16347159392033,1
220,608,41,0.193025913291569,1
220,609,41,0.176601493709667,1
220,610,41,0.106798187051793,1
221,607,41,0.117213734809659,1
221,608,41,0.123052361201988,1
221,609,41,0.116674949248005,1
222,610,41,0.0998597461954731,1
224,608,41,0.111758114343764,1
224,609,41,0.115800705351536,1
225,607,41,0.125783847795112,1
226,605,41,0.102769125049471,1
226,607,41,0.115683671829349,1
227,605,41,0.121776756810498,1
227,606,41,0.107731862714555,1
228,580,41,0.130366030440546,1
228,581,41,0.134855906490018,1
228,582,41,0.116723847561585,1
229,580,41,0.213622636761194,1
229,581,41,0.231403388157605,1
229,582,41,0.210682659697607,1
229,583,41,0.172170145314207,1
229,584,41,0.1197740173942,1
230,579,41,0.154746496482748,1
230,580,41,0.266200600178768,1
230,581,41,0.28454848051218,1
230,582,41,0.26326029632761,1
230,583,41,0.257601925959587,1
230,584,41,0.222061337571325,1
230,585,41,0.130975238723806,1
231,580,41,0.196478620054461,1
231,581,41,0.230519710993245,1
231,582,41,0.241649049950093,1
231,583,41,0.25906737214414,1
231,584,41,0.253937526208033,1
231,585,41,0.17328414235879,1
232,580,41,0.135501050513197,1
232,581,41,0.206214863595032,1
232,582,41,0.276029760318767,3
232,583,41,0.279863523175585,3
232,584,41,0.220112921142289,1
232,585,41,0.145642412605858,1
233,581,41,0.197620677258496,1
233,582,41,0.31370370511556,3
233,583,41,0.335565662917746,7
233,584,41,0.22461032419882,7
233,585,41,0.126126854922824,1
234,582,41,0.185186497315451,1
234,583,41,0.212352849188472,7
234,584,41,0.158309581194293,1
197,563,42,0.11210471613476,1
197,564,42,0.102214588326883,1
198,562,42,0.117913060212153,1
198,563,42,0.135593248179969,1
198,564,42,0.129839085481891,1
198,565,42,0.109406627231419,1
199,562,42,0.122546635649627,1
199,563,42,0.14374030197567,1
199,564,42,0.153381537476357,1
199,565,42,0.131013287690019,1
199,566,42,0.103245831865505,1
200,561,42,0.119924437713251,1
200,562,42,0.129630475189318,1
200,563,42,0.137969527576053,1
200,564,42,0.150392400669134,1
200,565,42,0.133225519725332,1
201,560,42,0.140442764844531,1
201,561,42,0.165302715397122,1
201,562,42,0.137555596652459,1
201,563,42,0.121481885492032,1
201,564,42,0.14174304169765,1
201,565,42,0.15083917374364,1
201,566,42,0.116121262173102,1
202,561,42,0.221530787056467,1
202,562,42,0.1585794205848,1
202,563,42,0.117876666969633,1
202,564,42,0.148284490119486,1
202,565,42,0.18732076872918,1
202,566,42,0.158823138755445,1
203,562,42,0.13219974443207,1
203,563,42,0.100883942015474,1
203,564,42,0.131829025718314,1
203,565,42,0.196095363590889,1
203,566,42,0.199294287125941,1
203,567,42,0.127086499304583,1
204,565,42,0.149808965032327,1
204,566,42,0.181422307532553,1
204,567,42,0.132677954470931,1
205,566,42,0.107197281819652,1
205,567,42,0.100557230694649,1
210,601,42,0.125255900687905,1
211,591,42,0.124785293906535,1
211,595,42,0.159292264099825,1
211,596,42,0.13239348589015,1
211,597,42,0.107538480722803,1
211,600,42,0.116679491595246,1
211,601,42,0.176566244223647,1
211,602,42,0.241935119789973,1
211,603,42,0.267446793688845,6
212,596,42,0.190731559539599,1
212,597,42,0.182400121303274,1
212,598,42,0.150154020028819,1
212,599,42,0.117675736184985,1
212,600,42,0.125811221700664,1
212,601,42,0.176145232902676,1
212,602,42,0.266323385162209,6
212,603,42,0.341062622011405,6
212,604,42,0.274451594207968,6
213,595,42,0.140944939305284,1
213,596,42,0.148144483431039,1
213,597,42,0.185623717299957,1
213,598,42,0.172189120779178,1
213,599,42,0.115995274671463,1
213,601,42,0.112529550870316,1
213,602,42,0.160792534946555,1
213,603,42,0.222361197846712,6
213,604,42,0.21525563782645,1
213,605,42,0.150547145477044,1
214,603,42,0.121416288333561,1
214,604,42,0.150473324164696,1
214,605,42,0.136410946933692,1
214,606,42,0.111457556921558,1
215,603,42,0.106858784360423,1
215,604,42,0.146528366390298,1
215,605,42,0.140766938115219,1
215,606,42,0.148017482887929,1
215,607,42,0.180554207242423,1
215,608,42,0.142325311792119,1
216,604,42,0.105525044460006,1
216,605,42,0.118082510460769,1
216,606,42,0.180120494777849,1
216,607,42,0.263668715434169,1
216,608,42,0.204402826512402,1
216,609,42,0.10134994109209,1
217,606,42,0.166530902912022,1
217,607,42,0.247037188782523,1
217,608,42,0.19841642678035,1
217,609,42,0.104364676259062,1
218,606,42,0.111102774548362,1
218,607,42,0.165243784705105,1
218,608,42,0.165155889741355,1
218,609,42,0.118295641314744,1
219,607,42,0.151823316300324,1
219,608,42,0.186556521529196,1
219,609,42,0.164401565990619,1
220,607,42,0.157681266731033,1
220,608,42,0.18292329731194,1
220,609,42,0.163034177863281,1
221,607,42,0.101509740214435,1
221,608,42,0.115079986256043,1
221,609,42,0.114725138525332,1
225,608,42,0.11292460436521,1
225,609,42,0.122616851405771,1
226,608,42,0.126717970067555,1
228,580,42,0.130716847791211,1
228,581,42,0.126288832628978,1
229,580,42,0.199597611349584,1
229,581,42,0.215332476477372,1
229,582,42,0.181384509103478,1
229,583,42,0.140472415370163,1
230,579,42,0.140279316594306,1
230,580,42,0.245537386331311,1
230,581,42,0.287473163917433,1
230,582,42,0.259719770851401,1
230,583,42,0.228825012434535,1
230,584,42,0.171654964708118,1
230,585,42,0.102376794784337,1
231,580,42,0.192934085984045,1
231,581,42,0.243997737582244,1
231,582,42,0.249942308505175,1
231,583,42,0.24751793687152,1
231,584,42,0.206331461400457,1
231,585,42,0.135750792468073,1
232,581,42,0.180337656011869,1
232,582,42,0.234199121187239,1
232,583,42,0.268744467134313,1
232,584,42,0.207195836312275,1
232,585,42,0.125179040251145,1
233,581,42,0.157660809829072,1
233,582,42,0.25504352785004,1
233,583,42,0.32856942423299,7
233,584,42,0.233318210824315,1
233,585,42,0.118192866623583,1
234,582,42,0.164980012670504,1
234,583,42,0.210915833522619,1
234,584,42,0.160577378009638,1
193,582,43,0.112740938857244,1
194,582,43,0.101731443795696,1
194,583,43,0.118988245786189,1
194,584,43,0.103388485533278,1
195,590,43,0.233571754407936,1
196,589,43,0.137650190761419,1
197,563,43,0.129239724397445,1
197,564,43,0.100231303663994,1
198,562,43,0.120367910233287,1
198,563,43,0.127314368278021,1
198,564,43,0.127074484414879,1
198,565,43,0.111020543902514,1
199,562,43,0.110312613093977,1
199,563,43,0.141795175208185,1
199,564,43,0.167793871517423,1
199,565,43,0.138298428373606,1
200,561,43,0.103515050359627,1
200,562,43,0.122190448089874,1
200,563,43,0.147612233620811,1
200,564,43,0.168816520542921,1
200,565,43,0.141382006788924,1
201,561,43,0.153780152955779,1
201,562,43,0.148003539951556,1
201,563,43,0.144383768489317,1
201,564,43,0.170657195109712,1
201,565,43,0.178863016203645,1
201,566,43,0.135089668532659,1
202,561,43,0.220975705687927,1
202,562,43,0.183078238192393,1
202,563,43,0.141548014875123,1
202,564,43,0.175598343009255,1
202,565,43,0.234926310676642,1
202,566,43,0.210842284533248,1
202,567,43,0.127683333231811,1
203,562,43,0.145815239659378,1
203,563,43,0.110865287127409,1
203,564,43,0.151180318182196,1
203,565,43,0.253822104837865,1
203,566,43,0.276553186864572,8
203,567,43,0.173985689916769,1
204,565,43,0.170418945184426,1
204,566,43,0.213431901748769,1
204,567,43,0.155881288109783,1
205,566,43,0.105500121461238,1
205,567,43,0.100888920079477,1
210,601,43,0.100892732601141,1
210,602,43,0.111926170298743,1
211,592,43,0.132462448960604,1
211,594,43,0.143713461823151,1
211,595,43,0.128384652038489,1
211,596,43,0.111207390142841,1
211,600,43,0.102633998388756,1
211,601,43,0.138992721247503,1
211,602,43,0.199792616386273,1
211,603,43,0.218458112453111,1
211,604,43,0.156986015280261,1
212,591,43,0.101839338158807,1
212,595,43,0.157295929719924,1
212,596,43,0.149938623447684,1
212,597,43,0.136745729907527,1
212,598,43,0.114699158913417,1
212,599,43,0.103438865283847,1
212,600,43,0.115433722909012,1
212,601,43,0.152456859364723,1
212,602,43,0.246052294614425,1
212,603,43,0.318033684006415,6
212,604,43,0.248283055505028,1
212,605,43,0.129269788854001,1
213,592,43,0.152064725172132,1
213,594,43,0.134043349194083,1
213,595,43,0.106640109010656,1
213,596,43,0.115672463015655,1
213,597,43,0.130485917907522,1
213,598,43,0.116261671899553,1
213,601,43,0.106996416392518,1
213,602,43,0.161476348832333,1
213,603,43,0.22194212546533,1
213,604,43,0.204388578574295,1
213,605,43,0.130148640455225,1
214,603,43,0.113640846470976,1
214,604,43,0.13337619058152,1
214,605,43,0.115211855933965,1
215,604,43,0.129802844740238,1
215,605,43,0.125629669418992,1
215,606,43,0.118198215046833,1
215,607,43,0.126387642297608,1
215,608,43,0.103253522266348,1
216,605,43,0.111039660975432,1
216,606,43,0.152858317896015,1
216,607,43,0.198213252054379,1
216,608,43,0.154190576359442,1
217,606,43,0.160765466042736,1
217,607,43,0.218323563117104,1
217,608,43,0.165887458184213,1
218,606,43,0.112102069155433,1
218,607,43,0.162673938137645,1
218,608,43,0.147077217009146,1
219,607,43,0.144335534643799,1
219,608,43,0.168989674384012,1
219,609,43,0.136044225921225,1
220,607,43,0.135136224868644,1
220,608,43,0.169721199255193,1
220,609,43,0.150616119440418,1
221,608,43,0.112209832803515,1
221,609,43,0.120881968868715,1
226,608,43,0.103092699209613,1
228,580,43,0.137383826212086,1
228,581,43,0.127525451263217,1
229,580,43,0.197326873446097,1
229,581,43,0.208808075473838,1
229,582,43,0.1626585246572,1
229,583,43,0.116459411058922,1
230,580,43,0.224559693911113,1
230,581,43,0.281989842758414,1
230,582,43,0.253270552775094,1
230,583,43,0.195365821230972,1
230,584,43,0.128769956370842,1
231,580,43,0.189254893648433,1
231,581,43,0.256560650042528,1
231,582,43,0.261804043766728,1
231,583,43,0.228150740745838,1
231,584,43,0.164335010255272,1
231,585,43,0.101988048289568,1
232,581,43,0.171174042332415,1
232,582,43,0.212806495694894,1
232,583,43,0.248413596246827,1
232,584,43,0.189959055506981,1
232,585,43,0.108246291709231,1
233,582,43,0.20462024917648,1
233,583,43,0.290867462848422,1
233,584,43,0.217500385225103,1
234,583,43,0.191956751501762,1
194,590,44,0.11016351081813,1
195,589,44,0.12112466310497,1
195,590,44,0.188854709588669,1
195,591,44,0.14556950629871,1
196,589,44,0.113467267806043,1
196,590,44,0.160723604554858,1
197,563,44,0.157337344598121,1
197,564,44,0.1037325274883,1
198,562,44,0.125795971614005,1
198,563,44,0.126938638821507,1
198,564,44,0.125768194670448,1
198,565,44,0.108775894540132,1
199,563,44,0.13484793287328,1
199,564,44,0.169504887668858,1
199,565,44,0.133198679572813,1
200,562,44,0.112519431348526,1
200,563,44,0.150224867574268,1
200,564,44,0.176501540284538,1
200,565,44,0.138789197948123,1
201,561,44,0.143886158161642,1
201,562,44,0.16063761585194,1
201,563,44,0.174056613712651,1
201,564,44,0.200881734003764,1
201,565,44,0.198434247595902,1
201,566,44,0.152419583795762,1
202,562,44,0.212553300684683,1
202,563,44,0.175858585738086,1
202,564,44,0.203681497413443,1
202,565,44,0.274708340309787,8
202,566,44,0.270118020653829,8
202,567,44,0.169300536507631,1
203,563,44,0.125580738426655,1
203,564,44,0.165160519231948,1
203,565,44,0.295744004845127,8
203,566,44,0.35163110635262,8
203,567,44,0.236123703909411,8
203,568,44,0.110265152645711,1
204,565,44,0.174925727044252,1
204,566,44,0.231052200447693,8
204,567,44,0.181364172023627,1
204,568,44,0.10365327060935,1
211,593,44,0.123109156881873,1
211,601,44,0.10516673278104,1
211,602,44,0.148812938300968,1
211,603,44,0.160171703918678,1
211,604,44,0.114641513585847,1
212,592,44,0.153778529910841,1
212,594,44,0.130670803422421,1
212,601,44,0.123275088717639,1
212,602,44,0.195511742774459,1
212,603,44,0.243962183094491,1
212,604,44,0.188711489489105,1
212,605,44,0.100368227656352,1
213,592,44,0.126313788306503,1
213,593,44,0.153159518000444,1
213,602,44,0.14230200094537,1
213,603,44,0.187313252615041,1
213,604,44,0.166266499088117,1
213,605,44,0.10387226185377,1
214,603,44,0.100554104426884,1
214,604,44,0.111138514215738,1
215,604,44,0.101416583970788,1
215,605,44,0.105074883687678,1
216,606,44,0.122000878619786,1
216,607,44,0.135502695343973,1
216,608,44,0.103069181397401,1
217,606,44,0.133087974836589,1
217,607,44,0.167294605466054,1
217,608,44,0.123131334865042,1
218,607,44,0.142947025146439,1
218,608,44,0.125304679179375,1
219,607,44,0.124064433203095,1
219,608,44,0.149067168138489,1
219,609,44,0.108130380157706,1
220,607,44,0.10203463730431,1
220,608,44,0.14953457240166,1
220,609,44,0.133556315890798,1
221,608,44,0.102542203759989,1
221,609,44,0.118396607781344,1
226,609,44,0.102808851525217,1
228,580,44,0.13605099042395,1
228,581,44,0.125576795189962,1
229,580,44,0.191447572894065,1
229,581,44,0.19879641536821,1
229,582,44,0.1503554845665,1
229,583,44,0.100129454870952,1
230,580,44,0.201033842725266,1
230,581,44,0.261618820571339,1
230,582,44,0.246431782128008,1
230,583,44,0.170649123456702,1
230,584,44,0.101533236240809,1
231,580,44,0.180958628647694,1
231,581,44,0.258406716604245,1
231,582,44,0.277523811308725,1
231,583,44,0.214433810656411,1
231,584,44,0.137109248401795,1
232,581,44,0.170615083084696,1
232,582,44,0.211332095530888,1
232,583,44,0.22576937435656,1
232,584,44,0.166365123577122,1
233,583,44,0.238242638093129,1
190,581,45,0.101905534427825,1
191,583,45,0.101280825520768,1
195,590,45,0.122225174715779,1
195,591,45,0.101085504589427,1
196,563,45,0.150422410661094,1
196,590,45,0.107668956107088,1
197,562,45,0.211837439831083,1
197,563,45,0.186095162836093,1
197,564,45,0.108604374636897,1
198,562,45,0.1288311418971,1
198,563,45,0.127297179251773,1
198,564,45,0.117358098665722,1
199,563,45,0.122117770534026,1
199,564,45,0.151552420296669,1
199,565,45,0.115557825935657,1
200,562,45,0.107181084049037,1
200,563,45,0.149476001175972,1
200,564,45,0.169274360823173,1
200,565,45,0.125804751306753,1
201,561,45,0.148048298955899,1
201,562,45,0.178709033900068,1
201,563,45,0.209441999790404,1
201,564,45,0.227491566642933,1
201,565,45,0.210555648261577,8
201,566,45,0.169907544421244,8
201,567,45,0.110542181362786,1
202,562,45,0.237542942331388,1
202,563,45,0.212835013356946,1
202,564,45,0.237442727476202,8
202,565,45,0.318807843762727,8
202,566,45,0.339109390912153,8
202,567,45,0.223349425248037,8
202,568,45,0.101192680019881,1
203,563,45,0.138951556906443,1
203,564,45,0.180315804816271,8
203,565,45,0.328563149911622,8
203,566,45,0.418359167678245,8
203,567,45,0.306963515385804,8
203,568,45,0.143873696662258,1
204,565,45,0.175125416036129,8
204,566,45,0.240837157122219,8
204,567,45,0.210362168233554,1
204,568,45,0.128591868037425,1
205,567,45,0.100532275017124,1
211,602,45,0.105780298231917,1
211,603,45,0.10918205881245,1
212,592,45,0.102735607537579,1
212,593,45,0.131123142778557,1
212,602,45,0.140701286492153,1
212,603,45,0.163431453513661,1
212,604,45,0.126737294105936,1
213,593,45,0.108776101505594,1
213,602,45,0.114111148250613,1
213,603,45,0.141717552267092,1
213,604,45,0.122491473907598,1
217,606,45,0.102741674893486,1
217,607,45,0.121013130506899,1
218,607,45,0.118804351526923,1
218,608,45,0.108654721708709,1
219,607,45,0.104256988861413,1
219,608,45,0.13264873966206,1
220,608,45,0.131042970894408,1
220,609,45,0.11972046780419,1
221,609,45,0.110358504961901,1
228,580,45,0.133565378799441,1
228,581,45,0.127111858020112,1
229,580,45,0.181640035198364,1
229,581,45,0.188577332298184,1
229,582,45,0.144591616277556,1
230,581,45,0.235144016556615,1
230,582,45,0.239936487004154,1
230,583,45,0.159528847408497,1
231,581,45,0.249064862090507,1
231,582,45,0.293091056198295,1
231,583,45,0.214259044663301,1
231,584,45,0.12480388811934,1
231,601,45,0.1109743143541,1
231,602,45,0.099757690436969,1
232,582,45,0.221667362475415,1
232,583,45,0.210444496915673,1
232,584,45,0.144598729353691,1
232,601,45,0.100953602232748,1
189,582,46,0.104245387902633,1
189,583,46,0.133235987820531,1
189,584,46,0.143934087005427,1
189,585,46,0.133409305055408,1
190,583,46,0.114832531814167,1
190,584,46,0.109980498885306,1
197,563,46,0.188512759074104,1
197,564,46,0.106508478976953,1
198,563,46,0.122577854755601,1
198,564,46,0.104856502446725,1
199,563,46,0.107656189605971,1
199,564,46,0.125610683061102,1
200,562,46,0.110853729740305,1
200,563,46,0.149804074111677,1
200,564,46,0.156657833415365,1
200,565,46,0.116395012121546,1
201,562,46,0.202454998300995,1
201,563,46,0.241207973872246,1
201,564,46,0.239827753886277,1
201,565,46,0.219333750643218,8
201,566,46,0.183285650263871,8
201,567,46,0.120698532112049,1
202,563,46,0.246291699189129,1
202,564,46,0.268383323296396,8
202,565,46,0.363062549526178,8
202,566,46,0.390645925911802,8
202,567,46,0.260763966070764,8
202,568,46,0.115037591015132,1
203,564,46,0.197448525565957,8
203,565,46,0.350470705472918,8
203,566,46,0.450483431653215,8
203,567,46,0.351299918042069,8
203,568,46,0.170708468079643,8
204,565,46,0.173297115825369,8
204,566,46,0.240047485849191,8
204,567,46,0.23087906839244,8
204,568,46,0.152182444948218,1
205,567,46,0.103719543128801,1
219,608,46,0.102140298619017,1
220,608,46,0.100170227066926,1
228,580,46,0.123095900199398,1
228,581,46,0.118728068414872,1
229,580,46,0.161509659378764,1
229,581,46,0.168513130961764,1
229,582,46,0.134118031047035,1
230,581,46,0.207180869441511,1
230,582,46,0.233642275165814,1
230,583,46,0.157771329385672,1
231,581,46,0.234806052850419,1
231,582,46,0.314460305486376,1
231,583,46,0.230311373023649,1
231,584,46,0.122135319026602,1
231,601,46,0.117640824379456,1
231,602,46,0.107801403109719,1
232,582,46,0.242310119420911,1
232,583,46,0.208680846179428,1
232,584,46,0.135768722212816,1
232,601,46,0.11355496669725,1
232,602,46,0.109417705330084,1
233,584,46,0.127810813063359,1
187,585,47,0.126455025894801,1
187,586,47,0.141709142933592,1
188,585,47,0.139189512722915,1
188,586,47,0.141611193805566,1
189,585,47,0.1029166151733,1
193,567,47,0.110421171925149,1
196,563,47,0.138339799680128,1
197,562,47,0.177424388385773,1
197,563,47,0.178601825790857,1
197,564,47,0.112496381931833,1
198,563,47,0.123678497081439,1
198,564,47,0.102010672882418,1
199,563,47,0.0999701677158015,1
199,564,47,0.106523554776907,1
200,562,47,0.117683611765453,1
200,563,47,0.145568700222701,1
200,564,47,0.146058500327423,1
200,565,47,0.117872734625859,1
201,562,47,0.217026303602559,1
201,563,47,0.251854778301372,1
201,564,47,0.240167983319634,1
201,565,47,0.230128589842125,8
201,566,47,0.191964463688444,8
201,567,47,0.127843023424966,1
202,563,47,0.273620856630152,1
202,564,47,0.293187436745979,8
202,565,47,0.386290021873626,8
202,566,47,0.400149300629094,8
202,567,47,0.270849915884258,8
202,568,47,0.126651708441023,1
203,563,47,0.18721162168038,1
203,564,47,0.223162611686467,8
203,565,47,0.357573825479314,8
203,566,47,0.443537627183623,8
203,567,47,0.363217468620792,8
203,568,47,0.193451739282757,8
204,564,47,0.112613611526562,1
204,565,47,0.173596725563618,8
204,566,47,0.234821760439677,8
204,567,47,0.242610720414793,8
204,568,47,0.176613606635642,1
204,569,47,0.100390656176659,1
205,567,47,0.110035214017654,1
205,568,47,0.112028531058981,1
228,580,47,0.11068199197869,1
228,581,47,0.109777226123064,1
229,580,47,0.138055004311776,1
229,581,47,0.146870937801249,1
229,582,47,0.12167451587237,1
230,581,47,0.178501403970209,1
230,582,47,0.219680189040428,1
230,583,47,0.158659701398139,1
231,581,47,0.218014879577293,1
231,582,47,0.323310213990341,1
231,583,47,0.247599089118383,1
231,584,47,0.122041182420242,1
231,600,47,0.112030023388889,1
231,601,47,0.12578432708355,1
231,602,47,0.113361922385988,1
232,582,47,0.25246469462437,1
232,583,47,0.207949321308246,1
232,584,47,0.131881954411939,1
232,601,47,0.122052968558645,1
232,602,47,0.125720668864668,1
233,589,47,0.104172448916728,1
233,590,47,0.103629208151186,1
185,588,48,0.168707210100334,1
185,589,48,0.222914231346472,1
186,587,48,0.121450132633025,1
186,588,48,0.180824438778016,1
186,589,48,0.19997775243831,1
186,590,48,0.110863631403714,1
187,585,48,0.129326464711776,1
187,586,48,0.145800599576186,1
187,587,48,0.125938908497674,1
187,588,48,0.121775460553132,1
187,589,48,0.107176519915958,1
188,585,48,0.127480474400492,1
188,586,48,0.131011065534535,1
193,566,48,0.113738425239754,1
196,563,48,0.109362990197737,1
197,562,48,0.143552159477977,1
197,563,48,0.153545356085829,1
197,564,48,0.112953307206886,1
198,563,48,0.126854959417427,1
198,564,48,0.103692092972816,1
200,563,48,0.136767918783616,1
200,564,48,0.138350975815065,1
200,565,48,0.125059425107145,1
201,562,48,0.212484501008014,1
201,563,48,0.246374354658819,1
201,564,48,0.234565842199705,8
201,565,48,0.235649208355943,8
201,566,48,0.194971933278415,8
201,567,48,0.134351814875514,1
202,562,48,0.247353845939072,1
202,563,48,0.302737498514285,8
202,564,48,0.311458674501012,8
202,565,48,0.381197625793186,8
202,566,48,0.372608471985248,8
202,567,48,0.258647188685016,8
202,568,48,0.132073310320749,1
203,563,48,0.236518986155605,1
203,564,48,0.255272693080845,8
203,565,48,0.353601722550663,8
203,566,48,0.413031484546498,8
203,567,48,0.348185697845486,8
203,568,48,0.203165390909235,8
204,564,48,0.128013345107106,1
204,565,48,0.174577850781728,8
204,566,48,0.227434531318829,8
204,567,48,0.243867850415588,8
204,568,48,0.194334348941051,1
204,569,48,0.11627546233506,1
205,567,48,0.115883818323826,1
205,568,48,0.129739894561095,1
205,569,48,0.107120813527978,1
229,581,48,0.123052252272797,1
229,582,48,0.10424723969887,1
230,581,48,0.152112741159269,1
230,582,48,0.19001319331462,1
230,583,48,0.144088505025765,1
231,581,48,0.198458538805366,1
231,582,48,0.293517361477922,1
231,583,48,0.231192152671544,1
231,584,48,0.1123571268548,1
231,600,48,0.135716686738552,1
231,601,48,0.130510252688661,1
231,602,48,0.108624428500854,1
232,582,48,0.234279009855493,1
232,584,48,0.123684956582431,1
232,600,48,0.108978698906855,1
232,601,48,0.120901608801748,1
232,602,48,0.126135798009357,1
232,603,48,0.100393205119715,1
184,588,49,0.105506145245469,1
184,589,49,0.147934751167806,1
185,588,49,0.155929227846486,1
185,589,49,0.211766766572339,1
185,590,49,0.141646879008348,1
186,587,49,0.114593214382815,1
186,588,49,0.163821735910015,1
186,589,49,0.184552235318394,1
186,590,49,0.107350512511815,1
187,585,49,0.120131076387477,1
187,586,49,0.134138760271972,1
187,587,49,0.114804504333472,1
187,588,49,0.109107376959498,1
188,585,49,0.106965578538711,1
188,586,49,0.106047022247578,1
197,563,49,0.127659194523214,1
197,564,49,0.106346621092908,1
198,563,49,0.129106438640048,1
198,564,49,0.10720048433785,1
199,563,49,0.102755781223645,1
200,562,49,0.115256462437442,1
200,563,49,0.132651441105982,1
200,564,49,0.138267960879046,1
200,565,49,0.136048212729594,1
200,566,49,0.116321234380875,1
201,563,49,0.242400835650693,8
201,564,49,0.236640747204656,8
201,565,49,0.235287955588835,8
201,566,49,0.203904606181261,8
201,567,49,0.149928188031241,1
202,562,49,0.249128672810255,8
202,563,49,0.343040863252778,8
202,564,49,0.330925649765119,8
202,565,49,0.347643230477197,8
202,566,49,0.328045365897881,8
202,567,49,0.241051529768965,8
202,568,49,0.13427340764425,1
203,562,49,0.220325812352045,1
203,563,49,0.299654192421943,8
203,564,49,0.28976424979369,8
203,565,49,0.333768897707613,8
203,566,49,0.368330779105793,8
203,567,49,0.317453548924078,8
203,568,49,0.201270458712696,8
204,563,49,0.150510959199986,1
204,564,49,0.145714752481216,1
204,565,49,0.178781951100135,8
204,566,49,0.224938026775278,8
204,567,49,0.243625177965171,8
204,568,49,0.206518776036303,1
204,569,49,0.127829036916916,1
205,567,49,0.127840115015582,1
205,568,49,0.150361530136569,1
205,569,49,0.127602061162839,1
229,580,49,0.100884628269374,1
229,581,49,0.111738735840788,1
230,580,49,0.109786931713931,1
230,581,49,0.142735255907345,1
230,582,49,0.164988008073081,1
230,583,49,0.127495920559694,1
231,581,49,0.185855714689712,1
231,582,49,0.245019972676818,1
231,583,49,0.195989898348725,1
231,584,49,0.101135350586963,1
231,599,49,0.111730359186045,1
231,600,49,0.153322301782607,1
231,601,49,0.134244879089279,1
231,602,49,0.103689914389007,1
232,582,49,0.206777395720197,1
232,583,49,0.16676003546407,1
232,584,49,0.112752757674404,1
232,600,49,0.125575444468001,1
232,601,49,0.121604409045416,1
232,602,49,0.118894141858586,1
232,603,49,0.112184278015443,1
233,590,49,0.113434349404698,1
182,590,50,0.101893748289421,1
183,589,50,0.10743312440983,1
183,590,50,0.116533156120836,1
184,589,50,0.13149479828335,1
184,590,50,0.121569595276158,1
185,588,50,0.12328405359001,1
185,589,50,0.160713964321506,1
185,590,50,0.120504703510616,1
186,588,50,0.123542803988933,1
186,589,50,0.13597810590264,1
187,586,50,0.105101320802193,1
188,598,50,0.123130822897847,1
189,598,50,0.115021632888735,1
198,563,50,0.124756209812693,1
198,564,50,0.107224263580119,1
199,563,50,0.10731782286177,1
199,564,50,0.102597419966613,1
200,563,50,0.129274908525951,1
200,564,50,0.135748156381664,1
200,565,50,0.138260335835717,1
200,566,50,0.130639442708499,1
200,567,50,0.10295845487534,1
201,563,50,0.233673821059359,8
201,564,50,0.231014467376131,8
201,565,50,0.224865545291973,8
201,566,50,0.221645010205541,8
201,567,50,0.175334167936649,1
202,562,50,0.254643343790276,8
202,563,50,0.365605501476523,8
202,564,50,0.335550935691202,8
202,565,50,0.305768518595224,8
202,566,50,0.300065726903349,8
202,567,50,0.240500326279604,8
202,568,50,0.140635983442497,1
203,562,50,0.262884425263148,8
203,563,50,0.351818007057542,8
203,564,50,0.311146156653698,8
203,565,50,0.300595863487283,8
203,566,50,0.321554035796558,8
203,567,50,0.288236147538808,8
203,568,50,0.193712297906241,1
203,569,50,0.100181588381487,1
204,563,50,0.176516082331459,8
204,564,50,0.159973997438066,8
204,565,50,0.177133863342005,8
204,566,50,0.220123705132141,8
204,567,50,0.243122426179708,1
204,568,50,0.209142488088426,1
204,569,50,0.133135664036155,1
205,566,50,0.104948188146301,1
205,567,50,0.140188774651229,1
205,568,50,0.162054065686643,1
205,569,50,0.14371199127908,1
229,581,50,0.101922614524883,1
230,580,50,0.104183821124208,1
230,581,50,0.139055126780694,1
230,582,50,0.140064333944094,1
230,583,50,0.102283747469881,1
231,581,50,0.172162237054983,1
231,582,50,0.190882143252435,1
231,583,50,0.148794812483683,1
231,599,50,0.117259365247525,1
231,600,50,0.145734120091272,1
231,601,50,0.123317974139907,1
231,603,50,0.10001452368214,1
231,604,50,0.100434118923637,1
232,582,50,0.17954004380086,1
232,583,50,0.146402901748773,1
232,584,50,0.102092467811504,1
232,599,50,0.119178359902229,1
232,600,50,0.137079870199139,1
232,601,50,0.117764469903501,1
232,602,50,0.101792520392764,1
232,603,50,0.105878421646647,1
233,586,50,0.107518034713762,1
233,590,50,0.102209065616929,1
234,585,50,0.158078400773465,1
234,586,50,0.139287320242993,1
184,589,51,0.104788944562827,1
184,597,51,0.109078652331984,1
185,589,51,0.10376958519888,1
185,597,51,0.107988946496865,1
187,599,51,0.11509469169675,1
188,598,51,0.11565113468017,1
188,599,51,0.136650362401315,1
189,598,51,0.106620131397133,1
191,573,51,0.10002339051824,1
199,563,51,0.105578975302183,1
199,564,51,0.106053078710566,1
199,565,51,0.103029258849112,1
200,563,51,0.125795002144211,1
200,564,51,0.133985442436456,1
200,565,51,0.138768174614372,1
200,566,51,0.140638521492634,1
200,567,51,0.109420123558112,1
201,563,51,0.212599987735696,8
201,564,51,0.213866071715944,8
201,565,51,0.212127126120085,1
201,566,51,0.245207178383473,1
201,567,51,0.204104251601462,1
201,568,51,0.111480671695765,1
202,562,51,0.252595344295359,8
202,563,51,0.338315166398966,8
202,564,51,0.308449309543127,8
202,565,51,0.269780209448499,8
202,566,51,0.303340574084124,8
202,567,51,0.267536834557646,1
202,568,51,0.158105360748094,1
203,562,51,0.295688930246451,8
203,563,51,0.349800246305886,8
203,564,51,0.299237668983617,8
203,565,51,0.263411119684665,8
203,566,51,0.288510387668608,8
203,567,51,0.274634137745273,1
203,568,51,0.189268008722959,1
203,569,51,0.0998922397729753,1
204,563,51,0.188154512752652,8
204,564,51,0.168315816626238,1
204,565,51,0.175193976068579,1
204,566,51,0.214589666542063,1
204,567,51,0.239322409586082,1
204,568,51,0.200725943475626,1
204,569,51,0.12957565112778,1
205,566,51,0.114956678412488,1
205,567,51,0.149679611618704,1
205,568,51,0.161764172432179,1
205,569,51,0.147738068621584,1
206,569,51,0.110452837640804,1
229,581,51,0.102552933285246,1
230,580,51,0.108325711981966,1
230,581,51,0.142686455630037,1
230,582,51,0.126251241165364,1
231,581,51,0.167468619847749,1
231,582,51,0.163824578961885,1
231,583,51,0.122431748032491,1
231,599,51,0.117799011349783,1
231,600,51,0.131182912225341,1
231,601,51,0.110506289194543,1
231,604,51,0.108918678922934,1
232,582,51,0.177791610472516,1
232,583,51,0.145923395452546,1
232,598,51,0.11133906374822,1
232,599,51,0.148855017647228,1
232,600,51,0.15518718041551,1
232,601,51,0.119839669017266,1
233,585,51,0.134025408556421,1
233,586,51,0.126988626426991,1
234,584,51,0.121038173327777,1
234,585,51,0.174566587503438,1
234,586,51,0.159375714752605,1
234,587,51,0.107016078111389,1
235,585,51,0.127547030135839,1
235,586,51,0.111350196311481,1
184,597,52,0.106597125552116,1
185,597,52,0.101918769324461,1
191,573,52,0.114687296524581,1
199,564,52,0.108087440270842,1
199,565,52,0.110330553731639,1
200,563,52,0.121575346737412,1
200,564,52,0.132765686040895,1
200,565,52,0.142600183711224,1
200,566,52,0.146779513531729,1
200,567,52,0.112293937031438,1
201,563,52,0.185285448592028,1
201,564,52,0.191450840769778,1
201,565,52,0.200154914873609,1
201,566,52,0.247367462087875,1
201,567,52,0.21260824456833,1
201,568,52,0.119631930158217,1
202,563,52,0.279668823140629,8
202,564,52,0.262730856890494,8
202,565,52,0.243635046949823,1
202,566,52,0.306539432261662,1
202,567,52,0.290557254299945,1
202,568,52,0.171967602377541,1
203,563,52,0.304166017703285,8
203,564,52,0.265150283138904,1
203,565,52,0.2306807736942,1
203,566,52,0.263614882628264,1
203,567,52,0.266856048903361,1
203,568,52,0.181557466872026,1
204,564,52,0.170476906406649,1
204,565,52,0.16999002560423,1
204,566,52,0.199687129358271,1
204,567,52,0.221746423281822,1
204,568,52,0.181326863775908,1
204,569,52,0.121452256752238,1
205,566,52,0.119957323435838,1
205,567,52,0.148782884737332,1
205,568,52,0.15372681033123,1
205,569,52,0.143549708571193,1
206,569,52,0.117410112354147,1
230,580,52,0.107270743665671,1
230,581,52,0.134385473995353,1
230,582,52,0.112734544713766,1
231,581,52,0.158567874090616,1
231,582,52,0.152649337244195,1
231,583,52,0.108228035176917,1
231,599,52,0.104427778939072,1
231,600,52,0.104808072528665,1
232,582,52,0.185468493203609,1
232,583,52,0.144473994537741,1
232,598,52,0.123469211427885,1
232,599,52,0.159393524675239,1
232,600,52,0.149762615661804,1
232,601,52,0.107073919511502,1
233,583,52,0.135664803765155,1
233,584,52,0.107933196537208,1
233,585,52,0.13027650153894,1
233,586,52,0.143408503661652,1
233,587,52,0.111636810797313,1
233,599,52,0.115316101169197,1
234,584,52,0.116581052285863,1
234,585,52,0.163069198598001,1
234,586,52,0.15666493559858,1
234,587,52,0.112325156137412,1
235,585,52,0.13139974667179,1
235,586,52,0.109331988950143,1
183,598,53,0.100198145618431,1
184,597,53,0.100323599367037,1
184,598,53,0.102600480876864,1
191,573,53,0.120659197781388,1
199,564,53,0.110069504926798,1
199,565,53,0.117655627856434,1
199,566,53,0.10544859795417,1
200,563,53,0.121573603870365,1
200,564,53,0.133080665687912,1
200,565,53,0.15104679278058,1
200,566,53,0.150535751483726,1
200,567,53,0.113849478549387,1
201,564,53,0.174923679175472,1
201,565,53,0.197288726443612,1
201,566,53,0.228264244962255,1
201,567,53,0.196702970615049,1
201,568,53,0.11889182166683,1
202,564,53,0.218412275049782,1
202,565,53,0.2268397561533,1
202,566,53,0.286376748044183,1
202,567,53,0.280994426030522,1
202,568,53,0.170976281387208,1
203,564,53,0.225015039712905,1
203,565,53,0.209793056785288,1
203,566,53,0.245286674906641,1
203,567,53,0.255869428971801,1
203,568,53,0.170448138207459,1
204,565,53,0.169871151178725,1
204,566,53,0.183651380020705,1
204,567,53,0.195003348456932,1
204,568,53,0.157961519752145,1
204,569,53,0.111439943071467,1
205,566,53,0.119129951770006,1
205,567,53,0.137779141137038,1
205,568,53,0.144927303363673,1
205,569,53,0.136182075811701,1
206,568,53,0.100468366261105,1
206,569,53,0.11457758304399,1
230,580,53,0.11378554800753,1
230,581,53,0.130053599736584,1
230,582,53,0.107076305060772,1
231,581,53,0.161934515900157,1
231,582,53,0.155871582518916,1
231,583,53,0.104899845371593,1
232,582,53,0.200803435701691,1
232,583,53,0.142119435622226,1
232,598,53,0.12375943146992,1
232,599,53,0.149865826069726,1
232,600,53,0.129005090921281,1
233,583,53,0.132988152126489,1
233,584,53,0.109994125927028,1
233,585,53,0.133110512286087,1
233,586,53,0.16213062112167,1
233,587,53,0.136800880756637,1
233,599,53,0.120695972276074,1
234,584,53,0.117301814953032,1
234,585,53,0.154353621571662,1
234,586,53,0.152754388555435,1
234,587,53,0.123062611438806,1
235,584,53,0.118031498920896,1
235,585,53,0.14722350891188,1
235,586,53,0.115295295693827,1
183,598,54,0.114817020297451,1
184,598,54,0.112835380465338,1
191,573,54,0.105755200946444,1
198,566,54,0.105536329524134,1
198,567,54,0.102475582667129,1
199,564,54,0.108434434206924,1
199,565,54,0.120218350454841,1
199,566,54,0.117929791735801,1
200,564,54,0.134432073903015,1
200,565,54,0.161086872511988,1
200,566,54,0.154324276047763,1
200,567,54,0.117093825556845,1
201,564,54,0.167486909058821,1
201,565,54,0.204735626974972,1
201,566,54,0.206169766910199,1
201,567,54,0.16913488788776,1
201,568,54,0.109541470676239,1
202,564,54,0.182307825600232,1
202,565,54,0.207166469002538,1
202,566,54,0.240949855262627,1
202,567,54,0.23313135369107,1
202,568,54,0.148890365169519,1
203,564,54,0.185679096900366,1
203,565,54,0.184759385959815,1
203,566,54,0.215879497085822,1
203,567,54,0.224082932630484,1
203,568,54,0.148769671626534,1
204,565,54,0.156906998045531,1
204,566,54,0.158990867922853,1
204,567,54,0.161474181141444,1
204,568,54,0.135252615708607,1
204,569,54,0.101662458939403,1
205,566,54,0.109639321767993,1
205,567,54,0.121611271584412,1
205,568,54,0.139179970525834,1
205,569,54,0.128249928415778,1
206,568,54,0.104108834269523,1
206,569,54,0.104755546873044,1
230,580,54,0.119120213500383,1
230,581,54,0.119296384680048,1
231,581,54,0.157309142830722,1
231,582,54,0.144511509750922,1
232,582,54,0.194314828830128,1
232,583,54,0.130682665811258,1
232,586,54,0.101840274949844,1
232,598,54,0.106692318771624,1
232,599,54,0.120759009598569,1
233,585,54,0.142506156034054,1
233,586,54,0.168207802441018,1
233,587,54,0.148325763389736,1
234,584,54,0.130190327656399,1
234,585,54,0.157540138071926,1
234,586,54,0.154028674903721,1
234,587,54,0.132232248902491,1
235,584,54,0.129663949129534,1
235,585,54,0.160610416233093,1
235,586,54,0.12399468584247,1
236,585,54,0.1037034107157,1
183,598,55,0.119060237088138,1
184,598,55,0.114719724744568,1
197,567,55,0.103265765907351,1
198,565,55,0.104459422868889,1
198,566,55,0.132147589135697,1
198,567,55,0.140872261749436,1
199,565,55,0.119700435726072,1
199,566,55,0.134257177194877,1
199,567,55,0.129338730138618,1
200,564,55,0.13346521840885,1
200,565,55,0.162793978105487,1
200,566,55,0.156889329730845,1
200,567,55,0.125640867339767,1
201,564,55,0.165358933752298,1
201,565,55,0.211543396374464,1
201,566,55,0.191816341775311,1
201,567,55,0.145563449835723,1
202,564,55,0.161837351062303,1
202,565,55,0.189765009047168,1
202,566,55,0.196877518749778,1
202,567,55,0.179726149322692,1
202,568,55,0.125661857994761,1
203,564,55,0.155418371729256,1
203,565,55,0.162274037293776,1
203,566,55,0.185718420338108,1
203,567,55,0.188688309357384,1
203,568,55,0.136366906862005,1
204,565,55,0.141724371234412,1
204,566,55,0.143077620352833,1
204,567,55,0.144124015941842,1
204,568,55,0.129859607741366,1
204,569,55,0.100548766896553,1
205,566,55,0.103229590523213,1
205,567,55,0.115629022054515,1
205,568,55,0.138205860347588,1
205,569,55,0.119029083339678,1
206,568,55,0.104839367885072,1
230,580,55,0.124048279004156,1
230,581,55,0.113991326141152,1
231,581,55,0.152766403445139,1
231,582,55,0.129387465058411,1
233,585,55,0.142700017314244,1
233,586,55,0.158905924940164,1
233,587,55,0.146758228767921,1
234,584,55,0.136762243572795,1
234,585,55,0.154017716627165,1
234,586,55,0.155553552854567,1
234,587,55,0.138144337140839,1
235,584,55,0.126439971880685,1
235,585,55,0.152650045283932,1
235,586,55,0.128161260054777,1
236,585,55,0.112863571339818,1
183,598,56,0.103702473924663,1
184,598,56,0.099977847223726,1
197,566,56,0.105682403568487,1
197,567,56,0.114023046321402,1
198,565,56,0.110216809871003,1
198,566,56,0.159968420263517,1
198,567,56,0.179371432307009,1
198,568,56,0.104173461958199,1
199,565,56,0.120704098393679,1
199,566,56,0.157542077011515,1
199,567,56,0.171645585904822,1
199,568,56,0.107218348725079,1
200,564,56,0.131521191826189,1
200,565,56,0.157200660249983,1
200,566,56,0.157639263635207,1
200,567,56,0.140150366218687,1
201,564,56,0.158369731893242,1
201,565,56,0.203264494686679,1
201,566,56,0.176867150219262,1
201,567,56,0.130971633167603,1
202,564,56,0.144545136192004,1
202,565,56,0.169095825880075,1
202,566,56,0.161036797763152,1
202,567,56,0.138190730083038,1
202,568,56,0.106263388298509,1
203,564,56,0.131233204832557,1
203,565,56,0.138407956674573,1
203,566,56,0.15144188984715,1
203,567,56,0.149030840253484,1
203,568,56,0.121474423842488,1
204,565,56,0.121017770890411,1
204,566,56,0.125844249031199,1
204,567,56,0.127994413213811,1
204,568,56,0.120120945972768,1
205,567,56,0.10894715301331,1
205,568,56,0.123920559528389,1
205,569,56,0.0999999598493812,1
230,580,56,0.118642297570336,1
230,581,56,0.105045135125775,1
231,581,56,0.142249649576454,1
231,582,56,0.110334605897522,1
232,582,56,0.138942254353581,1
233,585,56,0.139061510031253,1
233,587,56,0.138303428223447,1
234,584,56,0.141965431532811,1
234,585,56,0.145995256039465,1
234,586,56,0.148649631658691,1
235,585,56,0.131820725314004,1
175,589,57,0.100896850124539,1
175,590,57,0.10703676376465,1
175,591,57,0.108383324630779,1
175,592,57,0.10948245284087,1
197,566,57,0.104772027859555,1
197,567,57,0.112292248628987,1
198,565,57,0.110062816674507,1
198,566,57,0.168485822413726,1
198,567,57,0.192255086768484,1
198,568,57,0.1218458614889,1
199,565,57,0.124682900467541,1
199,566,57,0.176293474637918,1
199,567,57,0.204530034020974,1
199,568,57,0.14273951503869,1
200,564,57,0.13321655485296,1
200,565,57,0.149008651377395,1
200,566,57,0.158456341492545,1
200,567,57,0.156360554761791,1
200,568,57,0.122578399401553,1
201,564,57,0.150609670832345,1
201,565,57,0.178463344111076,1
201,566,57,0.158348294628568,1
201,567,57,0.124811436912236,1
201,568,57,0.0998806497071146,1
202,564,57,0.13477640996685,1
202,565,57,0.153370568306882,1
202,566,57,0.13966619775311,1
202,567,57,0.115974512767769,1
203,565,57,0.12765184180286,1
203,566,57,0.13027297223317,1
203,567,57,0.124799520058804,1
203,568,57,0.11328594427567,1
204,566,57,0.116846164149507,1
204,567,57,0.1215893550313,1
204,568,57,0.112804237609797,1
205,567,57,0.102719997984592,1
205,568,57,0.104535662409263,1
230,580,57,0.112279013732351,1
230,581,57,0.10176652988793,1
231,581,57,0.132068876902699,1
232,582,57,0.115833525716609,1
233,586,57,0.120256813351978,1
233,587,57,0.118709724739205,1
234,585,57,0.132624927741034,1
234,587,57,0.138188377212525,1
174,589,58,0.128476838812341,1
174,590,58,0.134252634847636,1
174,591,58,0.13361814409928,1
174,592,58,0.150261544032683,1
175,588,58,0.102917039997142,1
175,589,58,0.115485671239923,1
175,590,58,0.123531834819458,1
175,591,58,0.116739881938414,1
175,592,58,0.124660123373824,1
175,593,58,0.138044743182038,1
175,594,58,0.116280723614958,1
180,583,58,0.107256691800107,1
197,567,58,0.10491534599539,1
198,565,58,0.10492898393003,1
198,566,58,0.154777377908232,1
198,567,58,0.181402689385359,1
198,568,58,0.133807397674715,1
199,564,58,0.102924044144086,1
199,565,58,0.12417922278396,1
199,566,58,0.177325197464977,1
199,567,58,0.217606482256572,1
199,568,58,0.175288613749216,1
200,564,58,0.127163653850157,1
200,565,58,0.135992615270804,1
200,566,58,0.155741782495612,1
200,567,58,0.170654646166656,1
200,568,58,0.148503971545262,1
201,564,58,0.133078432639508,1
201,565,58,0.143022066465719,1
201,566,58,0.138449295302337,1
201,567,58,0.124551292219676,1
201,568,58,0.107285111425887,1
202,565,58,0.130419471101366,1
202,566,58,0.119766686459685,1
202,567,58,0.101506494124561,1
203,566,58,0.110838033043966,1
203,567,58,0.104450457996517,1
204,566,58,0.102299237200758,1
204,567,58,0.10979967642921,1
204,568,58,0.101358742570675,1
230,580,58,0.100537754155402,1
231,581,58,0.112451851678789,1
173,589,59,0.110003352229456,1
173,590,59,0.126901755397631,1
173,591,59,0.135502030875911,1
174,588,59,0.123647855300174,1
174,589,59,0.135600481078213,1
174,590,59,0.14915925687607,1
174,591,59,0.13762130274012,1
174,592,59,0.153405545469926,1
174,593,59,0.187206741652649,1
174,594,59,0.165961900392946,1
175,587,59,0.10141497181877,1
175,588,59,0.113355637171701,1
175,589,59,0.128208774967638,1
175,590,59,0.144196257780928,1
175,591,59,0.122994770339013,1
175,592,59,0.128519844056719,1
175,593,59,0.156087828747737,1
175,594,59,0.136943970141172,1
175,595,59,0.10020338511249,1
176,590,59,0.105316085594025,1
178,599,59,0.121775079300965,1
179,600,59,0.110216995050626,1
180,583,59,0.137995082364126,1
198,566,59,0.125173408612,1
198,567,59,0.152839897969915,1
198,568,59,0.137802648056331,1
199,565,59,0.113035494281058,1
199,566,59,0.156753375208282,1
199,567,59,0.204875404912119,1
199,568,59,0.19251128822435,1
199,569,59,0.10563620669883,1
200,565,59,0.121281466674579,1
200,566,59,0.152950624491976,1
200,567,59,0.185274577458824,1
200,568,59,0.171106473555598,1
200,569,59,0.100245050527825,1
201,565,59,0.119715664026892,1
201,566,59,0.135407839804955,1
201,567,59,0.141098529463776,1
201,568,59,0.123300392968573,1
202,565,59,0.119094397282253,1
202,566,59,0.117136504013651,1
202,567,59,0.105461179275663,1
203,566,59,0.109312349017111,1
203,567,59,0.100630038965525,1
204,567,59,0.102030846568483,1
222,576,59,0.102540548036295,1
173,588,60,0.100018564955105,1
173,589,60,0.110227506717502,1
173,590,60,0.126971524544095,1
173,591,60,0.13045909954084,1
173,592,60,0.139412262024404,1
173,593,60,0.153124116013558,1
174,587,60,0.1215070372421,1
174,588,60,0.126628027235026,1
174,589,60,0.138530197012062,1
174,590,60,0.157881445904267,1
174,591,60,0.135717220491585,1
174,592,60,0.144673792458809,1
174,593,60,0.180977462504718,1
174,594,60,0.174773552965236,1
174,595,60,0.135216516574902,1
175,587,60,0.120534147070786,1
175,588,60,0.124887436808392,1
175,589,60,0.143242353967505,1
175,590,60,0.164399082405077,1
175,591,60,0.126080843232791,1
175,592,60,0.122169054396875,1
175,593,60,0.156536061473395,1
175,594,60,0.150687871098147,1
175,595,60,0.109751987229644,1
176,589,60,0.108694175861479,1
176,590,60,0.114864578781988,1
176,597,60,0.101358622748566,1
176,598,60,0.123513600072981,1
177,599,60,0.10933850291573,1
178,599,60,0.124142252216731,1
178,600,60,0.148326133748983,1
179,600,60,0.110385922439129,1
180,583,60,0.142197265528781,1
198,567,60,0.128373236259333,1
198,568,60,0.136012342347189,1
199,566,60,0.130308635650114,1
199,567,60,0.184780441972323,1
199,568,60,0.192200012169807,1
199,569,60,0.122530721094906,1
200,565,60,0.107351972162967,1
200,566,60,0.14817461324511,1
200,567,60,0.198359260741218,1
200,568,60,0.18341619100567,1
200,569,60,0.117912875032529,1
201,565,60,0.106779647303583,1
201,566,60,0.135887106456964,1
201,567,60,0.156512489196588,1
201,568,60,0.134643777784595,1
201,569,60,0.105351552938425,1
202,565,60,0.110665097061256,1
202,566,60,0.117721813232533,1
202,567,60,0.110364016778936,1
203,566,60,0.107585636169336,1
222,576,60,0.113158235692822,1
172,590,61,0.104523113766527,1
172,591,61,0.119242497409548,1
173,587,61,0.109857332649699,1
173,589,61,0.107161084649676,1
173,590,61,0.123355925069849,1
173,591,61,0.124738944536012,1
173,592,61,0.143258017985087,1
173,593,61,0.158997708676011,1
173,594,61,0.158672631293042,1
174,586,61,0.12822796829099,1
174,587,61,0.157813615697393,1
174,588,61,0.131204621812991,1
174,589,61,0.136779334562772,1
174,590,61,0.156181344457712,1
174,591,61,0.129363010455162,1
174,592,61,0.131184295626059,1
174,593,61,0.16078804706391,1
174,594,61,0.168728505757061,1
174,595,61,0.138558540387409,1
174,596,61,0.117852680761903,1
175,586,61,0.1050521283798,1
175,587,61,0.13934056483127,1
175,588,61,0.134393447612092,1
175,589,61,0.154021017181635,1
175,590,61,0.169856968598132,1
175,591,61,0.123749616949864,1
175,592,61,0.110678843925087,1
175,593,61,0.137523310040418,1
175,594,61,0.146243266020213,1
175,595,61,0.117550010113403,1
175,596,61,0.107489375443762,1
175,597,61,0.132446338333341,1
176,587,61,0.106769135636708,1
176,588,61,0.111397406222608,1
176,589,61,0.119938990653091,1
176,590,61,0.118509817888947,1
176,598,61,0.127082229280318,1
177,599,61,0.109558681488326,1
178,599,61,0.113242154741122,1
178,600,61,0.141063138369808,1
180,583,61,0.117221065744174,1
198,567,61,0.116495924123551,1
198,568,61,0.132329108738612,1
198,569,61,0.105355681354742,1
199,566,61,0.118894740969133,1
199,567,61,0.170643393781286,1
199,568,61,0.182874257390414,1
199,569,61,0.134815776976268,1
200,565,61,0.101963506542966,1
200,566,61,0.149351092073317,1
200,567,61,0.202774901547419,1
200,568,61,0.186327988087696,1
200,569,61,0.136124724592945,1
201,565,61,0.105512757247327,1
201,566,61,0.142992328796735,1
201,567,61,0.167063795404474,1
201,568,61,0.147677580242144,1
201,569,61,0.12912676482698,1
201,570,61,0.111268150845257,1
202,565,61,0.108320537845421,1
202,566,61,0.124368509038152,1
202,567,61,0.120391994477289,1
202,568,61,0.113610498798526,1
202,569,61,0.109468215795682,1
203,566,61,0.107390761847675,1
222,575,61,0.100198820979411,1
222,576,61,0.119901322939044,1
172,590,62,0.102699355903008,1
172,591,62,0.110854764567614,1
172,592,62,0.131850103516661,1
172,593,62,0.13504826454738,1
173,586,62,0.107261484684485,1
173,587,62,0.121295050144624,1
173,589,62,0.111602541674007,1
173,590,62,0.122416704911294,1
173,591,62,0.120404967943868,1
173,592,62,0.141185640137354,1
173,593,62,0.157102427906062,1
173,594,62,0.149470620073965,1
173,595,62,0.12772472632417,1
174,586,62,0.152667670026942,1
174,587,62,0.184787816478515,1
174,588,62,0.137254352976353,1
174,589,62,0.139449014733252,1
174,590,62,0.150363273003615,1
174,591,62,0.123763167741152,1
174,592,62,0.119359737897196,1
174,593,62,0.139881071474132,1
174,594,62,0.152369051544326,1
174,595,62,0.134880132341968,1
174,596,62,0.127265339249414,1
174,597,62,0.136424661118765,1
175,586,62,0.112819422338941,1
175,587,62,0.150329918885509,1
175,588,62,0.142030244401111,1
175,589,62,0.156321372931997,1
175,590,62,0.158272033302355,1
175,591,62,0.116903068758582,1
175,593,62,0.113704777012834,1
175,594,62,0.130077792909777,1
175,595,62,0.122071693486478,1
175,596,62,0.120824399791578,1
175,597,62,0.128387473304521,1
175,598,62,0.169190234809412,1
176,587,62,0.114867095046287,1
176,588,62,0.120473571547994,1
176,589,62,0.121101984047525,1
176,590,62,0.110881866150191,1
176,598,62,0.123558696757815,1
176,599,62,0.138181743424829,1
177,599,62,0.107478754847696,1
177,600,62,0.125042748048092,1
198,567,62,0.106124285722343,1
198,568,62,0.120829661071476,1
198,569,62,0.108688881902825,1
199,566,62,0.110815789703282,1
199,567,62,0.149938699698117,1
199,568,62,0.159810069899404,1
199,569,62,0.137343173838222,1
200,565,62,0.100597686995971,1
200,566,62,0.143871136826283,1
200,567,62,0.183612405156373,1
200,568,62,0.172671720664413,1
200,569,62,0.150284985594461,1
200,570,62,0.116172644072223,1
201,565,62,0.106587332817898,1
201,566,62,0.143643344103278,1
201,567,62,0.164265284680485,1
201,568,62,0.15427586791554,1
201,569,62,0.150176786229617,1
201,570,62,0.124842470838586,1
202,565,62,0.10441916264011,1
202,566,62,0.127077806755187,1
202,567,62,0.132204450173096,1
202,568,62,0.128383475603233,1
202,569,62,0.122740867289064,1
203,566,62,0.104138397651803,1
203,567,62,0.102120429934685,1
203,568,62,0.0997333883345864,1
221,576,62,0.100007628464387,1
222,575,62,0.0998784384445491,1
222,576,62,0.119981483930273,1
223,576,62,0.100084641402013,1
172,589,63,0.100326529562259,1
172,590,63,0.107247193174702,1
172,591,63,0.110562975945237,1
172,592,63,0.131132227473038,1
172,593,63,0.133812909491751,1
172,594,63,0.12046645847186,1
173,586,63,0.104634384934541,1
173,587,63,0.123444059677818,1
173,588,63,0.107543731109782,1
173,589,63,0.124988272559963,1
173,590,63,0.127491454462887,1
173,591,63,0.121274190204659,1
173,592,63,0.139137902072494,1
173,593,63,0.151579500093408,1
173,594,63,0.140308084793496,1
173,595,63,0.117384710066941,1
173,596,63,0.110427533389869,1
174,586,63,0.152235591500224,1
174,587,63,0.186265789519966,1
174,588,63,0.144189863637451,1
174,589,63,0.146649517435883,1
174,590,63,0.145151120171228,1
174,591,63,0.121994430011713,1
174,592,63,0.112975136616646,1
174,593,63,0.123926833849757,1
174,594,63,0.136504212106529,1
174,595,63,0.129232077568278,1
174,596,63,0.129953079879665,1
174,597,63,0.127172891045504,1
175,586,63,0.114083109876999,1
175,587,63,0.153272052747066,1
175,588,63,0.148598772619684,1
175,589,63,0.150412193103033,1
175,590,63,0.138353709937744,1
175,591,63,0.109640803204983,1
175,594,63,0.112420632572815,1
175,595,63,0.121481787455761,1
175,596,63,0.126894446248954,1
175,597,63,0.119103590905925,1
175,598,63,0.137797256061405,1
176,587,63,0.122963278910063,1
176,588,63,0.125787605852181,1
176,589,63,0.114224358358216,1
176,598,63,0.11276826919112,1
176,599,63,0.129019131893926,1
176,600,63,0.123312451429953,1
177,599,63,0.105468826104831,1
198,568,63,0.110908728088548,1
198,569,63,0.113197319486345,1
199,566,63,0.106781586243173,1
199,567,63,0.129375646241251,1
199,568,63,0.138443979557845,1
199,569,63,0.142258864985963,1
199,570,63,0.113518758634354,1
200,565,63,0.106923074368609,1
200,566,63,0.137993067174103,1
200,567,63,0.154863105181092,1
200,568,63,0.157683205670623,1
200,569,63,0.172766369237969,1
200,570,63,0.136992443630909,1
201,566,63,0.144028234504706,1
201,567,63,0.158423270590334,1
201,568,63,0.160453819628945,1
201,569,63,0.17329461045399,1
201,570,63,0.133174105147454,1
202,566,63,0.130465264933018,1
202,567,63,0.151128260922094,1
202,568,63,0.148461881306084,1
202,569,63,0.136899265601424,1
202,570,63,0.0997272665140848,1
203,566,63,0.103856968195435,1
203,567,63,0.114480407313217,1
203,568,63,0.112267794025737,1
203,569,63,0.100578972961057,1
221,576,63,0.100694274509116,1
222,576,63,0.112280179274688,1
172,589,64,0.107784540871042,1
172,590,64,0.112638904884578,1
172,591,64,0.113421484867309,1
172,592,64,0.129029512845773,1
172,593,64,0.129772039565188,1
172,594,64,0.113116624742082,1
173,587,64,0.118022544941443,1
173,588,64,0.117303721213864,1
173,589,64,0.135449755757429,1
173,590,64,0.13159678868434,1
173,591,64,0.124903242433922,1
173,592,64,0.136644033615351,1
173,593,64,0.145128288612916,1
173,594,64,0.131040432844272,1
173,595,64,0.109763882297238,1
173,596,64,0.105740822293309,1
174,586,64,0.137722116705853,1
174,587,64,0.168844853025349,1
174,588,64,0.146905675320073,1
174,589,64,0.146878290521602,1
174,590,64,0.138074644244808,1
174,591,64,0.122263877257135,1
174,592,64,0.114180579716587,1
174,593,64,0.119738452013528,1
174,594,64,0.126878183120824,1
174,595,64,0.123469004462424,1
174,596,64,0.123348103953977,1
174,597,64,0.114520602184481,1
174,598,64,0.115811064517544,1
175,586,64,0.122464764470107,1
175,587,64,0.154333491457272,1
175,588,64,0.148609425894507,1
175,589,64,0.137932350043363,1
175,590,64,0.12217025261797,1
175,591,64,0.105171438522066,1
175,594,64,0.104185836314231,1
175,595,64,0.12106224667886,1
175,596,64,0.125185891897222,1
175,597,64,0.110106693352408,1
175,598,64,0.11021911916984,1
175,599,64,0.120089214899598,1
176,586,64,0.107033495888937,1
176,587,64,0.12538057014634,1
176,588,64,0.120107983399108,1
176,589,64,0.102124482100568,1
176,599,64,0.113023893322278,1
177,586,64,0.101038033248242,1
178,583,64,0.104481110670701,1
178,584,64,0.115291853531409,1
198,568,64,0.101585990647729,1
198,569,64,0.114262527146539,1
198,570,64,0.105685954660094,1
199,566,64,0.104521850187918,1
199,567,64,0.111480203300246,1
199,568,64,0.12175091880653,1
199,569,64,0.143815713654198,1
199,570,64,0.123650796388315,1
200,566,64,0.134770211895915,1
200,567,64,0.132306222715705,1
200,568,64,0.148977464950178,1
200,569,64,0.18988356757802,1
200,570,64,0.14965713952672,1
201,566,64,0.143733994975545,1
201,567,64,0.152691046231206,1
201,568,64,0.162628928596163,1
201,569,64,0.183130600454228,1
201,570,64,0.13458311511845,1
202,566,64,0.131399147561243,1
202,567,64,0.163524969223636,1
202,568,64,0.159970250273916,1
202,569,64,0.140722200896714,1
203,566,64,0.102857346800792,1
203,567,64,0.123423962242185,1
203,568,64,0.121687892376954,1
203,569,64,0.105364439261652,1
221,576,64,0.100146698361795,1
222,576,64,0.100720798766983,1
172,588,65,0.102263486640463,1
172,589,65,0.112800043835966,1
172,590,65,0.118815701948565,1
172,591,65,0.117430591041946,1
172,592,65,0.123905048011673,1
172,593,65,0.12177832539084,1
172,594,65,0.10715092155621,1
172,595,65,0.10112116800637,1
173,587,65,0.107990286325907,1
173,588,65,0.125975062095974,1
173,589,65,0.139047381915255,1
173,590,65,0.134872387476529,1
173,591,65,0.130021160623677,1
173,592,65,0.133998557510983,1
173,593,65,0.13560835665868,1
173,594,65,0.119378136037458,1
173,595,65,0.102541147146842,1
173,596,65,0.0998686892820066,1
173,597,65,0.101303864044542,1
174,586,65,0.120458571998473,1
174,587,65,0.144860562448702,1
174,588,65,0.149623229869743,1
174,589,65,0.145419303838041,1
174,590,65,0.132061393467318,1
174,591,65,0.123328267948402,1
174,592,65,0.118146952969822,1
174,593,65,0.118732338439136,1
174,594,65,0.115794202278867,1
174,595,65,0.110577223883344,1
174,596,65,0.109848749029494,1
174,597,65,0.1031260424348,1
175,586,65,0.132992138934858,1
175,587,65,0.150174411573266,1
175,588,65,0.146647741890079,1
175,589,65,0.131763657311144,1
175,590,65,0.115370533085649,1
175,591,65,0.105311510568027,1
175,595,65,0.111284838797229,1
175,596,65,0.116077570674825,1
175,597,65,0.104153015949157,1
175,599,65,0.100397028534299,1
176,586,65,0.116019228200436,1
176,587,65,0.120176303787339,1
176,588,65,0.11186981033562,1
177,584,65,0.0998429602072294,1
178,583,65,0.120617238257238,1
178,584,65,0.136231987166751,1
178,585,65,0.104866589289758,1
179,583,65,0.100042877950407,1
179,584,65,0.108396701135362,1
197,569,65,0.106115037634076,1
197,570,65,0.106671360795387,1
198,569,65,0.117023021583072,1
198,570,65,0.116628523627048,1
199,567,65,0.103619807562053,1
199,568,65,0.114565796905587,1
199,569,65,0.143686371133493,1
199,570,65,0.127475322049785,1
200,566,65,0.135468262826881,1
200,567,65,0.126249683477941,1
200,568,65,0.150409132192782,1
200,569,65,0.195404774309467,1
200,570,65,0.148512195699139,1
201,566,65,0.146348458939401,1
201,567,65,0.152084877072359,1
201,568,65,0.165598850294197,1
201,569,65,0.1808200816104,1
201,570,65,0.127445497237449,1
202,567,65,0.167400626247089,1
202,568,65,0.162199104903686,1
202,569,65,0.137136339091453,1
203,567,65,0.12605300093172,1
203,568,65,0.125341900283741,1
203,569,65,0.10560039078102,1
220,576,65,0.109521700028178,1
221,576,65,0.104611117659467,1
172,588,66,0.107977007857595,1
172,589,66,0.115884504577725,1
172,590,66,0.121631695807616,1
172,591,66,0.11695857907402,1
172,592,66,0.111788353087024,1
172,593,66,0.108662139786577,1
172,594,66,0.101669778981,1
173,588,66,0.12984534891034,1
173,589,66,0.135638954868269,1
173,590,66,0.132021656098652,1
173,591,66,0.127636667966635,1
173,592,66,0.122297569055732,1
173,593,66,0.11572015221522,1
173,594,66,0.101715834242709,1
174,586,66,0.107403190668302,1
174,587,66,0.127290589035753,1
174,588,66,0.152963739566503,1
174,589,66,0.143546854626404,1
174,590,66,0.125226838379901,1
174,591,66,0.121103432805757,1
174,592,66,0.119487206835825,1
174,593,66,0.111788570945405,1
175,586,66,0.138235380158191,1
175,587,66,0.145483680989579,1
175,588,66,0.146244398883793,1
175,589,66,0.127981712070208,1
175,590,66,0.109458847885306,1
175,591,66,0.106101563093221,1
175,592,66,0.0999151584746396,1
175,596,66,0.103291810876781,1
176,585,66,0.101241131723779,1
176,586,66,0.129494063164156,1
176,587,66,0.123229164170958,1
176,588,66,0.110050180888418,1
177,584,66,0.10563529169363,1
177,585,66,0.101734319526323,1
177,586,66,0.100318860947254,1
178,583,66,0.122199369390569,1
178,584,66,0.140917347541351,1
178,585,66,0.107991234009864,1
179,583,66,0.103076664832783,1
179,584,66,0.110413165629653,1
197,569,66,0.104237610358437,1
197,570,66,0.114865678966812,1
198,569,66,0.11212608804192,1
198,570,66,0.120025164535632,1
199,568,66,0.103340872584146,1
199,569,66,0.130088914580118,1
199,570,66,0.124024401725616,1
200,567,66,0.116371842882744,1
200,568,66,0.139818458975479,1
200,569,66,0.168989293131845,1
200,570,66,0.133253481848513,1
201,567,66,0.14289346466351,1
201,568,66,0.159741716832415,1
201,569,66,0.161906216096486,1
201,570,66,0.116542295279912,1
202,567,66,0.154200576059122,1
202,568,66,0.151079319036839,1
202,569,66,0.127486803186456,1
203,567,66,0.120743410938501,1
203,568,66,0.12044905158723,1
203,569,66,0.102721882459586,1
220,576,66,0.115531127391085,1
220,577,66,0.109515708922705,1
221,576,66,0.101325617203869,1
221,577,66,0.100091678227715,1
172,588,67,0.11147675024491,1
172,589,67,0.123088525693207,1
172,590,67,0.125698752311556,1
172,591,67,0.117370440342996,1
172,592,67,0.105094066118111,1
172,593,67,0.103141074663078,1
173,588,67,0.129685538895075,1
173,589,67,0.136203970578975,1
173,590,67,0.13109105223906,1
173,591,67,0.125862647171461,1
173,592,67,0.116585082665909,1
173,593,67,0.106513816507283,1
174,586,67,0.104746963252839,1
174,587,67,0.120373182406103,1
174,588,67,0.151184849636517,1
174,589,67,0.144941790945998,1
174,590,67,0.12217092797895,1
174,591,67,0.120616486645824,1
174,592,67,0.124768954527972,1
174,593,67,0.111367570517353,1
175,585,67,0.102892716108921,1
175,586,67,0.136235157006192,1
175,587,67,0.141537862674576,1
175,588,67,0.14605057028236,1
175,589,67,0.126949912992716,1
175,590,67,0.103633761391346,1
175,591,67,0.107216072105,1
175,592,67,0.112556238521968,1
176,585,67,0.112091394094772,1
176,586,67,0.141373031023633,1
176,587,67,0.134652296047286,1
176,588,67,0.116610637453981,1
177,584,67,0.107264752560198,1
177,585,67,0.109790678878081,1
177,586,67,0.107890518080402,1
178,582,67,0.106173935647336,1
178,583,67,0.121566458115474,1
178,584,67,0.137376037774971,1
178,585,67,0.111572106858203,1
179,581,67,0.112473114656759,1
179,582,67,0.121516873547995,1
179,583,67,0.110884197234866,1
179,584,67,0.112200018283458,1
180,580,67,0.111950210971069,1
180,581,67,0.101136287378,1
193,570,67,0.102324421629583,1
196,570,67,0.104467276663518,1
196,571,67,0.108885096053528,1
197,569,67,0.104683773429477,1
197,570,67,0.12644264064585,1
197,571,67,0.111249763597914,1
198,569,67,0.118241296541644,1
198,570,67,0.134161983975369,1
198,571,67,0.106580274206358,1
199,568,67,0.106908205534117,1
199,569,67,0.128955473675045,1
199,570,67,0.132695644571455,1
199,571,67,0.103747712217444,1
200,567,67,0.120691451714671,1
200,568,67,0.138024536817215,1
200,569,67,0.150190522200529,1
200,570,67,0.129224387167434,1
201,567,67,0.142795602678837,1
201,568,67,0.159359048586471,1
201,569,67,0.153550911474541,1
201,570,67,0.116725176497708,1
202,567,67,0.143437533290899,1
202,568,67,0.146115034577251,1
202,569,67,0.132250472756048,1
202,570,67,0.103827698921969,1
203,567,67,0.116376581302527,1
203,568,67,0.119233652359286,1
203,569,67,0.111031556643665,1
204,568,67,0.104353293158663,1
219,576,67,0.102466487079729,1
220,576,67,0.119362123446467,1
220,577,67,0.11370812113898,1
221,577,67,0.100718053751384,1
172,590,68,0.135962627064682,1
172,591,68,0.119375554415645,1
172,592,68,0.103066414595965,1
173,587,68,0.106350891117173,1
173,588,68,0.132282890083117,1
173,589,68,0.147940437271545,1
173,590,68,0.138568376693304,1
173,591,68,0.125381615866568,1
173,592,68,0.113694069273416,1
174,586,68,0.110432173773381,1
174,587,68,0.125127887103324,1
174,588,68,0.149237446248953,1
174,589,68,0.148561584194075,1
174,590,68,0.127625785940512,1
174,591,68,0.123420334900144,1
174,592,68,0.128780947326155,1
174,593,68,0.109517419110995,1
175,585,68,0.111116869985602,1
175,586,68,0.137131164954908,1
175,587,68,0.148469942066175,1
175,588,68,0.152594328003033,1
175,589,68,0.128604917754437,1
175,590,68,0.104237457857571,1
175,591,68,0.107670197899859,1
175,592,68,0.120356233024074,1
175,593,68,0.103120007757651,1
176,585,68,0.127120692177455,1
176,586,68,0.150791266685693,1
176,587,68,0.151647134227739,1
176,588,68,0.132978141533889,1
177,584,68,0.113782454418522,1
177,585,68,0.126064623676337,1
177,586,68,0.119593783155732,1
177,587,68,0.106409211805723,1
178,582,68,0.108395513807187,1
178,583,68,0.118257200203445,1
178,584,68,0.128272705509495,1
178,585,68,0.114526222930707,1
179,581,68,0.121557613065212,1
179,582,68,0.133718620384523,1
179,583,68,0.115353638168215,1
179,584,68,0.106935470510479,1
180,580,68,0.115809474151364,1
180,581,68,0.117905707491799,1
180,582,68,0.10001100526929,1
183,576,68,0.100003195046337,1
191,571,68,0.101051453324502,1
191,572,68,0.10467009192316,1
191,573,68,0.102494961170104,1
192,569,68,0.105207199975281,1
192,570,68,0.114205491822436,1
192,571,68,0.107401436908337,1
192,572,68,0.108087875987604,1
192,573,68,0.102182388858195,1
193,569,68,0.123658933398839,1
193,570,68,0.120445260851404,1
194,569,68,0.103428789333733,1
196,570,68,0.114610120193168,1
196,571,68,0.124064226237634,1
196,572,68,0.106053209425594,1
197,569,68,0.107841924768555,1
197,570,68,0.136937423496828,1
197,571,68,0.12367654724893,1
198,569,68,0.128020131395669,1
198,570,68,0.148895092696383,1
198,571,68,0.116837798387683,1
199,567,68,0.101571394136213,1
199,568,68,0.115405161675284,1
199,569,68,0.137322945687561,1
199,570,68,0.145696909879825,1
199,571,68,0.113095536050817,1
200,567,68,0.127841770739276,1
200,568,68,0.139879067177028,1
200,569,68,0.142559553123198,1
200,570,68,0.131556386847613,1
200,571,68,0.105477191866655,1
201,567,68,0.145419761340641,1
201,568,68,0.156750401441383,1
201,569,68,0.149849704549544,1
201,570,68,0.12508142880361,1
201,571,68,0.10069297825175,1
202,567,68,0.137648415215615,1
202,568,68,0.142815874401174,1
202,569,68,0.141975213374111,1
202,570,68,0.12367779993462,1
203,568,68,0.119118525097931,1
203,569,68,0.120554919867399,1
203,570,68,0.111057688756447,1
204,568,68,0.108275735269401,1
204,569,68,0.100691366099732,1
219,576,68,0.104881839376417,1
220,577,68,0.101725855728228,1
172,589,69,0.151696620758947,1
172,590,69,0.140558186214699,1
172,591,69,0.118710879388624,1
172,592,69,0.106067740579596,1
173,587,69,0.108708913980943,1
173,588,69,0.128343444125754,1
173,589,69,0.152162826801024,1
173,590,69,0.141253252485848,1
173,591,69,0.121694264734593,1
173,592,69,0.113107169688354,1
174,586,69,0.105562200206859,1
174,587,69,0.124404738886885,1
174,588,69,0.13599550189435,1
174,589,69,0.140070891481357,1
174,590,69,0.130039471620587,1
174,591,69,0.122747239646703,1
174,592,69,0.128177109251983,1
174,593,69,0.107520344012599,1
175,585,69,0.112964962630261,1
175,586,69,0.126629595815368,1
175,587,69,0.149503168116062,1
175,588,69,0.150213266615489,1
175,589,69,0.123546333294703,1
175,590,69,0.105649408916709,1
175,591,69,0.103659348858176,1
175,592,69,0.117849064312781,1
175,593,69,0.103774171117797,1
176,584,69,0.104330265527808,1
176,585,69,0.132820412066161,1
176,586,69,0.140766524184296,1
176,587,69,0.156598445220748,1
176,588,69,0.145544474370752,1
176,589,69,0.100772376738647,1
177,584,69,0.117752814480126,1
177,585,69,0.13713727588249,1
177,586,69,0.121835121070725,1
177,587,69,0.113817758369137,1
177,588,69,0.0998605849502393,1
178,583,69,0.105655356450505,1
178,584,69,0.113410973200434,1
178,585,69,0.112822341641245,1
179,581,69,0.117836047274526,1
179,582,69,0.128844856082174,1
179,583,69,0.110068502778246,1
180,580,69,0.103226987115562,1
180,581,69,0.124484213624215,1
180,582,69,0.112727083064223,1
187,573,69,0.101352729679364,1
187,574,69,0.106725160922535,1
190,569,69,0.100636476680679,1
191,569,69,0.106302330484084,1
191,570,69,0.113215837448716,1
191,571,69,0.105196459557106,1
191,572,69,0.104755285442987,1
191,573,69,0.102801335411078,1
192,568,69,0.102302886328637,1
192,569,69,0.128164941861413,1
192,570,69,0.128390980824453,1
192,571,69,0.112203612946742,1
192,572,69,0.109288068700566,1
193,568,69,0.117636042387996,1
193,569,69,0.143273126463798,1
193,570,69,0.128015360297129,1
193,571,69,0.108297880573814,1
193,572,69,0.104458943580451,1
194,568,69,0.116926107282356,1
194,569,69,0.119212857776835,1
194,570,69,0.102984249307631,1
194,572,69,0.100209790148887,1
195,568,69,0.101465612999396,1
195,570,69,0.102549382193638,1
195,571,69,0.114553760230045,1
195,572,69,0.114842270083791,1
196,569,69,0.101620826202825,1
196,570,69,0.126685432918377,1
196,571,69,0.137581685193564,1
196,572,69,0.122650379810582,1
197,569,69,0.114447118552624,1
197,570,69,0.142611294488647,1
197,571,69,0.132674414272242,1
197,572,69,0.10251923059373,1
198,568,69,0.106923019904014,1
198,569,69,0.134737968855551,1
198,570,69,0.154835001449964,1
198,571,69,0.123962126907453,1
199,567,69,0.113905370116991,1
199,568,69,0.12578046009729,1
199,569,69,0.148125704038611,1
199,570,69,0.153188024769577,1
199,571,69,0.118069123063267,1
200,568,69,0.142675170565909,1
200,569,69,0.143200252835408,1
200,570,69,0.134189662882655,1
200,571,69,0.107821827332923,1
201,568,69,0.149584984830986,1
201,569,69,0.145514377235439,1
201,570,69,0.132971213637378,1
201,571,69,0.105624202702045,1
202,568,69,0.138897114097072,1
202,569,69,0.146557744592954,1
202,570,69,0.14013759971757,1
202,571,69,0.10835090730371,1
203,569,69,0.127033908291448,1
203,570,69,0.122320542221992,1
203,571,69,0.100361572082817,1
204,569,69,0.105676848179775,1
204,570,69,0.0998951263965214,1
205,572,69,0.101041072372655,1
173,589,70,0.145178101931695,1
173,590,70,0.139133011151844,1
173,591,70,0.123340664090271,1
173,592,70,0.114719060276507,1
174,586,70,0.103917598182822,1
174,587,70,0.121207503754284,1
174,588,70,0.127251690421854,1
174,589,70,0.130022260808501,1
174,590,70,0.128338041237909,1
174,591,70,0.124116065639354,1
174,592,70,0.124027495314624,1
174,593,70,0.105598037910507,1
175,585,70,0.115117697541766,1
175,586,70,0.122478783656914,1
175,587,70,0.144990329793249,1
175,588,70,0.144191606504498,1
175,589,70,0.119987485928665,1
175,590,70,0.107151553345514,1
175,591,70,0.105045908523027,1
175,592,70,0.113718883342993,1
175,593,70,0.103793941765858,1
176,584,70,0.114989270026262,1
176,585,70,0.135751184613158,1
176,586,70,0.135211756369281,1
176,587,70,0.152710838665106,1
176,588,70,0.147723178001254,1
176,589,70,0.106572191660429,1
177,584,70,0.121796963175321,1
177,585,70,0.1413538485932,1
177,586,70,0.125882831750446,1
177,587,70,0.120520520029065,1
177,588,70,0.109923082309036,1
178,584,70,0.105289201869829,1
178,585,70,0.110472640967622,1
179,581,70,0.112002202873656,1
179,582,70,0.121603254395998,1
179,583,70,0.106065093600269,1
180,581,70,0.124720644432021,1
180,582,70,0.122929554432709,1
186,573,70,0.105242732677196,1
186,574,70,0.114519632714687,1
186,575,70,0.105574781528352,1
187,572,70,0.103128231911528,1
187,573,70,0.113729863405387,1
187,574,70,0.125072224287019,1
187,575,70,0.10263895466692,1
188,573,70,0.100835457632819,1
188,574,70,0.103480323733721,1
190,570,70,0.110817739535791,1
190,571,70,0.101478924146465,1
191,569,70,0.124428877595482,1
191,570,70,0.127973008627894,1
191,571,70,0.111033462904498,1
191,572,70,0.101962482608576,1
192,569,70,0.143417152639371,1
192,570,70,0.137892166065017,1
192,571,70,0.117102670607107,1
192,572,70,0.106415300947468,1
193,569,70,0.149648773764896,1
193,570,70,0.133090164313316,1
193,571,70,0.117919421676873,1
193,572,70,0.111035423629925,1
194,569,70,0.131253487447813,1
194,570,70,0.118689169800973,1
194,571,70,0.118184184967107,1
194,572,70,0.115702516579291,1
195,569,70,0.116697345089555,1
195,570,70,0.123207302082441,1
195,571,70,0.13495515187541,1
195,572,70,0.130861974151607,1
196,568,70,0.109209193073783,1
196,569,70,0.117192155937037,1
196,570,70,0.138581066943988,1
196,571,70,0.149808355028861,1
196,572,70,0.136176160956661,1
197,568,70,0.109703960349588,1
197,569,70,0.123319237718516,1
197,570,70,0.14532085363574,1
197,571,70,0.142486744852321,1
197,572,70,0.11897562089302,1
198,568,70,0.117482626516209,1
198,569,70,0.137335766653273,1
198,570,70,0.150638471710292,1
198,571,70,0.129871513701879,1
198,572,70,0.100739839589468,1
199,568,70,0.132606584065368,1
199,569,70,0.147808665629895,1
199,570,70,0.147473566761407,1
199,571,70,0.120594188840546,1
200,569,70,0.137976379222131,1
200,570,70,0.130696674105145,1
200,571,70,0.110908161656758,1
201,569,70,0.134855688631637,1
201,570,70,0.131966189354891,1
201,571,70,0.111464277852607,1
202,569,70,0.139681023015926,1
202,570,70,0.141382529649038,1
202,571,70,0.11639496854987,1
203,570,70,0.127188892743577,1
203,571,70,0.112941640890592,1
203,572,70,0.106961395657798,1
204,570,70,0.106269662619877,1
204,571,70,0.105811778767948,1
204,572,70,0.114825658382252,1
204,573,70,0.101037172707638,1
205,572,70,0.111521073532492,1
205,573,70,0.103873351145674,1
206,573,70,0.101201732035605,1
207,573,70,0.105829457975553,1
207,574,70,0.101800363294475,1
208,573,70,0.100506240940613,1
208,574,70,0.101530959620729,1
