x,y,z,signal,mito.p
1,441,1,0.229557256238374,1
1,442,1,0.268016580498092,1
1,443,1,0.229240947655233,1
2,440,1,0.192448218223098,1
2,441,1,0.28002059906817,1
2,442,1,0.354725240006489,2
2,443,1,0.30935455468719,2
2,444,1,0.208680846179428,1
3,423,1,0.232673241087841,1
3,440,1,0.228797453349359,1
3,441,1,0.303697186467719,2
3,442,1,0.381861963139717,2
3,443,1,0.348392009732141,2
3,444,1,0.236635910748602,1
4,422,1,0.249125296005352,3
4,423,1,0.284476521888989,3
4,424,1,0.240216195379313,3
4,429,1,0.149914473846168,1
4,430,1,0.144014694606337,1
4,439,1,0.246868283179858,1
4,440,1,0.285228699734675,1
4,441,1,0.30713285670523,2
4,442,1,0.3477189144787,2
4,443,1,0.331122528383883,2
4,444,1,0.243935517228677,1
5,421,1,0.178523952312626,1
5,422,1,0.281532122300271,3
5,423,1,0.407613477330055,3
5,424,1,0.357523892338426,3
5,425,1,0.243440020127296,3
5,426,1,0.184254662556006,1
5,428,1,0.156606255443701,1
5,429,1,0.164337973129252,1
5,430,1,0.1586708339614,1
5,431,1,0.144350196512829,1
5,438,1,0.276747952257042,1
5,439,1,0.30639926217943,4
5,440,1,0.296165865813784,4
5,441,1,0.275083209225697,1
5,442,1,0.300724552432844,2
5,443,1,0.318835468205418,1
5,444,1,0.258350247711932,1
6,422,1,0.233211917720304,3
6,423,1,0.374139362827405,3
6,424,1,0.362942095627412,3
6,425,1,0.272134212825143,3
6,426,1,0.215819586031091,1
6,427,1,0.188770245894418,1
6,428,1,0.168682494067028,1
6,429,1,0.166728794572257,1
6,430,1,0.164871617233117,1
6,431,1,0.15707175344604,1
6,434,1,0.212115884627634,1
6,435,1,0.244691572953541,4
6,436,1,0.239075445325563,1
6,437,1,0.25500679692703,1
6,438,1,0.28108381332418,1
6,439,1,0.275820398414781,1
6,440,1,0.260030110114907,1
6,441,1,0.24632522759394,1
6,442,1,0.281158604106322,1
6,443,1,0.32179688253368,1
7,423,1,0.206990286929953,3
7,424,1,0.227597010099259,3
7,425,1,0.208840993875182,1
7,429,1,0.158329493450301,1
7,430,1,0.17406026284053,1
7,435,1,0.299334986322338,4
7,436,1,0.298192972689979,1
1,440,2,0.163868226888486,1
1,441,2,0.21642470946971,1
1,442,2,0.257592841265106,2
1,443,2,0.222924753906267,2
1,444,2,0.165312780454317,1
2,423,2,0.245058707896931,1
2,439,2,0.117359318672654,1
2,440,2,0.169261223962809,1
2,441,2,0.255242519695098,2
2,442,2,0.360636369667962,2
2,443,2,0.318360950866112,2
2,444,2,0.201012144030535,2
3,422,2,0.244500554725221,3
3,423,2,0.248631650700209,3
3,424,2,0.212558376784956,1
3,429,2,0.132734281755297,1
3,430,2,0.122821474889974,1
3,439,2,0.157372299975327,1
3,440,2,0.215112918801163,2
3,441,2,0.294212286141122,2
3,442,2,0.417175412380117,2
3,443,2,0.384066864240515,2
3,444,2,0.236823290741961,2
3,445,2,0.180547573454727,1
4,421,2,0.267572192972856,3
4,422,2,0.295419134427619,3
4,423,2,0.305808452036432,3
4,424,2,0.246270218352778,3
4,425,2,0.189600613112986,3
4,426,2,0.169376100687025,1
4,428,2,0.146128106080101,1
4,429,2,0.15100221895586,1
4,430,2,0.150159455595421,1
4,431,2,0.130812356905371,1
4,438,2,0.195866176574246,1
4,439,2,0.246188521459963,4
4,440,2,0.285733673675622,2
4,441,2,0.30025365154266,2
4,442,2,0.348339244432302,2
4,443,2,0.322285996384502,2
4,444,2,0.217633148122387,2
4,445,2,0.173171803684711,1
5,421,2,0.230006741649721,3
5,422,2,0.325178502106904,3
5,423,2,0.457172424663474,3
5,424,2,0.407316928502057,3
5,425,2,0.292780934793171,3
5,426,2,0.218493078723235,3
5,427,2,0.173570430057051,1
5,428,2,0.153324916083177,1
5,429,2,0.167005757931818,1
5,430,2,0.167046410305683,1
5,431,2,0.145041330440204,1
5,432,2,0.129018086173698,1
5,434,2,0.166272806088242,1
5,435,2,0.193946277807262,4
5,436,2,0.189897379799365,1
5,437,2,0.230041119702218,1
5,438,2,0.309055609417003,4
5,439,2,0.318769762117757,4
5,440,2,0.301539582421402,4
5,441,2,0.262837999642191,2
5,442,2,0.269811058195226,2
5,443,2,0.279677254259968,2
5,444,2,0.217661752927791,1
6,421,2,0.169372647631689,1
6,422,2,0.247564776423401,3
6,423,2,0.422600303921394,3
6,424,2,0.458871676462343,3
6,425,2,0.370482609905019,3
6,426,2,0.277343707785285,3
6,427,2,0.222037460292785,1
6,428,2,0.177962934303208,1
6,429,2,0.166178048585496,1
6,430,2,0.164875941721977,1
6,431,2,0.157934636027949,1
6,432,2,0.152259599493792,1
6,433,2,0.165911182961887,1
6,434,2,0.241706673491825,4
6,435,2,0.307600250075482,4
6,436,2,0.283102118721789,4
6,437,2,0.276222761058353,4
6,438,2,0.298297174353534,1
6,439,2,0.288536683175175,4
6,440,2,0.291253006824993,4
6,441,2,0.260524648639412,1
6,442,2,0.269531872680181,1
6,443,2,0.308652418911584,1
7,422,2,0.156024475530589,1
7,423,2,0.22289277229596,3
7,424,2,0.284139211757936,3
7,425,2,0.280159244141737,3
7,426,2,0.245635422602689,1
7,427,2,0.221113653614674,1
7,428,2,0.17753278382316,1
7,429,2,0.160104124248941,1
7,430,2,0.173263271525906,1
7,431,2,0.178406918790439,1
7,434,2,0.266835875217295,4
7,435,2,0.373416726578161,4
7,436,2,0.352161591509964,4
7,437,2,0.271128709254218,1
7,438,2,0.213758972535923,1
7,439,2,0.198390305560487,1
7,440,2,0.219628273388274,1
1,423,3,0.190787570929313,1
1,441,3,0.182361865371599,1
1,442,3,0.220062530498801,2
1,443,3,0.198495640087623,2
2,422,3,0.229621960177483,1
2,423,3,0.250818273482854,1
2,424,3,0.220871765454428,1
2,440,3,0.151628834123749,1
2,441,3,0.231197337701008,2
2,442,3,0.348154260881131,2
2,443,3,0.317775282180902,2
2,444,3,0.192520808635593,2
3,421,3,0.24774932425781,3
3,422,3,0.275443764845986,3
3,423,3,0.273356507270842,3
3,424,3,0.226522053276522,3
3,425,3,0.171849272597988,1
3,429,3,0.12297092573923,1
3,430,3,0.112023542102059,1
3,440,3,0.205708212144553,1
3,441,3,0.287118294400884,2
3,442,3,0.428136172521871,2
3,443,3,0.397433216623495,2
3,444,3,0.227134431399223,2
3,445,3,0.175874315113183,1
4,420,3,0.207280234649012,3
4,421,3,0.32699319706178,3
4,422,3,0.36353767686895,3
4,423,3,0.337560548539415,3
4,424,3,0.267321721192405,3
4,425,3,0.213012262935597,3
4,426,3,0.187186415465716,1
4,428,3,0.140745740494764,1
4,429,3,0.148353986942973,1
4,430,3,0.152629348737753,1
4,431,3,0.130558388497908,1
4,439,3,0.241226840408026,4
4,440,3,0.274691804858681,4
4,441,3,0.285889050272836,2
4,442,3,0.324612571390998,2
4,443,3,0.292659587675043,2
4,444,3,0.186557371176881,2
5,421,3,0.280390500812997,3
5,422,3,0.361956155739086,3
5,423,3,0.444533762844172,3
5,424,3,0.430922711927833,3
5,425,3,0.346502197207551,3
5,426,3,0.250042523360361,3
5,427,3,0.180390878814308,1
5,428,3,0.148029987958989,1
5,429,3,0.16475641372133,1
5,430,3,0.169365970272316,1
5,431,3,0.146107093639269,1
5,432,3,0.125650551144795,1
5,434,3,0.175067258741364,1
5,435,3,0.224765831511063,4
5,436,3,0.218618194791351,4
5,437,3,0.234881126848456,4
5,438,3,0.312470016676543,4
5,439,3,0.316495124549252,4
5,440,3,0.298937264062278,4
5,441,3,0.252729414342928,4
5,442,3,0.228124554168461,2
5,443,3,0.221510700513754,2
6,421,3,0.194740633035478,1
6,422,3,0.252525455326786,3
6,423,3,0.410175012600286,3
6,424,3,0.52722243415181,3
6,425,3,0.469159167063952,3
6,426,3,0.328982505508899,3
6,427,3,0.245632198298652,3
6,428,3,0.183537135085793,1
6,429,3,0.162468857150842,1
6,430,3,0.161708662116741,1
6,431,3,0.163762957718865,1
6,432,3,0.159032206550617,1
6,433,3,0.171300465550816,1
6,434,3,0.259384116444042,4
6,435,3,0.363048933377375,4
6,436,3,0.33842313701251,4
6,437,3,0.288547227520808,4
6,438,3,0.293200050746229,4
6,439,3,0.30047832889082,4
6,440,3,0.328934663808467,4
6,441,3,0.278727478862861,4
6,442,3,0.235870073182438,1
7,422,3,0.171788108857567,1
7,423,3,0.230597900366129,3
7,424,3,0.340511571022911,3
7,425,3,0.356357500353251,3
7,426,3,0.297423191887121,3
7,427,3,0.261732542646137,1
7,428,3,0.201026566255346,1
7,429,3,0.165675460193819,1
7,430,3,0.176211799530941,1
7,431,3,0.193079288594874,1
7,433,3,0.191684363168199,1
7,434,3,0.283171375901058,4
7,435,3,0.409901121043895,4
7,436,3,0.386019528907977,4
7,437,3,0.282066202120898,4
7,438,3,0.21102918523817,1
7,439,3,0.210477371745342,4
7,440,3,0.253804392951503,4
1,423,4,0.201916387026046,1
1,441,4,0.14457781494913,1
1,442,4,0.182434096317766,1
1,443,4,0.17829467815263,1
2,420,4,0.228613885877664,1
2,421,4,0.256699948691237,3
2,422,4,0.250631002418684,3
2,423,4,0.25303228106397,3
2,424,4,0.226382297125214,1
2,440,4,0.129236042590809,1
2,441,4,0.194337290029192,1
2,442,4,0.303702284353831,2
2,443,4,0.29470281607142,2
2,444,4,0.184451530281851,1
3,420,4,0.20977233845327,3
3,421,4,0.285365384082813,3
3,422,4,0.320858435772376,3
3,423,4,0.317843733284161,3
3,424,4,0.26762718042818,3
3,425,4,0.205463295752813,1
3,429,4,0.121867723577417,1
3,430,4,0.109126831712907,1
3,440,4,0.186027692095547,1
3,441,4,0.26304585832335,2
3,442,4,0.399641821316767,2
3,443,4,0.382653094063897,2
3,444,4,0.221193259067033,2
4,420,4,0.238315076004758,3
4,421,4,0.377106332544378,3
4,422,4,0.440002700667802,3
4,423,4,0.405968428696338,3
4,424,4,0.336691729316628,3
4,425,4,0.272479147999526,3
4,426,4,0.213219947330051,3
4,428,4,0.142224650327253,1
4,429,4,0.150761017049514,1
4,430,4,0.157639448814831,1
4,431,4,0.132757287600313,1
4,432,4,0.104013205333254,1
4,440,4,0.242844133884024,1
4,441,4,0.260718455455006,2
4,442,4,0.297735470090216,2
4,443,4,0.272362201620691,2
4,444,4,0.176828807144235,1
5,420,4,0.210839539517649,3
5,421,4,0.321829190931558,3
5,422,4,0.394774080798648,3
5,423,4,0.43288134591493,3
5,424,4,0.459383905087373,3
5,425,4,0.404386166847979,3
5,426,4,0.27831226257482,3
5,427,4,0.188880787236855,3
5,428,4,0.151703842764272,1
5,429,4,0.16932181037852,1
5,430,4,0.180363439551242,1
5,431,4,0.156370859463204,1
5,432,4,0.128985331166139,1
5,434,4,0.179441038059687,1
5,435,4,0.24830712885611,4
5,436,4,0.253196088780523,4
5,437,4,0.241266163845768,4
5,438,4,0.290984104225523,4
5,439,4,0.289053944328802,4
5,440,4,0.281378401426751,4
5,441,4,0.242172607210926,1
5,442,4,0.207380514861712,2
5,443,4,0.190714762658436,1
6,421,4,0.220048652919942,3
6,422,4,0.255498546864261,3
6,423,4,0.378422763596437,3
6,424,4,0.560319958657342,3
6,425,4,0.544113647993417,3
6,426,4,0.375210528914315,3
6,427,4,0.272974862959287,3
6,428,4,0.202354500229914,1
6,429,4,0.17382001951106,1
6,430,4,0.174645125449731,1
6,431,4,0.181664337300747,1
6,432,4,0.174272751012282,1
6,433,4,0.17897290397094,1
6,434,4,0.270453021486045,4
6,435,4,0.410650989590744,4
6,436,4,0.413403630232647,4
6,437,4,0.321951191624828,4
6,438,4,0.293092777279504,4
6,439,4,0.31363104934555,4
6,440,4,0.357561930411721,4
6,441,4,0.291521582636892,4
7,422,4,0.191073989342602,1
7,423,4,0.231719740312422,3
7,424,4,0.376293764355524,3
7,425,4,0.414098729182553,3
7,426,4,0.350269295399833,3
7,427,4,0.317704151419558,3
7,428,4,0.25307003592137,1
7,429,4,0.196063861269019,1
7,430,4,0.194700198519994,1
7,431,4,0.222523306267894,1
7,432,4,0.222443069026231,1
7,433,4,0.215882939248239,1
7,434,4,0.296174166218094,4
7,435,4,0.432699782740338,4
7,436,4,0.433291398959345,4
7,437,4,0.316815637799143,4
7,438,4,0.232722063150987,4
7,439,4,0.239649676445779,4
7,440,4,0.285882100590488,4
1,420,5,0.278541122803891,1
1,421,5,0.288188131551671,3
1,422,5,0.24189013203433,1
1,423,5,0.208710910635983,1
1,424,5,0.193846106523752,1
1,428,5,0.146690224274343,1
1,429,5,0.138901166262955,1
1,442,5,0.149211118063628,1
1,443,5,0.16367159880686,1
2,419,5,0.207269603160027,1
2,420,5,0.286243309785919,3
2,421,5,0.309555855831086,3
2,422,5,0.264759793777088,3
2,423,5,0.242581113460837,3
2,424,5,0.225123467829048,3
2,425,5,0.189719650932277,1
2,428,5,0.149593775416653,1
2,429,5,0.126964912542236,1
2,430,5,0.102053645448038,1
2,441,5,0.154586109142774,1
2,442,5,0.238055519529826,2
2,443,5,0.249577461074784,1
2,444,5,0.172113752672327,1
3,420,5,0.275384638081426,3
3,421,5,0.330066350953574,3
3,422,5,0.344101484994055,3
3,423,5,0.345558935776032,3
3,424,5,0.31212179184061,3
3,425,5,0.250745617712844,3
3,426,5,0.202490509217072,1
3,428,5,0.158557100993683,1
3,429,5,0.134349374861648,1
3,430,5,0.12088975730583,1
3,431,5,0.10407055655201,1
3,441,5,0.223064510057575,2
3,442,5,0.325634523269677,2
3,443,5,0.324871605005816,2
3,444,5,0.208448652717129,1
4,419,5,0.208137964880214,3
4,420,5,0.297589613904244,3
4,421,5,0.404907196951594,3
4,422,5,0.476769352451751,3
4,423,5,0.468750072596412,3
4,424,5,0.428521389710871,3
4,425,5,0.35275139950441,3
4,426,5,0.241309212661822,3
4,427,5,0.180703374875784,1
4,428,5,0.15903229369397,1
4,429,5,0.161827536542246,1
4,430,5,0.168113034045353,1
4,431,5,0.14086095489947,1
4,432,5,0.106907519280217,1
4,435,5,0.13088889055456,1
4,436,5,0.136842066883534,1
4,441,5,0.23072227571575,1
4,442,5,0.259343812643587,2
4,443,5,0.244135750866506,1
5,420,5,0.281558504950191,3
5,421,5,0.352702424940397,3
5,422,5,0.405230324502055,3
5,423,5,0.420570560958791,3
5,424,5,0.474330558593285,3
5,425,5,0.445551466484424,3
5,426,5,0.297379925212687,3
5,427,5,0.199481078901673,3
5,428,5,0.169796022716093,1
5,429,5,0.179710768521004,1
5,430,5,0.197550396144838,1
5,431,5,0.174685091569696,1
5,432,5,0.139354398838453,1
5,434,5,0.17689765039258,1
5,435,5,0.247037602713446,4
5,436,5,0.267814538635701,4
5,437,5,0.243799246811462,4
5,438,5,0.256206869817883,4
5,439,5,0.252897753513802,4
5,440,5,0.250006685656713,4
6,420,5,0.247230930240603,3
6,421,5,0.249159499771144,3
6,422,5,0.260558416688442,3
6,423,5,0.342483080440315,3
6,424,5,0.536360503936111,3
6,425,5,0.571492259286891,3
6,426,5,0.40698181874065,3
6,427,5,0.289865641084133,3
6,428,5,0.222028244883275,3
6,429,5,0.187514553758936,1
6,430,5,0.19287820530936,1
6,431,5,0.20536168660399,1
6,432,5,0.194513864246863,1
6,433,5,0.184533357889695,1
6,434,5,0.259740728827638,4
6,435,5,0.414720453429792,4
6,436,5,0.461523056528833,4
6,437,5,0.35498514505483,4
6,438,5,0.310640289493389,4
6,439,5,0.344524195610398,4
6,440,5,0.363679764104933,4
6,441,5,0.282361770586183,4
7,420,5,0.364684243741469,3
7,422,5,0.211525314128855,1
7,423,5,0.241043381865522,3
7,424,5,0.390073524801985,3
7,425,5,0.44794899796556,3
7,426,5,0.395919493021748,3
7,427,5,0.366522140613904,3
7,428,5,0.304037677331133,3
7,429,5,0.220373022263173,1
7,430,5,0.204972874751706,1
7,431,5,0.248391091476086,1
7,432,5,0.258870733169595,1
7,433,5,0.241469491072605,1
7,434,5,0.291240458182257,4
7,435,5,0.426458924419466,4
7,436,5,0.471423892076128,4
7,437,5,0.358044464939441,4
7,438,5,0.291277690179542,4
7,439,5,0.316001283171566,4
7,440,5,0.32783219147223,4
7,441,5,0.268285112738314,1
1,419,6,0.237115939904943,1
1,420,6,0.284594818989785,3
1,421,6,0.318196075643493,3
1,422,6,0.262818828104677,1
1,423,6,0.199147319862227,1
1,424,6,0.191152963005656,1
1,426,6,0.151716293370736,1
1,427,6,0.130824458938427,1
1,428,6,0.120436023656056,1
1,429,6,0.113438608536043,1
1,442,6,0.123402143725344,1
1,443,6,0.153038323383183,1
1,444,6,0.132553818765528,1
2,419,6,0.237207963285009,3
2,420,6,0.327593592973535,3
2,421,6,0.349226668760812,3
2,422,6,0.271583880769305,3
2,423,6,0.221527606324107,3
2,424,6,0.212594083773576,3
2,425,6,0.192441355684101,1
2,426,6,0.167412826316416,1
2,427,6,0.154261565512838,1
2,428,6,0.136252149959898,1
2,429,6,0.119877282266718,1
2,441,6,0.12366778934202,1
2,442,6,0.182002540651162,1
2,443,6,0.207466459992954,1
3,419,6,0.234776903399063,3
3,420,6,0.344053643293623,3
3,421,6,0.369774831597348,3
3,422,6,0.341902574998731,3
3,423,6,0.336200110094426,3
3,424,6,0.327228701971467,3
3,425,6,0.275318626992032,3
3,426,6,0.205250949189009,1
3,428,6,0.164986842530743,1
3,429,6,0.145801993869823,1
3,430,6,0.125066342110737,1
3,434,6,0.1091503386322,1
3,435,6,0.111210658018553,1
3,440,6,0.128250941457249,1
3,441,6,0.179154652325155,1
3,442,6,0.25052610360831,2
3,443,6,0.263373343041427,1
3,444,6,0.195143540325002,1
4,419,6,0.261962601096303,3
4,420,6,0.348985042030623,3
4,421,6,0.404165432736513,3
4,422,6,0.470999155376844,3
4,423,6,0.498223697223388,3
4,424,6,0.490478701069525,3
4,425,6,0.408166009755539,3
4,426,6,0.260827820362188,3
4,427,6,0.196358318656562,1
4,428,6,0.192513096448911,1
4,429,6,0.180359049704868,1
4,430,6,0.169848635515065,1
4,431,6,0.139516376544607,1
4,432,6,0.105329690849908,1
4,433,6,0.10064589905565,1
4,434,6,0.13124726759104,1
4,435,6,0.14415474486646,1
4,436,6,0.143823295125851,1
4,437,6,0.144387265116329,1
4,438,6,0.138742445539595,1
4,439,6,0.135082795100743,1
4,441,6,0.200305346085578,1
4,443,6,0.229777358560536,1
5,419,6,0.302841482319459,3
5,420,6,0.339697347110362,3
5,421,6,0.352559553414243,3
5,422,6,0.409765351700956,3
5,423,6,0.438167810241022,3
5,424,6,0.482605691331082,3
5,425,6,0.460554893884383,3
5,426,6,0.313801784958613,3
5,427,6,0.223925595307842,3
5,428,6,0.210076882683845,1
5,429,6,0.202580855087606,1
5,430,6,0.214281288003985,1
5,431,6,0.197148294931323,1
5,432,6,0.156996091230375,1
5,433,6,0.136019782210895,1
5,434,6,0.173097917014849,1
5,435,6,0.2326245933114,4
5,436,6,0.263762982755558,4
5,437,6,0.24198540150427,4
5,438,6,0.223370143580054,4
5,439,6,0.211656791661691,4
5,440,6,0.205486693742915,4
6,419,6,0.269331944044085,3
6,420,6,0.271635731063945,3
6,421,6,0.255374585445563,3
6,422,6,0.269896262607972,3
6,423,6,0.331741137256276,3
6,424,6,0.486156042220266,3
6,425,6,0.55317677449471,3
6,426,6,0.420974078251781,3
6,427,6,0.302635802222109,3
6,428,6,0.241591535337551,3
6,429,6,0.206997563399873,1
6,430,6,0.218402841781892,1
6,431,6,0.242702613079831,3
6,432,6,0.233238757872823,1
6,433,6,0.204319430324217,1
6,434,6,0.246872052129846,4
6,435,6,0.391422939612903,4
6,436,6,0.4669587538458,4
6,437,6,0.367142688425887,4
6,438,6,0.327065961760981,4
6,439,6,0.356204324125683,4
6,440,6,0.327679755963157,4
6,441,6,0.254060420120665,4
7,419,6,0.31193293041026,3
7,420,6,0.380434860030192,3
7,421,6,0.325100835594135,3
7,422,6,0.224878856439042,3
7,423,6,0.249223245133377,3
7,424,6,0.382466738004927,3
7,425,6,0.449255494675453,3
7,426,6,0.415114646384082,3
7,427,6,0.397302458023316,3
7,428,6,0.337719737658294,3
7,429,6,0.238821487811019,1
7,430,6,0.222103776383912,1
7,431,6,0.28664658743469,1
7,432,6,0.321163938579827,3
7,433,6,0.286889281670945,1
7,434,6,0.291146256218382,4
7,435,6,0.425178483571921,4
7,436,6,0.50833354610126,4
7,437,6,0.390082021278838,4
7,438,6,0.347328839047808,4
7,439,6,0.385069274222432,4
7,440,6,0.348178595662271,4
7,441,6,0.281363543485178,4
1,419,7,0.249180305246514,1
1,420,7,0.284520790711976,3
1,421,7,0.341828350648379,3
1,422,7,0.276363693644918,3
1,423,7,0.185119244433286,1
1,425,7,0.185115954771735,1
1,426,7,0.142005386759857,1
1,427,7,0.107716362090759,1
1,443,7,0.134352283271032,1
1,444,7,0.129630823762728,1
2,416,7,0.284778996464946,5
2,417,7,0.27028753625996,5
2,418,7,0.239158079009415,1
2,419,7,0.25260636792943,3
2,420,7,0.342000545912594,3
2,421,7,0.376847037499503,3
2,422,7,0.281991672768813,3
2,423,7,0.203961096859412,3
2,424,7,0.19609660538366,3
2,425,7,0.189875201816196,1
2,426,7,0.156501400205003,1
2,427,7,0.134667306489726,1
2,428,7,0.124293195395896,1
2,429,7,0.116689295222383,1
2,442,7,0.131287614963172,1
2,443,7,0.161618566783345,1
2,444,7,0.146467104613606,1
3,416,7,0.278372783633017,5
3,417,7,0.292159188760094,5
3,419,7,0.259428820983791,3
3,420,7,0.382930122780972,3
3,421,7,0.394097761241171,3
3,422,7,0.328122596693889,3
3,423,7,0.306056658089722,3
3,424,7,0.311630695478522,3
3,425,7,0.277298676457965,3
3,426,7,0.204070004263994,3
3,427,7,0.171781540427385,1
3,428,7,0.177123133816749,1
3,429,7,0.166101351542521,1
3,430,7,0.133817103265582,1
3,434,7,0.122166145987491,1
3,435,7,0.127182988781456,1
3,436,7,0.099877360045564,1
3,441,7,0.138234770154725,1
3,442,7,0.182640277489392,1
3,443,7,0.201210199084556,1
4,418,7,0.231209123839411,3
4,419,7,0.293027463336928,3
4,420,7,0.377156178541914,3
4,421,7,0.383921204127086,3
4,422,7,0.430386431737559,3
4,423,7,0.48431757891604,3
4,424,7,0.49911713444321,3
4,425,7,0.433895084532651,3
4,426,7,0.2962350358497,3
4,427,7,0.230050705470975,3
4,428,7,0.241299104032951,1
4,429,7,0.210989556798695,1
4,430,7,0.175213202070688,1
4,431,7,0.143182388448179,1
4,432,7,0.110049712492899,1
4,433,7,0.104127537411518,1
4,434,7,0.140402657116618,1
4,435,7,0.157623784797249,1
4,436,7,0.15257468807,1
4,437,7,0.141903559752653,1
4,438,7,0.116731298318209,1
4,439,7,0.104636171373263,1
4,440,7,0.125523016848652,1
4,441,7,0.173963631755709,1
4,442,7,0.208670998980614,1
5,418,7,0.221002415125418,3
5,419,7,0.349510952161969,3
5,420,7,0.377452160938122,3
5,421,7,0.33656186393581,3
5,422,7,0.405295159156192,3
5,423,7,0.469571616550557,3
5,424,7,0.497252920278368,3
5,425,7,0.488967068908234,3
5,426,7,0.376156600718947,3
5,427,7,0.284870627699927,3
5,428,7,0.277219267078149,3
5,429,7,0.244276313093823,1
5,430,7,0.238241004155273,1
5,431,7,0.232567950132381,3
5,432,7,0.184554130686308,1
5,433,7,0.143123272576538,1
5,434,7,0.162615573877418,1
5,435,7,0.213683441035286,4
5,436,7,0.258235218486849,4
5,437,7,0.243798440735453,4
5,438,7,0.199764294796764,4
5,439,7,0.171911187949823,4
5,441,7,0.186422364338275,1
6,418,7,0.200292906372032,3
6,419,7,0.289528265595565,3
6,420,7,0.297507241650449,3
6,421,7,0.266519087345717,3
6,422,7,0.291464307668569,3
6,423,7,0.347088780897961,3
6,424,7,0.445002506936386,3
6,425,7,0.523906150307,3
6,426,7,0.442884967046305,3
6,427,7,0.330622870187428,3
6,428,7,0.279771586938871,3
6,429,7,0.249344330821448,3
6,430,7,0.264475575733445,3
6,431,7,0.301417821372351,3
6,432,7,0.288516073772348,3
6,433,7,0.234082545167652,1
6,434,7,0.2344471965255,4
6,435,7,0.353181560877377,4
6,436,7,0.446143039131755,4
6,437,7,0.367399761315277,4
6,438,7,0.32347975138231,4
6,439,7,0.326863484181829,4
6,440,7,0.269728315582183,4
7,419,7,0.31273872320347,3
7,420,7,0.387038191125105,3
7,421,7,0.331728370755159,3
7,422,7,0.24403825924108,3
7,423,7,0.268780130551257,3
7,424,7,0.376299385101749,3
7,425,7,0.4338269820028,3
7,426,7,0.410693166973274,3
7,427,7,0.402010116203194,3
7,428,7,0.352074252085085,3
7,429,7,0.268343912715303,1
7,430,7,0.262922397978928,1
7,431,7,0.337158229467519,3
7,432,7,0.393839511916524,3
7,433,7,0.342211214966866,3
7,434,7,0.295018275006875,4
7,435,7,0.422036137858373,4
7,436,7,0.524132897309777,4
7,437,7,0.398092456083915,4
7,438,7,0.363037277954,4
7,439,7,0.409732062940364,4
7,440,7,0.351469324719009,4
7,441,7,0.281757039292649,1
1,416,8,0.260538068715671,5
1,417,8,0.30254789636544,5
1,418,8,0.299683625089195,1
1,419,8,0.253290791818674,1
1,420,8,0.279851475607125,3
1,421,8,0.335649298750151,3
1,422,8,0.256691691858603,1
1,424,8,0.164443209620116,1
1,425,8,0.169481870930923,1
1,426,8,0.123879013935163,1
1,443,8,0.108423682895829,1
1,444,8,0.117011006693369,1
2,415,8,0.231283282832249,5
2,416,8,0.300906442395007,5
2,417,8,0.316380966757693,5
2,418,8,0.270030506942245,5
2,419,8,0.248604963048556,3
2,420,8,0.328670968024299,3
2,421,8,0.37691052143168,3
2,422,8,0.275519143845756,3
2,423,8,0.18274740934817,1
2,424,8,0.172274510371548,1
2,425,8,0.175801071125545,1
2,426,8,0.139751968597647,1
2,427,8,0.112707965991304,1
2,428,8,0.109166623546167,1
2,429,8,0.109568561365897,1
2,443,8,0.120683706849232,1
2,444,8,0.128259427041183,1
2,445,8,0.108336278113437,1
3,415,8,0.20453508833541,5
3,416,8,0.33336108860452,5
3,417,8,0.37048657492755,5
3,418,8,0.271100278735518,5
3,419,8,0.261067551724463,3
3,420,8,0.377063719445086,3
3,421,8,0.391639621558486,3
3,422,8,0.304903795109997,3
3,423,8,0.263234305822776,3
3,424,8,0.25959755229975,3
3,425,8,0.238578445001354,3
3,426,8,0.179535762883676,3
3,427,8,0.153777473297694,1
3,428,8,0.175725387124041,1
3,429,8,0.178166272422964,1
3,430,8,0.136942826384672,1
3,434,8,0.106970458566441,1
3,435,8,0.112594124094396,1
3,441,8,0.104105261392077,1
3,442,8,0.132030152575505,1
3,443,8,0.150546807796553,1
3,444,8,0.15083052476592,1
4,416,8,0.244705472318239,5
4,417,8,0.30881879735703,5
4,418,8,0.255674946795226,3
4,419,8,0.289484737491073,3
4,420,8,0.375149833569413,3
4,421,8,0.364413641846628,3
4,422,8,0.382246831755308,3
4,423,8,0.44150879922622,3
4,424,8,0.440435541698853,3
4,425,8,0.394238323468488,3
4,426,8,0.301809770385319,3
4,427,8,0.245933975727791,3
4,428,8,0.263840431409947,3
4,429,8,0.234642157990513,1
4,430,8,0.176872585785864,1
4,431,8,0.142302610948836,1
4,432,8,0.11234075479748,1
4,433,8,0.102570002489384,1
4,434,8,0.125748293307359,1
4,435,8,0.143881550456887,1
4,436,8,0.139740454782219,1
4,437,8,0.124253196597173,1
4,440,8,0.103893306973359,1
4,441,8,0.150079501569653,1
4,442,8,0.192535209074567,1
4,443,8,0.205445562080613,1
5,418,8,0.209968149565968,3
5,419,8,0.338472765151665,3
5,420,8,0.390717819177479,3
5,421,8,0.342784574653558,3
5,422,8,0.405052857065023,3
5,423,8,0.495693969276759,3
5,424,8,0.494304860668852,3
5,425,8,0.495144748298663,3
5,426,8,0.431333505690743,3
5,427,8,0.343703109158853,3
5,428,8,0.32716500018091,3
5,429,8,0.278200021937011,3
5,430,8,0.247019433324484,3
5,431,8,0.252315548776847,3
5,432,8,0.202511249334928,3
5,433,8,0.153224091224525,1
5,434,8,0.145142329585561,1
5,435,8,0.185163970758872,4
5,436,8,0.239648064293761,4
5,437,8,0.232561980812746,4
5,438,8,0.180184283711758,4
5,439,8,0.143650838431578,1
5,440,8,0.136970516184877,1
5,441,8,0.178119999302874,1
5,442,8,0.221848228503188,1
5,443,8,0.22040238957291,1
6,418,8,0.177829888190029,3
6,419,8,0.288492523281379,3
6,420,8,0.327970270114006,3
6,421,8,0.294881372800356,3
6,422,8,0.315534478018942,3
6,423,8,0.365216863910944,3
6,424,8,0.407047524828311,3
6,425,8,0.468803273613013,3
6,426,8,0.429583710747519,3
6,427,8,0.339676737707535,3
6,428,8,0.303558083891554,3
6,429,8,0.289004882621437,3
6,430,8,0.309490846890243,3
6,431,8,0.361272167566603,3
6,432,8,0.341879460224524,3
6,433,8,0.27813261655398,3
6,434,8,0.224789490931222,4
6,435,8,0.302529988406535,4
6,436,8,0.408809824842595,4
6,437,8,0.361124089225146,4
6,438,8,0.300166072473563,4
6,439,8,0.271035139079647,4
6,440,8,0.213058252839792,1
7,419,8,0.323655563095647,3
7,420,8,0.401944453687209,3
7,421,8,0.334516369812272,3
7,422,8,0.263576800983293,3
7,423,8,0.291419450627954,3
7,424,8,0.361873238839338,3
7,425,8,0.387705622060644,3
7,426,8,0.364777748558525,3
7,427,8,0.364021779977013,3
7,428,8,0.330628098788568,3
7,429,8,0.295730737269734,3
7,430,8,0.318062680956905,3
7,431,8,0.394634738578263,3
7,432,8,0.460522084412229,3
7,433,8,0.412073779104329,3
7,434,8,0.298180162617185,3
7,435,8,0.380904736985986,4
7,436,8,0.483796592384101,4
7,437,8,0.376481514708131,4
7,438,8,0.335575662617427,4
7,439,8,0.374238488390687,4
7,440,8,0.322337563463246,4
7,441,8,0.248004959281887,1
1,416,9,0.278744907533328,5
1,417,9,0.345876965440381,5
1,418,9,0.326408138380037,5
1,419,9,0.245372293250311,1
1,420,9,0.270797194156095,3
1,421,9,0.308241625148673,3
1,422,9,0.222041556030345,1
1,423,9,0.145949778102465,1
1,424,9,0.1426918694108,1
1,425,9,0.143259401385806,1
1,426,9,0.10690282443211,1
1,444,9,0.101472584467583,1
2,415,9,0.226287877302958,5
2,416,9,0.304880614978276,5
2,417,9,0.348103303805853,5
2,418,9,0.289991018582306,5
2,419,9,0.233063599734629,3
2,420,9,0.303790277353852,3
2,421,9,0.358406523782558,3
2,422,9,0.253803848305551,3
2,423,9,0.162458258340614,1
2,424,9,0.152904797981567,1
2,425,9,0.159002762990447,1
2,426,9,0.125522755418595,1
2,444,9,0.113513497354457,1
2,445,9,0.111094081998966,1
2,446,9,0.10283724936516,1
3,415,9,0.200026008069666,5
3,416,9,0.357968323435338,5
3,417,9,0.410266687406943,5
3,418,9,0.296082622126465,5
3,419,9,0.247126271074448,3
3,420,9,0.329859189419234,3
3,421,9,0.355770284873537,3
3,422,9,0.271427066306777,3
3,423,9,0.22341317061027,3
3,424,9,0.215916053722126,3
3,425,9,0.201343158054382,3
3,426,9,0.159042358751164,3
3,427,9,0.136474528902139,1
3,428,9,0.162577710090828,1
3,429,9,0.173109681367414,1
3,430,9,0.128350742381512,1
3,442,9,0.104836078223522,1
3,443,9,0.121390014612832,1
3,444,9,0.134080504940935,1
3,445,9,0.12557932234718,1
4,416,9,0.258137116857957,5
4,417,9,0.321779758864946,5
4,418,9,0.262408992918643,5
4,419,9,0.265694014085803,3
4,420,9,0.337557280663702,3
4,421,9,0.335121493250891,3
4,422,9,0.325757460753984,3
4,423,9,0.373218998311711,3
4,424,9,0.374036490099972,3
4,425,9,0.345746185054363,3
4,426,9,0.293802124167516,3
4,427,9,0.241500644821065,3
4,428,9,0.249510251764295,3
4,429,9,0.231154267099116,1
4,430,9,0.167808871066944,1
4,431,9,0.131047992530087,1
4,432,9,0.110225633135427,1
4,434,9,0.105647851229286,1
4,435,9,0.122992482826014,1
4,436,9,0.127892401026983,1
4,437,9,0.114207997193815,1
4,441,9,0.135741533486887,1
4,442,9,0.178543973497825,1
4,443,9,0.194927642669591,1
4,444,9,0.188993245733045,1
5,417,9,0.155815189877036,5
5,418,9,0.18447257540144,1
5,419,9,0.280786327705144,3
5,420,9,0.368199192643767,3
5,421,9,0.356672436428592,3
5,422,9,0.380393249079451,3
5,423,9,0.456083655619392,3
5,424,9,0.47250220391793,3
5,425,9,0.494985580965622,3
5,426,9,0.466906206404341,3
5,427,9,0.3749469202735,3
5,428,9,0.335977066684123,3
5,429,9,0.286441321268264,3
5,430,9,0.242488523648981,3
5,431,9,0.242960644546097,3
5,432,9,0.205088296121875,3
5,433,9,0.161784324332407,3
5,434,9,0.134762968104752,1
5,435,9,0.166866513747705,1
5,436,9,0.237664790523791,4
5,437,9,0.234338550550976,4
5,438,9,0.1762727563059,1
5,439,9,0.135499928542536,1
5,440,9,0.130450973423235,1
5,441,9,0.173452492422584,1
5,442,9,0.24363099478394,1
5,443,9,0.269501437864377,1
5,444,9,0.239295308003506,1
6,419,9,0.264303729042639,3
6,420,9,0.347578766182306,3
6,421,9,0.328381630308707,3
6,422,9,0.319518998875301,3
6,423,9,0.341756631669407,3
6,424,9,0.363360558005328,3
6,425,9,0.408465390742489,3
6,426,9,0.392657107340357,3
6,427,9,0.328853990850042,3
6,428,9,0.313256529003049,3
6,429,9,0.321799845407659,3
6,430,9,0.346275450204774,3
6,431,9,0.385374275955607,3
6,432,9,0.365875536939574,3
6,433,9,0.311746770423833,3
6,434,9,0.223973545937465,3
6,435,9,0.266979727106164,4
6,436,9,0.399771882770128,4
6,437,9,0.376472582514517,4
6,438,9,0.283774712900954,4
6,443,9,0.23657316753492,1
7,419,9,0.332834960614793,3
7,420,9,0.414118946440295,3
7,421,9,0.326902045115237,3
7,422,9,0.274187462707039,3
7,423,9,0.304207977227435,3
7,424,9,0.335259898680239,3
7,425,9,0.325739008149127,3
7,426,9,0.307730093670463,3
7,427,9,0.311967199533566,3
7,428,9,0.301673587111456,3
7,429,9,0.323978647074432,3
7,430,9,0.368254441529147,3
7,431,9,0.417251880671791,3
7,432,9,0.473290807684892,3
7,433,9,0.444288890024109,3
7,434,9,0.297692181629943,3
7,435,9,0.326839410830746,4
7,436,9,0.424820498680526,4
7,437,9,0.352200871376029,4
7,438,9,0.298438804086917,4
7,439,9,0.312280610600242,4
7,440,9,0.282558496704081,1
1,416,10,0.306295125873389,5
1,417,10,0.383699467867067,5
1,418,10,0.341763036705803,5
1,419,10,0.230384115937011,1
1,420,10,0.247427656358501,1
1,421,10,0.267466705944853,3
1,422,10,0.185844407839747,1
1,423,10,0.128370001062378,1
1,424,10,0.116525411255397,1
1,425,10,0.112510008973554,1
2,415,10,0.231275461716377,5
2,416,10,0.3169348281193,5
2,417,10,0.378601058895316,5
2,418,10,0.31124846294934,5
2,419,10,0.224874194269692,5
2,420,10,0.275946451273934,3
2,421,10,0.324249924330253,3
2,422,10,0.222197934776111,3
2,423,10,0.143177279669148,1
2,424,10,0.130966252065596,1
2,425,10,0.134803522442346,1
2,426,10,0.107191029284122,1
2,445,10,0.109511580506388,1
2,446,10,0.107085585827796,1
3,415,10,0.187766049473777,5
3,416,10,0.347772050137787,5
3,417,10,0.410689071235714,5
3,418,10,0.309800336506063,5
3,419,10,0.237884152127458,5
3,420,10,0.277179442566132,3
3,421,10,0.30862289910098,3
3,422,10,0.234236505685391,3
3,423,10,0.189585036238756,3
3,424,10,0.18310533977497,3
3,425,10,0.171300269478273,3
3,426,10,0.139792087218478,1
3,427,10,0.120360557512934,1
3,428,10,0.134684114263808,1
3,429,10,0.145901773008247,1
3,430,10,0.107504810710045,1
3,443,10,0.102548173079624,1
3,444,10,0.120729032285366,1
3,445,10,0.126501081156511,1
4,416,10,0.238868872008851,5
4,417,10,0.300259511933105,5
4,418,10,0.260013945023049,5
4,419,10,0.239298575879219,1
4,420,10,0.279846595579394,3
4,421,10,0.299206972737757,3
4,422,10,0.276030087106339,3
4,423,10,0.308826139184465,3
4,424,10,0.335888245822255,3
4,425,10,0.320408427500915,3
4,426,10,0.28265707762141,3
4,427,10,0.232130512289494,3
4,428,10,0.214469125499945,3
4,429,10,0.202060783560866,1
4,430,10,0.148091206164005,1
4,431,10,0.114050213261492,1
4,432,10,0.103008224622442,1
4,436,10,0.112176108326161,1
4,437,10,0.106458850837798,1
4,441,10,0.123628956085636,1
4,442,10,0.157728335034214,1
4,443,10,0.176050083254844,1
4,444,10,0.173918033996599,1
5,419,10,0.21662936563267,3
5,420,10,0.309664523591448,3
5,421,10,0.350682158817361,3
5,422,10,0.337329989014973,3
5,423,10,0.384376135997954,3
5,424,10,0.450037867692723,3
5,425,10,0.491480370332948,3
5,426,10,0.467193692323697,3
5,427,10,0.374486672658139,3
5,428,10,0.312543761738457,3
5,429,10,0.276024749576008,3
5,430,10,0.236884269302758,3
5,431,10,0.217182464489945,3
5,432,10,0.196013623126398,3
5,433,10,0.168702613288499,3
5,434,10,0.130982678587511,1
5,435,10,0.15240754712022,1
5,436,10,0.234845507003189,4
5,437,10,0.239660591150659,4
5,438,10,0.174945127333066,1
5,439,10,0.132283129727336,1
5,440,10,0.130901755091948,1
5,441,10,0.166234245154833,1
5,442,10,0.237859163771176,1
5,443,10,0.286245553727242,1
5,444,10,0.255413211736486,1
5,445,10,0.1737599777413,1
6,419,10,0.236473410182334,3
6,420,10,0.340450331032057,3
6,421,10,0.345406217051063,3
6,422,10,0.307270303557701,3
6,423,10,0.300937944716876,3
6,424,10,0.328321632110624,3
6,425,10,0.367210551311518,3
6,426,10,0.355312128698632,3
6,427,10,0.314304732816619,3
6,428,10,0.322452461973301,3
6,429,10,0.364611980116544,3
6,430,10,0.39170859552186,3
6,431,10,0.378979653189538,3
6,432,10,0.362541650137591,3
6,433,10,0.330251900936535,3
6,434,10,0.230940874815084,3
6,435,10,0.243403833850238,4
6,436,10,0.394146648661831,4
6,437,10,0.395844636882092,4
6,438,10,0.274397630687034,4
6,442,10,0.225698134666026,1
6,443,10,0.271695206401914,1
6,444,10,0.215993023088077,1
7,419,10,0.350893241802556,3
7,420,10,0.436839614836397,3
7,421,10,0.336424722085072,3
7,422,10,0.289368815046629,3
7,423,10,0.316687885644619,3
7,424,10,0.305479834454774,3
7,425,10,0.272532915447917,3
7,426,10,0.26319036378736,3
7,427,10,0.271332254339436,3
7,428,10,0.28778711963006,3
7,429,10,0.357823861543004,3
7,430,10,0.412439040465644,3
7,431,10,0.418123009193415,3
7,432,10,0.469958707321632,3
7,433,10,0.458539006714802,3
7,434,10,0.314527079080103,3
7,435,10,0.286565239115285,4
7,436,10,0.365219347496486,4
7,437,10,0.336658636628579,4
7,438,10,0.275248803380973,4
7,443,10,0.149750916666753,1
1,415,11,0.29539501750486,5
1,416,11,0.342631943071943,5
1,417,11,0.400827101623561,5
1,418,11,0.329217269700092,5
1,419,11,0.214481695928519,1
1,420,11,0.212272503017619,1
1,421,11,0.220482256455326,1
1,422,11,0.158324188598728,1
1,423,11,0.115592400060696,1
1,424,11,0.100386135615257,1
2,415,11,0.24036551551354,5
2,416,11,0.339441559585419,5
2,417,11,0.404830728659919,5
2,418,11,0.328411651193586,5
2,419,11,0.235308761064205,5
2,420,11,0.249101854443574,1
2,421,11,0.272982836576026,3
2,422,11,0.188775779497291,1
2,423,11,0.128035533983194,1
2,424,11,0.113599540521969,1
2,425,11,0.111563610381351,1
2,445,11,0.11030996611465,1
2,446,11,0.112337334420901,1
3,415,11,0.169783267107895,5
3,416,11,0.312078045877737,5
3,417,11,0.389571535520855,5
3,418,11,0.322888875881798,5
3,419,11,0.243894167707993,5
3,420,11,0.242109558995511,1
3,421,11,0.265294004312744,3
3,422,11,0.203553331327996,1
3,423,11,0.160712940387116,1
3,424,11,0.1589287129268,3
3,425,11,0.14924316503145,3
3,426,11,0.126989421610081,1
3,427,11,0.109374155439755,1
3,428,11,0.110941210773131,1
3,429,11,0.115993815020311,1
3,444,11,0.120105739457785,1
3,445,11,0.133010951006043,1
4,416,11,0.196577810975257,5
4,417,11,0.261303906281836,5
4,418,11,0.251828569938157,5
4,419,11,0.220669070016896,1
4,420,11,0.238776761485432,1
4,421,11,0.278856342095128,3
4,422,11,0.24357413374654,3
4,423,11,0.248764478955006,3
4,424,11,0.306594528646176,3
4,425,11,0.303860710968377,3
4,426,11,0.262012359950487,3
4,427,11,0.210420989996381,3
4,428,11,0.180033471247623,1
4,429,11,0.167701303491405,1
4,430,11,0.129915172521399,1
4,431,11,0.102102238759884,1
4,436,11,0.102904937964087,1
4,437,11,0.10544655008539,1
4,441,11,0.117564835376219,1
4,442,11,0.141556674745761,1
4,443,11,0.16032233120319,1
4,444,11,0.165050990930981,1
5,419,11,0.176327743761224,1
5,420,11,0.253986958274646,3
5,421,11,0.322932207913747,3
5,422,11,0.287981296804902,3
5,423,11,0.302427791040084,3
5,424,11,0.41379882533549,3
5,425,11,0.465756088440215,3
5,426,11,0.424148449147314,3
5,427,11,0.33514038157251,3
5,428,11,0.278108543202897,3
5,429,11,0.264005415561756,3
5,430,11,0.233473609207368,3
5,431,11,0.18987049607517,3
5,432,11,0.185194165930456,3
5,433,11,0.186576390213529,3
5,434,11,0.154760330489931,1
5,435,11,0.152731350031662,1
5,436,11,0.224796702043628,4
5,437,11,0.243283772096558,4
5,438,11,0.17766569922131,1
5,439,11,0.136513100728467,1
5,440,11,0.142471483872743,1
5,441,11,0.169496576371629,1
5,442,11,0.223707715141165,1
5,443,11,0.266240424690786,1
5,444,11,0.235049945307768,1
5,445,11,0.156299837631051,1
6,419,11,0.218771676020653,3
6,420,11,0.323232787121791,3
6,421,11,0.34188257559937,3
6,422,11,0.288053190070579,3
6,423,11,0.258290423800553,3
6,424,11,0.290380985084008,3
6,425,11,0.324228269207197,3
6,426,11,0.308635012026954,3
6,427,11,0.285725242556283,3
6,428,11,0.322801993959519,3
6,429,11,0.40318968862041,3
6,430,11,0.413677129643953,3
6,431,11,0.332012174867878,3
6,432,11,0.318348053649966,3
6,433,11,0.319016051017295,3
6,434,11,0.248232839148244,3
6,435,11,0.227895693939389,4
6,436,11,0.35311489621284,4
6,437,11,0.379074465156879,4
6,438,11,0.258543422738222,4
6,441,11,0.185160855384026,1
6,442,11,0.239226050824237,1
6,443,11,0.264105630416942,1
6,444,11,0.193034300839231,1
7,419,11,0.348637252911452,3
7,420,11,0.451269682549664,3
7,421,11,0.358497937159158,3
7,422,11,0.29758534387998,3
7,423,11,0.303421639187634,1
7,424,11,0.258321076474737,3
7,425,11,0.220683862600955,3
7,426,11,0.22246001840826,3
7,427,11,0.233618506816464,3
7,428,11,0.274853564706454,3
7,429,11,0.372750079932793,3
7,430,11,0.414817226122561,3
7,431,11,0.378765019112735,3
7,432,11,0.422403447088468,3
7,433,11,0.416043550948305,3
7,434,11,0.319327937075305,3
7,435,11,0.250121693095958,1
7,436,11,0.294037280503794,4
7,437,11,0.30621711078721,4
7,438,11,0.25516825177307,1
7,442,11,0.168525418174443,1
7,443,11,0.147253235687945,1
1,415,12,0.30332140254661,5
1,416,12,0.368031920978958,5
1,417,12,0.385746813786842,5
1,418,12,0.295551091248894,5
1,419,12,0.202156379818379,1
1,421,12,0.172587246077243,1
1,422,12,0.133122592533304,1
2,415,12,0.233287318505912,5
2,416,12,0.350751263495763,5
2,417,12,0.407681144143144,5
2,418,12,0.34169985777536,5
2,419,12,0.257108019224387,5
2,420,12,0.222619076812111,1
2,421,12,0.214452176117915,1
2,422,12,0.156435683224423,1
2,423,12,0.110558542527187,1
2,445,12,0.110839133228789,1
2,446,12,0.11311551366434,1
3,416,12,0.264994623325795,5
3,417,12,0.359634068615235,5
3,418,12,0.34641091454598,5
3,419,12,0.265328404151078,5
3,420,12,0.226817904957702,1
3,421,12,0.230753865180971,1
3,422,12,0.174974505535722,1
3,423,12,0.134418316146265,1
3,424,12,0.137794314973263,1
3,425,12,0.137324721233365,1
3,426,12,0.119757264084714,1
3,427,12,0.100069053634864,1
3,444,12,0.124520182042892,1
3,445,12,0.139001076116408,1
4,417,12,0.221744462556394,5
4,418,12,0.248229767345075,5
4,420,12,0.225535743028949,1
4,421,12,0.26486199114354,1
4,422,12,0.214896716144018,1
4,423,12,0.198500520115354,1
4,424,12,0.273904137882757,3
4,425,12,0.298427497236952,3
4,426,12,0.246326033669949,3
4,427,12,0.185527641754007,1
4,428,12,0.150284419162671,1
4,429,12,0.135879089268549,1
4,430,12,0.108403923140687,1
4,433,12,0.103656952415986,1
4,437,12,0.108756842824728,1
4,438,12,0.102296960580679,1
4,439,12,0.100032932715321,1
4,440,12,0.105356563681184,1
4,441,12,0.117937394993292,1
4,442,12,0.136984818587579,1
4,443,12,0.157243001026299,1
5,420,12,0.219120293001671,3
5,421,12,0.274628974501647,3
5,422,12,0.24045000099363,3
5,423,12,0.244526523444217,3
5,424,12,0.373391193575927,3
5,425,12,0.439224771961501,3
5,426,12,0.370291155959937,3
5,427,12,0.279596319871486,3
5,428,12,0.240390242439766,3
5,429,12,0.247737538119406,3
5,430,12,0.215243524900476,3
5,431,12,0.159412576390643,3
5,432,12,0.164540962675599,1
5,433,12,0.196859240431625,1
5,434,12,0.183187973458822,1
5,435,12,0.164237714702389,1
5,436,12,0.210441229039961,1
5,437,12,0.246691098958721,4
5,438,12,0.192475755522436,1
5,439,12,0.15554089528264,1
5,440,12,0.162750243035534,1
5,441,12,0.192051214895694,1
5,442,12,0.224965694789645,1
5,443,12,0.240060361279499,1
5,444,12,0.202401165495089,1
6,419,12,0.207965312113399,3
6,420,12,0.303445516466174,3
6,421,12,0.327384884644691,3
6,422,12,0.285221641123135,3
6,423,12,0.243343508864584,3
6,424,12,0.261920728715506,3
6,425,12,0.284408201500758,3
6,426,12,0.260421819483656,3
6,427,12,0.250379811705577,3
6,428,12,0.311435276510909,3
6,429,12,0.423340499556133,3
6,430,12,0.405848170870115,3
6,431,12,0.280851402003501,3
6,432,12,0.25559497098362,3
6,433,12,0.279859122436292,3
6,434,12,0.255743310755134,1
6,435,12,0.22356212038525,1
6,436,12,0.296292201888833,4
6,437,12,0.341888980635767,4
6,438,12,0.245776529475958,4
6,439,12,0.170280125824155,1
6,440,12,0.181153034573836,1
6,441,12,0.2397012870962,1
6,442,12,0.264552588671072,1
6,443,12,0.235146826929728,1
7,419,12,0.314738183851137,3
7,420,12,0.44557482090285,3
7,421,12,0.406551156293407,3
7,422,12,0.345274608803198,3
7,423,12,0.30444646679694,3
7,424,12,0.22599553314171,1
7,425,12,0.181056545096963,1
7,426,12,0.188425659293444,1
7,427,12,0.207585955314844,1
7,428,12,0.270795930577486,3
7,429,12,0.386118828757963,3
7,430,12,0.406661741207521,3
7,431,12,0.350134680706312,3
7,432,12,0.36003094122761,3
7,433,12,0.348779579791654,3
7,434,12,0.30700824171139,1
7,435,12,0.230479842909552,1
7,436,12,0.235557816765181,1
7,437,12,0.270763033961979,4
7,442,12,0.180398885109804,1
1,415,13,0.305906575451162,5
1,416,13,0.391228130648757,5
1,417,13,0.369579891918173,5
1,418,13,0.27485702865471,5
1,419,13,0.197334934206188,1
1,421,13,0.130830134149248,1
1,422,13,0.109923790348774,1
2,415,13,0.222187673646373,5
2,416,13,0.346466294146389,5
2,417,13,0.397717391095462,5
2,418,13,0.363918297246114,5
2,419,13,0.28244662642552,5
2,420,13,0.201689814309973,1
2,421,13,0.163716880671317,1
2,422,13,0.128019978894803,1
2,445,13,0.107080215618708,1
3,416,13,0.219213166029423,5
3,417,13,0.325310916430778,5
3,418,13,0.372900750788981,5
3,419,13,0.303819143589313,5
3,420,13,0.232581914854593,5
3,422,13,0.149235049806763,1
3,423,13,0.116779858951298,1
3,424,13,0.119868459002294,1
3,425,13,0.128884822202139,1
3,426,13,0.116912905064477,1
4,417,13,0.190126457886818,5
4,418,13,0.245780341997623,5
4,419,13,0.235765915090558,5
4,421,13,0.247286745557774,1
4,422,13,0.183425025163013,1
4,423,13,0.159817825657762,1
4,424,13,0.225008438603965,1
4,425,13,0.271903653300701,3
4,426,13,0.22274700325334,1
4,427,13,0.16130969806391,1
4,428,13,0.131486508771959,1
4,429,13,0.116772767661002,1
4,433,13,0.0997058837140054,1
4,437,13,0.113320300542329,1
4,438,13,0.122076508156695,1
4,439,13,0.120481436235542,1
4,440,13,0.112828659534289,1
4,441,13,0.121737150156861,1
4,442,13,0.138294681209456,1
4,443,13,0.154042530696742,1
5,420,13,0.212816386465384,1
5,421,13,0.231403627801824,3
5,422,13,0.201034735944628,3
5,423,13,0.204112203432363,1
5,424,13,0.308178228359849,3
5,425,13,0.376835055288557,3
5,426,13,0.303996284238774,3
5,427,13,0.224841450155052,1
5,428,13,0.209747785813749,1
5,429,13,0.225005758945881,3
5,430,13,0.190789814870635,3
5,431,13,0.134577516158063,1
5,432,13,0.135688092826067,1
5,433,13,0.180942071410751,1
5,434,13,0.185990111524852,1
5,435,13,0.165982694975397,1
5,436,13,0.186274874214447,1
5,437,13,0.231160345347941,1
5,438,13,0.207952327753901,1
5,439,13,0.175013425935459,1
5,440,13,0.179163943985098,1
5,442,13,0.229879163781902,1
5,443,13,0.20558043820419,1
6,419,13,0.203868790263451,1
6,420,13,0.279958487643793,3
6,421,13,0.304618226344393,3
6,422,13,0.291191396474892,3
6,423,13,0.251889918858202,3
6,424,13,0.242316459099794,1
6,425,13,0.242844918174195,3
6,426,13,0.217827826371505,1
6,427,13,0.219943819467082,1
6,428,13,0.292998488172277,3
6,429,13,0.400443453014903,3
6,430,13,0.361965109718538,3
6,431,13,0.232057660446942,3
6,432,13,0.190573241854243,1
6,433,13,0.219655745330098,1
6,434,13,0.23458364122942,1
6,435,13,0.214967672618657,1
6,436,13,0.23643933713157,1
6,437,13,0.28138034036634,4
6,438,13,0.227002256719568,1
6,439,13,0.169431774396249,1
6,442,13,0.271760019270214,1
7,419,13,0.24850315782719,3
7,420,13,0.376157036435709,3
7,421,13,0.406649148993108,3
7,422,13,0.386630142377793,3
7,423,13,0.316005596767507,3
7,424,13,0.214029487287411,1
7,425,13,0.161428779454877,1
7,426,13,0.172499568971874,1
7,427,13,0.196964313528704,1
7,428,13,0.271725663003555,3
7,429,13,0.384602011567208,3
7,430,13,0.389375419406424,3
7,431,13,0.318610878000611,3
7,432,13,0.280889766864367,3
7,433,13,0.266871538634239,1
7,434,13,0.26421673819117,1
7,435,13,0.214830421838728,1
1,415,14,0.292679543502728,5
1,416,14,0.38268829997824,5
1,417,14,0.36067708739934,5
1,418,14,0.277953493393254,5
1,419,14,0.191642708645783,1
1,421,14,0.101256109487462,1
2,415,14,0.205330663570558,5
2,416,14,0.313211737319949,5
2,417,14,0.375111141920976,5
2,418,14,0.375039684372061,5
2,419,14,0.278900153415514,5
2,420,14,0.1751805450994,1
2,421,14,0.125007596598344,1
2,422,14,0.101802520092445,1
3,416,14,0.179698622916273,5
3,417,14,0.280597575203985,5
3,418,14,0.366688039770913,5
3,419,14,0.321425956854463,5
3,420,14,0.23220366913378,5
3,421,14,0.169681930282047,1
3,422,14,0.123840496573431,1
3,423,14,0.103138710899646,1
3,424,14,0.105742085871918,1
3,425,14,0.122135613135416,1
3,426,14,0.112617021010223,1
4,418,14,0.230585526010097,5
4,419,14,0.262265729247403,5
4,421,14,0.212007739727385,1
4,422,14,0.150117234641215,1
4,423,14,0.132683335572937,1
4,424,14,0.18049398029304,1
4,425,14,0.239705317476245,1
4,426,14,0.201419212415133,1
4,427,14,0.142132452660481,1
4,428,14,0.113577623968857,1
4,429,14,0.101581186870431,1
4,437,14,0.113359493265042,1
4,438,14,0.139746859818616,1
4,439,14,0.134776290144741,1
4,440,14,0.118773677066901,1
4,441,14,0.130227548760765,1
4,442,14,0.14036227706573,1
5,420,14,0.224421266695927,1
5,421,14,0.206098527219664,3
5,422,14,0.177027929704322,3
5,423,14,0.18044747842165,1
5,424,14,0.24492489927942,1
5,425,14,0.307036824730956,3
5,426,14,0.251749944848513,1
5,427,14,0.187717663127393,1
5,428,14,0.179038838809901,1
5,429,14,0.191625388904506,3
5,430,14,0.160602192079216,1
5,431,14,0.112667564154577,1
5,432,14,0.107834920621611,1
5,433,14,0.149209810913343,1
5,434,14,0.167394188531936,1
5,435,14,0.154802551444138,1
5,436,14,0.153535563351611,1
5,437,14,0.193776587914427,1
5,438,14,0.205919905133214,1
5,439,14,0.179764699363181,1
6,419,14,0.207134661678935,1
6,420,14,0.276871216528921,3
6,421,14,0.287788296065317,3
6,422,14,0.291899697642676,3
6,423,14,0.264112906886862,3
6,424,14,0.227396754675591,1
6,425,14,0.213330118313241,1
6,426,14,0.198496271876927,1
6,427,14,0.202499702840743,1
6,428,14,0.260076971452625,3
6,429,14,0.33789670402105,3
6,430,14,0.302233352435185,3
6,431,14,0.195158376480737,1
6,432,14,0.14618178638514,1
6,433,14,0.170262141614817,1
6,434,14,0.206980069371892,1
6,437,14,0.215277205806153,1
6,438,14,0.200953147981004,1
7,419,14,0.189305393221111,1
7,420,14,0.291842444460192,3
7,421,14,0.353788884685642,3
7,422,14,0.388312096221224,3
7,423,14,0.325556290325117,3
7,424,14,0.208951970934382,1
7,425,14,0.151996905858176,1
7,427,14,0.188918803524312,1
7,428,14,0.258694071808572,3
7,429,14,0.36391038898689,3
7,430,14,0.380760906882956,3
7,431,14,0.29897429998702,3
7,432,14,0.217396118204034,1
7,433,14,0.202232434179129,1
7,434,14,0.220942765500744,1
1,415,15,0.264196542719266,1
1,416,15,0.343871884046489,5
1,417,15,0.369151538769767,5
1,418,15,0.304460605805856,5
1,419,15,0.188356511043366,1
2,416,15,0.267506269026814,5
2,417,15,0.360230172716887,5
2,418,15,0.379474409572424,5
2,419,15,0.263742504067759,5
2,420,15,0.152850997854418,1
2,421,15,0.100991062981333,1
3,417,15,0.239721961856541,5
3,418,15,0.340486626238305,5
3,419,15,0.328484285177758,5
3,420,15,0.221288877110383,5
3,422,15,0.105272829812509,1
3,425,15,0.113251936582421,1
3,426,15,0.104496872724555,1
3,441,15,0.103383747113495,1
3,442,15,0.10141133358381,1
4,418,15,0.21697989976744,5
4,419,15,0.287754048727849,5
4,420,15,0.25251778671178,1
4,421,15,0.17438363003521,1
4,423,15,0.121803825714317,1
4,424,15,0.150177679448979,1
4,425,15,0.192868227395517,1
4,426,15,0.169168133076676,1
4,427,15,0.119470301025472,1
4,437,15,0.112035622349277,1
4,438,15,0.147263475031845,1
4,439,15,0.140682801208539,1
4,441,15,0.150428467124082,1
5,419,15,0.205612703030393,1
5,420,15,0.247158840902383,1
5,421,15,0.214075193975711,1
5,422,15,0.18664333809396,3
5,423,15,0.184300053349654,1
5,424,15,0.20288165215403,1
5,425,15,0.230367580485905,1
5,426,15,0.198655264923264,1
5,427,15,0.151433382477379,1
5,428,15,0.144748561455113,1
5,429,15,0.157764782741328,1
5,430,15,0.138675225336187,1
5,431,15,0.10123009719679,1
5,433,15,0.111253064152383,1
5,434,15,0.132464028433866,1
5,435,15,0.129492483690895,1
5,437,15,0.156379007366648,1
5,438,15,0.196159849671617,1
6,419,15,0.196986230081817,1
6,420,15,0.287157922840358,1
6,421,15,0.291315227178561,3
6,422,15,0.301592042719508,3
6,423,15,0.289940497223789,3
6,424,15,0.229089862868121,1
6,425,15,0.195775307843598,1
6,427,15,0.177633194750888,1
6,428,15,0.210614470024404,1
6,429,15,0.266256393710101,3
6,430,15,0.248732126985452,1
6,431,15,0.170715450440748,1
7,420,15,0.221018689146466,1
7,421,15,0.281021353326393,3
7,422,15,0.354752886235018,3
7,423,15,0.333877870469709,1
7,424,15,0.221637014802964,1
7,425,15,0.165621616494994,1
7,427,15,0.170482723225417,1
7,428,15,0.223947555432631,1
7,429,15,0.328733014091162,3
7,430,15,0.361436062426508,3
7,431,15,0.270641490771309,1
7,432,15,0.168232627403514,1
1,416,16,0.27797946211225,1
1,417,16,0.352431147684576,5
1,418,16,0.305155922614143,5
1,419,16,0.174836960646979,1
2,416,16,0.220578702360523,5
2,417,16,0.328182006674344,5
2,418,16,0.350001089947181,5
2,419,16,0.23901283282691,5
3,417,16,0.2068455853934,5
3,418,16,0.305057341696813,5
3,419,16,0.315182179231287,5
3,420,16,0.193141051445842,1
3,425,16,0.100950410607468,1
3,440,16,0.135662843039728,1
3,441,16,0.150472322016145,1
4,418,16,0.212876166805086,1
4,419,16,0.292951169331958,1
4,420,16,0.234665948125701,1
4,421,16,0.151529033199486,1
4,422,16,0.119143295595833,1
4,424,16,0.125407998516488,1
4,425,16,0.147067642133308,1
4,426,16,0.132665133505218,1
4,427,16,0.100075687422561,1
4,437,16,0.105988472807728,1
4,438,16,0.137275670418919,1
5,419,16,0.20748935690878,1
5,420,16,0.266139381973752,1
5,421,16,0.233830809808592,1
5,422,16,0.202350121276459,1
5,423,16,0.194258033150243,1
5,424,16,0.175879761572704,1
5,425,16,0.173924057780829,1
5,428,16,0.117816712343226,1
5,429,16,0.131523076301183,1
5,430,16,0.124675003101235,1
6,419,16,0.171968005415545,1
6,420,16,0.283827434629117,1
6,421,16,0.290832409434945,1
6,422,16,0.295427260545225,3
6,423,16,0.292838122618141,1
6,424,16,0.226457937555041,1
6,425,16,0.188055278260179,1
6,428,16,0.164686285108537,1
6,429,16,0.216844173996178,1
6,430,16,0.22168004183318,1
6,431,16,0.157715721033963,1
7,420,16,0.172347264177829,1
7,421,16,0.219931771898621,1
7,422,16,0.291256405415734,1
7,423,16,0.301571171886624,1
7,424,16,0.225968649417514,1
7,425,16,0.189897314441851,1
7,428,16,0.186808278674094,1
7,429,16,0.296725587565836,1
7,430,16,0.33958366860724,1
7,431,16,0.240060949497127,1
7,432,16,0.13532115395522,1
1,417,17,0.29373864023534,1
1,418,17,0.26453703358268,1
2,417,17,0.26871438089192,5
2,418,17,0.29131352788319,5
2,419,17,0.208528388884516,1
2,440,17,0.10559424717468,1
2,441,17,0.133514062257834,1
3,418,17,0.260659001902875,1
3,419,17,0.271680479175369,1
3,420,17,0.162076047597269,1
3,440,17,0.163759003589252,1
4,419,17,0.256470565602051,1
4,420,17,0.210893895183668,1
4,421,17,0.148645655743241,1
4,422,17,0.128681538546978,1
4,424,17,0.121459195541668,1
4,425,17,0.119679445071078,1
4,426,17,0.108401799021474,1
5,419,17,0.189049910697901,1
5,420,17,0.265753685496315,1
5,421,17,0.258428589585682,1
5,422,17,0.235478973817155,1
5,423,17,0.219003825911275,1
5,424,17,0.177131085647649,1
5,429,17,0.115113688947559,1
5,430,17,0.116904876983143,1
6,420,17,0.244702749088478,1
6,421,17,0.274702479919342,1
6,422,17,0.282431681340594,1
6,423,17,0.274638690985433,1
6,424,17,0.225452368626601,1
6,425,17,0.186584145971886,1
6,428,17,0.133546468691984,1
6,429,17,0.186793595019225,1
6,430,17,0.210133918007949,1
6,431,17,0.156988095827798,1
7,421,17,0.17585218070169,1
7,422,17,0.22219453618537,1
7,423,17,0.234621701088553,1
7,424,17,0.21149716682605,1
7,428,17,0.160962736806586,1
7,429,17,0.265565150853536,1
7,430,17,0.311236350023365,1
7,431,17,0.217417032608594,1
7,432,17,0.124530399600953,1
2,418,18,0.226228663395046,1
2,440,18,0.107152566386985,1
3,419,18,0.222274403067785,1
4,421,18,0.163295738635317,1
4,422,18,0.142589399721373,1
5,420,18,0.243657116003802,1
5,421,18,0.263686863037293,1
5,422,18,0.250347525093536,1
5,423,18,0.229989770481854,1
5,430,18,0.108644580401081,1
6,420,18,0.190812167140509,1
6,421,18,0.240308872334522,1
6,422,18,0.254793121427103,1
6,423,18,0.24330717008666,1
6,424,18,0.215798323053121,1
6,429,18,0.1674719095093,1
6,430,18,0.195820513457622,1
6,431,18,0.15297445819884,1
7,421,18,0.142959769861718,1
7,422,18,0.169663564820542,1
7,423,18,0.177699772272073,1
7,428,18,0.16549955044421,1
7,429,18,0.238186975276825,1
7,430,18,0.27741403247062,1
7,431,18,0.198100706414838,1
5,421,19,0.236683970307415,1
5,422,19,0.220352674290403,1
6,421,19,0.188350127792807,1
6,422,19,0.201673627432277,1
6,423,19,0.19650739914657,1
6,430,19,0.174086743526721,1
7,429,19,0.21079154531635,1
7,430,19,0.230967061392461,1
