x,y,z,signal,mito.p
70,672,22,0.311466865976131,2
69,672,23,0.248532067634327,2
70,671,23,0.272361504473873,2
70,672,23,0.358633488643716,2
70,673,23,0.313432101072167,2
71,671,23,0.284242040913692,2
71,672,23,0.273070372073447,2
58,671,24,0.202148210129097,1
59,669,24,0.149079934639606,1
59,670,24,0.169550289355425,1
59,671,24,0.186428987233053,1
59,672,24,0.193381087809851,1
63,678,24,0.176242016488363,1
64,676,24,0.172568139897243,1
64,677,24,0.21434705944916,1
64,678,24,0.203221663729006,1
65,677,24,0.184616514433661,1
65,678,24,0.168468295706987,1
67,673,24,0.136166629652499,1
68,672,24,0.16855194243231,1
68,673,24,0.204054993821554,1
68,674,24,0.18949312178788,1
68,675,24,0.16322270161314,1
69,672,24,0.271055160264847,2
69,673,24,0.288772405943243,3
70,671,24,0.303741433504868,2
70,672,24,0.350360251273833,2
70,673,24,0.298372313709085,2
71,670,24,0.25997640802403,2
71,671,24,0.330921466884206,2
71,672,24,0.28414712001716,2
72,671,24,0.225276447984074,2
57,671,25,0.161519038182059,1
58,666,25,0.151111180825037,1
58,667,25,0.158536644091722,1
58,668,25,0.16961299989035,1
58,669,25,0.16615310380089,1
58,670,25,0.168398929598528,1
58,671,25,0.218505605580134,1
58,672,25,0.213593443738161,1
58,673,25,0.164584076849167,1
58,674,25,0.141050818478372,1
59,663,25,0.12892551814768,1
59,664,25,0.134393316897063,1
59,665,25,0.147632505343148,1
59,666,25,0.148646135031679,1
59,667,25,0.14238465641506,1
59,668,25,0.145225409879094,1
59,669,25,0.146932373864645,1
59,670,25,0.158705647730658,1
59,671,25,0.194507916713066,1
59,672,25,0.179234029026214,1
59,673,25,0.135954555411671,1
59,674,25,0.118903978164481,1
60,659,25,0.151441508594984,1
60,660,25,0.153838789538982,1
60,661,25,0.144826326004154,1
60,662,25,0.127414692062398,1
60,663,25,0.113619060632893,1
60,664,25,0.119333616677334,1
60,665,25,0.123140081879033,1
60,666,25,0.112504725907819,1
60,667,25,0.10398186640517,1
60,668,25,0.105441528449712,1
60,669,25,0.113666564652835,1
60,670,25,0.13021953157235,1
60,671,25,0.143343080789886,1
60,672,25,0.127290806894134,1
60,673,25,0.107273957076788,1
60,674,25,0.104166327096227,1
60,675,25,0.11347411945212,1
60,676,25,0.107303422422797,1
61,656,25,0.149599363484122,1
61,657,25,0.131824102118907,1
61,658,25,0.12955064098566,1
61,659,25,0.125671498228113,1
61,660,25,0.122039101872705,1
61,661,25,0.125134259460963,1
61,662,25,0.119803047023447,1
61,663,25,0.100646617988307,1
61,669,25,0.103580004835874,1
61,670,25,0.12067850003393,1
61,671,25,0.123341317665414,1
61,672,25,0.109483825348669,1
61,675,25,0.104350548143064,1
61,676,25,0.101304724585146,1
62,657,25,0.130261730740719,1
62,658,25,0.121992131605796,1
62,659,25,0.119745074908306,1
62,660,25,0.117637828826719,1
62,661,25,0.109722456526121,1
62,669,25,0.112205639029684,1
62,670,25,0.137605170327019,1
62,671,25,0.135618879218474,1
62,672,25,0.111314674502485,1
62,678,25,0.120676223413851,1
63,657,25,0.108248285113416,1
63,658,25,0.101788980194076,1
63,659,25,0.108237958626164,1
63,660,25,0.11220499634746,1
63,669,25,0.112684143177359,1
63,670,25,0.146538442340412,1
63,671,25,0.14664033470513,1
63,672,25,0.119448177506898,1
63,673,25,0.111805509434516,1
63,674,25,0.109164869786202,1
63,675,25,0.109480394079171,1
63,676,25,0.123165211843262,1
63,677,25,0.142798304122759,1
63,678,25,0.157531848560535,1
63,679,25,0.198221683173718,1
64,662,25,0.106350226649111,1
64,663,25,0.123006610942011,1
64,670,25,0.104504977056322,1
64,671,25,0.112227958620801,1
64,672,25,0.112456339561435,1
64,673,25,0.129144400462909,1
64,674,25,0.128678760852622,1
64,675,25,0.122261753137922,1
64,676,25,0.151255032713905,1
64,677,25,0.186281039606625,1
64,678,25,0.173588076585899,1
64,679,25,0.166670332275759,1
65,662,25,0.118426552415791,1
65,663,25,0.151495308722132,1
65,664,25,0.116300744800157,1
65,666,25,0.104483626935,1
65,667,25,0.101755756790998,1
65,673,25,0.123027710526196,1
65,674,25,0.125107201450063,1
65,675,25,0.116903362867396,1
65,676,25,0.13522882557342,1
65,677,25,0.154315986536372,1
65,678,25,0.147270511857546,1
65,679,25,0.136858558762964,1
66,663,25,0.109850230466484,1
66,664,25,0.0999494820625408,1
66,673,25,0.114392425206115,1
66,674,25,0.112165335229229,1
66,675,25,0.103878427245948,1
66,676,25,0.102420355567586,1
66,677,25,0.115276309335936,1
66,678,25,0.155413949204125,1
67,665,25,0.109468095973573,1
67,666,25,0.123049224041304,1
67,667,25,0.114500940465611,1
67,668,25,0.10590168892172,1
67,669,25,0.0997538888082233,1
67,672,25,0.115380086175649,1
67,673,25,0.140825411304637,1
67,674,25,0.126608496231183,1
67,675,25,0.106573673097419,1
67,676,25,0.10489101121425,1
67,677,25,0.156292158123126,1
68,666,25,0.150176089082798,1
68,667,25,0.147818316756166,1
68,668,25,0.146399328871327,1
68,669,25,0.141997140820142,1
68,670,25,0.12046895295032,1
68,671,25,0.135755400172827,1
68,672,25,0.190851011289813,1
68,673,25,0.254383416956097,3
68,674,25,0.216811800240785,1
68,675,25,0.165662334226373,1
68,676,25,0.1759798674987,1
69,669,25,0.135529992999092,1
69,670,25,0.160831923741811,1
69,671,25,0.225718155851225,2
69,672,25,0.283520254312134,2
69,673,25,0.329783222201836,3
69,674,25,0.274323667766739,3
69,675,25,0.221182562220534,1
70,670,25,0.221803785393497,2
70,671,25,0.320842183537166,2
70,672,25,0.308578020274527,2
70,673,25,0.269726028069185,2
71,670,25,0.28106618858117,2
71,671,25,0.336198977230846,2
71,672,25,0.277503223691735,2
72,671,25,0.230123470170175,2
56,671,26,0.128180867309052,1
57,666,26,0.142574062491362,1
57,667,26,0.138951894586934,1
57,668,26,0.149145466440562,1
57,669,26,0.15149237852691,1
57,670,26,0.14584523875842,1
57,671,26,0.168322472199772,1
57,672,26,0.151910928048178,1
57,673,26,0.141206903115324,1
57,674,26,0.147511299832968,1
58,663,26,0.160365292875891,1
58,664,26,0.150929715686717,1
58,665,26,0.152473024456582,1
58,666,26,0.148695392811587,1
58,667,26,0.146516242571404,1
58,668,26,0.169011275042472,1
58,669,26,0.175174739173551,1
58,670,26,0.170022758825951,1
58,671,26,0.212666717757748,1
58,672,26,0.181278139749033,1
58,673,26,0.134484436164849,1
58,674,26,0.110648463573878,1
58,675,26,0.101577308991252,1
59,659,26,0.185335948164706,1
59,660,26,0.201169394209825,1
59,661,26,0.187309004376615,1
59,662,26,0.169226922160745,1
59,663,26,0.145065382005448,1
59,664,26,0.145764936159242,1
59,665,26,0.155264084423946,1
59,666,26,0.143812369528052,1
59,667,26,0.130071703768032,1
59,668,26,0.139351065605226,1
59,669,26,0.144271582316104,1
59,670,26,0.148643074121428,1
59,671,26,0.185100922543457,1
59,672,26,0.159246252409792,1
59,673,26,0.120760262284259,1
60,656,26,0.203179028843876,1
60,657,26,0.164870745799594,1
60,658,26,0.157134768982698,1
60,659,26,0.156354683478427,1
60,660,26,0.165683259523853,1
60,661,26,0.155244302882966,1
60,662,26,0.136488548088946,1
60,663,26,0.121223549024033,1
60,664,26,0.129140010616535,1
60,665,26,0.127015444793672,1
60,666,26,0.110796727094959,1
60,667,26,0.10159836500376,1
60,668,26,0.102881093364304,1
60,669,26,0.107565506054947,1
60,670,26,0.12380923389578,1
60,671,26,0.145274722123597,1
60,672,26,0.126201776419995,1
60,673,26,0.104932556807476,1
61,654,26,0.154044393385899,1
61,655,26,0.164087958851401,1
61,656,26,0.158257382326244,1
61,657,26,0.138635074036598,1
61,658,26,0.134479675959228,1
61,659,26,0.13736502503382,1
61,660,26,0.149632848317257,1
61,661,26,0.139780911083541,1
61,662,26,0.117312893051698,1
61,663,26,0.102927856665751,1
61,664,26,0.102451443958532,1
61,669,26,0.102644096124708,1
61,670,26,0.120003836200147,1
61,671,26,0.116887034381752,1
62,654,26,0.123330294031343,1
62,655,26,0.141566195157004,1
62,656,26,0.140003006809888,1
62,657,26,0.129184159617412,1
62,658,26,0.124394946152667,1
62,659,26,0.130981480366417,1
62,660,26,0.138752804705604,1
62,661,26,0.123137750794358,1
62,670,26,0.118351456631915,1
62,671,26,0.106856115595258,1
62,678,26,0.108442723718315,1
62,679,26,0.149723804191257,1
63,655,26,0.107627748194352,1
63,656,26,0.109990836265477,1
63,657,26,0.105401584115585,1
63,658,26,0.102875897441921,1
63,659,26,0.106259717384792,1
63,660,26,0.105125568439981,1
63,670,26,0.107226453056846,1
63,671,26,0.108762485356791,1
63,676,26,0.0999487849157221,1
63,677,26,0.12120641446238,1
63,678,26,0.136847044947536,1
63,679,26,0.164262049483529,1
63,680,26,0.154880588316155,1
64,676,26,0.119735794141282,1
64,677,26,0.143371424165233,1
64,678,26,0.140483787577643,1
64,679,26,0.144110497829311,1
64,680,26,0.137328348575405,1
65,663,26,0.108834727195878,1
65,676,26,0.11173825655235,1
65,677,26,0.118031259276677,1
65,678,26,0.122047326026581,1
65,679,26,0.133026527880273,1
66,678,26,0.146099032879178,1
66,679,26,0.163447901821414,1
67,659,26,0.101751824447224,1
67,665,26,0.100047747085218,1
67,666,26,0.106245197123709,1
67,668,26,0.0997408826628872,1
67,669,26,0.102497096182236,1
67,672,26,0.107370860484586,1
67,673,26,0.13637253850115,1
67,674,26,0.117255345760399,1
67,677,26,0.149266998738314,1
67,678,26,0.235570343622079,1
68,665,26,0.117260944720787,1
68,666,26,0.133226467409289,1
68,667,26,0.124798975412852,1
68,668,26,0.150553158368355,1
68,669,26,0.175086321349688,1
68,670,26,0.146230052909415,1
68,671,26,0.147093578173547,1
68,672,26,0.19290480581766,1
68,673,26,0.265443716592057,3
68,674,26,0.215547524485099,1
68,675,26,0.154387248012744,1
68,676,26,0.167874370189143,1
68,677,26,0.237453860039462,1
69,666,26,0.112526010671627,1
69,667,26,0.115173295000557,1
69,668,26,0.145964472650253,1
69,669,26,0.190438104300608,1
69,670,26,0.21903070963547,1
69,671,26,0.257894182977483,2
69,672,26,0.280556792115092,3
69,673,26,0.330813256626444,3
69,674,26,0.270279845859116,3
69,675,26,0.222166998886032,1
69,676,26,0.236098432337233,1
70,669,26,0.177479637271154,1
70,670,26,0.271743963107546,2
70,671,26,0.332729517158467,2
70,672,26,0.278747717906441,2
70,673,26,0.250792936553162,3
70,674,26,0.205249620252886,1
70,675,26,0.178479835990506,1
71,670,26,0.281925639893581,2
71,671,26,0.31421364622759,2
71,672,26,0.272480280863106,2
72,671,26,0.236136492196366,2
56,668,27,0.110449820302229,1
56,669,27,0.113573637160488,1
56,670,27,0.118871408336545,1
56,671,27,0.123129319675019,1
56,672,27,0.125301836127505,1
56,673,27,0.141402572620075,1
56,674,27,0.160246919524662,1
57,663,27,0.141801754531287,1
57,664,27,0.14001855100536,1
57,665,27,0.140904330503096,1
57,666,27,0.13893840915316,1
57,667,27,0.133133027949747,1
57,668,27,0.139088568042153,1
57,669,27,0.146854271635114,1
57,670,27,0.143660892595854,1
57,671,27,0.15598682960238,1
57,672,27,0.142883987823943,1
57,673,27,0.134677556726544,1
57,674,27,0.131178228270152,1
57,675,27,0.115305959861569,1
58,659,27,0.171977438683436,1
58,660,27,0.175575555022619,1
58,661,27,0.178841949298218,1
58,662,27,0.18580013901676,1
58,663,27,0.161658118972387,1
58,664,27,0.156764845452033,1
58,665,27,0.153303380782231,1
58,666,27,0.137902470766431,1
58,667,27,0.130834665603569,1
58,668,27,0.151888412384519,1
58,669,27,0.169109158812983,1
58,670,27,0.159694539600045,1
58,671,27,0.176068808182677,1
58,672,27,0.146009787193467,1
58,673,27,0.112520912785515,1
59,656,27,0.19883449701318,1
59,657,27,0.172689595944561,1
59,658,27,0.174133855401578,1
59,659,27,0.179554901742433,1
59,660,27,0.193078438947189,1
59,661,27,0.200652416272093,1
59,662,27,0.194601181885903,1
59,663,27,0.157074433104125,1
59,664,27,0.157081480822745,1
59,665,27,0.153539168907813,1
59,666,27,0.132702888362618,1
59,667,27,0.116858919757705,1
59,668,27,0.12430497064138,1
59,669,27,0.135889938615915,1
59,670,27,0.136467601005629,1
59,671,27,0.15453408456143,1
59,672,27,0.131744888811634,1
59,673,27,0.105692468625681,1
60,654,27,0.20133339799892,1
60,655,27,0.203582633280219,1
60,656,27,0.192299682379041,1
60,657,27,0.165356559095946,1
60,658,27,0.158024426359612,1
60,659,27,0.155264672641574,1
60,660,27,0.167125983079284,1
60,661,27,0.159083806308119,1
60,662,27,0.141850565701514,1
60,663,27,0.130066714811111,1
60,664,27,0.137176228960984,1
60,665,27,0.126187572053564,1
60,666,27,0.108771167013268,1
60,669,27,0.100995812294035,1
60,670,27,0.1139996483313,1
60,671,27,0.129910205350316,1
60,672,27,0.112528831937659,1
61,653,27,0.178331768541968,1
61,654,27,0.175316259977744,1
61,655,27,0.169739227036208,1
61,656,27,0.170088127233122,1
61,657,27,0.155500166658342,1
61,658,27,0.147293049307044,1
61,659,27,0.152534144625326,1
61,660,27,0.168778765685521,1
61,661,27,0.140965929960278,1
61,662,27,0.107883546612215,1
61,663,27,0.104595551678156,1
61,664,27,0.106445136652724,1
61,670,27,0.107616136342654,1
61,671,27,0.104554823053858,1
62,653,27,0.115796979973223,1
62,654,27,0.12737339700631,1
62,655,27,0.13640482511319,1
62,656,27,0.142437290999871,1
62,657,27,0.132890072283435,1
62,658,27,0.128489147810859,1
62,659,27,0.132829224437666,1
62,660,27,0.138955304070594,1
62,661,27,0.116613349790823,1
62,679,27,0.116853473298184,1
63,655,27,0.101707250622504,1
63,656,27,0.102617430258893,1
63,678,27,0.114066922999303,1
63,679,27,0.131766674649718,1
64,677,27,0.10118790892134,1
64,678,27,0.110910329347647,1
64,679,27,0.122707382455929,1
65,659,27,0.100457854594229,1
65,678,27,0.104620463784005,1
65,679,27,0.125266140031804,1
66,658,27,0.12014741576604,1
66,659,27,0.140154810529656,1
66,660,27,0.121167363347614,1
66,661,27,0.103464910253277,1
66,662,27,0.102242539557145,1
66,678,27,0.13307591637521,1
66,679,27,0.151527780513796,1
67,658,27,0.136467252432219,1
67,659,27,0.171787215638206,1
67,660,27,0.149585028402663,1
67,661,27,0.118658898378956,1
67,662,27,0.111171378152488,1
67,663,27,0.103850889946609,1
67,673,27,0.12197377703721,1
67,674,27,0.105691869515134,1
67,677,27,0.13684291653122,1
67,678,27,0.193625699199857,1
67,679,27,0.165361820375844,1
68,659,27,0.130584684004475,1
68,660,27,0.122613768709682,1
68,661,27,0.10696114512066,1
68,662,27,0.100029719304204,1
68,665,27,0.105931698913681,1
68,666,27,0.111800466012999,1
68,667,27,0.100748891605192,1
68,668,27,0.125896044861244,1
68,669,27,0.159950653912559,1
68,670,27,0.141166316098974,1
68,671,27,0.138453783184983,1
68,672,27,0.177300579467942,1
68,673,27,0.231728389290141,1
68,674,27,0.185983336129208,1
68,675,27,0.139017676925028,1
68,676,27,0.149679981977951,1
68,677,27,0.202242760666381,1
68,678,27,0.203158593727753,1
69,665,27,0.103209460408824,1
69,666,27,0.119200015025284,1
69,667,27,0.113438935323615,1
69,668,27,0.150396779622589,1
69,669,27,0.219849770004073,1
69,670,27,0.240499367702728,1
69,671,27,0.244256640482034,1
69,672,27,0.252964352820825,1
69,673,27,0.281055992808947,3
69,674,27,0.223892371904764,1
69,675,27,0.193475093701183,1
69,676,27,0.201849286644748,1
69,677,27,0.189691002555196,1
70,668,27,0.162917678094128,1
70,669,27,0.233756781530783,1
70,670,27,0.289541380670092,1
70,671,27,0.289806623248763,2
70,672,27,0.234866944267863,1
70,673,27,0.215940562789971,1
70,674,27,0.182787059573483,1
70,675,27,0.171541384241267,1
71,671,27,0.252026123917903,2
55,670,28,0.106410181275518,1
55,671,28,0.115835246797818,1
55,672,28,0.121354296731294,1
55,673,28,0.134325410439756,1
55,674,28,0.144232585665933,1
56,667,28,0.121162603141993,1
56,668,28,0.110281252380055,1
56,669,28,0.108583296838551,1
56,670,28,0.114803120932754,1
56,671,28,0.113125763901158,1
56,672,28,0.121894901410427,1
56,673,28,0.141470293897759,1
56,674,28,0.144296744959091,1
56,675,28,0.132238545009697,1
56,676,28,0.112930432076898,1
57,660,28,0.130294736285416,1
57,661,28,0.133465730376045,1
57,662,28,0.138568627230442,1
57,663,28,0.126850155640129,1
57,664,28,0.130221111045612,1
57,665,28,0.135406456404237,1
57,666,28,0.132263664081008,1
57,667,28,0.1307117499051,1
57,668,28,0.131525331135425,1
57,669,28,0.140316167339425,1
57,670,28,0.139502302893205,1
57,671,28,0.132256442075683,1
57,672,28,0.127482173695863,1
57,673,28,0.12495886167855,1
57,674,28,0.112679023505409,1
58,656,28,0.171271599315355,1
58,657,28,0.161787003990491,1
58,658,28,0.171638058897764,1
58,659,28,0.173029258946128,1
58,660,28,0.169198164854475,1
58,661,28,0.182354991939683,1
58,662,28,0.187014873776644,1
58,663,28,0.156994925688037,1
58,664,28,0.159576068212544,1
58,665,28,0.154884716732472,1
58,666,28,0.131721904752456,1
58,667,28,0.124382789655016,1
58,668,28,0.136763136792156,1
58,669,28,0.153799727531297,1
58,670,28,0.144928871944015,1
58,671,28,0.133775917138684,1
58,672,28,0.115112479833545,1
59,654,28,0.176006391756567,1
59,655,28,0.193349846918039,1
59,656,28,0.191070176820937,1
59,657,28,0.173949852213121,1
59,658,28,0.175121984766631,1
59,659,28,0.173075532066218,1
59,660,28,0.17696280094137,1
59,661,28,0.198513395545661,1
59,662,28,0.199537765652367,1
59,663,28,0.16717492496454,1
59,664,28,0.166354437623542,1
59,665,28,0.152738223463577,1
59,666,28,0.126450548905075,1
59,667,28,0.112902339238689,1
59,668,28,0.114010573929099,1
59,669,28,0.124800337027732,1
59,670,28,0.12442026129652,1
59,671,28,0.120872078098225,1
59,672,28,0.104487929638021,1
60,653,28,0.20938814519866,1
60,654,28,0.205322951383877,1
60,655,28,0.189909318438635,1
60,656,28,0.183180413773007,1
60,657,28,0.16995193306634,1
60,658,28,0.159198508745631,1
60,659,28,0.159159446737946,1
60,660,28,0.166440132217645,1
60,661,28,0.160459483946847,1
60,662,28,0.146209574221616,1
60,663,28,0.140660721261641,1
60,664,28,0.144381884014323,1
60,665,28,0.130504958730007,1
60,666,28,0.114491681484425,1
60,667,28,0.103148198632132,1
60,670,28,0.102183456364261,1
60,671,28,0.10526554244967,1
61,652,28,0.154427235918547,1
61,653,28,0.186411340704205,1
61,654,28,0.197335239207921,1
61,655,28,0.173847698418345,1
61,656,28,0.178293839397864,1
61,657,28,0.178153157348437,1
61,658,28,0.166148517881973,1
61,659,28,0.177225995651262,1
61,660,28,0.181833874692716,1
61,661,28,0.138512136552291,1
61,662,28,0.104153985418952,1
61,663,28,0.108038182490934,1
61,664,28,0.111637050441532,1
61,665,28,0.100935999275576,1
62,652,28,0.101707043657042,1
62,653,28,0.120656518123304,1
62,654,28,0.134526461046513,1
62,655,28,0.129190793405109,1
62,656,28,0.139321785438841,1
62,657,28,0.141627565862887,1
62,658,28,0.136761372139271,1
62,659,28,0.13875341470907,1
62,660,28,0.133085676430671,1
62,661,28,0.104268905714845,1
63,679,28,0.104909409354512,1
64,679,28,0.102598356757651,1
65,657,28,0.101775211544407,1
65,658,28,0.115346132946995,1
65,659,28,0.108240888821386,1
65,679,28,0.108910988522091,1
66,657,28,0.114532148678666,1
66,658,28,0.164340936003231,1
66,659,28,0.192272188651379,1
66,660,28,0.150576262249643,1
66,661,28,0.12062461276343,1
66,662,28,0.116139279061198,1
66,663,28,0.109527190059375,1
66,678,28,0.116862035132551,1
66,679,28,0.121998721821816,1
67,657,28,0.114375051000243,1
67,658,28,0.186094814262684,1
67,659,28,0.261586120028375,1
67,660,28,0.220639876993863,1
67,661,28,0.165422265183607,1
67,662,28,0.142404002239278,1
67,663,28,0.125165827140347,1
67,664,28,0.105685039654895,1
67,673,28,0.0997968286950867,1
67,677,28,0.125315049238303,1
67,678,28,0.139370455001121,1
68,658,28,0.134171798495426,1
68,659,28,0.1812405373925,1
68,660,28,0.176157498329517,1
68,661,28,0.150972938789475,1
68,662,28,0.124946988396794,1
68,663,28,0.104774947161858,1
68,669,28,0.127216909331353,1
68,670,28,0.125718904211784,1
68,671,28,0.128112590492497,1
68,672,28,0.155742523214107,1
68,673,28,0.174020667079813,1
68,674,28,0.142390353411719,1
68,675,28,0.121595781853535,1
68,676,28,0.129976739299824,1
68,677,28,0.150056299652094,1
69,659,28,0.1069857086531,1
69,660,28,0.111405096623452,1
69,661,28,0.106402588910946,1
69,665,28,0.110770573196339,1
69,666,28,0.122063120759192,1
69,667,28,0.110458937675467,1
69,668,28,0.14528798969899,1
69,669,28,0.224645660828192,1
69,670,28,0.233313091152366,1
69,671,28,0.21433091614314,1
69,672,28,0.220270868468398,1
69,673,28,0.213151997301067,1
69,674,28,0.166631651520241,1
69,675,28,0.153929669162549,1
69,676,28,0.15264472953944,1
70,669,28,0.290965586263152,1
70,670,28,0.295747054862459,1
70,671,28,0.238091379019312,1
70,672,28,0.197373778355491,1
70,673,28,0.178380252924624,1
70,674,28,0.155692862396195,1
70,675,28,0.152818264632697,1
71,670,28,0.23833074002234,1
54,672,29,0.124572489840131,1
54,673,29,0.12595078177943,1
54,674,29,0.12781875400134,1
55,670,29,0.107176596166391,1
55,671,29,0.11637563361857,1
55,672,29,0.124143254365283,1
55,673,29,0.143412120110774,1
55,674,29,0.142913191739895,1
55,675,29,0.137683425057416,1
55,676,29,0.124061622829983,1
56,665,29,0.116209767140318,1
56,666,29,0.120633501385368,1
56,667,29,0.130203932912282,1
56,668,29,0.119273346156275,1
56,669,29,0.113644484705936,1
56,670,29,0.119328627720412,1
56,671,29,0.109787933862483,1
56,672,29,0.119076935933029,1
56,673,29,0.136302627746738,1
56,674,29,0.129519193128386,1
56,675,29,0.119399300979157,1
56,676,29,0.108337400084098,1
57,658,29,0.139943749330299,1
57,659,29,0.1405927385539,1
57,660,29,0.135149666730742,1
57,661,29,0.139817282540222,1
57,662,29,0.133285103992491,1
57,663,29,0.118047555083564,1
57,664,29,0.126674474641821,1
57,665,29,0.136565321382354,1
57,666,29,0.129403248898103,1
57,667,29,0.134038011663753,1
57,668,29,0.134036170760435,1
57,669,29,0.138886297428463,1
57,670,29,0.139281525210062,1
57,671,29,0.115908065961613,1
57,672,29,0.113798270936971,1
57,673,29,0.11310380377637,1
57,674,29,0.099711994641588,1
58,655,29,0.165629895113466,1
58,656,29,0.16820811833567,1
58,657,29,0.162921370793683,1
58,658,29,0.175967504035587,1
58,659,29,0.183105579419189,1
58,660,29,0.172275566984695,1
58,661,29,0.182775937903141,1
58,662,29,0.178220148800545,1
58,663,29,0.154786604210661,1
58,664,29,0.159330988427019,1
58,665,29,0.156782873233048,1
58,666,29,0.130704418970584,1
58,667,29,0.127358125133813,1
58,668,29,0.133469379503924,1
58,669,29,0.141331267572026,1
58,670,29,0.134906776421944,1
58,671,29,0.108288044267919,1
59,654,29,0.161597630592947,1
59,655,29,0.173226747568358,1
59,656,29,0.181345795669203,1
59,657,29,0.17305890947176,1
59,658,29,0.170282042977907,1
59,659,29,0.167362272279143,1
59,660,29,0.163340116387494,1
59,661,29,0.185684913719135,1
59,662,29,0.192315259253271,1
59,663,29,0.17475156016169,1
59,664,29,0.167085396062934,1
59,665,29,0.149169616042078,1
59,666,29,0.122710083899851,1
59,667,29,0.11482407890899,1
59,668,29,0.111977410589917,1
59,669,29,0.116381755439072,1
59,670,29,0.11507422390187,1
60,653,29,0.192899991147444,1
60,654,29,0.200405517369088,1
60,655,29,0.177606757636374,1
60,656,29,0.178649580347937,1
60,657,29,0.172922116194431,1
60,658,29,0.152388125045568,1
60,659,29,0.156173240125945,1
60,660,29,0.157150498357795,1
60,661,29,0.156602355778684,1
60,662,29,0.149619025202993,1
60,663,29,0.145266890114806,1
60,664,29,0.142819338349429,1
60,665,29,0.132252455267314,1
60,666,29,0.117526187299458,1
60,667,29,0.106046281529083,1
61,652,29,0.143069897273233,1
61,653,29,0.177240123767259,1
61,654,29,0.209142727732645,1
61,655,29,0.172602365448873,1
61,656,29,0.173846641805198,1
61,657,29,0.185349281097614,1
61,658,29,0.166260442625129,1
61,659,29,0.180027981216425,1
61,660,29,0.167841005178118,1
61,661,29,0.127947954914097,1
61,662,29,0.102587496517366,1
61,663,29,0.104340722730088,1
61,664,29,0.110031401495989,1
61,665,29,0.109260869081718,1
62,652,29,0.103057471509431,1
62,653,29,0.118112084735968,1
62,654,29,0.135510625389035,1
62,655,29,0.119740521668146,1
62,656,29,0.127357275486128,1
62,657,29,0.140810575148901,1
62,658,29,0.132228196736607,1
62,659,29,0.13310263670562,1
62,660,29,0.116335994286177,1
63,654,29,0.102022720450878,1
64,654,29,0.104591510405191,1
64,655,29,0.101654387286393,1
65,655,29,0.108262609301956,1
65,656,29,0.120906031326879,1
65,657,29,0.128680253182531,1
65,658,29,0.130607439312354,1
65,659,29,0.113257263219833,1
66,656,29,0.1247706865021,1
66,657,29,0.156999925537878,1
66,658,29,0.207034817182997,1
66,659,29,0.222880637584147,1
66,660,29,0.162992251017889,1
66,661,29,0.128815445200761,1
66,662,29,0.122534631652842,1
66,663,29,0.117580935110563,1
66,664,29,0.105268679610354,1
67,656,29,0.108316529251214,1
67,657,29,0.138434415574926,1
67,658,29,0.228955967107258,1
67,659,29,0.320104972562244,1
67,660,29,0.269402595516991,1
67,661,29,0.206547446199221,1
67,662,29,0.171264453560463,1
67,663,29,0.148477578002424,1
67,664,29,0.128814802518537,1
67,677,29,0.110830320857284,1
68,657,29,0.116303359100727,1
68,658,29,0.157690536605138,1
68,659,29,0.227845826156015,1
68,660,29,0.231860999686558,1
68,661,29,0.203975366583357,1
68,662,29,0.156020695687682,1
68,663,29,0.1224054960976,1
68,664,29,0.110725966692862,1
68,665,29,0.100645299945103,1
68,669,29,0.100698163281214,1
68,670,29,0.108489977201119,1
68,671,29,0.115978303503596,1
68,672,29,0.1291990829165,1
68,673,29,0.123493676924054,1
68,674,29,0.107572945918652,1
68,675,29,0.104190335089795,1
68,676,29,0.108587697577844,1
68,677,29,0.105599650062525,1
69,658,29,0.11370891632207,1
69,659,29,0.128358530818627,1
69,660,29,0.135650098324449,1
69,661,29,0.129293557203351,1
69,662,29,0.109983483545124,1
69,664,29,0.107609273803657,1
69,665,29,0.129217894987685,1
69,666,29,0.13317732945149,1
69,667,29,0.113290650016696,1
69,668,29,0.137688283299309,1
69,669,29,0.213876419989033,1
69,670,29,0.210236115374401,1
69,671,29,0.183315377039937,1
69,672,29,0.182336277904769,1
69,673,29,0.154763957831972,1
69,674,29,0.123858415425255,1
69,675,29,0.117903746766372,1
70,669,29,0.328601340485783,1
70,670,29,0.293619079555935,1
70,671,29,0.198179004716911,1
70,672,29,0.161697344373857,1
70,673,29,0.139937202685955,1
54,670,30,0.104475577067828,1
54,671,30,0.1247238360573,1
54,672,30,0.124520127578297,1
54,673,30,0.129235280086476,1
54,674,30,0.124213775123161,1
54,675,30,0.118132650567119,1
55,667,30,0.115634228869817,1
55,668,30,0.107516487919258,1
55,669,30,0.101458717781643,1
55,670,30,0.109048173944505,1
55,671,30,0.119430999373569,1
55,672,30,0.12786662838053,1
55,673,30,0.144604371885755,1
55,674,30,0.133894159774885,1
55,675,30,0.120230768382549,1
55,676,30,0.110480353154304,1
56,661,30,0.118551886342287,1
56,664,30,0.109771921271491,1
56,665,30,0.119733844308773,1
56,666,30,0.121026191116831,1
56,667,30,0.135325434872403,1
56,668,30,0.131717318833539,1
56,669,30,0.12164973448155,1
56,670,30,0.120573372472256,1
56,671,30,0.114053023634605,1
56,672,30,0.116539757229775,1
56,673,30,0.12287575430556,1
56,674,30,0.110154491481164,1
56,675,30,0.102977506590744,1
57,656,30,0.161661550241885,1
57,657,30,0.156946179875325,1
57,658,30,0.147571254459375,1
57,659,30,0.150088117868616,1
57,660,30,0.14485616170941,1
57,661,30,0.149183232190881,1
57,662,30,0.13125796443754,1
57,663,30,0.116593742536547,1
57,664,30,0.12379627132212,1
57,665,30,0.136864582547194,1
57,666,30,0.129318382165847,1
57,667,30,0.134617754601004,1
57,668,30,0.136151401351679,1
57,669,30,0.133557840899464,1
57,670,30,0.130188170858429,1
57,671,30,0.108025590276522,1
57,672,30,0.100109956545867,1
58,654,30,0.152893610953711,1
58,655,30,0.163127094462709,1
58,656,30,0.175149772603107,1
58,657,30,0.175826288233127,1
58,658,30,0.180201418273411,1
58,659,30,0.192200578601598,1
58,660,30,0.178295854587887,1
58,661,30,0.181394094872235,1
58,662,30,0.171235434824135,1
58,663,30,0.160096608134802,1
58,664,30,0.155481409051752,1
58,665,30,0.154976968863838,1
58,666,30,0.132966736647652,1
58,667,30,0.127700598508492,1
58,668,30,0.12817782818464,1
58,669,30,0.127476117232876,1
58,670,30,0.122595926108291,1
59,653,30,0.169534712481195,1
59,654,30,0.159440669228853,1
59,655,30,0.165580060008849,1
59,656,30,0.178545999580767,1
59,657,30,0.176552323073112,1
59,658,30,0.165231748029564,1
59,659,30,0.164020411860421,1
59,660,30,0.157351243962819,1
59,661,30,0.174276824964003,1
59,662,30,0.18849973114293,1
59,663,30,0.187234082879444,1
59,664,30,0.162288219874369,1
59,665,30,0.141465130654133,1
59,666,30,0.118766607562443,1
59,667,30,0.112852220918177,1
59,668,30,0.108542481070901,1
59,669,30,0.106418470786909,1
59,670,30,0.103808265954398,1
60,652,30,0.167779688936831,1
60,653,30,0.181211191868601,1
60,654,30,0.200659060952709,1
60,655,30,0.180321469134173,1
60,656,30,0.181461162574776,1
60,657,30,0.180378155884867,1
60,658,30,0.151814612858009,1
60,659,30,0.151317765034667,1
60,660,30,0.147515951109399,1
60,661,30,0.150104141352526,1
60,662,30,0.154701955336786,1
60,663,30,0.150446636513044,1
60,664,30,0.135482728623369,1
60,665,30,0.128328760470885,1
60,666,30,0.113090601558491,1
60,667,30,0.102283464253986,1
61,652,30,0.135137248803034,1
61,653,30,0.166247795946122,1
61,654,30,0.208746922626336,1
61,655,30,0.173109496187791,1
61,656,30,0.165493766304199,1
61,657,30,0.181597759779562,1
61,658,30,0.160144406263559,1
61,659,30,0.166512559236355,1
61,660,30,0.146268254376495,1
61,661,30,0.117100916847141,1
61,662,30,0.103389117322583,1
61,663,30,0.100266073861576,1
61,664,30,0.102979380172819,1
61,665,30,0.110219304349463,1
62,652,30,0.112158788584884,1
62,653,30,0.120633523171206,1
62,654,30,0.134277514274728,1
62,655,30,0.114908095993561,1
62,656,30,0.115054485932566,1
62,657,30,0.130748415470595,1
62,658,30,0.123345358938378,1
62,659,30,0.122345595935788,1
62,660,30,0.103193959785027,1
63,652,30,0.106817358589307,1
63,653,30,0.11107152276363,1
63,654,30,0.104439641327908,1
64,653,30,0.108829182700085,1
64,654,30,0.116849780598629,1
64,655,30,0.11264956905232,1
64,656,30,0.10443484844353,1
65,654,30,0.113929574183103,1
65,655,30,0.142719657247276,1
65,656,30,0.161086066435979,1
65,657,30,0.150907984313228,1
65,658,30,0.135137074516329,1
65,659,30,0.113456189707377,1
66,655,30,0.135787218389349,1
66,656,30,0.181400412765279,1
66,657,30,0.202160410198424,1
66,658,30,0.226568391754126,1
66,659,30,0.22177258807336,1
66,660,30,0.167819132196681,1
66,661,30,0.136947031051423,1
66,662,30,0.124976965709998,1
66,663,30,0.119828122523082,1
66,664,30,0.109550381084016,1
67,655,30,0.10173856776475,1
67,656,30,0.131455703596908,1
67,657,30,0.167198878493513,1
67,658,30,0.252264591701569,1
67,659,30,0.331738915100791,1
67,660,30,0.286732881139341,1
67,661,30,0.231608022534728,1
67,662,30,0.187949224800387,1
67,663,30,0.166955454431682,1
67,664,30,0.150030810221536,1
67,665,30,0.101915860915076,1
68,657,30,0.126483979273615,1
68,658,30,0.190213034807363,1
68,659,30,0.27918138679934,1
68,660,30,0.279943564344706,1
68,661,30,0.243190114778635,1
68,662,30,0.178277412875949,1
68,663,30,0.139234968874077,1
68,664,30,0.128656397689829,1
68,665,30,0.108784325659471,1
68,670,30,0.0999364541313666,1
68,671,30,0.108282641380074,1
68,672,30,0.106194958981087,1
69,658,30,0.13966893187579,1
69,659,30,0.171468957222557,1
69,660,30,0.168915646106202,1
69,661,30,0.149926434271276,1
69,662,30,0.120913046366742,1
69,663,30,0.108022823475085,1
69,664,30,0.125977197108107,1
69,665,30,0.159987286799297,1
69,666,30,0.159919162483609,1
69,667,30,0.130123249060939,1
69,668,30,0.135212606016966,1
69,669,30,0.187798466800846,1
69,670,30,0.179619126393104,1
69,671,30,0.15586744320968,1
69,672,30,0.143329137853512,1
69,673,30,0.116434444488478,1
70,665,30,0.226517086105439,1
70,666,30,0.26373862618858,1
70,669,30,0.307460929640936,1
70,670,30,0.26437603623924,1
70,671,30,0.176340510262341,1
54,669,31,0.10214833759327,1
54,670,31,0.103807655950932,1
54,671,31,0.115256081185276,1
54,672,31,0.119044540391798,1
54,673,31,0.126736019634408,1
54,674,31,0.113876787097425,1
54,675,31,0.101589661561446,1
55,666,31,0.113940532459659,1
55,667,31,0.116449563860108,1
55,668,31,0.119754965678796,1
55,669,31,0.110551756238624,1
55,670,31,0.104487352313312,1
55,671,31,0.114806519523495,1
55,672,31,0.122951874023826,1
55,673,31,0.133029207538358,1
55,674,31,0.118497345496644,1
55,675,31,0.104097669027505,1
55,676,31,0.0998618703146863,1
56,660,31,0.116849726134033,1
56,661,31,0.126452346236717,1
56,663,31,0.104701997283034,1
56,664,31,0.114939347778292,1
56,665,31,0.120836676111339,1
56,666,31,0.119263008776104,1
56,667,31,0.132343106139581,1
56,668,31,0.143047229108706,1
56,669,31,0.126891330874108,1
56,670,31,0.112494889601924,1
56,671,31,0.113385222339819,1
56,672,31,0.109908191688706,1
56,673,31,0.106178053170734,1
57,656,31,0.170504694243125,1
57,657,31,0.165396721288454,1
57,658,31,0.145536871113261,1
57,659,31,0.145940203226627,1
57,660,31,0.146644855266533,1
57,661,31,0.149146326981167,1
57,662,31,0.131696360857302,1
57,663,31,0.121551861603958,1
57,664,31,0.12277945000831,1
57,665,31,0.131177291479115,1
57,666,31,0.126678820916518,1
57,667,31,0.128746994097501,1
57,668,31,0.134555174781108,1
57,669,31,0.12381491999952,1
57,670,31,0.111710708360093,1
58,654,31,0.14664739331667,1
58,655,31,0.156044257071569,1
58,656,31,0.176488000386169,1
58,657,31,0.180751706757573,1
58,658,31,0.169660460338615,1
58,659,31,0.176259739267645,1
58,660,31,0.168401129968174,1
58,661,31,0.165043420352247,1
58,662,31,0.160972202753233,1
58,663,31,0.160891497116051,1
58,664,31,0.14635199913809,1
58,665,31,0.144223337577667,1
58,666,31,0.13000692357849,1
58,667,31,0.12067521037238,1
58,668,31,0.118934129764389,1
58,669,31,0.112281421067459,1
58,670,31,0.103705251619018,1
59,653,31,0.166193832425188,1
59,654,31,0.159707643781652,1
59,655,31,0.160881116164204,1
59,656,31,0.169344304256342,1
59,657,31,0.169420336831255,1
59,658,31,0.151882813424131,1
59,659,31,0.149513146029905,1
59,660,31,0.14625193678377,1
59,661,31,0.152826804681226,1
59,662,31,0.173013976180712,1
59,663,31,0.181246887964302,1
59,664,31,0.15024247053144,1
59,665,31,0.131846454388782,1
59,666,31,0.114726881392379,1
59,667,31,0.106578335266769,1
59,668,31,0.104034490097062,1
60,652,31,0.1528136896067,1
60,653,31,0.166628503466638,1
60,654,31,0.189918272418088,1
60,655,31,0.17629230909558,1
60,656,31,0.169476849295244,1
60,657,31,0.171706662501891,1
60,658,31,0.144759356337884,1
60,659,31,0.137192557446628,1
60,660,31,0.134060058931894,1
60,661,31,0.134534619842876,1
60,662,31,0.14661452937992,1
60,663,31,0.144078995507442,1
60,664,31,0.125889650717766,1
60,665,31,0.121144608039736,1
60,666,31,0.105148291069102,1
61,652,31,0.131631635132355,1
61,653,31,0.14872321332682,1
61,654,31,0.180232855237767,1
61,655,31,0.158502135324197,1
61,656,31,0.145076808677523,1
61,657,31,0.157668402193645,1
61,658,31,0.139908619666389,1
61,659,31,0.136026906179948,1
61,660,31,0.122571122931633,1
61,661,31,0.105393447105061,1
61,662,31,0.100830250817517,1
61,665,31,0.101088020853726,1
62,652,31,0.129442005904054,1
62,653,31,0.122574129377289,1
62,654,31,0.121976140800642,1
62,655,31,0.107335011888019,1
62,656,31,0.102173870595504,1
62,657,31,0.110409647216803,1
62,658,31,0.105629845234109,1
62,659,31,0.103268336636245,1
63,652,31,0.128499626798977,1
63,653,31,0.122149599643466,1
63,654,31,0.104618372343549,1
64,652,31,0.109575206046512,1
64,653,31,0.120421307322431,1
64,654,31,0.125139193953289,1
64,655,31,0.123124178217231,1
64,656,31,0.116116251430343,1
65,652,31,0.106611994386609,1
65,653,31,0.108484519848679,1
65,654,31,0.138051671078549,1
65,655,31,0.179036333438521,1
65,656,31,0.203290681264056,1
65,657,31,0.169665329473427,1
65,658,31,0.132084148775196,1
65,659,31,0.112970921056977,1
65,660,31,0.10680742424714,1
66,654,31,0.119126771037646,1
66,655,31,0.181765412696537,1
66,656,31,0.247972389453951,1
66,657,31,0.244410535642258,1
66,658,31,0.222540626009171,1
66,659,31,0.200941557915143,1
66,660,31,0.172322362964899,1
66,661,31,0.14678758518474,1
66,662,31,0.129745232091425,1
66,663,31,0.122346990229426,1
66,664,31,0.10939899129517,1
67,655,31,0.119537728194342,1
67,656,31,0.162230934013127,1
67,657,31,0.198352463559735,1
67,658,31,0.254751466904687,1
67,659,31,0.303033873055578,1
67,660,31,0.275927323308097,1
67,661,31,0.237398349724025,1
67,662,31,0.201496312496112,1
67,663,31,0.185306711569998,1
67,664,31,0.167084938560334,1
67,665,31,0.107707887399744,1
68,656,31,0.110397425361637,1
68,657,31,0.141743684379874,1
68,658,31,0.219300244024245,1
68,659,31,0.312881355085406,4
68,660,31,0.301539843851459,1
68,661,31,0.257851003446401,1
68,662,31,0.199759523698224,1
68,663,31,0.16441734983031,1
68,664,31,0.157098898600293,1
68,665,31,0.129638470591895,1
68,666,31,0.0999389268239891,1
68,671,31,0.100576020979996,1
69,658,31,0.170545608047046,1
69,659,31,0.220488530776694,1
69,660,31,0.20160071023221,1
69,661,31,0.170335167744075,1
69,662,31,0.14057705275048,1
69,663,31,0.126614367514547,1
69,664,31,0.151582157965654,1
69,665,31,0.190915127011294,1
69,666,31,0.184311076983724,1
69,667,31,0.152606822181174,1
69,668,31,0.142425080037625,1
69,669,31,0.16125284791943,1
69,670,31,0.152770379360589,1
69,671,31,0.138193475098637,1
69,672,31,0.119116411871637,1
70,662,31,0.103665536036191,1
70,664,31,0.161117231077358,1
70,665,31,0.253425493655547,1
70,666,31,0.294008806413419,1
70,667,31,0.249604954802446,1
70,669,31,0.258858032025992,1
54,667,32,0.108787462820155,1
54,668,32,0.110990871591043,1
54,669,32,0.109473161180927,1
54,672,32,0.108663632116486,1
54,673,32,0.117927329936098,1
54,674,32,0.103731056944229,1
55,664,32,0.117432224979802,1
55,665,32,0.121942917397564,1
55,666,32,0.11385706002104,1
55,667,32,0.114242614890531,1
55,668,32,0.125764981259331,1
55,669,32,0.117388609731958,1
55,671,32,0.103757515844582,1
55,672,32,0.110439951317577,1
55,673,32,0.112372126404321,1
55,674,32,0.100439859491972,1
56,661,32,0.131767861977894,1
56,662,32,0.118005432165628,1
56,663,32,0.112293937031438,1
56,664,32,0.118919228251139,1
56,665,32,0.118988485430408,1
56,666,32,0.115536388670982,1
56,667,32,0.122831790484307,1
56,668,32,0.140478657012774,1
56,669,32,0.125877908151039,1
56,670,32,0.102984891989855,1
56,671,32,0.108053160254617,1
56,672,32,0.100206751024474,1
57,656,32,0.175414219998689,1
57,657,32,0.171252928852117,1
57,658,32,0.144593664146336,1
57,659,32,0.139453404579625,1
57,660,32,0.145297619039423,1
57,661,32,0.144919024745201,1
57,662,32,0.134585729419021,1
57,663,32,0.13104556340914,1
57,664,32,0.123972693038924,1
57,665,32,0.122595239854392,1
57,666,32,0.121311542024054,1
57,667,32,0.117650987472922,1
57,668,32,0.122673549049384,1
57,669,32,0.110585404465545,1
58,654,32,0.141957545059425,1
58,655,32,0.149970888273886,1
58,656,32,0.172409920248159,1
58,657,32,0.178996596069856,1
58,658,32,0.15603696970873,1
58,659,32,0.150263145291782,1
58,660,32,0.151067576470112,1
58,661,32,0.148655982230493,1
58,662,32,0.154084653614678,1
58,663,32,0.159352796050941,1
58,664,32,0.136768920932167,1
58,665,32,0.128107394570114,1
58,666,32,0.12209191074422,1
58,667,32,0.109014710897208,1
58,668,32,0.105153116632238,1
59,653,32,0.155462727695595,1
59,654,32,0.156768788688726,1
59,655,32,0.155443937410248,1
59,656,32,0.156360021008758,1
59,657,32,0.157568579483544,1
59,658,32,0.14012452821472,1
59,659,32,0.131618574522424,1
59,660,32,0.13195551429423,1
59,661,32,0.134992046192205,1
59,662,32,0.154846635087501,1
59,663,32,0.164117402411571,1
59,664,32,0.134734058297615,1
59,665,32,0.118663778406686,1
59,666,32,0.107193959479344,1
60,652,32,0.137380961374378,1
60,653,32,0.143979608514103,1
60,654,32,0.164877118157233,1
60,655,32,0.160214948807274,1
60,656,32,0.148361677343817,1
60,657,32,0.151091203211514,1
60,658,32,0.133511676708564,1
60,659,32,0.119881149252978,1
60,660,32,0.117159607894939,1
60,661,32,0.118609422740667,1
60,662,32,0.131885734254847,1
60,663,32,0.131711719873152,1
60,664,32,0.113967394398016,1
60,665,32,0.107074257191992,1
61,652,32,0.123487762069014,1
61,653,32,0.124842133158096,1
61,654,32,0.139721904141091,1
61,655,32,0.134462835506389,1
61,656,32,0.123133905593936,1
61,657,32,0.12889708762898,1
61,658,32,0.116794978322929,1
61,659,32,0.107189634990485,1
61,660,32,0.101380397693731,1
62,652,32,0.142356639827284,1
62,653,32,0.121260693877966,1
62,654,32,0.108063345133921,1
62,655,32,0.0998714342976051,1
63,652,32,0.148279348661698,1
63,653,32,0.12961863458632,1
63,654,32,0.105437759499723,1
64,652,32,0.128363802991443,1
64,653,32,0.13111333915142,1
64,654,32,0.132196748879333,1
64,655,32,0.133206598724956,1
64,656,32,0.12739409355249,1
64,657,32,0.102214947793212,1
65,652,32,0.131061663143484,1
65,653,32,0.130424351129096,1
65,654,32,0.161229417250571,1
65,655,32,0.204142355032271,1
65,656,32,0.230511279873907,1
65,657,32,0.182055349522677,1
65,658,32,0.128114235323273,1
65,659,32,0.116219156836532,1
65,660,32,0.121163158680864,1
65,661,32,0.105330268174617,1
66,653,32,0.113904683863092,1
66,654,32,0.144024421983042,1
66,655,32,0.213743678877588,1
66,656,32,0.288585853811731,1
66,657,32,0.267296471406066,1
66,658,32,0.206575353857807,1
66,659,32,0.184701664381812,1
66,660,32,0.182584353243031,1
66,661,32,0.164722329777647,1
66,662,32,0.143434701131948,1
66,663,32,0.127869841791647,1
66,664,32,0.105890512786783,1
67,654,32,0.109491995037951,1
67,655,32,0.136223752119955,1
67,656,32,0.18449759643648,1
67,657,32,0.216511983537074,1
67,658,32,0.24113322666178,1
67,659,32,0.272602368699729,4
67,660,32,0.258535623408188,1
67,661,32,0.233121375777227,1
67,662,32,0.207094641094375,1
67,663,32,0.194288119392637,1
67,664,32,0.171892136234418,1
67,665,32,0.113264136651748,1
68,656,32,0.126666010843725,1
68,657,32,0.167643157089559,1
68,658,32,0.24456889689929,4
68,659,32,0.333629010841276,4
68,660,32,0.304169024148941,4
68,661,32,0.255766381957664,1
68,662,32,0.209748330459702,1
68,663,32,0.189637649037729,1
68,664,32,0.18954030991317,1
68,665,32,0.153087646520605,1
68,666,32,0.112084640484966,1
69,658,32,0.212074077604351,1
69,659,32,0.266087836680846,4
69,660,32,0.227392310364622,1
69,661,32,0.189195374738787,1
69,662,32,0.159019145940686,1
69,663,32,0.151702546506906,1
69,664,32,0.186639198784725,1
69,665,32,0.211837940905359,1
69,666,32,0.196918672197918,1
69,667,32,0.180013558991614,1
69,668,32,0.163759798772342,1
69,669,32,0.144070226707613,1
69,670,32,0.129111797956216,1
69,671,32,0.122852639531353,1
70,663,32,0.132067406358629,1
70,664,32,0.187041604999973,1
70,665,32,0.258420289181372,1
70,666,32,0.28917540037612,1
70,667,32,0.279924719594763,1
70,668,32,0.251509037050981,1
54,664,33,0.105774176411415,1
54,665,33,0.119251451389,1
54,666,33,0.113119663866495,1
54,667,33,0.104250507574583,1
54,668,33,0.107132534308867,1
54,669,33,0.103251245646269,1
55,661,33,0.120268109309024,1
55,662,33,0.114507116750707,1
55,663,33,0.105535893807372,1
55,664,33,0.109507713520128,1
55,665,33,0.111980035783406,1
55,666,33,0.104759642610604,1
55,667,33,0.100639395982982,1
55,668,33,0.110871430733748,1
55,669,33,0.106909000717207,1
56,659,33,0.128311680373827,1
56,660,33,0.128850553078833,1
56,661,33,0.129232066675359,1
56,662,33,0.12115013074969,1
56,663,33,0.117124184122215,1
56,664,33,0.115161694041777,1
56,665,33,0.107065237855025,1
56,666,33,0.102869448833848,1
56,667,33,0.102527389390092,1
56,668,33,0.114478816947036,1
56,669,33,0.107594938722198,1
57,656,33,0.164495648132384,1
57,657,33,0.161515301910827,1
57,658,33,0.137971858660728,1
57,659,33,0.127781543789893,1
57,660,33,0.131301982723388,1
57,661,33,0.133059097708209,1
57,662,33,0.130276338145154,1
57,663,33,0.129880391430898,1
57,664,33,0.118897039375051,1
57,665,33,0.107368224398178,1
57,666,33,0.107066697506177,1
57,667,33,0.100611978505754,1
57,668,33,0.10091128324227,1
58,654,33,0.139525308738221,1
58,655,33,0.14266117316494,1
58,656,33,0.155728199025567,1
58,657,33,0.161314687020832,1
58,658,33,0.137620485771192,1
58,659,33,0.122943584512435,1
58,660,33,0.125879727268519,1
58,661,33,0.13068241527412,1
58,662,33,0.136046208432491,1
58,663,33,0.136998412950544,1
58,664,33,0.117902831761172,1
58,665,33,0.106867073871814,1
58,666,33,0.106551124755002,1
59,653,33,0.145343042511828,1
59,654,33,0.149034434916768,1
59,655,33,0.145264188670883,1
59,656,33,0.140282018038228,1
59,657,33,0.140232291862802,1
59,658,33,0.126552757164446,1
59,659,33,0.113265846840038,1
59,660,33,0.11240568748789,1
59,661,33,0.116048029078383,1
59,662,33,0.125792474986993,1
59,663,33,0.127930961960392,1
59,664,33,0.110607549769957,1
59,665,33,0.100507602555494,1
60,652,33,0.129048793312478,1
60,653,33,0.126300357337324,1
60,654,33,0.137581107868855,1
60,655,33,0.135644532042818,1
60,656,33,0.124646986513459,1
60,657,33,0.122786497726931,1
60,658,33,0.115287942973473,1
60,659,33,0.103194144964651,1
60,660,33,0.0998424809187916,1
60,661,33,0.101957689724198,1
60,662,33,0.109610891249294,1
60,663,33,0.108360558429981,1
61,652,33,0.127569611157013,1
61,653,33,0.115027852745508,1
61,654,33,0.115203413921708,1
61,655,33,0.11223183649998,1
61,656,33,0.104975649195206,1
61,657,33,0.103527217750197,1
62,651,33,0.155687818974678,1
62,652,33,0.157831774193436,1
62,653,33,0.125840316687425,1
62,654,33,0.104509268866425,1
63,651,33,0.165318586380166,1
63,652,33,0.179736366880753,1
63,653,33,0.144688911830439,1
63,654,33,0.114738558601592,1
63,655,33,0.103783408313145,1
64,651,33,0.165367767909641,1
64,652,33,0.17346004121548,1
64,653,33,0.154923909455185,1
64,654,33,0.145935388556411,1
64,655,33,0.151143412972482,1
64,656,33,0.14185640430612,1
64,657,33,0.111529744296049,1
65,652,33,0.178882808637544,1
65,653,33,0.170536033171208,1
65,654,33,0.187189312982182,1
65,655,33,0.223297531381721,1
65,656,33,0.240225541503851,1
65,657,33,0.189106031016805,1
65,658,33,0.126864719472888,1
65,659,33,0.12111261553651,1
65,660,33,0.135905864063554,1
65,661,33,0.125927046108837,1
65,662,33,0.102228411441147,1
66,653,33,0.15099687053261,1
66,654,33,0.169801207745557,1
66,655,33,0.224451461867512,1
66,656,33,0.280311004289829,1
66,657,33,0.255784660275817,1
66,658,33,0.184528107502716,1
66,659,33,0.173868416750363,1
66,660,33,0.189639544405642,1
66,661,33,0.186159997490231,1
66,662,33,0.161939276105779,1
66,663,33,0.130815472280217,1
67,654,33,0.131052872557818,1
67,655,33,0.156269871210766,1
67,656,33,0.196664017536555,1
67,657,33,0.216575031752489,1
67,658,33,0.213551985288288,1
67,659,33,0.23699363420994,1
67,660,33,0.233190524027306,1
67,661,33,0.21870291991566,1
67,662,33,0.201013494752496,1
67,663,33,0.18979988817394,1
67,664,33,0.164541365713603,1
67,665,33,0.112156936788647,1
68,656,33,0.163801878118602,1
68,657,33,0.210003072264417,1
68,658,33,0.256391679082349,1
68,659,33,0.309660841784812,4
68,660,33,0.276680960804934,1
68,661,33,0.23700579070759,1
68,662,33,0.209323070900303,1
68,663,33,0.216154369004926,1
68,664,33,0.223159627026649,1
68,665,33,0.165512001050675,1
68,666,33,0.121593886485622,1
68,667,33,0.119491792754742,1
68,668,33,0.114505940315451,1
69,659,33,0.287321229482635,1
69,660,33,0.2324856432361,1
69,661,33,0.197035836435134,1
69,662,33,0.177216932742619,1
69,663,33,0.193991723065505,1
69,664,33,0.234373800036996,1
69,665,33,0.214618445634172,1
69,666,33,0.188892682304449,1
69,667,33,0.199622316489971,1
69,668,33,0.188330912683617,1
69,669,33,0.147776684019588,1
69,670,33,0.125133976245068,1
70,663,33,0.15880044880508,1
70,664,33,0.221613791099567,1
70,665,33,0.252480031854381,1
70,666,33,0.247642878652932,1
70,667,33,0.257224682387326,1
70,668,33,0.244527765236988,1
53,664,34,0.108143005050875,1
53,665,34,0.120910540995362,1
53,666,34,0.115176606447945,1
54,661,34,0.118462172261058,1
54,662,34,0.112151207113231,1
54,663,34,0.100140979579298,1
54,664,34,0.10147512251772,1
54,665,34,0.11399657652813,1
54,666,34,0.10773874703939,1
55,659,34,0.120760186033826,1
55,660,34,0.121977970811041,1
55,661,34,0.120368411307563,1
55,662,34,0.114991873433913,1
55,663,34,0.106025073015709,1
56,657,34,0.14380476627056,1
56,658,34,0.135806694928596,1
56,659,34,0.128522186034313,1
56,660,34,0.123349302175072,1
56,661,34,0.121192754741901,1
56,662,34,0.121632033488106,1
56,663,34,0.11957049409482,1
56,664,34,0.10545610317539,1
57,656,34,0.147264607895425,1
57,657,34,0.144391676748541,1
57,658,34,0.127856585109173,1
57,659,34,0.115286472429403,1
57,660,34,0.11276258308738,1
57,661,34,0.11744964275735,1
57,662,34,0.119159798368181,1
57,663,34,0.117835698701117,1
57,664,34,0.102444897314187,1
58,654,34,0.137872526131985,1
58,655,34,0.135090256750287,1
58,656,34,0.138128346335685,1
58,657,34,0.13904005098074,1
58,658,34,0.120657345985151,1
58,659,34,0.103963914874589,1
58,660,34,0.103462361310221,1
58,661,34,0.112873135322737,1
58,662,34,0.112978916459554,1
58,663,34,0.107208283667885,1
59,653,34,0.141004469107848,1
59,654,34,0.14013021431846,1
59,655,34,0.132642508912368,1
59,656,34,0.125065590499323,1
59,657,34,0.121422736941634,1
59,658,34,0.110708407307366,1
60,652,34,0.13151344696075,1
60,653,34,0.122975054155547,1
60,654,34,0.122012305291861,1
60,655,34,0.118180187265819,1
60,656,34,0.109073303908735,1
60,657,34,0.101885001275431,1
61,652,34,0.135151246204003,1
61,653,34,0.115551693222236,1
61,654,34,0.105754383977516,1
61,655,34,0.100272130324564,1
62,651,34,0.169139615414624,1
62,652,34,0.164721294950338,1
62,653,34,0.132219841867702,1
62,654,34,0.108971618509478,1
63,651,34,0.188459732344207,1
63,652,34,0.202459115824393,1
63,653,34,0.158189388725584,1
63,654,34,0.12781989775784,1
63,655,34,0.11559099487414,1
64,652,34,0.227395382167792,1
64,653,34,0.182583187700693,1
64,654,34,0.162564703945492,1
64,655,34,0.169355741821336,1
64,656,34,0.154184367395588,1
64,657,34,0.120345449034222,1
64,659,34,0.100882722008542,1
64,660,34,0.111596354495991,1
65,653,34,0.208041126829931,1
65,654,34,0.20446367435817,1
65,655,34,0.232971205995315,1
65,656,34,0.239103854058424,1
65,657,34,0.192180579202237,1
65,658,34,0.137390427321026,1
65,659,34,0.134864010821786,1
65,660,34,0.15689529905048,1
65,661,34,0.155682416086833,1
65,662,34,0.123030335719685,1
66,654,34,0.185778549251219,1
66,655,34,0.219164888612229,1
66,656,34,0.25262830626838,1
66,657,34,0.231698978408728,1
66,658,34,0.177488286248873,1
66,659,34,0.180562376931705,1
66,660,34,0.20987194330499,1
66,661,34,0.221590872397902,1
66,662,34,0.185978020384716,1
66,663,34,0.133283121481226,1
67,655,34,0.17295725675126,1
67,656,34,0.2096871776122,1
67,657,34,0.219964298154881,1
67,658,34,0.201595546988584,1
67,659,34,0.223347094163362,1
67,660,34,0.234533337729284,1
67,661,34,0.228952503159002,1
67,662,34,0.207798345450324,1
67,663,34,0.192043045206413,1
67,664,34,0.159457509681692,1
67,665,34,0.107467720320707,1
68,657,34,0.251601975436247,1
68,658,34,0.262089263958923,1
68,659,34,0.275997059775803,1
68,660,34,0.256766809428316,1
68,661,34,0.232403205624791,1
68,662,34,0.224103389532445,1
68,663,34,0.258382643253163,1
68,664,34,0.256933732519715,1
68,665,34,0.16868508658176,1
68,666,34,0.123651090497129,1
68,667,34,0.126867148593835,1
68,668,34,0.116298784074729,1
69,660,34,0.233720028821935,1
69,661,34,0.204877409209222,1
69,662,34,0.200208943752057,1
69,663,34,0.243337931690035,1
69,664,34,0.27443020051497,1
69,665,34,0.204887692124798,1
69,666,34,0.169830760234917,1
69,667,34,0.193865474133809,1
69,668,34,0.187040363207202,1
69,669,34,0.148330327522814,1
69,670,34,0.121898125714463,1
70,663,34,0.182198526050565,1
70,664,34,0.235010164367427,1
70,665,34,0.234283367023109,1
70,666,34,0.204331870037763,1
70,667,34,0.208432640126137,1
70,668,34,0.205895091063636,1
48,667,35,0.108434216348543,1
49,666,35,0.106554915490829,1
49,667,35,0.111221115220833,1
49,668,35,0.106653725159458,1
50,664,35,0.103884047992173,1
50,666,35,0.102052621513648,1
50,667,35,0.105920773315882,1
50,668,35,0.105271424625953,1
51,663,35,0.10925653369994,1
51,664,35,0.106973377868745,1
51,665,35,0.107372331028656,1
51,666,35,0.102269455960098,1
52,662,35,0.119619174550019,1
52,663,35,0.113118084393234,1
52,664,35,0.111769944053844,1
52,665,35,0.11343580905585,1
52,666,35,0.106817511090173,1
53,660,35,0.114612985030876,1
53,661,35,0.116643534069488,1
53,662,35,0.114633921221275,1
53,663,35,0.105753632366102,1
53,664,35,0.107010816831492,1
53,665,35,0.109910914918466,1
53,666,35,0.104720155779077,1
54,659,35,0.113824130726777,1
54,660,35,0.120230997133849,1
54,661,35,0.119952160192212,1
54,662,35,0.109746987379804,1
54,665,35,0.0997583113333544,1
55,657,35,0.139244064461477,1
55,658,35,0.125708174686527,1
55,659,35,0.123143273504312,1
55,660,35,0.122492759272045,1
55,661,35,0.116256279904627,1
55,662,35,0.109734623916691,1
55,663,35,0.103246017045128,1
56,656,35,0.140548665803457,1
56,657,35,0.136134266790026,1
56,658,35,0.126596786343213,1
56,659,35,0.120628120283361,1
56,660,35,0.112664971639845,1
56,661,35,0.108699153925482,1
56,662,35,0.113669952350657,1
56,663,35,0.113047095239837,1
57,654,35,0.132714620036426,1
57,655,35,0.128885911494043,1
57,656,35,0.129316846264262,1
57,657,35,0.12367427062885,1
57,658,35,0.114981830162556,1
57,659,35,0.104460414124521,1
57,661,35,0.101852170017438,1
57,662,35,0.105556176422628,1
57,663,35,0.101970761227048,1
58,653,35,0.136638913943402,1
58,654,35,0.133470163794095,1
58,655,35,0.122488696213242,1
58,656,35,0.12154535853129,1
58,657,35,0.115412231179742,1
58,658,35,0.105214215015144,1
59,653,35,0.14199705367679,1
59,654,35,0.132552152148915,1
59,655,35,0.117882233251264,1
59,656,35,0.111691896288908,1
59,657,35,0.103620101670867,1
60,652,35,0.139441694691655,1
60,653,35,0.129022791914725,1
60,654,35,0.116215976104172,1
60,655,35,0.107064682316154,1
61,651,35,0.177207815369381,1
61,652,35,0.149630789555558,1
61,653,35,0.123512380066049,1
61,654,35,0.107157261235092,1
62,651,35,0.19197418017223,1
62,652,35,0.172116007506569,1
62,653,35,0.140593697130776,1
62,654,35,0.120589156311948,1
62,655,35,0.103683934176453,1
63,652,35,0.21083770950725,1
63,653,35,0.170543712679133,1
63,654,35,0.148311417415358,1
63,655,35,0.130426725785448,1
63,656,35,0.106727829687701,1
64,652,35,0.261881209205221,1
64,653,35,0.208570043406933,1
64,654,35,0.183949148855636,1
64,655,35,0.181267726118429,1
64,656,35,0.159099873363706,1
64,657,35,0.124357311117377,1
64,658,35,0.105088401800209,1
64,659,35,0.110579783719319,1
64,660,35,0.120784727780428,1
64,661,35,0.107046894179359,1
65,653,35,0.233566852594367,1
65,654,35,0.210599677440345,1
65,655,35,0.222927150348456,1
65,656,35,0.219034282512916,1
65,657,35,0.180534414808524,1
65,658,35,0.147630294080583,1
65,659,35,0.157759499675593,1
65,660,35,0.18208214610352,1
65,661,35,0.179729101303752,1
65,662,35,0.140021927810263,1
66,654,35,0.193649031832445,1
66,655,35,0.203770601491207,1
66,656,35,0.22636210165331,1
66,657,35,0.214397515450163,1
66,658,35,0.178176740518163,1
66,659,35,0.191911306243519,1
66,660,35,0.232390700553731,1
66,661,35,0.244152438818478,1
66,662,35,0.198906891353133,1
66,663,35,0.135734692733729,1
67,656,35,0.231272978130835,1
67,657,35,0.244927382864961,1
67,658,35,0.2061217727089,1
67,659,35,0.21383097473079,1
67,660,35,0.24523393139264,1
67,661,35,0.247527784070334,1
67,662,35,0.225820723576924,1
67,663,35,0.205503686696621,1
67,664,35,0.158071385733602,1
67,665,35,0.104465631832743,1
68,658,35,0.250981710840159,1
68,659,35,0.236774839038063,1
68,660,35,0.238488621990934,1
68,661,35,0.230848873220855,1
68,662,35,0.249279779383205,1
68,663,35,0.301855084928533,1
68,664,35,0.271261363222311,1
68,665,35,0.165239416644569,1
68,666,35,0.124743367061143,1
68,667,35,0.123128894851177,1
68,668,35,0.108141806829781,1
69,661,35,0.20366038693634,1
69,662,35,0.220945249086285,1
69,663,35,0.279551114257462,1
69,664,35,0.284746143421116,1
69,665,35,0.194781481481886,1
69,666,35,0.15738079645218,1
69,667,35,0.172128392755519,1
69,668,35,0.166944942764807,1
69,669,35,0.141829531474844,1
70,664,35,0.226711437566985,1
70,665,35,0.211492112511615,1
70,666,35,0.183425330164746,1
70,667,35,0.177642301231207,1
70,668,35,0.175178017942183,1
45,667,36,0.101717893004408,1
47,666,36,0.102036489100547,1
47,667,36,0.100337716590115,1
48,666,36,0.102756206047488,1
48,667,36,0.105160556495943,1
49,664,36,0.104944244909608,1
49,665,36,0.101768425255844,1
49,666,36,0.101536101078517,1
49,667,36,0.106084548353678,1
49,668,36,0.10126534668281,1
50,663,36,0.112136000598249,1
50,664,36,0.103177609513545,1
51,661,36,0.118605642897759,1
51,662,36,0.12185064348036,1
51,663,36,0.114467662597937,1
51,664,36,0.105547919589995,1
51,665,36,0.100007911680282,1
52,660,36,0.114046204667285,1
52,661,36,0.117564061978967,1
52,662,36,0.120357834283173,1
52,663,36,0.113327261117597,1
52,664,36,0.108667052493065,1
52,665,36,0.104198090848153,1
53,658,36,0.115857806033153,1
53,659,36,0.113747771364292,1
53,660,36,0.115175604299394,1
53,661,36,0.117853977019269,1
53,662,36,0.112269493321108,1
53,663,36,0.104329851596884,1
53,664,36,0.104289340830967,1
53,665,36,0.100023259803212,1
54,656,36,0.146765428987408,1
54,657,36,0.132822067789856,1
54,658,36,0.118525830479939,1
54,659,36,0.117734133123969,1
54,660,36,0.120405817591553,1
54,661,36,0.119089179574032,1
54,662,36,0.107225625194999,1
55,655,36,0.145157536100543,1
55,656,36,0.144696591338364,1
55,657,36,0.138965641450765,1
55,658,36,0.124554233307817,1
55,659,36,0.122729941691265,1
55,660,36,0.1196359823241,1
55,661,36,0.111131967571394,1
55,662,36,0.104075937654016,1
56,654,36,0.135766543629007,1
56,655,36,0.130890785922473,1
56,656,36,0.132382429577322,1
56,657,36,0.129239375824036,1
56,658,36,0.118241754044244,1
56,659,36,0.112161141455397,1
56,660,36,0.103454921446515,1
56,662,36,0.103913927269105,1
56,663,36,0.103783125097249,1
57,653,36,0.127781020929779,1
57,654,36,0.129722422318952,1
57,655,36,0.118228998436046,1
57,656,36,0.115392787319252,1
57,657,36,0.109084512722429,1
57,658,36,0.103118450070228,1
58,652,36,0.131426020392519,1
58,653,36,0.133396418732181,1
58,654,36,0.128329784405275,1
58,655,36,0.112751908026719,1
58,656,36,0.107542598246201,1
59,652,36,0.135959784012812,1
59,653,36,0.143100027087303,1
59,654,36,0.125641205020257,1
59,655,36,0.106933237462075,1
60,651,36,0.161826774037913,1
60,652,36,0.14444968154244,1
60,653,36,0.134445003797917,1
60,654,36,0.113897952039124,1
60,655,36,0.101221709649128,1
61,651,36,0.194130738498319,1
61,652,36,0.158555641342531,1
61,653,36,0.130463543851809,1
61,654,36,0.110213509316533,1
62,651,36,0.216544400864143,1
62,652,36,0.178069717588576,1
62,653,36,0.14901087353288,1
62,654,36,0.132670786930201,1
62,655,36,0.110591907538213,1
63,652,36,0.213966090498587,1
63,653,36,0.180664606976914,1
63,654,36,0.168335717989327,1
63,655,36,0.144324325830105,1
63,656,36,0.114203520204089,1
64,653,36,0.225712339032457,1
64,654,36,0.207987795098302,1
64,655,36,0.191715255486602,1
64,656,36,0.159902725068775,1
64,657,36,0.124035261965901,1
64,658,36,0.114119361511571,1
64,659,36,0.129028271053003,1
64,660,36,0.131640207859641,1
64,661,36,0.111664206488703,1
65,654,36,0.206890660292396,1
65,655,36,0.202929733498682,1
65,656,36,0.190030839843468,1
65,657,36,0.161314066124446,1
65,658,36,0.157748933544122,1
65,659,36,0.196072619175929,1
65,660,36,0.217305227687548,1
65,661,36,0.190795805976108,1
65,662,36,0.144909035938439,1
66,655,36,0.183861057819344,1
66,656,36,0.206747875909593,1
66,657,36,0.207708391724876,1
66,658,36,0.178901293921158,1
66,659,36,0.206009815286986,1
66,660,36,0.258664704498835,1
66,661,36,0.248729665185748,1
66,662,36,0.196185034100442,1
66,663,36,0.132276909870563,1
67,656,36,0.245641152278105,1
67,657,36,0.277122668672085,1
67,658,36,0.212938016799407,1
67,659,36,0.202141565448481,1
67,660,36,0.255284283146705,1
67,661,36,0.261154520790094,1
67,662,36,0.241067498788281,1
67,663,36,0.211401200209291,1
67,664,36,0.155050692139914,1
67,665,36,0.108533320125987,1
68,657,36,0.257426746035554,1
68,659,36,0.207460512459157,1
68,660,36,0.220578353787114,1
68,661,36,0.225557485295356,1
68,662,36,0.265917514998706,1
68,663,36,0.316687580642886,1
68,664,36,0.264483462206832,1
68,665,36,0.169278576382842,1
68,666,36,0.131353941947218,1
68,667,36,0.113860502183458,1
69,661,36,0.202426524210619,1
69,662,36,0.242279880677651,1
69,663,36,0.290518257649775,1
69,664,36,0.265663492126647,1
69,665,36,0.184331228883952,1
69,666,36,0.148720326703274,1
69,667,36,0.144248968616173,1
69,668,36,0.137342574727674,1
70,666,36,0.175757891594463,1
70,667,36,0.171833848224625,1
48,663,37,0.103589122209112,1
49,662,37,0.122973300395581,1
49,663,37,0.108652586696577,1
49,664,37,0.101113063674603,1
50,661,37,0.127040073683626,1
50,662,37,0.123677538504563,1
50,663,37,0.113521296684491,1
50,664,37,0.100712345861806,1
51,660,37,0.127220623816746,1
51,661,37,0.125146775424943,1
51,662,37,0.124677650080563,1
51,663,37,0.117294745448574,1
51,664,37,0.100778868918396,1
52,658,37,0.114417958208349,1
52,659,37,0.112409750546692,1
52,660,37,0.114631132634,1
52,661,37,0.116306670548116,1
52,662,37,0.115491237521553,1
52,663,37,0.10857535590057,1
53,656,37,0.140057830871426,1
53,657,37,0.125677565584019,1
53,658,37,0.116675733538176,1
53,659,37,0.114585894341219,1
53,660,37,0.11272950129225,1
53,661,37,0.111034214515911,1
53,662,37,0.103993532721464,1
54,655,37,0.146668972189292,1
54,656,37,0.139599413266464,1
54,657,37,0.126777565227634,1
54,658,37,0.114204914497726,1
54,659,37,0.113586512590795,1
54,660,37,0.113271206156207,1
54,661,37,0.107939928361176,1
55,654,37,0.137828377131108,1
55,655,37,0.137149661131441,1
55,656,37,0.135144982775554,1
55,657,37,0.127535788643387,1
55,658,37,0.111661940761543,1
55,659,37,0.107172805430565,1
55,660,37,0.10441279028247,1
56,653,37,0.131145495048431,1
56,654,37,0.127166191900294,1
56,655,37,0.121004176527447,1
56,656,37,0.118655586931567,1
56,657,37,0.113408195506078,1
56,658,37,0.100576783484329,1
57,652,37,0.125354634106101,1
57,653,37,0.120750524014636,1
57,654,37,0.118193465734131,1
57,655,37,0.106127629848489,1
57,656,37,0.09990150964708,1
58,651,37,0.132097045991342,1
58,652,37,0.12702535735,1
58,653,37,0.128267182799541,1
58,654,37,0.11781530715667,1
58,655,37,0.10026592136071,1
59,651,37,0.136385065358048,1
59,652,37,0.138509369750854,1
59,653,37,0.140005566645862,1
59,654,37,0.118721009803333,1
60,651,37,0.168328147410593,1
60,652,37,0.149247674699933,1
60,653,37,0.135744332967081,1
60,654,37,0.114048938789964,1
61,651,37,0.210927227515937,1
61,652,37,0.167526341425753,1
61,653,37,0.140674239374172,1
61,654,37,0.119790563738225,1
61,655,37,0.0998343874799434,1
62,652,37,0.189688366468788,1
62,653,37,0.164775574365924,1
62,654,37,0.148159994947755,1
62,655,37,0.11732753313489,1
63,653,37,0.195530500381049,1
63,654,37,0.185158371798484,1
63,655,37,0.150601403106792,1
63,656,37,0.118652090304554,1
64,654,37,0.222461674131955,1
64,655,37,0.190979286304451,1
64,656,37,0.153895563433028,1
64,657,37,0.121308274148341,1
64,658,37,0.121995181623127,1
64,659,37,0.14127334992148,1
64,660,37,0.130587875629754,1
64,661,37,0.105065221668488,1
65,655,37,0.181929470950228,1
65,656,37,0.164452109134973,1
65,657,37,0.144332735163605,1
65,658,37,0.159882181023461,1
65,659,37,0.216924236951136,1
65,660,37,0.226348964792945,1
65,661,37,0.177038158155302,1
65,662,37,0.132549145703259,1
66,656,37,0.189915157043242,1
66,657,37,0.198095368884507,1
66,658,37,0.170227785348159,1
66,659,37,0.204701815354266,1
66,660,37,0.256488190345061,1
66,661,37,0.22973387402772,1
66,662,37,0.178749501094309,1
66,663,37,0.12288996956491,1
67,656,37,0.228304047688434,1
67,657,37,0.271959773619605,1
67,658,37,0.202570419671163,1
67,659,37,0.182332944671542,1
67,660,37,0.242396325982209,1
67,661,37,0.255005054059984,1
67,662,37,0.237599324080349,1
67,663,37,0.195571000254047,1
67,664,37,0.140785804651,1
67,665,37,0.107754334806539,1
68,657,37,0.22619347926654,1
68,660,37,0.197956745596779,1
68,661,37,0.21368283103182,1
68,662,37,0.254460386322048,1
68,663,37,0.27812283471268,1
68,664,37,0.222834299106542,1
68,665,37,0.162205226724188,1
68,666,37,0.127519340335634,1
69,662,37,0.246675434941139,1
69,663,37,0.265147450979953,1
69,664,37,0.217928716587671,1
69,665,37,0.16331151158209,1
69,666,37,0.134012151873947,1
69,667,37,0.11663828368251,1
44,684,38,0.107016699007775,1
45,684,38,0.103543132304917,1
47,684,38,0.10185931577233,1
48,662,38,0.114650641852004,1
48,663,38,0.100228014002444,1
48,684,38,0.108017377015564,1
49,661,38,0.129455349729881,1
49,662,38,0.119405836730582,1
49,663,38,0.106575067391056,1
49,684,38,0.10603438646149,1
50,660,38,0.140272857093314,1
50,661,38,0.131814200455498,1
50,662,38,0.12372816879227,1
50,663,38,0.114589728648722,1
51,659,38,0.116851686859461,1
51,660,38,0.128792809714992,1
51,661,38,0.126251916526345,1
51,662,38,0.121859804425274,1
51,663,38,0.115828308008388,1
52,657,38,0.117467289286198,1
52,658,38,0.112362115811722,1
52,659,38,0.110163892070297,1
52,660,38,0.112654786760541,1
52,661,38,0.11044901422622,1
52,662,38,0.106733374183493,1
52,663,38,0.101599944477022,1
53,655,38,0.142869794350432,1
53,656,38,0.131500429922495,1
53,657,38,0.119675469155628,1
53,658,38,0.113227373049982,1
53,659,38,0.112351723966956,1
53,660,38,0.109797465166644,1
53,661,38,0.101552897959679,1
54,654,38,0.134782727859894,1
54,655,38,0.136052940256458,1
54,656,38,0.13042556024311,1
54,657,38,0.119548544862951,1
54,658,38,0.109092366517058,1
54,659,38,0.108161305154866,1
54,660,38,0.1067116972746,1
54,683,38,0.1324891039335,1
55,653,38,0.13745529465392,1
55,654,38,0.129359001860955,1
55,655,38,0.126460374318051,1
55,656,38,0.123966386038799,1
55,657,38,0.114682318460578,1
55,682,38,0.114704823231319,1
56,652,38,0.135634554128976,1
56,653,38,0.126654605957488,1
56,654,38,0.117761790245417,1
56,655,38,0.112155139457005,1
56,656,38,0.107175626696597,1
56,657,38,0.0997464707303558,1
56,682,38,0.116354751892767,1
57,651,38,0.126809873625512,1
57,652,38,0.11786419457733,1
57,653,38,0.1126602550059,1
57,654,38,0.104484280510142,1
58,651,38,0.130329190588346,1
58,652,38,0.125966761691664,1
58,653,38,0.122244389824969,1
58,654,38,0.106428601201618,1
59,650,38,0.162618471393883,1
59,651,38,0.142449491069198,1
59,652,38,0.143086160401362,1
59,653,38,0.133575019032793,1
59,654,38,0.109829283383166,1
60,651,38,0.177851423490975,1
60,652,38,0.157128222338354,1
60,653,38,0.136885812846407,1
60,654,38,0.113959910962635,1
61,651,38,0.22654401340131,1
61,652,38,0.176077489839154,1
61,653,38,0.151426683332168,1
61,654,38,0.12873278973107,1
61,655,38,0.102630872120991,1
62,652,38,0.207900019956662,1
62,653,38,0.186914833208162,1
62,654,38,0.164577791634879,1
62,655,38,0.124442047134604,1
63,653,38,0.21868836697582,1
63,654,38,0.20526731035341,1
63,655,38,0.158872690644167,1
63,656,38,0.120571749427319,1
64,654,38,0.238141421089391,1
64,655,38,0.191827605053601,1
64,656,38,0.145302553531749,1
64,657,38,0.115760532266109,1
64,658,38,0.119852860342226,1
64,659,38,0.139591570364754,1
64,660,38,0.122172943168973,1
65,655,38,0.174877787307548,1
65,656,38,0.149956825515403,1
65,657,38,0.132700045310748,1
65,658,38,0.151237789223061,1
65,659,38,0.208226567883702,1
65,660,38,0.20552325037922,1
65,661,38,0.154645606266582,1
65,662,38,0.115065291708256,1
66,658,38,0.16071346324723,1
66,659,38,0.194556825919564,1
66,660,38,0.232423183238314,1
66,661,38,0.209441738360347,1
66,662,38,0.164591494927034,1
66,663,38,0.115275982548365,1
67,657,38,0.229563748418123,1
67,659,38,0.164548816470228,1
67,660,38,0.214643630062997,1
67,661,38,0.241540578262273,1
67,662,38,0.227050229135028,1
67,663,38,0.173498155539208,1
67,664,38,0.124873319585313,1
67,665,38,0.102290370364658,1
68,661,38,0.205709018220562,1
68,662,38,0.235937195349574,1
68,663,38,0.225798218806184,1
68,664,38,0.176481693386044,1
68,665,38,0.144913175247675,1
68,666,38,0.116998098584304,1
49,662,39,0.11283580528918,1
49,663,39,0.101213823175741,1
50,661,39,0.132484049619065,1
50,662,39,0.11978630460688,1
50,663,39,0.109625476867891,1
51,659,39,0.113165860736152,1
51,660,39,0.123674815274802,1
51,661,39,0.121816799180896,1
51,662,39,0.115140409277969,1
51,663,39,0.108166969472767,1
52,656,39,0.117211338367469,1
52,657,39,0.109484075885807,1
52,658,39,0.106489906549986,1
52,659,39,0.104182263436785,1
52,660,39,0.108446732312522,1
52,661,39,0.101593419618515,1
53,654,39,0.130714309741074,1
53,655,39,0.133190248453474,1
53,656,39,0.121106330322222,1
53,657,39,0.112628360538945,1
53,658,39,0.10734420551169,1
53,659,39,0.104769304629794,1
53,660,39,0.104099586181256,1
54,653,39,0.129530391049161,1
54,654,39,0.125308252056821,1
54,655,39,0.123215918381403,1
54,656,39,0.118035954124784,1
54,657,39,0.110460430005376,1
54,658,39,0.102529949226067,1
55,652,39,0.145273001042388,1
55,653,39,0.134594988400206,1
55,654,39,0.121520054280355,1
55,655,39,0.11490060166526,1
55,656,39,0.112415785223841,1
55,657,39,0.103243021492392,1
56,651,39,0.133321943844691,1
56,652,39,0.130661980157997,1
56,653,39,0.12307996385884,1
56,654,39,0.109863280183496,1
56,655,39,0.102871790811442,1
57,651,39,0.124083474025581,1
57,652,39,0.116328815852528,1
57,653,39,0.108385318034964,1
58,651,39,0.134477867734667,1
58,652,39,0.130962755438583,1
58,653,39,0.119466292431265,1
59,650,39,0.171406312045147,1
59,651,39,0.157899190469387,1
59,652,39,0.157514267389201,1
59,653,39,0.138126483646529,1
59,654,39,0.109396747353848,1
60,651,39,0.195005701327445,1
60,652,39,0.176368123812112,1
60,653,39,0.149518047843474,1
60,654,39,0.122398034448056,1
61,651,39,0.238055236313931,1
61,652,39,0.190664328443272,1
61,653,39,0.165091272945598,1
61,654,39,0.13961571996627,1
61,655,39,0.108674884501856,1
62,652,39,0.22723645447897,1
62,653,39,0.207043662233259,1
62,654,39,0.176446563722133,1
62,655,39,0.129556947985785,1
63,653,39,0.239413670461816,1
63,654,39,0.215762964637911,1
63,655,39,0.157490041537252,1
63,656,39,0.115103950677936,1
64,654,39,0.236653905850859,1
64,655,39,0.176095996908606,1
64,656,39,0.12798032866949,1
64,657,39,0.107418778435451,1
64,658,39,0.112288697537379,1
64,659,39,0.126116735401034,1
64,660,39,0.109024362023479,1
65,657,39,0.123547792945854,1
65,658,39,0.139049658535335,1
65,659,39,0.178988077807166,1
65,660,39,0.168353680412828,1
65,661,39,0.129806940477798,1
66,659,39,0.17847797330135,1
66,660,39,0.19222510945528,1
66,661,39,0.177703388721195,1
66,662,39,0.141975594626277,1
66,663,39,0.10198460612715,1
67,660,39,0.181263826453412,1
67,661,39,0.21168454681941,1
67,662,39,0.198316429783545,1
67,663,39,0.145947457910709,1
67,664,39,0.109575086224403,1
50,660,40,0.131262474106023,1
50,661,40,0.12958793834046,1
50,662,40,0.114493849175314,1
50,663,40,0.101733502557395,1
51,658,40,0.108808725798125,1
51,659,40,0.113318416067334,1
51,660,40,0.117136427763218,1
51,661,40,0.115767166053805,1
51,662,40,0.10860741376131,1
52,656,40,0.111983467052904,1
52,657,40,0.10454524817802,1
52,658,40,0.102953171809604,1
52,659,40,0.103214471151583,1
52,660,40,0.104913374377043,1
53,654,40,0.124664317147655,1
53,655,40,0.124177523488589,1
53,656,40,0.113233059153722,1
53,657,40,0.106392284209532,1
53,658,40,0.102660936577547,1
54,653,40,0.1245330574732,1
54,654,40,0.119180124555113,1
54,655,40,0.114917115330528,1
54,656,40,0.108056526166601,1
54,657,40,0.101325519167597,1
55,652,40,0.140005544860024,1
55,653,40,0.129810360854377,1
55,654,40,0.114562627066145,1
55,655,40,0.105464272864671,1
55,656,40,0.100392377257868,1
56,651,40,0.133905314123984,1
56,652,40,0.127153904687614,1
56,653,40,0.120339479714587,1
56,654,40,0.104736397121369,1
57,651,40,0.124133886454907,1
57,652,40,0.116294938874307,1
57,653,40,0.10632591365381,1
58,650,40,0.153046612894574,1
58,651,40,0.14166618126089,1
58,652,40,0.135427937240588,1
58,653,40,0.11727363497147,1
59,650,40,0.186837820270536,1
59,651,40,0.180684649947951,1
59,652,40,0.174060644092697,1
59,653,40,0.145194223451877,1
59,654,40,0.108354349466127,1
60,651,40,0.226799081993597,1
60,652,40,0.203298458808252,1
60,653,40,0.16515867832863,1
60,654,40,0.128666364710753,1
61,651,40,0.255312299734481,1
61,652,40,0.212271522654905,1
61,653,40,0.178094324692692,1
61,654,40,0.144816860057506,1
61,655,40,0.111393266913373,1
62,652,40,0.250910950438063,1
62,653,40,0.222130769037298,1
62,654,40,0.178077037630172,1
62,655,40,0.129870751197546,1
63,653,40,0.266352992116165,1
63,654,40,0.220261456986345,1
63,655,40,0.150249670750927,1
63,656,40,0.104673969802339,1
64,655,40,0.158318339101202,1
64,656,40,0.109335768793051,1
64,658,40,0.0998645608656896,1
64,659,40,0.105829882799396,1
65,658,40,0.123688050171438,1
65,659,40,0.146111679558186,1
65,660,40,0.132266474454121,1
65,661,40,0.10688610380138,1
66,660,40,0.155088348961042,1
66,661,40,0.143698614774496,1
66,662,40,0.117213985346797,1
51,660,41,0.103281375460339,1
53,656,41,0.102650130801857,1
54,654,41,0.110133435468656,1
54,655,41,0.104372715233315,1
55,653,41,0.118406084620911,1
55,654,41,0.105508029720463,1
56,652,41,0.121750319695983,1
56,653,41,0.113281674251406,1
57,652,41,0.116041221003982,1
57,653,41,0.105589345361111,1
58,651,41,0.154518355186333,1
58,652,41,0.142394710579336,1
58,653,41,0.117424545471878,1
59,651,41,0.218252933430036,1
59,652,41,0.201222072366311,1
59,653,41,0.15558444517297,1
59,654,41,0.106231265080254,1
60,652,41,0.242689301932762,1
60,653,41,0.189839712685957,1
60,654,41,0.133314188086333,1
61,652,41,0.244403477030719,1
61,653,41,0.202869996730655,1
61,654,41,0.151475603431585,1
61,655,41,0.110912638646484,1
62,653,41,0.239579787477206,1
62,654,41,0.179228179528688,1
62,655,41,0.129898288496884,1
63,655,41,0.142758675683285,1
65,660,41,0.103968174005934,1
58,652,42,0.152451238618498,1
59,652,42,0.2314587024005,1
59,653,42,0.161475891329734,1
60,653,42,0.21157289439923,1
61,653,42,0.231856381088884,1
61,654,42,0.158618406342051,1
