x,y,z,signal,mito.p
2,846,1,0.175310584766923,1
3,846,1,0.132415554944129,1
3,847,1,0.147666044640878,1
17,850,1,0.10742731848398,1
17,851,1,0.120295810002148,1
18,847,1,0.101509544141892,1
18,848,1,0.109918550854715,1
18,851,1,0.169012157368914,1
19,845,1,0.118879839455884,1
19,852,1,0.225067086080087,1
20,844,1,0.101053011011925,1
2,846,2,0.15488030510026,1
2,847,2,0.175389351464516,1
3,846,2,0.113390995586911,1
3,847,2,0.134508389693823,1
3,848,2,0.11191688953172,1
17,851,2,0.099859713516716,1
17,852,2,0.116907654677499,1
18,851,2,0.138654005929893,1
18,852,2,0.153189832994138,1
19,852,2,0.20345481576818,1
1,846,3,0.126003743151812,1
2,846,3,0.131985219284457,1
2,847,3,0.157869006190721,1
2,848,3,0.139960927463628,1
3,847,3,0.121555902876922,1
3,848,3,0.119478111248425,1
3,849,3,0.101808413161647,1
17,852,3,0.105839544818586,1
18,851,3,0.109544771230709,1
18,852,3,0.141041047529991,1
19,846,3,0.106071749173803,1
19,847,3,0.108549605039954,1
19,851,3,0.161417363675721,1
19,852,3,0.185790270032108,1
20,845,3,0.131756446198738,1
30,828,3,0.145487395474972,1
1,846,4,0.10035108220178,1
1,847,4,0.111155746813663,1
1,848,4,0.119665164454214,1
2,846,4,0.102839144733073,1
2,847,4,0.126525241650946,1
2,848,4,0.130548573977851,1
2,849,4,0.112217980706958,1
3,847,4,0.102133457865859,1
3,848,4,0.111238859785953,1
16,853,4,0.102956298077369,1
17,852,4,0.101106212028526,1
17,853,4,0.153403976889584,1
18,852,4,0.136401328486177,1
19,849,4,0.104081329648942,1
19,850,4,0.127380455617849,1
19,851,4,0.133501317542555,1
19,852,4,0.176556516846943,1
20,845,4,0.110326414422403,1
20,846,4,0.154299908587866,1
20,847,4,0.147191832303306,1
20,851,4,0.190690820022382,1
21,845,4,0.10037768271008,1
22,843,4,0.104600061346639,1
30,828,4,0.188175122155479,1
1,848,5,0.112618088516289,1
1,849,5,0.124820009639522,1
2,848,5,0.116758726688357,1
2,849,5,0.114267821105194,1
2,850,5,0.137871730948895,1
3,848,5,0.100754011277142,1
16,853,5,0.119112141847373,1
17,853,5,0.154719035433843,1
18,852,5,0.130612428269275,1
18,853,5,0.201013211536601,1
19,850,5,0.0997245214984862,1
19,851,5,0.112778018353663,1
19,852,5,0.170725297639562,1
20,846,5,0.110284825257501,1
20,847,5,0.106531964110407,1
20,848,5,0.107242868685843,1
20,849,5,0.147264858432563,1
20,850,5,0.178730100805495,1
20,851,5,0.174439586960328,1
21,847,5,0.100705908146653,1
21,848,5,0.114305412568807,1
1,848,6,0.103512490523652,1
1,849,6,0.127314215777155,1
2,849,6,0.112592599085731,1
2,850,6,0.148643313765647,1
2,851,6,0.239111261243373,1
3,851,6,0.102869122046277,1
16,853,6,0.129942481069437,1
17,853,6,0.151447434342943,1
18,852,6,0.126413033691894,1
18,853,6,0.198111032902089,1
19,851,6,0.100137472059367,1
19,852,6,0.166122701663844,1
20,849,6,0.109188104382518,1
20,850,6,0.13718082577282,1
20,851,6,0.160196180307765,1
21,849,6,0.147007338933492,1
21,850,6,0.211470936676997,1
22,848,6,0.102334824367268,1
22,849,6,0.146411539833573,1
23,849,6,0.118666381814337,1
30,828,6,0.205330402140501,1
30,829,6,0.162596685555799,1
31,828,6,0.321948904111829,1
1,849,7,0.123817055011652,1
1,850,7,0.192260707514709,1
2,849,7,0.112437581954844,1
2,850,7,0.153721222263762,1
2,851,7,0.264765305594123,1
3,851,7,0.109823248706017,1
3,852,7,0.116317683289267,1
14,854,7,0.104800088019007,1
16,853,7,0.125196087669446,1
17,853,7,0.142889183746326,1
18,852,7,0.123653552296833,1
19,852,7,0.166671072994254,1
20,850,7,0.106780072127426,1
20,851,7,0.146991402592934,1
21,849,7,0.120295210891601,1
21,850,7,0.188622886485618,1
22,849,7,0.148902793990146,1
23,849,7,0.135431521010953,1
30,827,7,0.157203002227577,1
30,828,7,0.175786224076891,1
30,829,7,0.139746369637259,1
30,830,7,0.099708389085385,1
31,828,7,0.283270022175902,1
31,829,7,0.18737205259203,1
1,849,8,0.11101194938939,1
1,850,8,0.181206192018761,1
1,851,8,0.325753626446481,1
2,849,8,0.106548575811946,1
2,850,8,0.146884924309299,1
2,851,8,0.246364006385729,1
2,852,8,0.285143321035224,1
3,851,8,0.10381574938978,1
3,852,8,0.125674221457873,1
3,853,8,0.114770398603952,1
14,854,8,0.102677167026919,1
15,854,8,0.197156791408176,1
16,853,8,0.109978385659012,1
17,853,8,0.135897716160111,1
18,852,8,0.113951697701677,1
19,852,8,0.156833547092431,1
20,851,8,0.128769095830237,1
21,849,8,0.102816814249037,1
21,850,8,0.16567635341318,1
22,849,8,0.156753495030391,1
23,848,8,0.106656851427223,1
29,832,8,0.10621823714908,1
30,827,8,0.137379414579874,1
30,828,8,0.137329895369909,1
30,829,8,0.11769387289519,1
30,830,8,0.100549638330077,1
30,831,8,0.122774493730146,1
31,828,8,0.235241181394469,1
31,829,8,0.171869576999082,1
31,830,8,0.133334830167918,1
1,850,9,0.16434970480306,1
1,851,9,0.278886515480874,1
1,852,9,0.324456105501879,1
2,850,9,0.128896739055571,1
2,851,9,0.198836152736875,1
2,852,9,0.244162525661511,1
2,853,9,0.177613075529418,1
3,852,9,0.113766725043425,1
3,853,9,0.11657097633575,1
15,854,9,0.171416191922718,1
17,853,9,0.124720012642717,1
18,852,9,0.100607501516028,1
19,852,9,0.140604459334789,1
20,851,9,0.111397678545585,1
20,852,9,0.174601662702754,1
21,850,9,0.141886741085652,1
22,849,9,0.158369699214485,1
23,848,9,0.104774380730068,1
30,827,9,0.126553323596236,1
30,828,9,0.108826219826106,1
30,829,9,0.101634148242813,1
31,828,9,0.199592077746711,1
31,829,9,0.166702542637366,1
1,850,10,0.150293416713799,1
1,851,10,0.231621965471101,1
1,852,10,0.26864808658663,1
2,850,10,0.114933498280767,1
2,851,10,0.156468492696578,1
2,852,10,0.189268553368911,1
2,853,10,0.152795694504442,1
3,853,10,0.10838001318339,1
15,854,10,0.144297583713857,1
16,854,10,0.171501527050492,1
17,853,10,0.115621767370433,1
19,852,10,0.12566720641801,1
20,852,10,0.163267122936994,1
21,850,10,0.123494265141682,1
21,851,10,0.157732528808045,1
22,849,10,0.15674032549127,1
23,848,10,0.101515393639418,1
30,826,10,0.163089895144181,1
30,827,10,0.123267779568962,1
30,830,10,0.0999330119689493,1
31,829,10,0.168054070674578,1
33,824,10,0.21363302860596,1
1,850,11,0.139234195476825,1
1,851,11,0.194314654543423,1
1,852,11,0.218173676551087,1
2,850,11,0.110942779353473,1
2,851,11,0.137903015412383,1
2,852,11,0.155009723871397,1
2,853,11,0.129938200152254,1
5,854,11,0.104182786296899,1
6,854,11,0.133395133367734,1
7,854,11,0.125899476130742,1
12,855,11,0.101422095787823,1
14,854,11,0.108023869195313,1
15,854,11,0.126401225767653,1
16,854,11,0.159408284580541,1
17,853,11,0.111703802249421,1
19,852,11,0.110542867616686,1
20,852,11,0.148626168311075,1
21,850,11,0.107334532599581,1
21,851,11,0.138274387701281,1
21,852,11,0.204475917999174,1
22,849,11,0.140656767132029,1
30,825,11,0.161646441763174,1
30,826,11,0.18398071653502,1
30,827,11,0.121230041203782,1
31,824,11,0.124469856756918,1
31,825,11,0.21869052377379,1
32,824,11,0.167920545272962,1
1,850,12,0.125411506036419,1
1,851,12,0.163188269096049,1
1,852,12,0.174417212904616,1
2,850,12,0.107555756892404,1
2,851,12,0.132534396690877,1
2,852,12,0.140001754124198,1
5,853,12,0.110278191469804,1
5,854,12,0.165611366258176,1
6,853,12,0.110682046443285,1
6,854,12,0.198278587782793,1
6,855,12,0.278948082259299,2
7,854,12,0.1592668509197,1
7,855,12,0.249173094134108,2
7,856,12,0.24872349979357,2
8,854,12,0.106400366755461,1
8,856,12,0.21392171274641,2
12,854,12,0.108600551222314,1
12,855,12,0.160417916567783,1
13,854,12,0.141809869755973,1
14,816,12,0.102912421399468,1
14,854,12,0.127453961035544,1
15,854,12,0.114395921833127,1
16,854,12,0.150739579784839,1
17,816,12,0.111894428332655,1
17,817,12,0.106950568096271,1
17,853,12,0.109129369763044,1
18,815,12,0.125802463793754,1
18,816,12,0.163625184078822,1
18,817,12,0.155674899972694,1
18,818,12,0.140292889171432,1
18,819,12,0.105517332273325,1
19,819,12,0.130669714130517,1
19,852,12,0.101244127276516,1
20,819,12,0.129143354742681,1
20,852,12,0.137720471875078,1
21,818,12,0.166376855250931,1
21,819,12,0.114252832448592,1
21,851,12,0.121402301825512,1
21,852,12,0.184065125764676,1
22,818,12,0.130455287019176,1
22,819,12,0.103399737918649,1
22,849,12,0.118840690304847,1
22,850,12,0.186871958678813,1
23,818,12,0.122074917790514,1
24,818,12,0.125868768991963,1
25,818,12,0.136912805499793,1
26,818,12,0.1543072504153,1
27,818,12,0.15620900157916,1
28,818,12,0.120497481505291,1
29,817,12,0.119646526669733,1
29,818,12,0.101131657887408,1
29,821,12,0.10130877675103,1
29,822,12,0.1025218448943,1
29,825,12,0.106590023368901,1
29,826,12,0.100849945215144,1
30,821,12,0.103569449597322,1
30,822,12,0.111386066693886,1
30,823,12,0.109331640376734,1
30,824,12,0.136609840742479,1
30,825,12,0.206420304048164,1
30,826,12,0.198140509141017,1
30,827,12,0.117398217286553,1
31,822,12,0.111979436672859,1
31,823,12,0.126366640749695,1
31,824,12,0.164889884658351,1
31,825,12,0.270137518978914,1
32,823,12,0.202777951564751,1
32,824,12,0.197484363269605,1
1,850,13,0.117501961447509,1
1,851,13,0.142928409147797,1
2,850,13,0.108079041830261,1
2,851,13,0.133447560987083,1
2,852,13,0.135455561683278,1
3,852,13,0.110116889124631,1
4,853,13,0.106614859224317,1
5,853,13,0.147100277318758,1
5,854,13,0.249295094827378,1
5,855,13,0.270767935775548,2
6,818,13,0.103923033749424,1
6,819,13,0.137826133189785,1
6,853,13,0.144868100348679,1
6,854,13,0.269296890630607,2
6,855,13,0.354506423048774,2
6,856,13,0.254546832527565,2
7,817,13,0.103636364798997,1
7,818,13,0.14989808000301,1
7,819,13,0.158949485723413,1
7,820,13,0.101186231411808,1
7,853,13,0.10547861883905,1
7,854,13,0.184500297880402,2
7,855,13,0.313224939537827,2
7,856,13,0.349646939363289,2
7,857,13,0.245639300481868,2
8,820,13,0.12181800829491,1
8,854,13,0.119644979875229,1
8,855,13,0.22020967204922,2
8,856,13,0.322982010339607,2
8,857,13,0.275362547241609,2
9,820,13,0.124946781431332,1
9,854,13,0.0997994103168997,1
9,856,13,0.220134903052916,2
10,819,13,0.175963539013056,1
11,818,13,0.168217028743446,1
11,819,13,0.112751178201143,1
11,854,13,0.103621071140662,1
12,817,13,0.152644457216464,1
12,818,13,0.130166886094621,1
12,854,13,0.146787901079392,1
12,855,13,0.234309139669563,2
12,856,13,0.270055626013556,2
13,817,13,0.130219477107755,1
13,818,13,0.129274995669303,1
13,854,13,0.190606770259054,1
13,855,13,0.290649277680011,2
14,816,13,0.100613590657772,1
14,817,13,0.130654398686344,1
14,818,13,0.142230859291107,1
14,819,13,0.108132711242381,1
14,854,13,0.154454511787828,1
15,817,13,0.124128450888305,1
15,818,13,0.141110598818074,1
15,819,13,0.110253235792279,1
15,854,13,0.116777767510842,1
16,817,13,0.118614792949755,1
16,818,13,0.1227538734344,1
16,854,13,0.144425335868381,1
17,816,13,0.109510839787893,1
17,817,13,0.124373225672097,1
17,818,13,0.117858432223157,1
17,819,13,0.104718064338621,1
17,853,13,0.105725136489888,1
17,854,13,0.214472502304848,1
18,816,13,0.170870118998225,1
18,817,13,0.185112795825213,1
18,818,13,0.168023330857042,1
18,819,13,0.147665314815303,1
18,853,13,0.133858692430484,1
19,816,13,0.21746313144198,1
19,817,13,0.253753435876224,1
19,818,13,0.222728703149349,1
19,819,13,0.173373115721525,1
20,816,13,0.219895324191507,1
20,817,13,0.271093982628312,1
20,818,13,0.221193672997956,1
20,819,13,0.163464687809658,1
20,852,13,0.136747788669226,1
21,816,13,0.212210827310003,1
21,817,13,0.250617429841558,1
21,818,13,0.182671583738719,1
21,819,13,0.139061117886167,1
21,851,13,0.108062778702131,1
21,852,13,0.176277767048659,1
22,816,13,0.187179618284234,1
22,817,13,0.188224532436253,1
22,818,13,0.136986016808674,1
22,819,13,0.11599633128461,1
22,850,13,0.136140083608794,1
22,851,13,0.157608545603509,1
23,816,13,0.185526334603722,1
23,817,13,0.165156085813898,1
23,818,13,0.123782241242394,1
23,819,13,0.10331194099117,1
24,816,13,0.189539416693809,1
24,817,13,0.167499000198957,1
24,818,13,0.126922506408406,1
25,816,13,0.210799606076441,1
25,817,13,0.18316400903693,1
25,818,13,0.136201846459762,1
26,817,13,0.212462693384092,1
26,818,13,0.168466084444422,1
26,819,13,0.113349351957414,1
27,817,13,0.225881919996102,1
27,818,13,0.197997201898101,1
27,819,13,0.133697684194125,1
28,817,13,0.158325517534851,1
28,818,13,0.143365574667708,1
28,819,13,0.106893892238495,1
29,820,13,0.111058767155432,1
29,821,13,0.144278074495853,1
29,822,13,0.13494059893557,1
29,823,13,0.113115372056392,1
29,824,13,0.115360315527588,1
29,825,13,0.124726101784461,1
29,826,13,0.102945786410494,1
30,820,13,0.112518570807921,1
30,821,13,0.146569770375577,1
30,822,13,0.14490084446332,1
30,823,13,0.147951961979892,1
30,824,13,0.195159226128423,1
30,825,13,0.254605545361201,1
30,826,13,0.198352463559735,1
30,827,13,0.112053998703701,1
31,823,13,0.158308426544874,1
31,824,13,0.214387276106263,1
31,825,13,0.31057410411729,1
31,826,13,0.265449054122387,1
31,827,13,0.171860764627577,1
1,850,14,0.116149300546716,1
1,851,14,0.137930988428483,1
2,850,14,0.109933920763483,1
2,851,14,0.142983320352687,1
2,852,14,0.144352364203719,1
3,851,14,0.112868026543706,1
3,852,14,0.127296580141226,1
4,853,14,0.109857615865594,1
5,819,14,0.108471186915771,1
5,853,14,0.163819491968692,1
5,854,14,0.309275058164022,2
5,855,14,0.307831397817553,2
5,856,14,0.197148774219761,2
6,819,14,0.135916800554272,1
6,820,14,0.109730146926965,1
6,853,14,0.167618756950905,2
6,854,14,0.325604611313987,2
6,855,14,0.373685345961736,2
6,856,14,0.299372523321356,2
6,857,14,0.174204267230265,2
7,818,14,0.158057475475985,1
7,819,14,0.184891822069527,1
7,820,14,0.133059337352428,1
7,853,14,0.123489918866984,1
7,854,14,0.218568719153063,2
7,855,14,0.339336878633426,2
7,856,14,0.423206952368679,2
7,857,14,0.267975753837522,2
8,819,14,0.28047370092864,1
8,820,14,0.16777025566894,1
8,854,14,0.140780085868503,1
8,855,14,0.264846392483472,2
8,856,14,0.424441555812895,2
8,857,14,0.317628685276435,2
8,858,14,0.136066534619423,2
9,820,14,0.152500115146239,1
9,854,14,0.112505608234261,1
9,855,14,0.191182831389669,2
9,856,14,0.317595570802548,2
9,857,14,0.293357932714823,2
10,819,14,0.186370056541036,1
10,820,14,0.104798421402393,1
10,854,14,0.111291734014982,1
10,856,14,0.219664437879494,2
11,818,14,0.190106393129943,1
11,819,14,0.136349467298619,1
11,854,14,0.12892085597833,1
11,855,14,0.189393734794541,2
11,856,14,0.228417268688956,2
12,818,14,0.172285207218047,1
12,819,14,0.127284445429413,1
12,854,14,0.188997602900661,2
12,855,14,0.319544052589097,2
12,856,14,0.330706811021566,2
12,857,14,0.209508272309855,2
13,817,14,0.155244128596261,1
13,818,14,0.165978501201566,1
13,819,14,0.120508472460604,1
13,854,14,0.222669184239704,2
13,855,14,0.349010596818696,2
13,856,14,0.295059559170044,2
14,817,14,0.160312810791947,1
14,818,14,0.168388635790033,1
14,819,14,0.123335032451127,1
14,854,14,0.168334116730228,1
14,855,14,0.215527002225624,2
15,817,14,0.142875916170933,1
15,818,14,0.159630282270616,1
15,819,14,0.132406012747048,1
15,854,14,0.118394538126726,1
16,817,14,0.128750120365266,1
16,818,14,0.148451881606404,1
16,819,14,0.134902321218056,1
16,854,14,0.130989955057431,1
17,817,14,0.134651598900467,1
17,818,14,0.14380374233617,1
17,819,14,0.138095700257316,1
17,820,14,0.100301704599763,1
17,853,14,0.100713870870472,1
17,854,14,0.187268417360264,1
17,855,14,0.230956212045095,1
18,817,14,0.195972535035772,1
18,818,14,0.18258867773189,1
18,819,14,0.17708513931513,1
18,820,14,0.117805677816237,1
18,853,14,0.130379668375186,1
19,817,14,0.269098661289882,1
19,818,14,0.2306621250168,1
19,819,14,0.209300173984477,1
19,820,14,0.124814900860491,1
19,852,14,0.100489487631127,1
20,817,14,0.283941527063162,1
20,818,14,0.223008150094452,1
20,819,14,0.187682609713916,1
20,820,14,0.114672471261764,1
20,852,14,0.137897340201562,1
21,817,14,0.259803515612996,1
21,818,14,0.182614515735858,1
21,819,14,0.14789718149003,1
21,820,14,0.110288735815437,1
22,817,14,0.192532703703187,1
22,818,14,0.133598569523762,1
22,819,14,0.116883515968902,1
22,820,14,0.10391159618443,1
22,850,14,0.103025620614152,1
22,851,14,0.132485454805621,1
23,817,14,0.154669908368964,1
23,818,14,0.116743487494617,1
23,819,14,0.102187356029278,1
23,850,14,0.173463352662869,1
24,817,14,0.158400580639969,1
24,818,14,0.11751639456524,1
25,817,14,0.190196085425334,1
25,818,14,0.127764877623759,1
26,818,14,0.171846897941637,1
26,819,14,0.135616809563856,1
27,818,14,0.223272804455495,1
27,819,14,0.180291415570536,1
27,820,14,0.110749353790045,1
28,819,14,0.130736389687972,1
28,820,14,0.107968391558633,1
28,821,14,0.106070060771352,1
29,820,14,0.133611717277046,1
29,821,14,0.172001000067324,1
29,822,14,0.153305875260692,1
29,823,14,0.125061374939654,1
29,824,14,0.13484678911678,1
29,825,14,0.137116742730096,1
29,826,14,0.104359458550841,1
30,822,14,0.163112007769836,1
30,823,14,0.172992680523985,1
30,824,14,0.246929065668112,1
30,825,14,0.281166708438089,1
30,826,14,0.188456921971095,1
30,827,14,0.107470955517662,1
31,824,14,0.261670191577541,1
31,825,14,0.322170400727628,1
31,826,14,0.239956965691953,1
1,850,15,0.114213715976312,1
1,851,15,0.139591396078049,1
2,821,15,0.127380836870016,1
2,822,15,0.11571730916335,1
2,850,15,0.106155711793779,1
2,851,15,0.148603674433253,1
3,820,15,0.107155627297236,1
3,821,15,0.137000395461809,1
3,822,15,0.121115807161789,1
3,851,15,0.116626857010435,1
3,852,15,0.131354965881608,1
4,820,15,0.114107520908572,1
4,821,15,0.112826622558428,1
4,855,15,0.171150775057341,2
5,819,15,0.104881338302141,1
5,820,15,0.107108874888708,1
5,853,15,0.157451469710924,1
5,854,15,0.303054961746843,2
5,855,15,0.308826618472903,2
5,856,15,0.2722991098336,2
6,819,15,0.120376787962306,1
6,820,15,0.119553359533167,1
6,853,15,0.17482183038243,2
6,854,15,0.339284854052081,2
6,855,15,0.353824700603452,2
6,856,15,0.33130437477437,2
6,857,15,0.209029245302066,2
7,818,15,0.153345623522276,1
7,819,15,0.20354816808437,1
7,820,15,0.170506404431414,1
7,853,15,0.14888046350611,1
7,854,15,0.272635199957721,2
7,855,15,0.346867371425514,2
7,856,15,0.420037417929201,2
7,857,15,0.260146293989408,2
8,818,15,0.266095505295851,1
8,819,15,0.322859247142004,1
8,820,15,0.221856027833222,1
8,853,15,0.104397267872835,1
8,854,15,0.181241877221542,2
8,855,15,0.296047002281198,2
8,856,15,0.453811610565619,2
8,857,15,0.319186024126026,2
8,858,15,0.129023173166891,2
9,819,15,0.288942618696193,1
9,820,15,0.17605024664863,1
9,854,15,0.127779147347704,1
9,855,15,0.22528228658868,2
9,856,15,0.39806897095046,2
9,857,15,0.339984484456308,2
9,858,15,0.147758231414731,2
10,818,15,0.236912416605563,1
10,819,15,0.189556627505895,1
10,820,15,0.117203669752464,1
10,854,15,0.126527104340102,1
10,856,15,0.286126951624713,2
10,857,15,0.26453134747894,2
11,818,15,0.211875216474321,1
11,819,15,0.158541872692862,1
11,854,15,0.157063071789564,1
11,855,15,0.237683722417086,2
11,856,15,0.262744059108373,2
12,819,15,0.159030550826923,1
12,854,15,0.230845757846009,2
12,855,15,0.401608646778984,2
12,856,15,0.361636688209423,2
12,857,15,0.178649351596637,2
13,818,15,0.195897112464325,1
13,819,15,0.141490369547553,1
13,854,15,0.233949150481064,2
13,855,15,0.372278111536543,2
13,856,15,0.287002154098058,2
14,818,15,0.172565950420516,1
14,819,15,0.129794457192576,1
14,854,15,0.169046284884273,1
14,855,15,0.210269404134993,2
15,818,15,0.155029440054863,1
15,819,15,0.143540819949255,1
15,820,15,0.107173360969436,1
15,854,15,0.121492201086365,1
16,818,15,0.167148825530515,1
16,819,15,0.179747891589099,1
16,820,15,0.124976475528641,1
16,854,15,0.119900331683411,1
17,818,15,0.16663621565332,1
17,819,15,0.17447833307336,1
17,820,15,0.118992058307854,1
17,854,15,0.159563617606079,1
18,818,15,0.17852617446811,1
18,819,15,0.178364436406175,1
18,820,15,0.12619421673418,1
18,853,15,0.14005561960886,1
19,818,15,0.217312939874229,1
19,819,15,0.207635256666428,1
19,820,15,0.146066876982166,1
19,852,15,0.113026442265334,1
20,817,15,0.25535040316529,1
20,818,15,0.213052196376804,1
20,819,15,0.182918504427562,1
20,820,15,0.132668826204773,1
20,852,15,0.150525740891126,1
21,817,15,0.23105610011271,1
21,818,15,0.17518419422728,1
21,819,15,0.14312575616208,1
21,820,15,0.125213407410722,1
21,851,15,0.0999771827556645,1
22,818,15,0.129066570556354,1
22,819,15,0.115441500453208,1
22,820,15,0.119176617035182,1
22,851,15,0.130525524561158,1
23,818,15,0.10839570987973,1
23,819,15,0.101535414824617,1
23,850,15,0.160035161178487,1
24,818,15,0.106966656937696,1
25,818,15,0.120297541976276,1
26,819,15,0.150671520826665,1
26,820,15,0.103905507042686,1
27,819,15,0.217872618054605,1
27,820,15,0.147132912504208,1
28,820,15,0.144816674877882,1
28,821,15,0.129666737716809,1
28,822,15,0.109347761896916,1
29,822,15,0.173536258970017,1
29,823,15,0.138591948970111,1
29,824,15,0.148161106025498,1
29,825,15,0.142602514795899,1
29,826,15,0.109415210851624,1
30,824,15,0.275340499973468,1
30,825,15,0.271640698235028,1
30,826,15,0.179266533496635,1
30,827,15,0.113417487166021,1
31,825,15,0.290058968611289,1
31,826,15,0.209729943212359,1
1,821,16,0.1062618959686,1
1,822,16,0.113440329617252,1
1,850,16,0.112192654670186,1
1,851,16,0.142174063611222,1
2,821,16,0.162171262602615,1
2,822,16,0.156551039237077,1
2,823,16,0.102967299925602,1
2,850,16,0.100872558915076,1
2,851,16,0.14402501020067,1
2,852,16,0.162363500837868,1
3,820,16,0.11986896007657,1
3,821,16,0.189184786821478,1
3,822,16,0.177382940828818,1
3,823,16,0.129075992931325,1
3,851,16,0.11467740575409,1
3,852,16,0.123318584143373,1
4,820,16,0.117265694033489,1
4,821,16,0.142702206790971,1
4,822,16,0.136543775188489,1
4,823,16,0.114096987455859,1
4,855,16,0.176824057831532,1
4,856,16,0.228628046672418,2
5,820,16,0.102957322011759,1
5,821,16,0.10502927503565,1
5,853,16,0.136121424038475,1
5,854,16,0.242506736609619,1
5,855,16,0.292408091960203,2
5,856,16,0.362333508240537,2
5,857,16,0.263355195438303,2
6,820,16,0.115628433836887,1
6,853,16,0.163724113569561,1
6,854,16,0.31600237246347,2
6,855,16,0.336382087199941,2
6,856,16,0.358346177011066,2
6,857,16,0.239370904861657,2
7,819,16,0.195670583319928,1
7,820,16,0.180265348815269,1
7,821,16,0.10011753801752,1
7,853,16,0.170279951537451,2
7,854,16,0.342163612910653,2
7,855,16,0.375748682686664,2
7,856,16,0.382142390447533,2
7,857,16,0.235646354411154,2
8,819,16,0.312968040935142,1
8,820,16,0.23864160214596,1
8,821,16,0.100718925184908,1
8,853,16,0.125478628203556,1
8,854,16,0.239750479518593,2
8,855,16,0.32673032913946,2
8,856,16,0.435883652261275,2
8,857,16,0.295808948428455,2
8,858,16,0.123502750725616,2
9,819,16,0.257832180482296,1
9,820,16,0.174020460114351,1
9,853,16,0.102649499012553,1
9,854,16,0.150523268198504,1
9,855,16,0.258509850761735,2
9,856,16,0.456807642590596,2
9,857,16,0.359346931269289,2
9,858,16,0.143080408940108,2
10,819,16,0.180793905925942,1
10,820,16,0.116190475780695,1
10,853,16,0.1048863490449,1
10,854,16,0.141933014205742,1
10,855,16,0.215761199985026,2
10,856,16,0.350772221472,2
10,857,16,0.286807911565702,2
11,819,16,0.168840822645303,1
11,853,16,0.100031320563303,1
11,854,16,0.189962606598589,2
11,855,16,0.291863032077181,2
11,856,16,0.282930337388497,2
12,853,16,0.10690225800032,1
12,854,16,0.27951076688533,2
12,855,16,0.471219453771548,2
12,856,16,0.355840043127082,2
12,857,16,0.147012110032032,2
13,853,16,0.100433922851094,1
13,854,16,0.239362887673242,2
13,855,16,0.371178275286714,2
13,856,16,0.255491706111102,2
14,854,16,0.160511661029058,1
14,855,16,0.188194860124783,2
15,819,16,0.139990316559204,1
15,820,16,0.108518189861437,1
15,854,16,0.118113675102148,1
16,819,16,0.206794584746445,1
16,820,16,0.143595175615274,1
16,854,16,0.110808033944924,1
17,818,16,0.180699093958601,1
17,819,16,0.206550997290829,1
17,820,16,0.141302270621536,1
17,853,16,0.100050611922926,1
17,854,16,0.141795131636509,1
18,818,16,0.171354232999207,1
18,819,16,0.174637783622297,1
18,820,16,0.136947194445208,1
18,853,16,0.162225934163287,1
19,818,16,0.201213227316049,1
19,819,16,0.188769962678523,1
19,820,16,0.157682824418456,1
19,821,16,0.108905607420084,1
19,852,16,0.125259604280379,1
20,818,16,0.212188758256024,1
20,819,16,0.175913518728815,1
20,820,16,0.144555016069575,1
20,821,16,0.105332316043397,1
20,852,16,0.158290115547965,1
21,818,16,0.175649583300428,1
21,819,16,0.143371293450205,1
21,820,16,0.137782833836593,1
21,821,16,0.117967720879905,1
21,851,16,0.10172094302174,1
22,818,16,0.132943512944255,1
22,819,16,0.120539615316145,1
22,820,16,0.134865405115423,1
22,821,16,0.124425762220636,1
22,851,16,0.136936072774866,1
23,818,16,0.107772003121225,1
23,819,16,0.105576731360861,1
23,820,16,0.109791071023167,1
23,849,16,0.104571674399616,1
23,850,16,0.173705208144357,1
24,819,16,0.103019825581222,1
25,819,16,0.10923856038352,1
26,819,16,0.154890489979564,1
26,820,16,0.118752337838498,1
27,820,16,0.176649967199404,1
27,821,16,0.113970008698586,1
28,821,16,0.160301841622472,1
28,822,16,0.138965510735736,1
28,823,16,0.107355664862522,1
29,823,16,0.168693027519742,1
29,824,16,0.166282348285323,1
29,825,16,0.143628889199709,1
29,826,16,0.11126958871057,1
30,824,16,0.275104733633724,1
30,825,16,0.235500106080096,1
30,826,16,0.165196836224034,1
30,827,16,0.113527777971321,1
31,826,16,0.17561328809418,1
1,822,17,0.125152417957006,1
1,850,17,0.105828837079168,1
1,851,17,0.141781232271811,1
2,821,17,0.174492450296439,1
2,822,17,0.185752798390604,1
2,823,17,0.111626288237518,1
2,851,17,0.131112609325844,1
3,820,17,0.117682315508087,1
3,821,17,0.214926693457221,1
3,822,17,0.228353022252447,1
3,823,17,0.144422372994401,1
3,851,17,0.110438589702697,1
3,852,17,0.114425528787083,1
4,820,17,0.107247018887998,1
4,821,17,0.157398933162385,1
4,822,17,0.179145153699751,1
4,823,17,0.137238983067585,1
4,856,17,0.264086763881161,2
5,821,17,0.112118964072867,1
5,822,17,0.115955221408146,1
5,854,17,0.162946380935803,1
5,855,17,0.252603949701402,2
5,856,17,0.397105644762066,2
5,857,17,0.286712489594894,2
6,820,17,0.104861839977056,1
6,821,17,0.101312600165614,1
6,853,17,0.12610279246466,1
6,854,17,0.24233423634367,2
6,855,17,0.291457532272925,2
6,856,17,0.340717316477775,2
6,857,17,0.23079867864991,2
7,820,17,0.166323621555573,1
7,853,17,0.158050405971527,2
7,854,17,0.341753037006123,2
7,855,17,0.368051136088148,2
7,856,17,0.314276324083757,2
7,857,17,0.190650058719327,2
8,819,17,0.256538646346063,1
8,820,17,0.216115524855623,1
8,853,17,0.135561931037723,1
8,854,17,0.267581321239013,2
8,855,17,0.329668802980219,2
8,856,17,0.367484290367043,2
8,857,17,0.236319623951299,2
9,820,17,0.154291629969394,1
9,853,17,0.12104780266821,1
9,854,17,0.178990975323631,2
9,855,17,0.286066866283277,2
9,856,17,0.450009938248299,2
9,857,17,0.31670742754138,2
9,858,17,0.124711494380026,2
10,820,17,0.10709315640653,1
10,853,17,0.113817333545294,1
10,854,17,0.16432400840704,1
10,855,17,0.260524016850107,2
10,856,17,0.376191153058148,2
10,857,17,0.263023549625152,2
11,853,17,0.106015378317761,1
11,854,17,0.217947648480966,2
11,855,17,0.334874006130258,2
11,856,17,0.281948101092645,2
11,857,17,0.155260478867743,2
12,853,17,0.113248113167838,1
12,854,17,0.297129714862293,2
12,855,17,0.467578125222526,2
12,856,17,0.299195753031143,2
13,854,17,0.220415003573161,1
13,855,17,0.318216205757882,2
14,854,17,0.140190670019142,1
15,820,17,0.102789756238137,1
15,854,17,0.110828272988504,1
16,819,17,0.204715801862316,1
16,820,17,0.158487636848952,1
16,821,17,0.105316750062086,1
17,819,17,0.231554647231422,1
17,820,17,0.17810457492951,1
17,821,17,0.110895090153908,1
17,853,17,0.109411202257416,1
18,818,17,0.158398935809194,1
18,819,17,0.176485320728085,1
18,820,17,0.150563996822802,1
18,821,17,0.117757237005257,1
18,853,17,0.18746710420359,1
19,818,17,0.172777523587068,1
19,819,17,0.161942260765596,1
19,820,17,0.150792846158954,1
19,821,17,0.141894518629848,1
19,852,17,0.127575939942976,1
20,818,17,0.195550565137924,1
20,819,17,0.161735382447151,1
20,820,17,0.139863228872741,1
20,821,17,0.128690819314002,1
21,818,17,0.177371764693881,1
21,819,17,0.146671553811105,1
21,820,17,0.140751393919746,1
21,821,17,0.132311353280573,1
21,851,17,0.10313469141252,1
22,819,17,0.135503283561601,1
22,820,17,0.144728670984942,1
22,821,17,0.136260112683718,1
23,819,17,0.116204505860421,1
23,820,17,0.1177385556491,1
23,821,17,0.102828197349436,1
23,849,17,0.115737864101582,1
24,819,17,0.117338622126475,1
24,820,17,0.100217763765625,1
25,819,17,0.147534490857609,1
25,820,17,0.110997745022959,1
26,820,17,0.139330837454565,1
26,821,17,0.102973552461132,1
27,821,17,0.138342479338212,1
27,822,17,0.113830176296845,1
28,822,17,0.175276805824974,1
28,823,17,0.151289269158454,1
28,824,17,0.109403163283163,1
29,823,17,0.213539044500466,1
29,824,17,0.186450882000327,1
29,825,17,0.135872324765824,1
29,826,17,0.101812552470883,1
30,824,17,0.247177315293078,1
30,825,17,0.182859617307221,1
30,826,17,0.138495666458699,1
30,827,17,0.105200892975156,1
31,827,17,0.14429414155144,1
1,822,18,0.124797722727162,1
2,821,18,0.166106394964038,1
2,822,18,0.19348400410896,1
2,823,18,0.119985143951071,1
2,851,18,0.119281254415499,1
3,821,18,0.215578155373445,1
3,822,18,0.267964120199986,1
3,823,18,0.161309044488768,1
3,851,18,0.109152778646065,1
3,852,18,0.114911102439217,1
4,820,18,0.100028335903486,1
4,821,18,0.17149711541828,1
4,822,18,0.233267929110018,1
4,823,18,0.162419065617901,1
4,851,18,0.110009779051691,1
4,852,18,0.105356607252861,1
4,856,18,0.263838470684519,2
5,821,18,0.116420490659185,1
5,822,18,0.139853741140256,1
5,823,18,0.109741268597307,1
5,855,18,0.240187852003966,2
5,856,18,0.38071628948656,2
5,857,18,0.264183384073064,2
6,853,18,0.101499947480216,1
6,854,18,0.192686816721793,1
6,855,18,0.280943011452644,2
6,856,18,0.321222281054216,2
6,857,18,0.207405067501233,2
7,853,18,0.135879775522448,1
7,854,18,0.293337802600434,2
7,855,18,0.351271051806607,2
7,856,18,0.275500015879919,2
7,857,18,0.159740311645859,1
8,820,18,0.171035331901335,1
8,853,18,0.137157471354394,1
8,854,18,0.265596805676272,2
8,855,18,0.335578298703835,2
8,856,18,0.313493449992212,2
8,857,18,0.183695866702072,2
9,853,18,0.130006858220975,1
9,854,18,0.205736860521633,2
9,855,18,0.323261587999738,2
9,856,18,0.408447962072021,2
9,857,18,0.250749255947804,2
10,853,18,0.115288346011478,1
10,854,18,0.190417887042866,2
10,855,18,0.309504942327484,2
10,856,18,0.362119636668067,2
10,857,18,0.216367652359768,2
11,853,18,0.112758705208201,1
11,854,18,0.250986176936967,2
11,855,18,0.372057159566696,2
11,856,18,0.280208828709216,2
12,853,18,0.119116128655742,1
12,854,18,0.296924840840952,2
12,855,18,0.414335584814201,2
12,856,18,0.240148942497148,2
13,854,18,0.196242788357203,1
13,855,18,0.245661020962437,2
14,854,18,0.123903032821651,1
15,820,18,0.10924345130417,1
15,854,18,0.106430028174013,1
16,819,18,0.195009339562405,1
16,820,18,0.189786272025137,1
16,821,18,0.12005997830489,1
17,819,18,0.250287243679558,1
17,820,18,0.232398107738679,1
17,821,18,0.135033297676617,1
17,853,18,0.137278219361974,1
18,819,18,0.18751326839449,1
18,820,18,0.17033647489436,1
18,821,18,0.131540526757488,1
18,852,18,0.105480372599015,1
18,853,18,0.22165616455464,1
19,819,18,0.150341770381427,1
19,820,18,0.145210236042868,1
19,821,18,0.160596048472876,1
19,822,18,0.12514043574606,1
19,852,18,0.129805589755837,1
20,818,18,0.175099665175514,1
20,819,18,0.154297174465186,1
20,820,18,0.141350580717488,1
20,821,18,0.15390975690654,1
20,822,18,0.123658617504187,1
21,818,18,0.177572085475063,1
21,819,18,0.152572803595006,1
21,820,18,0.143023057721352,1
21,821,18,0.144569961154501,1
21,822,18,0.109851515830931,1
21,851,18,0.101863662047027,1
22,818,18,0.172508446700893,1
22,819,18,0.150995193023078,1
22,820,18,0.144298673005761,1
22,821,18,0.133798661553644,1
23,819,18,0.12776645709702,1
23,820,18,0.120728672819038,1
23,821,18,0.103211508277603,1
23,849,18,0.133430350174997,1
24,819,18,0.127474777403833,1
24,820,18,0.107811272094371,1
24,848,18,0.147690575494561,1
25,820,18,0.137209506828658,1
25,821,18,0.101777749594543,1
25,847,18,0.127074811202451,1
26,820,18,0.170635627130009,1
26,821,18,0.141992249899492,1
26,822,18,0.114952375709467,1
27,821,18,0.175152746370005,1
27,822,18,0.167101517583116,1
27,823,18,0.126194184055422,1
28,822,18,0.214625264601492,1
28,823,18,0.194562468451628,1
28,824,18,0.131284216372431,1
29,823,18,0.239953545315374,1
29,824,18,0.195887875268977,1
29,825,18,0.131267092703697,1
30,825,18,0.139594772882952,1
30,826,18,0.108312760301225,1
1,822,19,0.107130312153382,1
2,821,19,0.13904619458708,1
2,822,19,0.170052006313579,1
2,823,19,0.120086230239781,1
3,821,19,0.187643939851317,1
3,822,19,0.261079904294657,1
3,823,19,0.164737296648411,1
3,851,19,0.117157625383674,1
4,821,19,0.170699786423166,1
4,822,19,0.257739285668706,1
4,823,19,0.171607613189042,1
4,850,19,0.107640078978708,1
4,851,19,0.131801183417243,1
4,852,19,0.119252660503014,1
4,856,19,0.238148240056711,2
5,821,19,0.114574533026658,1
5,822,19,0.153411079072799,1
5,823,19,0.114935219361976,1
5,851,19,0.105923463866885,1
5,855,19,0.259929198112902,2
5,856,19,0.337366698152144,2
5,857,19,0.222080748753057,2
6,854,19,0.175500415667068,1
6,855,19,0.301661539542996,2
6,856,19,0.308812740894043,2
6,857,19,0.184390475470621,1
7,853,19,0.11762543268485,1
7,854,19,0.230453416687956,2
7,855,19,0.322404075626916,2
7,856,19,0.253315213743166,2
8,853,19,0.132031503297466,1
8,854,19,0.24373696110038,2
8,855,19,0.342380294856235,2
8,856,19,0.273968101103372,2
8,857,19,0.148539210138363,1
9,853,19,0.128567968973046,1
9,854,19,0.221813392948092,2
9,855,19,0.361970272962164,2
9,856,19,0.346233839254033,2
9,857,19,0.185239785475404,2
10,853,19,0.11707215954087,1
10,854,19,0.213179556386243,2
10,855,19,0.344962700959351,2
10,856,19,0.320999847647379,2
10,857,19,0.170520499868654,2
11,853,19,0.128521369065385,1
11,854,19,0.283383678893185,2
11,855,19,0.387608631509494,2
11,856,19,0.272901880401706,2
12,853,19,0.135286165899257,1
12,854,19,0.290871471442629,2
12,855,19,0.342784618225235,2
12,856,19,0.196376945548123,2
13,853,19,0.10362836939642,1
13,854,19,0.177257683152755,1
13,855,19,0.180965828867181,2
14,854,19,0.119711524717656,1
16,820,19,0.220291543228739,1
16,821,19,0.131500310100385,1
16,853,19,0.110089286467778,1
17,819,19,0.243927500040262,1
17,820,19,0.263251494849024,1
17,821,19,0.143415039413077,1
17,853,19,0.182462581301061,1
18,819,19,0.199861089275371,1
18,820,19,0.183454011220584,1
18,821,19,0.12596374435309,1
18,852,19,0.11255303600377,1
19,819,19,0.153603970883194,1
19,820,19,0.148820585130136,1
19,821,19,0.159312808145138,1
19,822,19,0.135085365829637,1
19,852,19,0.124633490186766,1
20,819,19,0.149300156783877,1
20,820,19,0.157513907922873,1
20,821,19,0.185127784481814,1
20,822,19,0.161725219353685,1
20,852,19,0.140187554644296,1
21,819,19,0.151749745525114,1
21,820,19,0.150218190214896,1
21,821,19,0.164650643477432,1
21,822,19,0.140365196368033,1
22,819,19,0.154689918661244,1
22,820,19,0.138139250147646,1
22,821,19,0.128501576631486,1
22,822,19,0.102322264831613,1
22,850,19,0.101219879638728,1
23,820,19,0.121861710686106,1
23,821,19,0.103641473578028,1
23,849,19,0.162029055544522,1
24,820,19,0.11735743419766,1
24,848,19,0.157554135472895,1
25,820,19,0.159071497309602,1
25,821,19,0.124304240815804,1
25,847,19,0.1177021732995,1
25,848,19,0.164938042253435,1
25,849,19,0.25553107312052,1
26,821,19,0.1830470081935,1
26,822,19,0.154293078727627,1
27,822,19,0.214692648198686,1
27,823,19,0.149301812507572,1
28,823,19,0.212819588983582,1
28,824,19,0.156653944643267,1
28,825,19,0.114365334516457,1
29,824,19,0.202831893299847,1
29,825,19,0.14040514070216,1
1,850,20,0.10240961514941,1
2,822,20,0.137453736966497,1
2,823,20,0.113486123448904,1
3,821,20,0.16089219426287,1
3,822,20,0.225518989719462,1
3,823,20,0.156126760040393,1
3,850,20,0.107295448806058,1
3,851,20,0.123677810827539,1
4,821,20,0.168648878518865,1
4,822,20,0.250918379408849,1
4,823,20,0.168616657264339,1
4,850,20,0.121070525297331,1
4,851,20,0.144582172116747,1
5,822,20,0.164289543211191,1
5,823,20,0.123826215956567,1
5,851,20,0.121875969517132,1
5,852,20,0.109031703850914,1
5,855,20,0.280261114720617,1
5,856,20,0.274387935989087,2
6,854,20,0.187116722569686,1
6,855,20,0.320686567295732,1
6,856,20,0.274731455083994,1
7,854,20,0.196246078018753,1
7,855,20,0.288989828607321,2
7,856,20,0.217135058506274,1
8,853,20,0.131556060060042,1
8,854,20,0.235335361572506,2
8,855,20,0.344079851656838,2
8,856,20,0.235278435177592,2
9,853,20,0.128384216321728,1
9,854,20,0.241539576113721,2
9,855,20,0.385623898088372,2
9,856,20,0.282997873486557,2
10,853,20,0.124979743404353,1
10,854,20,0.235327649385824,2
10,855,20,0.351333795020289,2
10,856,20,0.26770425872332,2
11,853,20,0.153861185380532,1
11,854,20,0.30627920042575,2
11,855,20,0.36323603015484,2
11,856,20,0.242265981312953,2
12,853,20,0.168130996468853,1
12,854,20,0.294761354618352,1
12,855,20,0.277631999780649,2
13,853,20,0.124908590857171,1
13,854,20,0.174453715076326,1
14,853,20,0.110991644988295,1
15,853,20,0.104311910959222,1
16,821,20,0.129593243192033,1
16,853,20,0.143035976723336,1
17,820,20,0.251165931886997,1
17,821,20,0.135068133231713,1
17,852,20,0.112562730701717,1
17,853,20,0.243230963225043,1
18,820,20,0.181500551370032,1
18,821,20,0.117331247620283,1
18,852,20,0.120690994212071,1
19,819,20,0.160347330452391,1
19,820,20,0.155071595651556,1
19,821,20,0.155742348927402,1
19,822,20,0.133246837167897,1
19,852,20,0.119298378084233,1
20,819,20,0.144603772775207,1
20,820,20,0.179735201338416,1
20,821,20,0.22064832989904,1
20,822,20,0.19061101849748,1
20,823,20,0.101686521397567,1
20,852,20,0.136545082338774,1
21,819,20,0.142708219682282,1
21,820,20,0.159787815665801,1
21,821,20,0.19010948671895,1
21,822,20,0.165410794939856,1
21,851,20,0.0999817795675002,1
22,820,20,0.130603071251818,1
22,821,20,0.132353781200242,1
22,822,20,0.11584317684288,1
22,850,20,0.108740993627522,1
23,820,20,0.129022693878453,1
23,821,20,0.129957034009277,1
23,822,20,0.112637358090074,1
23,849,20,0.17909820521868,1
24,820,20,0.140676047598733,1
24,821,20,0.139284368261932,1
24,822,20,0.116452548519925,1
24,848,20,0.153975310493334,1
25,821,20,0.156066511305172,1
25,822,20,0.128142502448187,1
25,847,20,0.103396557186288,1
25,848,20,0.148337124704297,1
26,822,20,0.197567149454324,1
26,823,20,0.132203197487406,1
26,848,20,0.103088941152543,1
27,823,20,0.179753272691106,1
27,824,20,0.124390599877969,1
28,824,20,0.204198170349442,1
28,825,20,0.143863010708678,1
29,825,20,0.149145237689262,1
2,823,21,0.105763457779078,1
2,850,21,0.108639950910488,1
3,822,21,0.180196276815624,1
3,823,21,0.147024310101359,1
3,850,21,0.116664121686477,1
3,851,21,0.135930133487179,1
4,822,21,0.21478730766516,1
4,823,21,0.16564906665098,1
4,824,21,0.102562584411517,1
4,850,21,0.128939973051248,1
4,851,21,0.155925676754879,1
5,822,21,0.171141646791184,1
5,823,21,0.145320308989787,1
5,850,21,0.107592596744604,1
5,851,21,0.134472170738008,1
5,852,21,0.125440099948905,1
5,855,21,0.287156136401635,1
6,852,21,0.106625153032811,1
6,854,21,0.226821347120119,1
6,855,21,0.321208381689519,1
6,856,21,0.228673884075747,1
7,855,21,0.249126712084828,1
8,854,21,0.220771964530166,1
8,855,21,0.304109069522534,2
8,856,21,0.189291384927223,1
9,853,21,0.130597831757759,1
9,854,21,0.254510166962069,2
9,855,21,0.351860467655968,2
9,856,21,0.213092718035641,2
10,853,21,0.135367100287739,1
10,854,21,0.245783195942412,2
10,855,21,0.311807422197059,2
10,856,21,0.20599613378067,2
11,853,21,0.18240210381454,1
11,854,21,0.299062576202936,1
11,855,21,0.299593148503632,2
12,852,21,0.101580653117398,1
12,853,21,0.209448731614371,1
12,854,21,0.291330825838629,1
13,853,21,0.145260986152685,1
14,853,21,0.127789637228741,1
15,853,21,0.120160890306894,1
16,852,21,0.10223247449995,1
16,853,21,0.177876749527748,1
17,821,21,0.12412100013168,1
17,852,21,0.135961886346187,1
18,821,21,0.117450797406769,1
18,852,21,0.124566204625844,1
19,820,21,0.165637378548848,1
19,821,21,0.161041764934235,1
19,822,21,0.129507221810359,1
19,852,21,0.11115258786714,1
20,820,21,0.204383328187317,1
20,821,21,0.252699698459781,1
20,822,21,0.202376089995455,1
20,823,21,0.106685031408785,1
21,820,21,0.170415230699033,1
21,821,21,0.213563401067444,1
21,822,21,0.178476884009445,1
21,823,21,0.102417708588259,1
22,820,21,0.12515316956842,1
22,821,21,0.14166879556146,1
22,822,21,0.126981742102156,1
23,821,21,0.174738608480949,1
23,822,21,0.152080182224252,1
24,821,21,0.205754093119557,1
24,822,21,0.16768657626486,1
24,823,21,0.102127782655038,1
24,848,21,0.143443687790157,1
25,822,21,0.159067663002099,1
25,823,21,0.114026924200581,1
25,848,21,0.132180365929094,1
26,823,21,0.167406040027853,1
26,824,21,0.106730138986538,1
26,847,21,0.101799753291008,1
27,824,21,0.167735866723525,1
27,825,21,0.105911329155072,1
28,825,21,0.160522238053448,1
2,850,22,0.114541788912018,1
3,823,22,0.136068876597017,1
3,824,22,0.102995937409763,1
3,850,22,0.121623950942177,1
4,822,22,0.175491832046863,1
4,823,22,0.172768885502267,1
4,824,22,0.120496283284196,1
4,850,22,0.126892975704883,1
4,851,22,0.153269155230601,1
5,823,22,0.175732031804657,1
5,824,22,0.116124758800115,1
5,850,22,0.107987770061608,1
5,851,22,0.137118191488329,1
6,851,22,0.115438984188909,1
6,852,22,0.140401938183961,1
6,855,22,0.275067675923143,1
7,851,22,0.0998185273898183,1
7,852,22,0.125418444825849,1
8,852,22,0.10644165091863,1
8,855,22,0.24234310317977,1
9,854,22,0.293574832518787,1
9,855,22,0.300566365462517,2
9,856,22,0.163729026276049,1
10,853,22,0.160558053971258,1
10,855,22,0.268412538105267,2
11,852,22,0.116463713761943,1
11,853,22,0.21121928846129,1
11,854,22,0.28278999301956,1
12,852,22,0.129863028117945,1
12,853,22,0.242786118197207,1
12,854,22,0.277973558150129,1
13,853,22,0.160193707615142,1
13,854,22,0.166386952986883,1
14,853,22,0.132022680033042,1
16,852,22,0.120871075949673,1
17,852,22,0.155331369984868,1
17,853,22,0.315753904980123,1
18,821,22,0.132027048093578,1
18,852,22,0.12369019607649,1
19,820,22,0.176328931089399,1
19,821,22,0.175537124804239,1
19,822,22,0.136490737565674,1
20,820,22,0.206281963976331,1
20,821,22,0.247663052338997,1
20,822,22,0.189077992643191,1
20,823,22,0.112900062618609,1
21,821,22,0.201795388481328,1
21,822,22,0.166077899087824,1
21,823,22,0.11206787628256,1
22,821,22,0.136097797297073,1
22,822,22,0.124581901322184,1
23,821,22,0.188139676596917,1
23,822,22,0.163096746790258,1
23,823,22,0.102554142399259,1
24,822,22,0.195347281482763,1
24,823,22,0.115788592425561,1
24,848,22,0.143292820861426,1
25,823,22,0.13558061239388,1
26,823,22,0.199239190741427,1
26,824,22,0.145703576346279,1
27,824,22,0.221250185461946,1
27,825,22,0.128526031234735,1
28,825,22,0.164567639434332,1
2,850,23,0.116343510400315,1
3,824,23,0.101829697925455,1
3,850,23,0.129703838999066,1
3,851,23,0.140070608265462,1
4,823,23,0.16583633771515,1
4,824,23,0.134587134605577,1
4,850,23,0.120922414277118,1
4,851,23,0.139140636195174,1
5,824,23,0.140678531184275,1
5,850,23,0.101686815506381,1
5,851,23,0.133612730318516,1
6,851,23,0.144602138837351,1
7,851,23,0.136749520643354,1
7,852,23,0.160634565834609,1
8,851,23,0.104570868323607,1
8,852,23,0.122298996028127,1
9,852,23,0.102285947839527,1
9,855,23,0.224253951459443,1
10,852,23,0.107841630659741,1
11,852,23,0.142773468267344,1
11,853,23,0.240167983319634,1
12,852,23,0.154093792773754,1
12,853,23,0.265343458165194,1
13,852,23,0.108718674036405,1
13,853,23,0.172929251056403,1
15,852,23,0.105332250685883,1
16,852,23,0.14645557990526,1
17,852,23,0.171215990963646,1
18,821,23,0.167365681762803,1
18,822,23,0.136865639160341,1
19,821,23,0.215845097247487,1
19,822,23,0.174429358509348,1
19,823,23,0.120181368994693,1
20,821,23,0.221093654215313,1
20,822,23,0.17702124145203,1
20,823,23,0.13344691830486,1
21,821,23,0.163398742077778,1
21,822,23,0.145963002106182,1
21,823,23,0.131049038250315,1
21,824,23,0.0999088514745143,1
22,822,23,0.122950011334669,1
22,823,23,0.109491308784051,1
22,849,23,0.101690388383827,1
23,822,23,0.157914353412693,1
23,823,23,0.109990356977039,1
23,848,23,0.101843096215876,1
24,823,23,0.132325219966514,1
24,848,23,0.147416476972708,1
25,823,23,0.161093582550118,1
25,824,23,0.135518544541179,1
26,824,23,0.20040026698211,1
26,825,23,0.125828966265784,1
27,825,23,0.147343723166427,1
3,849,24,0.101457759204767,1
3,850,24,0.134709952267775,1
3,851,24,0.136368301155642,1
4,824,24,0.141711136337776,1
4,825,24,0.116114933387139,1
4,850,24,0.11183752372358,1
5,824,24,0.164478045175212,1
5,825,24,0.129382171099757,1
6,850,24,0.107331482582249,1
6,851,24,0.183470633815042,1
7,850,24,0.116953023685308,1
7,851,24,0.190746831412096,1
7,852,24,0.201290392754543,1
8,851,24,0.130903595995267,1
8,852,24,0.137257740674175,1
11,852,24,0.152901225104121,1
12,852,24,0.161209668388348,1
13,852,24,0.121796189778069,1
14,828,24,0.11142104385693,1
18,822,24,0.168568761099311,1
18,823,24,0.108185378505948,1
19,822,24,0.212487463881993,1
19,823,24,0.144096238998285,1
19,824,24,0.101790102164737,1
20,822,24,0.162680561032422,1
20,823,24,0.157950713976455,1
20,824,24,0.147540590892272,1
20,825,24,0.106423797424321,1
21,822,24,0.12310122683681,1
21,823,24,0.145233209209128,1
21,824,24,0.140812143729243,1
21,825,24,0.105562570566106,1
22,823,24,0.117514815091978,1
22,849,24,0.104835729650112,1
23,823,24,0.115469473469308,1
23,848,24,0.104015481953333,1
24,824,24,0.125646346478045,1
24,825,24,0.0998268822587235,1
25,824,24,0.192687317796069,1
25,825,24,0.146614376879053,1
26,825,24,0.172162749022178,1
2,850,25,0.125836318986137,1
2,851,25,0.135035018757825,1
3,849,25,0.102763123051079,1
3,850,25,0.141253808024719,1
3,851,25,0.137346801180263,1
3,852,25,0.120793758010313,1
4,825,25,0.145741864956711,1
4,826,25,0.124708161146799,1
4,850,25,0.109756627613156,1
4,851,25,0.109469631875157,1
5,824,25,0.170923036798931,1
5,825,25,0.174098093948363,1
5,826,25,0.136286931050399,1
6,825,25,0.113980269828324,1
6,850,25,0.116847700051092,1
7,850,25,0.1354689599737,1
7,851,25,0.223104203854564,1
8,850,25,0.104845663992278,1
8,851,25,0.149429444839986,1
12,829,25,0.113037051968481,1
13,828,25,0.138016552307558,1
13,829,25,0.147764876095346,1
14,828,25,0.174542982547875,1
14,829,25,0.146188910354193,1
15,827,25,0.106882748782316,1
15,828,25,0.146688753730272,1
18,823,25,0.116658021651814,1
19,823,25,0.161332181048813,1
19,824,25,0.130149631710858,1
20,823,25,0.182588024156748,1
20,824,25,0.211552633569812,1
20,825,25,0.173779857318552,1
20,826,25,0.103617901301221,1
21,823,25,0.153011842696992,1
21,824,25,0.177996342885909,1
21,825,25,0.159194870510671,1
21,826,25,0.112023781746278,1
22,824,25,0.10477458769553,1
24,825,25,0.129384033788913,1
24,826,25,0.102781216189608,1
2,851,26,0.129761593255826,1
3,850,26,0.13093516367465,1
3,851,26,0.128044161175076,1
3,852,26,0.113381540533183,1
4,825,26,0.165370708997782,1
4,826,26,0.164981657501279,1
4,851,26,0.102309008149139,1
5,825,26,0.199690070446412,1
5,826,26,0.183442845978566,1
5,827,26,0.0998220349097498,1
6,825,26,0.120923786784917,1
6,826,26,0.100261324548874,1
7,850,26,0.140406622139149,1
8,850,26,0.110330390337853,1
11,829,26,0.122696347928939,1
12,828,26,0.101714178519015,1
12,829,26,0.162586261032276,1
12,830,26,0.0999337417945251,1
13,828,26,0.150087965367749,1
13,829,26,0.1984019827697,1
13,830,26,0.102541452148575,1
14,828,26,0.193321895687777,1
14,829,26,0.18396627252437,1
15,827,26,0.111882979874742,1
15,828,26,0.169965048140867,1
15,829,26,0.117294440446841,1
16,827,26,0.102947496598783,1
16,828,26,0.103636353906078,1
19,824,26,0.149087385396231,1
19,825,26,0.114517519488393,1
20,824,26,0.239792787616152,1
20,825,26,0.207431101577743,1
20,826,26,0.126913552428953,1
21,824,26,0.185944513765743,1
21,825,26,0.180208269919489,1
21,826,26,0.138171602117201,1
3,826,27,0.100374098939715,1
3,851,27,0.114023242393945,1
4,825,27,0.178649122845337,1
4,826,27,0.185084604950732,1
4,827,27,0.109236817516474,1
5,825,27,0.202673401327786,1
5,826,27,0.203668926984869,1
5,827,27,0.116714969832565,1
6,826,27,0.10566598793949,1
10,829,27,0.102789690880623,1
11,829,27,0.133204431034067,1
12,829,27,0.176517040908335,1
12,830,27,0.120931226648623,1
13,828,27,0.136974176205675,1
13,829,27,0.203999766722011,1
13,830,27,0.117419338656576,1
14,828,27,0.171968223273926,1
14,829,27,0.181472099065494,1
15,827,27,0.103174308959075,1
15,828,27,0.158696671965368,1
15,829,27,0.124023029217817,1
16,828,27,0.111557739097987,1
20,825,27,0.202020762976306,1
1,846,28,0.103925822336699,1
1,847,28,0.101041823984069,1
3,826,28,0.108703216984284,1
4,825,28,0.216643264997368,1
4,826,28,0.194724642230325,1
4,827,28,0.138252536505683,1
5,825,28,0.217830092098665,1
5,826,28,0.20607264564402,1
5,827,28,0.149681027698179,1
6,826,28,0.110463959311146,1
10,829,28,0.109668699970649,1
11,829,28,0.126671206766108,1
11,830,28,0.102869525084281,1
12,829,28,0.163303744930813,1
12,830,28,0.129181131385918,1
13,828,28,0.122768698697216,1
13,829,28,0.178357966012264,1
13,830,28,0.124043562370211,1
14,828,28,0.137829215885874,1
14,829,28,0.154149161481244,1
15,828,28,0.135012132734918,1
15,829,28,0.130983691628982,1
16,828,28,0.122004026673389,1
16,829,28,0.126515971776841,1
17,828,28,0.113140807022355,1
17,829,28,0.111566889149982,1
18,828,28,0.115142511611344,1
1,846,29,0.120584940752279,1
3,826,29,0.114667133731434,1
3,827,29,0.108348162288111,1
4,825,29,0.247404258368399,1
4,826,29,0.191317903585789,1
4,827,29,0.161067450437336,1
4,828,29,0.119396795607777,1
5,825,29,0.229530742873426,1
5,826,29,0.193928740207605,1
5,827,29,0.178081961229579,1
5,828,29,0.141008564845408,1
6,826,29,0.114751553854009,1
6,827,29,0.120844834907701,1
6,828,29,0.117654952495453,1
10,829,29,0.120877742416127,1
10,830,29,0.100305734979808,1
11,829,29,0.124992194010818,1
11,830,29,0.105492986599266,1
12,828,29,0.106846410004392,1
12,829,29,0.146956872039571,1
12,830,29,0.123467239809539,1
13,828,29,0.119580036291901,1
13,829,29,0.146137070952473,1
13,830,29,0.118424504547011,1
13,848,29,0.113616511689837,1
14,828,29,0.111575995630301,1
14,829,29,0.121680387155734,1
15,828,29,0.115306537186278,1
15,829,29,0.134747805161446,1
15,830,29,0.108633426051982,1
16,828,29,0.135510265922707,1
16,829,29,0.167682894458224,1
16,830,29,0.131079778067851,1
17,829,29,0.142211099535964,1
17,830,29,0.10440028521141,1
1,845,30,0.119997801522998,1
1,846,30,0.124000077837395,1
3,826,30,0.110690281490081,1
3,827,30,0.112967958182997,1
3,828,30,0.101039950401993,1
4,826,30,0.168427251188037,1
4,827,30,0.159083196304653,1
4,828,30,0.13636559971172,1
5,825,30,0.212992459608778,1
5,826,30,0.171665476374993,1
5,827,30,0.186593818883996,1
5,828,30,0.178272826957032,1
5,829,30,0.101814240873334,1
6,826,30,0.12172613741571,1
6,827,30,0.153278414211787,1
6,828,30,0.166540750110836,1
6,829,30,0.108477352307949,1
7,828,30,0.106668267206379,1
9,829,30,0.101174793846814,1
10,829,30,0.133550139605701,1
10,830,30,0.110951635296654,1
11,828,30,0.106494851935231,1
11,829,30,0.13453832343535,1
11,830,30,0.107080673121308,1
12,828,30,0.126972995088165,1
12,829,30,0.141218514967023,1
12,830,30,0.112399304237331,1
12,847,30,0.112882731984413,1
12,848,30,0.132481729427309,1
13,827,30,0.102451705388589,1
13,828,30,0.125091984042162,1
13,829,30,0.125266445033538,1
13,830,30,0.106775911032352,1
13,847,30,0.140006634151929,1
13,848,30,0.168221886985339,1
14,828,30,0.102787653904762,1
14,829,30,0.112090250338272,1
14,830,30,0.107611964354661,1
14,847,30,0.104241063413773,1
14,848,30,0.125414817483808,1
15,828,30,0.113338742254267,1
15,829,30,0.151911145906559,1
15,830,30,0.149815958286352,1
16,829,30,0.192080451490403,1
16,830,30,0.176504633873546,1
16,831,30,0.107530855679474,1
16,847,30,0.108022365972485,1
17,830,30,0.122573748125122,1
1,845,31,0.124205060787927,1
3,827,31,0.109157408136658,1
3,828,31,0.105743218735498,1
4,827,31,0.143941624905404,1
4,828,31,0.136701210547403,1
5,826,31,0.155335661794971,1
5,827,31,0.178824858308241,1
5,828,31,0.187115916493677,1
5,829,31,0.117813901970114,1
6,826,31,0.139637789020249,1
6,827,31,0.176627767430396,1
6,828,31,0.192697491782454,1
6,829,31,0.126269323410974,1
7,826,31,0.105581077635558,1
7,827,31,0.119027972261935,1
7,828,31,0.119647986320885,1
8,834,31,0.109531394726125,1
9,829,31,0.107973217121768,1
9,830,31,0.102369954031179,1
10,828,31,0.0997165478817475,1
10,829,31,0.134353187383313,1
10,830,31,0.108644547722324,1
11,828,31,0.125287816940698,1
11,829,31,0.141817592835574,1
11,830,31,0.101841440492182,1
12,827,31,0.104777496104914,1
12,828,31,0.147045420578463,1
12,829,31,0.139799091365422,1
12,847,31,0.128027582152294,1
13,827,31,0.114269574865159,1
13,828,31,0.126667568531148,1
13,829,31,0.114298702530678,1
13,847,31,0.165106849819828,1
14,828,31,0.106170852951247,1
14,829,31,0.125040634821798,1
14,830,31,0.122389995473803,1
14,847,31,0.123180559966193,1
15,828,31,0.130409558545037,1
15,829,31,0.183933158050483,1
15,830,31,0.1893544113568,1
15,831,31,0.124206553117836,1
16,829,31,0.194429749126021,1
16,830,31,0.19131755501238,1
16,831,31,0.126487541258141,1
17,830,31,0.122444089709766,1
18,834,31,0.107596823197192,1
3,828,32,0.105429927490932,1
4,827,32,0.129464935498638,1
4,828,32,0.133322630098591,1
4,829,32,0.102638921988163,1
5,827,32,0.176288235143858,1
5,828,32,0.185948805575845,1
5,829,32,0.133609756551618,1
6,827,32,0.195006616332645,1
6,828,32,0.197968509949344,1
6,829,32,0.140844397662527,1
7,826,32,0.14603419822504,1
7,827,32,0.162831624033696,1
7,828,32,0.1408140064184,1
7,829,32,0.108842842420564,1
8,827,32,0.124496402800623,1
8,828,32,0.103725773878493,1
8,833,32,0.105924553158789,1
8,834,32,0.122079786925326,1
9,829,32,0.110730617969293,1
9,830,32,0.104246978268813,1
9,834,32,0.102707340412665,1
10,828,32,0.100532438410909,1
10,829,32,0.125395068621585,1
10,830,32,0.102070050184115,1
11,828,32,0.141151893874162,1
11,829,32,0.141550313281041,1
12,827,32,0.117285410216955,1
12,828,32,0.157525857455062,1
12,829,32,0.133570531150148,1
13,828,32,0.119717766360267,1
13,829,32,0.105245728229933,1
14,828,32,0.107730305027132,1
14,829,32,0.137112679671294,1
14,830,32,0.140348835203632,1
14,831,32,0.109960259841726,1
15,829,32,0.207788846824919,1
15,830,32,0.219026831756291,1
15,831,32,0.154354689077728,1
16,830,32,0.179539041652308,1
16,831,32,0.130742359007607,1
16,841,32,0.102251896574602,1
16,842,32,0.106935023900798,1
16,843,32,0.106855984880229,1
16,844,32,0.101729613785297,1
17,834,32,0.106600785572914,1
17,835,32,0.108777027403712,1
17,841,32,0.11723327670642,1
17,842,32,0.122387784211238,1
18,834,32,0.153691887632782,1
18,835,32,0.125949474629145,1
18,836,32,0.101382293061644,1
18,841,32,0.114346141193105,1
3,829,33,0.110167682806123,1
4,828,33,0.13273561069142,1
4,829,33,0.114836039334098,1
5,828,33,0.173131706849717,1
5,829,33,0.137855478713684,1
6,828,33,0.184708679421675,1
6,829,33,0.14635336075297,1
7,827,33,0.215015427175737,1
7,828,33,0.167988146728537,1
7,829,33,0.132634480831034,1
7,830,33,0.102837652403164,1
7,832,33,0.107379618391496,1
7,833,33,0.102650217945209,1
7,834,33,0.105142071212329,1
7,835,33,0.106724017166036,1
8,828,33,0.1301698489686,1
8,829,33,0.111585385326516,1
8,831,33,0.103408735469777,1
8,832,33,0.113048740070613,1
8,833,33,0.112956760262222,1
8,834,33,0.12480422579983,1
8,835,33,0.12165030091334,1
8,836,33,0.104884224925687,1
9,829,33,0.103325600711649,1
9,830,33,0.0997856743459878,1
9,834,33,0.101858934520163,1
10,829,33,0.111406011628652,1
11,828,33,0.140667768980261,1
11,829,33,0.131735640723368,1
11,844,33,0.108061286372222,1
12,828,33,0.150474827387524,1
12,829,33,0.126326238912968,1
12,844,33,0.0997781800176869,1
13,829,33,0.11084139895595,1
13,830,33,0.102825114653347,1
13,842,33,0.111696340599877,1
13,843,33,0.136564090482502,1
14,830,33,0.16322919379289,1
14,831,33,0.134288897375127,1
14,842,33,0.108358085737359,1
14,843,33,0.125049948267579,1
15,830,33,0.213972255890765,1
15,831,33,0.156734933496344,1
15,832,33,0.100916664344276,1
15,842,33,0.107102502531068,1
16,840,33,0.110860766566006,1
16,841,33,0.13464383224919,1
16,842,33,0.146464621028064,1
17,834,33,0.118753884633002,1
17,835,33,0.125754142804884,1
17,836,33,0.111151324288532,1
17,841,33,0.158927808814519,1
6,832,34,0.102595589956214,1
7,828,34,0.206168699404132,1
7,832,34,0.126231481410222,1
7,833,34,0.117875054817615,1
7,834,34,0.11016555868691,1
7,835,34,0.125842800272967,1
7,836,34,0.123851084490739,1
7,837,34,0.10705825549392,1
8,831,34,0.113112616147875,1
8,832,34,0.132684043612675,1
8,833,34,0.12439286560513,1
8,834,34,0.12435579700163,1
8,835,34,0.1442509293416,1
8,836,34,0.136474997297658,1
8,837,34,0.101305868341646,1
9,832,34,0.133927927823915,1
9,833,34,0.123888763097706,1
9,834,34,0.108258273920177,1
9,835,34,0.108246139208364,1
11,838,34,0.103844593839403,1
11,839,34,0.102866682032411,1
12,837,34,0.108500379938804,1
12,838,34,0.10255981761008,1
13,842,34,0.13010743254249,1
