x,y,z,signal,mito.p
851,261,22,0.12492543131001,1
851,262,22,0.111864265839828,1
849,257,23,0.133416516167814,1
850,257,23,0.150569519532756,1
850,258,23,0.127132870460944,1
850,261,23,0.102940579595192,1
851,258,23,0.109188071703761,1
851,261,23,0.129375613562494,1
851,262,23,0.117636543462272,1
852,262,23,0.102253116581535,1
847,256,24,0.10595535833384,1
847,257,24,0.107911410699124,1
848,257,24,0.138960369277948,1
848,258,24,0.112795610417916,1
849,257,24,0.172260207968846,1
849,258,24,0.149600017059264,1
849,259,24,0.103116805239453,1
850,257,24,0.165131827283192,1
850,258,24,0.164457577380332,1
850,259,24,0.126520100193158,1
850,260,24,0.104821122245677,1
850,261,24,0.108809401159105,1
851,258,24,0.126248463471008,1
851,259,24,0.124864790429703,1
851,260,24,0.115134189421196,1
851,261,24,0.126673548743702,1
851,262,24,0.115333246623769,1
852,261,24,0.101854915033037,1
852,262,24,0.100669983299652,1
844,256,25,0.106292690250732,1
845,256,25,0.108224789087042,1
845,257,25,0.104185367918712,1
846,256,25,0.10568702216616,1
846,257,25,0.118210426009079,1
847,256,25,0.116320199553566,1
847,257,25,0.159598997807128,1
847,258,25,0.135605611643081,1
847,290,25,0.106896844219556,1
848,257,25,0.205783765431028,1
848,258,25,0.193990720916953,1
848,259,25,0.124941095327592,1
848,289,25,0.103743714516156,1
848,290,25,0.118590959242891,1
849,257,25,0.203201293970398,1
849,258,25,0.211545117455673,1
849,259,25,0.150771191035899,1
849,260,25,0.110435158433199,1
849,261,25,0.102226657681182,1
849,289,25,0.114177889165583,1
849,290,25,0.111143132813412,1
850,258,25,0.179347239133817,1
850,259,25,0.165016296983833,1
850,260,25,0.131954152679349,1
850,261,25,0.118015715081204,1
850,289,25,0.104459738763541,1
850,290,25,0.105320834906727,1
851,258,25,0.121406789708157,1
851,259,25,0.157437167308222,1
851,260,25,0.142434284554215,1
851,261,25,0.120058082936976,1
851,262,25,0.107868939207779,1
851,289,25,0.100118267843096,1
852,259,25,0.118641458815569,1
852,260,25,0.123144275652864,1
852,261,25,0.101820286443402,1
843,256,26,0.108452135200367,1
843,257,26,0.104642064442465,1
844,256,26,0.141160270528905,1
844,257,26,0.151634716300031,1
844,258,26,0.128144365137343,1
845,256,26,0.134992024406367,1
845,257,26,0.163981110208518,1
845,258,26,0.137350384950627,1
846,257,26,0.16890533051187,1
846,258,26,0.151629912522734,1
847,257,26,0.22324535429951,1
847,258,26,0.225612647037385,2
847,259,26,0.147002262833218,1
847,290,26,0.111266952624162,1
848,258,26,0.307402543594871,2
848,259,26,0.199562035075993,1
848,260,26,0.12173295638303,1
848,289,26,0.119278356899034,1
848,290,26,0.130398142765882,1
849,258,26,0.261318698865895,1
849,259,26,0.196523063164152,1
849,260,26,0.138615902499084,1
849,261,26,0.12187099145313,1
849,288,26,0.100410405038882,1
849,289,26,0.132024041647923,1
849,290,26,0.119977900159909,1
850,259,26,0.183488683381894,1
850,260,26,0.157742103683883,1
850,261,26,0.127963019821132,1
850,262,26,0.106992691014206,1
851,259,26,0.170290321596379,1
851,260,26,0.1641896115719,1
851,261,26,0.114320597297952,1
852,260,26,0.136310209218391,1
843,256,27,0.141484988445546,1
843,257,27,0.138669680840394,1
843,258,27,0.109222460649176,1
844,257,27,0.218424823692518,1
844,258,27,0.172144851956192,1
845,257,27,0.228945204903244,1
845,258,27,0.19706202301251,1
845,259,27,0.11522146348856,1
846,257,27,0.206178655532137,1
846,258,27,0.220768718440291,2
846,259,27,0.151724746275913,1
847,257,27,0.256906783438005,2
847,258,27,0.327462485799946,2
847,259,27,0.23568164746885,2
847,260,27,0.129852156984741,1
847,290,27,0.107146695103621,1
848,257,27,0.309131097345963,2
848,258,27,0.396475336894621,2
848,259,27,0.283456705022443,2
848,260,27,0.164622931891389,1
848,261,27,0.115818700453793,1
848,289,27,0.120197828195366,1
848,290,27,0.12569756498338,1
849,258,27,0.267197672630355,2
849,259,27,0.224932362457376,1
849,260,27,0.170933929717973,1
849,261,27,0.137611041610382,1
849,262,27,0.102236319700372,1
850,259,27,0.174090719442171,1
850,260,27,0.175176852399845,1
850,261,27,0.139498664658245,1
850,262,27,0.106068350583062,1
851,260,27,0.163901918687083,1
851,261,27,0.114353232483402,1
843,257,28,0.183659484352472,1
843,258,28,0.129074663995202,1
844,257,28,0.285488691926368,1
844,258,28,0.213456149386557,1
844,259,28,0.111090443764006,1
845,258,28,0.248039359120221,1
845,259,28,0.141885009111524,1
846,258,28,0.278524391280243,2
846,259,28,0.207049435480351,2
846,260,28,0.111208544792259,1
847,257,28,0.249947384605449,2
847,258,28,0.403017798357928,2
847,259,28,0.33069868490396,2
847,260,28,0.177205636785572,2
848,257,28,0.273857254759201,2
848,258,28,0.42287550262807,2
848,259,28,0.355637805192149,2
848,260,28,0.223750023238724,2
848,261,28,0.140605603091289,1
848,289,28,0.101927004371256,1
848,290,28,0.105898998370717,1
849,258,28,0.235882926826907,2
849,259,28,0.241609770084028,2
849,260,28,0.218164352212387,1
849,261,28,0.164687831903041,1
849,262,28,0.105436604850305,1
850,260,28,0.183812965581774,1
850,261,28,0.153555987574814,1
850,262,28,0.100730210249035,1
851,261,28,0.116824574383966,1
855,266,28,0.116568253105989,1
855,267,28,0.129194257353364,1
856,266,28,0.128349478802903,1
856,267,28,0.145004272729623,1
838,292,29,0.107956986672396,1
843,258,29,0.159645554143113,1
844,258,29,0.252196641672585,1
844,259,29,0.128065162722989,1
845,258,29,0.287275609937688,2
845,259,29,0.171586807713672,1
846,257,29,0.209523936327437,2
846,258,29,0.317377450991651,2
846,259,29,0.261639190329947,2
846,260,29,0.135008516285796,1
847,257,29,0.214319609293175,2
847,258,29,0.421116121916089,2
847,259,29,0.4023554653085,2
847,260,29,0.229601394346332,2
847,261,29,0.120197839088285,1
848,257,29,0.205680522344348,2
848,258,29,0.376788215736676,2
848,259,29,0.386459428550567,2
848,260,29,0.288493961146693,2
848,261,29,0.184695172202063,1
848,262,29,0.104563831497906,1
849,258,29,0.186790523216055,2
849,259,29,0.234880407915799,2
849,260,29,0.258510264692658,1
849,261,29,0.20295737972721,1
849,262,29,0.111799932259966,1
850,261,29,0.155936112171321,1
855,266,29,0.140760184505413,1
855,267,29,0.180382513052484,1
855,268,29,0.108704698421274,1
856,266,29,0.14872309350471,1
856,267,29,0.19682006949475,1
856,268,29,0.118571918420406,1
857,267,29,0.121459544115077,1
871,272,29,0.101770897948466,1
835,292,30,0.177845661136802,1
836,292,30,0.10584995844919,1
842,258,30,0.100095752179436,1
844,259,30,0.145555955507422,1
845,258,30,0.309678858672907,2
845,259,30,0.200174369627018,1
846,257,30,0.182019751463248,2
846,258,30,0.3194098518265,2
846,259,30,0.300449484441197,2
846,260,30,0.155680651433949,1
847,257,30,0.162270529773845,2
847,258,30,0.367226847118405,2
847,259,30,0.417354927685928,2
847,260,30,0.266363885035207,2
847,261,30,0.138348938839204,1
848,258,30,0.284603315466638,2
848,259,30,0.362245188452945,2
848,260,30,0.330351484002417,2
848,261,30,0.228366812687954,2
848,262,30,0.113481788067126,1
849,259,30,0.202214417291034,2
849,260,30,0.269297805635807,2
849,261,30,0.230310545161802,1
849,262,30,0.116673130130525,1
854,266,30,0.120968338823799,1
854,267,30,0.146666575747102,1
855,266,30,0.164925460931942,1
855,267,30,0.246453328321873,1
855,268,30,0.165976028508944,1
856,266,30,0.158806723126449,1
856,267,30,0.249529510445161,1
856,268,30,0.174623906043437,1
857,267,30,0.145788127183883,1
857,268,30,0.103868438439186,1
871,271,30,0.115660371875518,1
871,272,30,0.129927111160669,1
818,278,31,0.107489985447229,1
819,280,31,0.129301389212142,1
834,292,31,0.130858836990923,1
835,292,31,0.14537417447445,1
835,293,31,0.110919566542995,1
846,258,31,0.281320973957562,2
846,259,31,0.31328744310729,2
846,260,31,0.18670303129031,1
847,258,31,0.270864359894908,2
847,259,31,0.370528883025109,2
847,260,31,0.286528268548057,2
847,261,31,0.161116838932272,1
848,259,31,0.293314121394437,2
848,260,31,0.331335768167048,2
848,261,31,0.254245076884264,2
848,262,31,0.119102675900725,1
849,260,31,0.239483058356113,2
849,262,31,0.115366720563985,1
852,265,31,0.101715551026814,1
852,266,31,0.101568965015266,1
853,266,31,0.118802064013924,1
853,267,31,0.112937534260113,1
854,266,31,0.14750115852534,1
854,267,31,0.210910539563965,1
854,268,31,0.158281608178193,1
855,266,31,0.171520567872978,1
855,267,31,0.304991069177362,1
855,268,31,0.247725250906727,1
855,269,31,0.107783560508329,1
856,266,31,0.147818850509199,1
856,267,31,0.275708876709629,1
856,268,31,0.235962401564237,1
856,269,31,0.103247422231685,1
857,267,31,0.153004326582853,1
857,268,31,0.130545251637543,1
869,269,31,0.105751649854836,1
870,270,31,0.105823194547104,1
870,271,31,0.103648259866591,1
870,272,31,0.103978696565729,1
871,270,31,0.104934931463827,1
871,271,31,0.131562552239791,1
871,272,31,0.146251577317442,1
871,273,31,0.111723169859477,1
817,278,32,0.11947885196692,1
818,278,32,0.141152787093524,1
818,279,32,0.15287167261476,1
818,280,32,0.157661234652915,1
819,280,32,0.104455795526848,1
819,281,32,0.129570171989502,1
835,292,32,0.101925991329786,1
847,259,32,0.28825022119021,2
848,260,32,0.282420526991495,2
848,262,32,0.118084329578249,1
851,266,32,0.100782474474599,1
852,265,32,0.106851388068394,1
852,266,32,0.138352228500755,1
852,267,32,0.105532822004202,1
853,266,32,0.138655389330611,1
853,267,32,0.158193114103896,1
853,268,32,0.123825126664662,1
854,266,32,0.149653784507655,1
854,267,32,0.260800108776145,1
854,268,32,0.237657209052138,1
854,269,32,0.122973256823905,1
855,266,32,0.152459190449398,1
855,267,32,0.327581349332532,1
855,268,32,0.32460128632687,3
855,269,32,0.16243066657668,1
856,266,32,0.116830053522244,1
856,267,32,0.256682127875684,1
856,268,32,0.26699545648126,1
856,269,32,0.136100956243595,1
857,267,32,0.133165575991844,1
857,268,32,0.137413247986419,1
868,269,32,0.107543001284206,1
869,269,32,0.122769777096201,1
869,270,32,0.114716696513075,1
870,270,32,0.12896417711736,1
870,271,32,0.132513068355392,1
870,272,32,0.135232855953465,1
870,273,32,0.101306816025602,1
871,271,32,0.138718797012355,1
871,272,32,0.152903752261339,1
871,273,32,0.118709888132991,1
817,278,33,0.142541361948398,1
817,279,33,0.176464765789852,1
818,278,33,0.149007376905867,1
818,279,33,0.1570660673423,1
818,280,33,0.142809959546134,1
838,293,33,0.101545349166783,1
839,292,33,0.103671723214207,1
840,292,33,0.101095972684626,1
841,292,33,0.105723045049432,1
851,266,33,0.136504745859562,1
851,267,33,0.111460563367214,1
852,266,33,0.168388526860843,1
852,267,33,0.161360230315346,1
852,268,33,0.103296287866507,1
853,266,33,0.14898835786922,1
853,267,33,0.208680061889256,1
853,268,33,0.187576381967419,1
853,269,33,0.103793375334068,1
854,266,33,0.136058506538089,1
854,267,33,0.285973840754659,1
854,268,33,0.321710980974115,3
854,269,33,0.182818202429024,1
855,266,33,0.122804460150431,1
855,267,33,0.313415108118462,3
855,268,33,0.388366473673081,3
855,269,33,0.224932406029052,3
856,267,33,0.212588506599026,1
856,268,33,0.276922478605932,3
856,269,33,0.167119164111964,1
857,267,33,0.106496758196064,1
857,268,33,0.139035780956476,1
868,269,33,0.107222607856425,1
869,269,33,0.120337017914884,1
869,270,33,0.138921285484426,1
869,271,33,0.113149543143427,1
870,270,33,0.144642311922778,1
870,271,33,0.159824764447191,1
870,272,33,0.16160747779176,1
870,273,33,0.117719198931963,1
871,272,33,0.145411569865521,1
817,278,34,0.133679373197215,1
817,279,34,0.163268288479331,1
817,280,34,0.158731910558468,1
818,278,34,0.141757910532143,1
818,279,34,0.150335637668006,1
818,280,34,0.126751640080314,1
818,281,34,0.116313108263269,1
819,279,34,0.103038594080731,1
821,283,34,0.101514206311242,1
833,290,34,0.107269207764086,1
839,292,34,0.103171901623967,1
839,293,34,0.121063826152121,1
840,292,34,0.117282708773032,1
840,293,34,0.136529745108763,1
841,292,34,0.141004164106115,1
841,293,34,0.150885512221244,1
842,292,34,0.144653150377224,1
851,266,34,0.137574626582025,1
851,267,34,0.138015125335163,1
852,266,34,0.165631431015051,1
852,267,34,0.201513784738255,1
852,268,34,0.130800952019134,1
853,266,34,0.140019999763593,1
853,267,34,0.231150149575718,1
853,268,34,0.22079431680004,3
853,269,34,0.121159934376828,1
854,266,34,0.111998096243177,1
854,267,34,0.266567430120425,3
854,268,34,0.350159995850165,3
854,269,34,0.211801841771654,3
855,267,34,0.265998710817245,3
855,268,34,0.392418857415071,3
855,269,34,0.247831957941662,3
856,267,34,0.164200341097156,1
856,268,34,0.24995544536554,3
856,269,34,0.167081158717427,1
857,268,34,0.12123836339393,1
868,270,34,0.10327658257596,1
869,269,34,0.101124457667921,1
869,270,34,0.143798698914654,1
869,271,34,0.127971941121827,1
870,270,34,0.135270011700318,1
870,271,34,0.156885005241985,1
870,272,34,0.157895051160151,1
870,273,34,0.121031735612623,1
817,278,35,0.111499560017384,1
817,279,35,0.134681303890695,1
817,280,35,0.130037913933164,1
818,278,35,0.139339943934884,1
818,279,35,0.166195455470125,1
818,280,35,0.138186155057041,1
818,281,35,0.102530003690662,1
819,278,35,0.108435577963423,1
819,279,35,0.147147792231619,1
819,280,35,0.134783435899632,1
820,283,35,0.102767523790372,1
821,282,35,0.11111689177144,1
821,283,35,0.132875824345328,1
821,284,35,0.110039451363161,1
822,283,35,0.106223934145739,1
822,284,35,0.101154587481991,1
832,290,35,0.113642567552185,1
832,291,35,0.102518914699078,1
833,290,35,0.117500207687543,1
833,291,35,0.116370753590839,1
839,293,35,0.119107359855913,1
840,292,35,0.142717217233411,1
840,293,35,0.17689753057047,1
841,292,35,0.189023419118791,1
841,293,35,0.214111532753635,1
842,292,35,0.164771173626631,1
851,266,35,0.121449882095887,1
851,267,35,0.15984149597084,1
851,268,35,0.101797324170062,1
852,266,35,0.144696155621602,1
852,267,35,0.228042508702237,1
852,268,35,0.164005848027662,1
853,266,35,0.1201051185614,1
853,267,35,0.226175810951854,1
853,268,35,0.225020137599016,1
853,269,35,0.130392238803761,1
854,267,35,0.21922059500021,1
854,268,35,0.322328064837842,3
854,269,35,0.215355939824989,1
855,267,35,0.202846424453849,1
855,268,35,0.34328699965145,3
855,269,35,0.240481459743823,1
856,267,35,0.120232140890348,1
856,268,35,0.202116533520523,1
856,269,35,0.153598273886535,1
868,270,35,0.100760797565705,1
869,270,35,0.130236840420708,1
869,271,35,0.124945049457205,1
870,270,35,0.113152222801511,1
870,271,35,0.130898007927798,1
870,272,35,0.128795946875676,1
870,273,35,0.112520280996211,1
818,278,36,0.120980244784312,1
818,279,36,0.157646757963508,1
818,280,36,0.133564518258837,1
819,278,36,0.107609796663771,1
819,279,36,0.162576827764386,1
819,280,36,0.1535834377308,1
819,281,36,0.10580755231536,1
820,280,36,0.108604984640364,1
820,281,36,0.10670202436249,1
820,282,36,0.119856672863891,1
820,283,36,0.128402461961123,1
820,284,36,0.103305971671535,1
821,282,36,0.136943447281058,1
821,283,36,0.161375818082495,1
821,284,36,0.12154444352609,1
822,283,36,0.108278305998295,1
822,284,36,0.104343740068663,1
822,285,36,0.10417731805154,1
823,285,36,0.115905364517691,1
823,286,36,0.121152527191879,1
832,290,36,0.115174220898675,1
832,291,36,0.12326370561724,1
833,290,36,0.109474217794074,1
833,291,36,0.124115673494269,1
839,293,36,0.115141792678687,1
840,292,36,0.168656361954247,1
840,293,36,0.222914688849072,1
840,294,36,0.142710267551062,1
841,291,36,0.1015497063344,1
841,292,36,0.229213650000114,1
841,293,36,0.278880807591296,1
841,294,36,0.16299405924245,1
842,292,36,0.168502009291422,1
842,293,36,0.178684274295085,1
850,267,36,0.104704698726956,1
851,267,36,0.163800745255021,1
851,268,36,0.129905989790647,1
852,266,36,0.117896165294718,1
852,267,36,0.226554492389429,1
852,268,36,0.190192403618698,1
853,266,36,0.099842589847982,1
853,267,36,0.200718340218135,1
853,268,36,0.208176177240213,1
853,269,36,0.127294477807851,1
854,267,36,0.167969792159951,1
854,268,36,0.259695436070262,1
854,269,36,0.192382316062894,1
855,267,36,0.142482572864328,1
855,268,36,0.257549748877376,1
855,269,36,0.201224948096939,1
856,268,36,0.144728790807052,1
856,269,36,0.12405607833419,1
869,270,36,0.107711928672709,1
869,271,36,0.107756731248728,1
870,271,36,0.100162373272297,1
818,278,37,0.109182331135426,1
818,279,37,0.150607622963565,1
818,280,37,0.132958861067185,1
819,278,37,0.10924754704173,1
819,279,37,0.168763461134267,1
819,280,37,0.163218420695957,1
819,281,37,0.122041509207813,1
819,282,37,0.10422450617683,1
820,279,37,0.103929983431773,1
820,280,37,0.122602559895988,1
820,281,37,0.133390710842603,1
820,282,37,0.159044548227892,1
820,283,37,0.160659401690024,1
820,284,37,0.114704540015424,1
821,281,37,0.107145954385126,1
821,282,37,0.158579910766157,1
821,283,37,0.178643763529168,1
821,284,37,0.129351561997249,1
822,283,37,0.101650945123976,1
822,284,37,0.100247446970015,1
822,285,37,0.108553439347457,1
822,286,37,0.10826585539183,1
823,285,37,0.122815930394182,1
823,286,37,0.141096034985315,1
823,287,37,0.108741276843417,1
832,291,37,0.129037159674941,1
833,291,37,0.120216531337361,1
839,293,37,0.113504031407809,1
840,292,37,0.189181823947499,1
840,293,37,0.255292343906796,1
840,294,37,0.16105944414184,1
841,291,37,0.106637963105605,1
841,292,37,0.247043768105624,1
841,293,37,0.309561934079911,1
841,294,37,0.178425698182867,1
842,292,37,0.160910777582756,1
842,293,37,0.175530186014809,1
850,267,37,0.102781771728479,1
851,267,37,0.15215434121709,1
851,268,37,0.150241740705864,1
852,267,37,0.198696004440481,1
852,268,37,0.200667775287942,1
852,269,37,0.103113210576169,1
853,267,37,0.165602967817595,1
853,268,37,0.18274536147939,1
853,269,37,0.116753312907593,1
854,267,37,0.125589430976051,1
854,268,37,0.187415384623978,1
854,269,37,0.152517315065406,1
855,268,37,0.168106846867337,1
855,269,37,0.148645176454803,1
818,278,38,0.102351359818374,1
818,279,38,0.14165902461308,1
818,280,38,0.131826868920344,1
819,278,38,0.112151479436207,1
819,279,38,0.170200193584226,1
819,280,38,0.170168691262356,1
819,281,38,0.137639788023734,1
819,282,38,0.123951277560087,1
819,283,38,0.113959126672464,1
820,265,38,0.100221826824428,1
820,279,38,0.116318532936952,1
820,280,38,0.140958054379811,1
820,281,38,0.159236644855197,1
820,282,38,0.193053472376745,1
820,283,38,0.187219246723709,1
820,284,38,0.126625554542403,1
821,281,38,0.119421958250764,1
821,282,38,0.172849939712859,1
821,283,38,0.184035159344391,1
821,284,38,0.13090049151334,1
822,285,38,0.108806198640907,1
822,286,38,0.117615912273607,1
822,287,38,0.109282055809255,1
823,285,38,0.129598079648088,1
823,286,38,0.157292051840745,1
823,287,38,0.120396166465282,1
824,286,38,0.118359680785792,1
825,259,38,0.10583381514317,1
826,258,38,0.109267186974763,1
826,259,38,0.130034025161066,1
827,258,38,0.102558935283638,1
827,259,38,0.106117259789561,1
831,291,38,0.105121984669616,1
832,291,38,0.125344743335611,1
833,291,38,0.109793968539632,1
839,293,38,0.113014993807421,1
840,292,38,0.195628471294912,1
840,293,38,0.255056751853757,1
840,294,38,0.164258356783974,1
841,291,38,0.104897111248914,1
841,292,38,0.236025645852195,1
841,293,38,0.288761839811773,1
841,294,38,0.172108513178268,1
842,292,38,0.145947261838167,1
842,293,38,0.157342039446229,1
851,267,38,0.131825474626707,1
851,268,38,0.151218541435114,1
852,267,38,0.157896434560869,1
852,268,38,0.185776915313363,1
852,269,38,0.103803004674501,1
853,267,38,0.130898977397593,1
853,268,38,0.156469004663772,1
853,269,38,0.104162961184243,1
854,268,38,0.126448773359271,1
854,269,38,0.107831249707894,1
818,279,39,0.13460029325178,1
818,280,39,0.1353870996871,1
818,281,39,0.106911636803615,1
819,265,39,0.122544881889661,1
819,266,39,0.114031412083226,1
819,278,39,0.113320420364438,1
819,279,39,0.174969614615072,1
819,280,39,0.185912183582026,1
819,281,39,0.157022354058185,1
819,282,39,0.135942366235264,1
819,283,39,0.117507015761944,1
820,263,39,0.11254325416247,1
820,264,39,0.126114948962311,1
820,265,39,0.128943927180861,1
820,266,39,0.113253287304383,1
820,279,39,0.124077504705946,1
820,280,39,0.152911290161316,1
820,281,39,0.170306922404999,1
820,282,39,0.199363043230934,1
820,283,39,0.185184035515747,1
820,284,39,0.123413243609848,1
821,262,39,0.11811808673436,1
821,263,39,0.157535007507057,1
821,264,39,0.138291859943424,1
821,265,39,0.106031467159186,1
821,281,39,0.119108579862846,1
821,282,39,0.165204450374444,1
821,283,39,0.167760157932988,1
821,284,39,0.119595406200669,1
822,262,39,0.11408970009302,1
822,263,39,0.13801300121595,1
822,264,39,0.112127830908967,1
822,283,39,0.100256531664496,1
822,285,39,0.10656126606263,1
822,286,39,0.117319221837661,1
822,287,39,0.111348083085186,1
823,281,39,0.108768737892322,1
823,285,39,0.140756981987215,1
823,286,39,0.165864583054225,1
823,287,39,0.12117173140815,1
824,281,39,0.104951739237909,1
824,285,39,0.124266464172567,1
824,286,39,0.153116066146386,1
824,287,39,0.109399525048203,1
825,258,39,0.110643038900196,1
825,259,39,0.154190848682418,1
825,260,39,0.138571099923065,1
826,257,39,0.100031287884546,1
826,258,39,0.15443447970971,1
826,259,39,0.206433920196966,1
826,260,39,0.161367855358675,1
827,257,39,0.11172188449503,1
827,258,39,0.144197314394076,1
827,259,39,0.154494532372389,1
827,260,39,0.105125513975385,1
828,257,39,0.11047516812484,1
828,258,39,0.112589636211751,1
831,291,39,0.109588440943148,1
832,291,39,0.109565761885703,1
832,292,39,0.102280163699516,1
839,293,39,0.107866292228452,1
840,292,39,0.186385676986942,1
840,293,39,0.223235637815724,1
840,294,39,0.148275612390467,1
841,291,39,0.103241017195288,1
841,292,39,0.207790589691966,1
841,293,39,0.235478843102126,1
841,294,39,0.149611225872959,1
842,292,39,0.132221061874635,1
842,293,39,0.138276152354166,1
851,267,39,0.105831756381471,1
851,268,39,0.135763700577137,1
852,267,39,0.11556268417755,1
852,268,39,0.157147295839596,1
852,269,39,0.102620251524925,1
853,267,39,0.0999670523409555,1
853,268,39,0.136010839124361,1
853,269,39,0.100958449581721,1
818,279,40,0.124646049722422,1
818,280,40,0.139325140457906,1
818,281,40,0.121481929063708,1
819,264,40,0.108113125773943,1
819,265,40,0.151656600174387,1
819,266,40,0.151472607878849,1
819,267,40,0.116054063755532,1
819,278,40,0.108854497843939,1
819,279,40,0.176469471530879,1
819,280,40,0.202479790584734,1
819,281,40,0.178064075056512,1
819,282,40,0.146058260683204,1
819,283,40,0.11936003200601,1
820,263,40,0.144391720320217,1
820,264,40,0.152396828487883,1
820,265,40,0.157630647336245,1
820,266,40,0.146345931782183,1
820,267,40,0.118692579284633,1
820,279,40,0.126775484680097,1
820,280,40,0.155177267859182,1
820,281,40,0.167196024548724,1
820,282,40,0.186605343592342,1
820,283,40,0.167180872498337,1
820,284,40,0.112947065564275,1
821,262,40,0.155633190985683,1
821,263,40,0.225923683447709,1
821,264,40,0.178383902052503,1
821,265,40,0.121103999237547,1
821,281,40,0.110094656676866,1
821,282,40,0.14650367214283,1
821,283,40,0.144618554466347,1
821,284,40,0.105342882174868,1
822,262,40,0.145836676924053,1
822,263,40,0.192474186942094,1
822,264,40,0.140682038704206,1
822,281,40,0.100573177928126,1
822,282,40,0.114763263741979,1
822,283,40,0.10938091994248,1
822,284,40,0.104285070806703,1
822,285,40,0.107866629908943,1
822,286,40,0.110983072261009,1
822,287,40,0.102563510309635,1
823,263,40,0.101776692981396,1
823,281,40,0.150098444355867,1
823,282,40,0.144211028579149,1
823,283,40,0.111832545659578,1
823,284,40,0.121162973501241,1
823,285,40,0.161219864160571,1
823,286,40,0.171587232537515,1
823,287,40,0.119103166082082,1
824,259,40,0.115526563258006,1
824,260,40,0.10969189099529,1
824,281,40,0.132825390130164,1
824,282,40,0.124891140400866,1
824,284,40,0.102330783094304,1
824,285,40,0.160802480181641,1
824,286,40,0.190543722043639,1
824,287,40,0.129199496847423,1
825,258,40,0.137731016220711,1
825,259,40,0.216196219599886,1
825,260,40,0.205987310516246,1
825,261,40,0.118728024843196,1
825,286,40,0.109933343438774,1
826,257,40,0.122156897899224,1
826,258,40,0.189582182293967,1
826,259,40,0.290356759232059,1
826,260,40,0.249909150459612,1
826,261,40,0.125884247829921,1
827,256,40,0.107558632623031,1
827,257,40,0.146294059701705,1
827,258,40,0.178684938763147,1
827,259,40,0.195728337576689,1
827,260,40,0.140767068830248,1
828,256,40,0.106955371873568,1
828,257,40,0.142356890364422,1
828,258,40,0.150028304850156,1
828,259,40,0.116470097012502,1
829,257,40,0.108283131561431,1
829,258,40,0.107345861235384,1
832,292,40,0.102720989240225,1
840,292,40,0.16203454557572,1
840,293,40,0.179522255664064,1
841,292,40,0.172935361983986,1
841,293,40,0.183734514778833,1
851,268,40,0.111740326206968,1
852,268,40,0.122507442926914,1
853,268,40,0.114014484487035,1
869,273,40,0.118237625627927,1
818,265,41,0.0998445396804905,1
818,266,41,0.122434362333061,1
818,267,41,0.110100037778873,1
818,279,41,0.121285115802458,1
818,280,41,0.156092839490496,1
818,281,41,0.153516195741554,1
818,282,41,0.120969242936079,1
819,264,41,0.113668242162367,1
819,265,41,0.175090297265138,1
819,266,41,0.207076406347899,1
819,267,41,0.168893816696442,1
819,268,41,0.110243236092598,1
819,278,41,0.103918927118946,1
819,279,41,0.183376301136138,1
819,280,41,0.231843222442682,1
819,281,41,0.220644757021594,1
819,282,41,0.180354616286818,1
819,283,41,0.144252966317461,1
819,284,41,0.116920116176883,1
820,262,41,0.11573913857311,1
820,263,41,0.170223602467247,1
820,264,41,0.167237940501198,1
820,265,41,0.183904400744212,1
820,266,41,0.197432382259937,1
820,267,41,0.162528550347192,1
820,268,41,0.109139609106943,1
820,279,41,0.137332705743022,1
820,280,41,0.164567486933466,1
820,281,41,0.1703407884903,1
820,282,41,0.175759383924371,1
820,283,41,0.154647566992009,1
820,284,41,0.11157021149029,1
821,262,41,0.185208653512782,1
821,263,41,0.277312423321796,1
821,264,41,0.200090712008775,1
821,265,41,0.130558976715536,1
821,266,41,0.115066958324869,1
821,267,41,0.101324974521645,1
821,281,41,0.10541813045961,1
821,282,41,0.133555640529818,1
821,283,41,0.130894968803385,1
822,261,41,0.100508593811127,1
822,262,41,0.16941629555829,1
822,263,41,0.23334112952598,1
822,264,41,0.156505997016839,1
822,281,41,0.116500096111544,1
822,282,41,0.145024566237798,1
822,283,41,0.139904937859753,1
822,284,41,0.126243975588363,1
822,285,41,0.110984303160861,1
822,286,41,0.102243683313644,1
823,263,41,0.114571504795164,1
823,281,41,0.172405737367247,1
823,282,41,0.193987975901355,1
823,283,41,0.166669537092669,1
823,284,41,0.167399722134809,1
823,285,41,0.177207314295105,1
823,286,41,0.166137036745303,1
823,287,41,0.11916083319549,1
823,288,41,0.107084714394273,1
824,258,41,0.120848723679799,1
824,259,41,0.138242939844007,1
824,260,41,0.12771437805108,1
824,281,41,0.137039566398684,1
824,282,41,0.148499766878512,1
824,283,41,0.12224233106327,1
824,284,41,0.135927192399038,1
824,285,41,0.183935717886457,1
824,286,41,0.205116073065432,1
824,287,41,0.143614053043974,1
824,288,41,0.111818177899361,1
824,289,41,0.125236032003572,1
825,257,41,0.121857516912275,1
825,258,41,0.160788319386886,1
825,259,41,0.266622787934997,1
825,260,41,0.263269860310529,1
825,261,41,0.139615109962803,1
825,285,41,0.101748937823677,1
825,286,41,0.126547659278334,1
825,287,41,0.104690842933935,1
826,257,41,0.145232904207395,1
826,258,41,0.209387905554441,1
826,259,41,0.340402227901567,4
826,260,41,0.322400938466232,1
826,261,41,0.156154188410541,1
827,256,41,0.129631858590037,1
827,257,41,0.188701184787692,1
827,258,41,0.210443647267988,1
827,259,41,0.219748291570279,1
827,260,41,0.171440602954291,1
828,256,41,0.116432015367531,1
828,257,41,0.171884391368979,1
828,258,41,0.18034174085651,1
828,259,41,0.132871510749387,1
829,257,41,0.112740045637882,1
829,258,41,0.119655785650919,1
840,292,41,0.125362934510411,1
852,268,41,0.101277829968032,1
868,273,41,0.109230652124296,1
869,272,41,0.121770831062539,1
869,273,41,0.167525753208124,1
818,265,42,0.105416594558025,1
818,266,42,0.1469192478972,1
818,267,42,0.139870723201042,1
818,279,42,0.115169874623977,1
818,280,42,0.169014423096075,1
818,281,42,0.188545416045392,1
818,282,42,0.163802564372501,1
819,264,42,0.112172339376173,1
819,265,42,0.184410867015068,1
819,266,42,0.262549969076884,1
819,267,42,0.229140776371724,1
819,268,42,0.136333106134218,1
819,279,42,0.178586412310412,1
819,280,42,0.246809940705469,1
819,281,42,0.258918945229274,1
819,282,42,0.227699991755881,1
819,283,42,0.183066092587662,1
820,262,42,0.120526118989452,1
820,263,42,0.177893045334634,1
820,264,42,0.168356174891288,1
820,265,42,0.19602338318186,1
820,266,42,0.248701125737858,1
820,267,42,0.209905406352287,1
820,268,42,0.125762791782604,1
820,279,42,0.143049821623438,1
820,280,42,0.169705382736745,1
820,281,42,0.171166297466976,1
820,282,42,0.169734782725239,1
820,283,42,0.149435294337512,1
820,284,42,0.115427818946891,1
821,262,42,0.189549612466032,1
821,263,42,0.289054597903944,1
821,264,42,0.202667453793989,1
821,265,42,0.132633859934649,1
821,266,42,0.127993835889102,1
821,267,42,0.11384001260274,1
821,281,42,0.106893761523467,1
821,282,42,0.140598097870069,1
821,283,42,0.13817502249378,1
821,284,42,0.104464455397486,1
822,261,42,0.100539497022449,1
822,262,42,0.173274839805929,1
822,263,42,0.245066006152689,1
822,264,42,0.159335770418479,1
822,281,42,0.137151371319731,1
822,282,42,0.209385095181328,1
822,283,42,0.206675808357212,1
822,284,42,0.158626902818904,1
822,285,42,0.116400469473986,1
822,286,42,0.100627555379984,1
822,287,42,0.100035416300863,1
823,262,42,0.10167921224889,1
823,263,42,0.120114127005447,1
823,281,42,0.180601330010199,1
823,282,42,0.256375644705519,1
823,283,42,0.247815988922347,1
823,284,42,0.216644964292738,1
823,285,42,0.186042789681339,1
823,286,42,0.160149896294756,1
823,287,42,0.136525769193313,1
823,288,42,0.153757266932872,1
824,258,42,0.13636229915725,1
824,259,42,0.156171105113813,1
824,260,42,0.136570974807337,1
824,281,42,0.125554475598845,1
824,282,42,0.163603997351285,1
824,283,42,0.157500161059042,1
824,284,42,0.16565384864244,1
824,285,42,0.190678881383112,1
824,286,42,0.196211394964524,1
824,287,42,0.153352453382515,1
824,288,42,0.149263926935144,1
825,257,42,0.139353832406663,1
825,258,42,0.177770314815789,1
825,259,42,0.292219535531586,4
825,260,42,0.282221753004818,1
825,261,42,0.140269218858354,1
825,285,42,0.113062476041525,1
825,286,42,0.132144648047555,1
825,287,42,0.109655672039475,1
825,288,42,0.105308504122371,1
825,289,42,0.118403317819474,1
826,257,42,0.161459257842357,1
826,258,42,0.218403451785358,4
826,259,42,0.343007879493919,4
826,260,42,0.336438534306417,4
826,261,42,0.159668603559806,1
827,256,42,0.142404024025117,1
827,257,42,0.221381205492183,1
827,258,42,0.239651637171207,1
827,259,42,0.227809247733872,4
827,260,42,0.182101568178172,1
828,256,42,0.120210540231888,1
828,257,42,0.192585839362274,1
828,258,42,0.204800766630843,1
828,259,42,0.145076427425357,1
829,257,42,0.11504181746772,1
829,258,42,0.126171864464305,1
868,272,42,0.103424148950222,1
868,273,42,0.130498009047658,1
868,274,42,0.110088001103332,1
869,272,42,0.124887545737582,1
818,265,43,0.110698233320981,1
818,266,43,0.169981431091106,1
818,267,43,0.174656377835101,1
818,268,43,0.129433498534283,1
818,279,43,0.102276329392013,1
818,280,43,0.164773973106825,1
818,281,43,0.207634559519609,1
818,282,43,0.201160854161296,1
819,264,43,0.114812107590963,1
819,265,43,0.187669821426961,1
819,266,43,0.304511170736049,1
819,267,43,0.287567801598069,1
819,268,43,0.168754986443252,1
819,279,43,0.157145640115902,1
819,280,43,0.23076558596186,1
819,281,43,0.265487048624006,1
819,282,43,0.259619991712977,1
819,283,43,0.215552862015429,1
820,262,43,0.11957811913815,1
820,263,43,0.171581895007184,1
820,264,43,0.16749806340792,1
820,265,43,0.196407380363927,1
820,266,43,0.277218787789712,1
820,267,43,0.245081866242814,1
820,268,43,0.139205819422721,1
820,279,43,0.139271220508649,1
820,280,43,0.165057101858564,1
820,281,43,0.163268702410255,1
820,282,43,0.162951653108619,1
820,283,43,0.144977628649646,1
820,284,43,0.11869011748493,1
821,262,43,0.180431716367797,1
821,263,43,0.265678262924868,1
821,264,43,0.193453700008185,1
821,265,43,0.130510100187795,1
821,266,43,0.132753431506972,1
821,267,43,0.120386820340744,1
821,281,43,0.119302190605898,1
821,282,43,0.170333522913299,1
821,283,43,0.163364701705771,1
821,284,43,0.118115984400985,1
822,261,43,0.10087808162503,1
822,262,43,0.167870013021526,1
822,263,43,0.230375793746863,1
822,264,43,0.151465592838986,1
822,281,43,0.161695852043948,1
822,282,43,0.297880999488617,1
822,283,43,0.294108629123519,5
822,284,43,0.193642844654429,1
822,285,43,0.130570599460154,1
822,286,43,0.122992286753471,1
823,262,43,0.104130532964255,1
823,263,43,0.120209135045331,1
823,281,43,0.173223741122703,1
823,282,43,0.308863284038398,1
823,283,43,0.323205010178234,5
823,284,43,0.25040410291504,1
823,285,43,0.190903972662195,1
823,286,43,0.165636692294948,1
823,287,43,0.178669024208427,1
824,258,43,0.166394567137293,1
824,259,43,0.182999580423991,1
824,260,43,0.151979215757652,1
824,281,43,0.103744411662974,1
824,282,43,0.162169683129354,1
824,283,43,0.179364199408765,1
824,284,43,0.184221733261742,1
824,285,43,0.190353466319652,1
824,286,43,0.175351302498302,1
824,287,43,0.154750526862794,1
824,288,43,0.189759039727533,1
825,257,43,0.166898386428822,1
825,258,43,0.212576350101375,1
825,259,43,0.316055617051748,4
825,260,43,0.285385557768879,1
825,261,43,0.140070989517628,1
825,285,43,0.127221418999836,1
825,286,43,0.130858847883842,1
825,287,43,0.106279509818691,1
825,288,43,0.114204380744693,1
825,289,43,0.14406423560214,1
826,257,43,0.178157122370969,1
826,258,43,0.239575125307856,4
826,259,43,0.334329665179893,4
826,260,43,0.3172095257517,4
826,261,43,0.154993798423758,1
827,257,43,0.237373644583637,1
827,258,43,0.269855980593355,1
827,259,43,0.241729439692623,4
827,260,43,0.190698815424959,1
827,261,43,0.102933422947381,1
828,257,43,0.198074585194975,1
828,258,43,0.219777571736663,1
828,259,43,0.160395575190828,1
828,260,43,0.102129983024684,1
829,257,43,0.113554465622974,1
829,258,43,0.124882818210718,1
867,274,43,0.101107900430977,1
868,272,43,0.118535078568206,1
868,273,43,0.147287058201571,1
868,274,43,0.130320476253112,1
816,271,44,0.1076833783319,1
816,272,44,0.103834811998104,1
816,273,44,0.106574544530942,1
816,274,44,0.11809761893948,1
816,275,44,0.110545231380118,1
817,270,44,0.100337869090982,1
817,271,44,0.122420582790473,1
817,272,44,0.118650630653403,1
817,273,44,0.126826855686299,1
817,274,44,0.151377273051394,1
817,275,44,0.146054927449977,1
817,276,44,0.101964868157846,1
818,265,44,0.108929245054405,1
818,266,44,0.173734422953228,1
818,267,44,0.193522194683121,1
818,268,44,0.151868630843538,1
818,269,44,0.105168954936525,1
818,274,44,0.13331968901045,1
818,275,44,0.133787191309893,1
818,280,44,0.141356038069928,1
818,281,44,0.189245307879676,1
818,282,44,0.19570672602531,1
819,264,44,0.114086181680169,1
819,265,44,0.179663035749763,1
819,266,44,0.303536319839308,1
819,267,44,0.310358707536154,1
819,268,44,0.189943957921189,1
819,274,44,0.101004276092131,1
819,279,44,0.125968112413626,1
819,280,44,0.188802205718887,1
819,281,44,0.228815208807397,1
819,282,44,0.240577992792373,1
819,283,44,0.207335984608669,1
820,262,44,0.109981860500187,1
820,263,44,0.154433292381535,1
820,264,44,0.163031378383088,1
820,265,44,0.186935333681799,1
820,266,44,0.265651204913968,1
820,267,44,0.249517179660806,1
820,268,44,0.144713508041636,1
820,279,44,0.123886987551902,1
820,280,44,0.153479225174325,1
820,281,44,0.154396256456792,1
820,282,44,0.154850687253385,1
820,283,44,0.136021688471727,1
820,284,44,0.114580001272017,1
821,262,44,0.160714607003729,1
821,263,44,0.224543245603359,1
821,264,44,0.177983924958201,1
821,265,44,0.127381762768134,1
821,266,44,0.128008693830675,1
821,267,44,0.119134864476494,1
821,280,44,0.0997783434114725,1
821,281,44,0.138725082226642,1
821,282,44,0.199624996148055,1
821,283,44,0.182841872742102,5
821,284,44,0.131331219318097,1
821,285,44,0.107650242072174,1
822,262,44,0.152465889594609,1
822,263,44,0.198063474417552,1
822,264,44,0.136645329872717,1
822,281,44,0.172987517280359,1
822,282,44,0.345241537900987,5
822,283,44,0.337440072854811,5
822,284,44,0.212191786487518,5
822,285,44,0.151599303420226,1
822,286,44,0.163560534604308,1
823,259,44,0.104782833635244,1
823,262,44,0.103200865895699,1
823,263,44,0.113748011008511,1
823,281,44,0.149851719739567,1
823,282,44,0.308119624455403,5
823,283,44,0.335306150014491,5
823,284,44,0.251615853015106,5
823,285,44,0.191656978369728,1
823,286,44,0.178109683708541,1
823,287,44,0.221155351708767,1
824,258,44,0.212425722816863,1
824,259,44,0.212514456535379,4
824,260,44,0.170535978706613,1
824,261,44,0.107614219188902,1
824,282,44,0.142292197318232,1
824,283,44,0.175398762946568,5
824,284,44,0.186015404882868,1
824,285,44,0.182488016267024,1
824,286,44,0.152740990265014,1
824,287,44,0.148830421436031,1
824,288,44,0.210021873442683,1
825,257,44,0.205505538492858,1
825,258,44,0.269727160932765,4
825,259,44,0.333964469176092,4
825,260,44,0.280744825683594,4
825,261,44,0.141243579573738,1
825,284,44,0.101548834900877,1
825,285,44,0.131146050587303,1
825,286,44,0.12099118127503,1
825,288,44,0.117652654089535,1
825,289,44,0.167507365960782,1
826,256,44,0.154913561182095,1
826,257,44,0.207116013001536,1
826,258,44,0.281249973911246,4
826,259,44,0.333936844733402,4
826,260,44,0.293628665324692,4
826,261,44,0.148911639040408,1
826,289,44,0.103194297465517,1
826,290,44,0.127437926658714,1
827,256,44,0.155030442203415,1
827,257,44,0.241475852537326,1
827,258,44,0.297598960028782,1
827,259,44,0.274145219966994,4
827,260,44,0.212687915378203,1
827,261,44,0.114701239460954,1
827,290,44,0.124134093420369,1
828,257,44,0.189321057238693,1
828,258,44,0.225833925794803,1
828,259,44,0.189808907510907,1
828,260,44,0.13322861331434,1
828,290,44,0.113485001478243,1
828,291,44,0.124687312099753,1
829,257,44,0.109503672247164,1
829,258,44,0.123061467682307,1
829,259,44,0.108192644082949,1
860,270,44,0.111681177656571,1
860,271,44,0.103783604385687,1
867,271,44,0.106146104239184,1
867,272,44,0.120516783757833,1
867,273,44,0.117204987795668,1
867,274,44,0.123153915886216,1
868,272,44,0.124097035709788,1
868,273,44,0.156254784517893,1
868,274,44,0.15264257274147,1
869,273,44,0.152506149823388,1
816,272,45,0.113936730830913,1
816,273,45,0.133779119656882,1
816,274,45,0.16147775401889,1
816,275,45,0.165019347001164,1
816,276,45,0.127316078466311,1
817,270,45,0.107618816000738,1
817,271,45,0.12760067776212,1
817,272,45,0.136586824004543,1
817,273,45,0.169311984965544,1
817,274,45,0.226573598569428,1
817,275,45,0.232283862803767,1
817,276,45,0.155740976419603,1
818,265,45,0.103544962315316,1
818,266,45,0.161341385565403,1
818,267,45,0.196825886313519,1
818,268,45,0.167896929424479,1
818,269,45,0.116884354723668,1
818,273,45,0.118738917762238,1
818,274,45,0.171789688330829,1
818,275,45,0.173428124962687,1
818,276,45,0.110264695143111,1
818,280,45,0.113222776238146,1
818,281,45,0.154686846858074,1
818,282,45,0.167506233097201,1
819,264,45,0.116589788406935,1
819,265,45,0.165148014160888,1
819,266,45,0.2662764148953,1
819,267,45,0.302102702764195,1
819,268,45,0.209541473927095,1
819,269,45,0.111677757279991,1
819,274,45,0.106145025840199,1
819,275,45,0.0998466746926227,1
819,280,45,0.146541100212658,1
819,281,45,0.182378041356376,1
819,282,45,0.196164076124205,1
819,283,45,0.175529183866257,1
820,262,45,0.104001942054964,1
820,263,45,0.14323297516421,1
820,264,45,0.159918792124361,1
820,265,45,0.172167770657856,1
820,266,45,0.227274252908045,1
820,267,45,0.233326380513597,1
820,268,45,0.153724751569531,1
820,279,45,0.106886474160628,1
820,280,45,0.142893225019291,1
820,281,45,0.15084007785592,1
820,282,45,0.145346103422079,1
820,283,45,0.124335623315564,1
820,284,45,0.109413729414634,1
821,262,45,0.148031621896846,1
821,263,45,0.192240446685291,1
821,264,45,0.162873681594117,1
821,265,45,0.123631003954416,1
821,266,45,0.120732213017726,1
821,267,45,0.117340887853635,1
821,280,45,0.113802878641726,1
821,281,45,0.159770376102415,1
821,282,45,0.207586761390853,1
821,283,45,0.183594170409897,1
821,284,45,0.14480954001591,1
821,285,45,0.128975037357645,1
822,262,45,0.138540469034719,1
822,263,45,0.164084353295198,1
822,264,45,0.119785934247632,1
822,281,45,0.174875467115792,1
822,282,45,0.327593810831916,1
822,283,45,0.317909635444365,5
822,284,45,0.215363695583347,1
822,285,45,0.170093541013886,1
822,286,45,0.190535465211005,1
823,258,45,0.139195623650497,1
823,259,45,0.116467744141989,1
823,260,45,0.103282987612357,1
823,262,45,0.100922895093968,1
823,263,45,0.102829384677611,1
823,281,45,0.127426706952101,1
823,282,45,0.263943413066569,1
823,283,45,0.293228590194119,5
823,284,45,0.229764417772714,1
823,285,45,0.179350670403315,1
823,286,45,0.172322504572847,1
823,287,45,0.227846131157748,1
824,257,45,0.210063832966833,1
824,258,45,0.249434959907877,4
824,259,45,0.226865572371429,4
824,260,45,0.178899278731135,1
824,261,45,0.115741622158652,1
824,282,45,0.120863211262125,1
824,283,45,0.161211498398747,1
824,284,45,0.176422174476398,1
824,285,45,0.161812340920183,1
824,286,45,0.127478611711336,1
824,287,45,0.13517822796447,1
824,288,45,0.199608133909378,1
825,256,45,0.194102307979619,1
825,257,45,0.23861874880181,4
825,258,45,0.307098130079324,4
825,259,45,0.316020062563995,4
825,260,45,0.254630708004188,4
825,261,45,0.136574623935216,1
825,284,45,0.105368175532883,1
825,285,45,0.122946634529766,1
825,286,45,0.106013613664877,1
825,288,45,0.115829615158673,1
825,289,45,0.174586227436471,1
826,256,45,0.192397304719495,1
826,257,45,0.240214735728162,4
826,258,45,0.299170220028909,4
826,259,45,0.311253626192966,4
826,260,45,0.261919160135164,4
826,261,45,0.140226671116576,1
826,289,45,0.11357361537465,1
827,256,45,0.160918620484466,1
827,257,45,0.232020733451389,1
827,258,45,0.290723741674582,4
827,259,45,0.295753350969665,4
827,260,45,0.241493912997097,1
827,261,45,0.130656751556857,1
827,289,45,0.109818532072071,1
827,290,45,0.156646940496323,1
828,257,45,0.167505383449516,1
828,258,45,0.210378311539574,1
828,259,45,0.218826946691871,1
828,260,45,0.17842054583216,1
828,261,45,0.101087389064421,1
828,289,45,0.103002723698326,1
828,290,45,0.138541852435437,1
828,291,45,0.1548950867914,1
829,258,45,0.120884136559604,1
829,259,45,0.120661550651901,1
829,260,45,0.102255044628205,1
859,270,45,0.131871878461826,1
859,271,45,0.122430789455615,1
860,270,45,0.14016352486489,1
860,271,45,0.137595976703347,1
866,274,45,0.10764244274214,1
867,271,45,0.106959892434971,1
867,272,45,0.128188775568277,1
867,273,45,0.130681816163572,1
868,272,45,0.117944649677374,1
868,273,45,0.154307555417033,1
869,273,45,0.129389164353782,1
869,274,45,0.146963113682182,1
816,273,46,0.151912823416092,1
816,274,46,0.200861974248622,1
816,275,46,0.221431988280756,1
816,276,46,0.171518933935122,1
817,270,46,0.102587191515633,1
817,271,46,0.114980403190162,1
817,272,46,0.137735220887461,1
817,273,46,0.210917402102961,1
817,274,46,0.312883620812567,6
817,275,46,0.333290197487395,6
817,276,46,0.21763560992209,1
817,277,46,0.106690412510792,1
818,266,46,0.142732075174984,1
818,267,46,0.186688304063766,1
818,268,46,0.172428612497235,1
818,269,46,0.121990868027187,1
818,270,46,0.10087239552129,1
818,273,46,0.147243573668755,1
818,274,46,0.218372363394412,1
818,275,46,0.21914942066719,1
818,276,46,0.133956576200995,1
818,281,46,0.114984095889717,1
819,264,46,0.116168875122235,1
819,265,46,0.147681120440833,1
819,266,46,0.215437854576184,1
819,267,46,0.274618059796767,1
819,268,46,0.223643272632113,1
819,269,46,0.126722719380257,1
819,274,46,0.109023425232442,1
819,275,46,0.101057694967113,1
819,280,46,0.115183000591423,1
819,281,46,0.142898987373464,1
819,282,46,0.147701065375598,1
820,262,46,0.100099444878991,1
820,263,46,0.136864637011789,1
820,264,46,0.15174047565101,1
820,265,46,0.154144738956113,1
820,266,46,0.184897660674134,1
820,267,46,0.209623214391586,1
820,268,46,0.162200074373481,1
820,280,46,0.133947894544519,1
820,281,46,0.15272432409888,1
820,282,46,0.141519213997176,1
820,283,46,0.122637907418279,1
820,284,46,0.109950467107508,1
821,262,46,0.136999600278719,1
821,263,46,0.170981956598029,1
821,264,46,0.147556897592078,1
821,265,46,0.116813757715357,1
821,266,46,0.11231426321837,1
821,267,46,0.112154420524349,1
821,280,46,0.127715249484604,1
821,281,46,0.176126769404899,1
821,282,46,0.199301846811757,1
821,283,46,0.178281519506428,1
821,284,46,0.157434422292623,1
821,285,46,0.152026033523695,1
822,262,46,0.124428594379587,1
822,263,46,0.137236597518315,1
822,264,46,0.10638264397618,1
822,281,46,0.168945253060158,1
822,282,46,0.269174846365661,1
822,283,46,0.268731635275682,1
822,284,46,0.211965235557283,1
822,285,46,0.183740146417978,1
822,286,46,0.194459465009167,1
823,258,46,0.148030467247427,1
823,259,46,0.126711728424944,1
823,260,46,0.110398362152675,1
823,261,46,0.100077789755936,1
823,281,46,0.109737053037638,1
823,282,46,0.209796934664467,1
823,283,46,0.248196151796911,1
823,284,46,0.211991204276279,1
823,285,46,0.164426968277824,1
823,286,46,0.155678908566902,1
823,287,46,0.205111258395215,1
824,257,46,0.206042101899027,1
824,258,46,0.272506402082969,4
824,259,46,0.231784248178988,1
824,260,46,0.177855704408159,1
824,261,46,0.117853530409588,1
824,282,46,0.105807900888769,1
824,283,46,0.156222977194291,1
824,284,46,0.169523874026748,1
824,285,46,0.136682169724917,1
824,286,46,0.107377733916501,1
824,287,46,0.121166154233601,1
824,288,46,0.171654692385141,1
825,256,46,0.20754336400139,1
825,257,46,0.261904018977695,4
825,258,46,0.320742970830532,4
825,259,46,0.283337645417314,4
825,260,46,0.22036385042534,1
825,261,46,0.126752064904156,1
825,284,46,0.112069139861169,1
825,285,46,0.109397030569743,1
825,288,46,0.109972514375649,1
825,289,46,0.160085486464461,1
826,256,46,0.231026928875515,1
826,257,46,0.275106106141523,4
826,258,46,0.302041353844151,4
826,259,46,0.282955151458075,4
826,260,46,0.234613683900138,1
826,261,46,0.130494523313565,1
826,289,46,0.118080429913232,1
826,290,46,0.152139537740112,1
827,256,46,0.166932394122071,1
827,257,46,0.220098934634239,1
827,258,46,0.263156813596711,4
827,259,46,0.293874562079146,1
827,260,46,0.261933647717489,1
827,261,46,0.141158277124721,1
827,289,46,0.116922131366905,1
827,290,46,0.169108723096221,1
828,257,46,0.144011786196953,1
828,258,46,0.187897200219043,1
828,259,46,0.234065007567994,1
828,260,46,0.219036678955105,1
828,261,46,0.122615293718348,1
828,289,46,0.110180078947993,1
828,290,46,0.142496788123678,1
828,291,46,0.158153518343178,1
829,258,46,0.122047206204472,1
829,259,46,0.13727986419275,1
829,260,46,0.128808048908731,1
830,259,46,0.102776249018525,1
831,259,46,0.106525036213897,1
838,291,46,0.100481546693145,1
858,270,46,0.117405504649392,1
858,271,46,0.114767871446734,1
859,270,46,0.160881791525185,1
859,271,46,0.166781734158801,1
860,270,46,0.153710155058015,1
860,271,46,0.169961987230616,1
860,272,46,0.100660778783062,1
861,271,46,0.108685265453703,1
866,272,46,0.121034709379522,1
866,273,46,0.12899976428387,1
867,271,46,0.102147585981856,1
867,272,46,0.133827506003267,1
868,272,46,0.122604063118816,1
869,273,46,0.131299520923685,1
816,272,47,0.1016956932354,1
816,273,47,0.158955248077586,1
816,274,47,0.224995454244467,6
816,275,47,0.261237916978279,6
816,276,47,0.205644379638967,1
817,268,47,0.106016119036256,1
817,269,47,0.103729542828482,1
817,270,47,0.101460427969932,1
817,271,47,0.106189414485295,1
817,272,47,0.145044990461002,1
817,273,47,0.254735998959647,6
817,274,47,0.385178987703023,6
817,275,47,0.413245726478215,6
817,276,47,0.27080281490232,6
817,277,47,0.116863211567807,1
818,266,47,0.135150745129727,1
818,267,47,0.18107772093158,1
818,268,47,0.187292926428109,1
818,269,47,0.142011759117496,1
818,270,47,0.110134252437584,1
818,271,47,0.105185773603526,1
818,272,47,0.132714293248855,1
818,273,47,0.203941751035194,1
818,274,47,0.273187819526558,6
818,275,47,0.261668644783037,6
818,276,47,0.158248787813119,1
819,264,47,0.115134091384925,1
819,265,47,0.134912299131899,1
819,266,47,0.174736636862602,1
819,267,47,0.241054296570402,1
819,268,47,0.238090246155732,1
819,269,47,0.153786024239142,1
819,273,47,0.115394159827051,1
819,274,47,0.121473073120527,1
819,275,47,0.107102295565606,1
819,280,47,0.104875543269211,1
819,281,47,0.131418177490809,1
819,282,47,0.130720551383685,1
820,263,47,0.135019757778248,1
820,264,47,0.145399032115704,1
820,265,47,0.139760715611637,1
820,266,47,0.153003803722739,1
820,267,47,0.185529057833482,1
820,268,47,0.171011923018313,1
820,269,47,0.111213773393399,1
820,280,47,0.139445975608839,1
820,281,47,0.173458505313895,1
820,282,47,0.170737334315104,1
820,283,47,0.154899073599769,1
821,262,47,0.127104004225483,1
821,263,47,0.159377381369219,1
821,264,47,0.141004719644986,1
821,265,47,0.115072448356066,1
821,266,47,0.108375296549445,1
821,267,47,0.107766611126299,1
821,280,47,0.148066402987347,1
821,281,47,0.191532210875021,1
821,282,47,0.197944915886699,1
821,283,47,0.184152073044469,1
821,284,47,0.168249979823548,1
822,262,47,0.116008596711451,1
822,263,47,0.125255857116229,1
822,264,47,0.104619407170858,1
822,280,47,0.110237005342906,1
822,281,47,0.161548536206824,1
822,282,47,0.207857581144074,1
822,283,47,0.220185402625594,1
822,284,47,0.197917030013952,1
822,285,47,0.183073412629258,1
823,258,47,0.143500254718742,1
823,259,47,0.12861647514154,1
823,260,47,0.115951223706857,1
823,261,47,0.107684816197213,1
823,282,47,0.163874904247859,1
823,283,47,0.217263638522645,1
823,284,47,0.194600680811627,1
823,285,47,0.14479839655973,1
823,286,47,0.131391424481642,1
824,257,47,0.197252736239097,1
824,258,47,0.258454863306411,1
824,259,47,0.216355822649688,1
824,260,47,0.167227058475075,1
824,261,47,0.120360165367848,1
824,283,47,0.156041109017966,1
824,284,47,0.161182370733229,1
824,285,47,0.114173433961695,1
824,287,47,0.105862256554788,1
825,256,47,0.214776654390337,1
825,257,47,0.267036130640963,1
825,258,47,0.302801897451661,4
825,259,47,0.249325791073239,1
825,260,47,0.189078559074981,1
825,261,47,0.119245068138442,1
825,284,47,0.122602581681826,1
825,285,47,0.104873985581788,1
825,288,47,0.10030991786072,1
826,255,47,0.165529124719409,1
826,256,47,0.252229625431444,1
826,257,47,0.28742793651757,1
826,258,47,0.289867558237884,4
826,259,47,0.262523455711935,1
826,260,47,0.21751498173662,1
826,261,47,0.125588581328366,1
826,285,47,0.110535307930871,1
826,286,47,0.101627982850636,1
826,289,47,0.120343281343333,1
827,256,47,0.169602488223474,1
827,257,47,0.202687278906646,1
827,258,47,0.229731935088131,1
827,259,47,0.276677409713326,1
827,260,47,0.269079206536473,1
827,261,47,0.148027493480529,1
827,285,47,0.104890030851536,1
827,286,47,0.112279601949979,1
827,289,47,0.118538880196951,1
827,290,47,0.169732811106892,1
828,257,47,0.124168711117084,1
828,258,47,0.167180480353251,1
828,259,47,0.236496002096427,1
828,260,47,0.247555190654644,1
828,261,47,0.140468025523789,1
828,288,47,0.0997873954271964,1
828,289,47,0.108050132023123,1
828,290,47,0.13094153603229,1
828,291,47,0.145183896964625,1
829,258,47,0.128073768129032,1
829,259,47,0.160316350990636,1
829,260,47,0.160007667450825,1
830,258,47,0.110657417553331,1
830,259,47,0.120057745256486,1
830,260,47,0.104862297479656,1
830,291,47,0.10094584647439,1
831,258,47,0.100689634125604,1
831,259,47,0.10960286316796,1
837,261,47,0.102077925764583,1
838,261,47,0.145322945076196,1
838,291,47,0.112254624486616,1
839,290,47,0.100833867266639,1
839,291,47,0.116334033560749,1
841,263,47,0.112276127108804,1
842,262,47,0.29995132946757,7
842,263,47,0.187522832377408,1
847,282,47,0.100131600776003,1
847,283,47,0.129188974287629,1
857,270,47,0.106284302703069,1
858,270,47,0.140326787935491,1
858,271,47,0.15115627750987,1
859,270,47,0.174088922110529,1
859,271,47,0.211418585308082,1
859,272,47,0.120827090342582,1
860,270,47,0.147517127544656,1
860,271,47,0.188946841897926,1
860,272,47,0.121577405499111,1
861,271,47,0.114994160946912,1
865,272,47,0.102619260269292,1
865,273,47,0.111674184402546,1
865,274,47,0.121486591233058,1
866,272,47,0.140348671809846,1
866,273,47,0.169633565721501,1
867,272,47,0.145730122389984,1
868,272,47,0.148436849378126,1
869,273,47,0.146133737719246,1
816,273,48,0.142899052730978,1
816,274,48,0.206853733296843,6
816,275,48,0.244776210934497,6
816,276,48,0.194763987453904,1
817,267,48,0.110463991989903,1
817,268,48,0.125821439258726,1
817,269,48,0.118746760663948,1
817,270,48,0.0997613831365242,1
817,271,48,0.104362290709791,1
817,272,48,0.158390733441155,1
817,273,48,0.26637022471409,6
817,274,48,0.377378132660313,6
817,275,48,0.399605569682196,6
817,276,48,0.262270282487562,6
817,277,48,0.109138312849577,1
818,266,48,0.128359358680474,1
818,267,48,0.171232831416484,1
818,268,48,0.198508842305502,1
818,269,48,0.163072945762152,1
818,270,48,0.118690825524668,1
818,271,48,0.131706153591521,1
818,272,48,0.196398753172045,1
818,273,48,0.259163730905985,1
818,274,48,0.286204574565806,6
818,275,48,0.258008406126557,6
818,276,48,0.155691511674233,1
819,264,48,0.10754795756237,1
819,265,48,0.123075279903652,1
819,266,48,0.145031853600637,1
819,267,48,0.197556931896263,1
819,268,48,0.226555058821219,1
819,269,48,0.168433525509405,1
819,270,48,0.10736467330657,1
819,271,48,0.110788372226053,1
819,272,48,0.146509870213765,1
819,273,48,0.150191339169457,1
819,274,48,0.126607080151708,1
819,275,48,0.103308607757944,1
819,281,48,0.12678306615175,1
819,282,48,0.126041704974673,1
820,263,48,0.124459704556371,1
820,264,48,0.134452378304109,1
820,265,48,0.129352782004182,1
820,266,48,0.132266289274497,1
820,267,48,0.156880234143445,1
820,268,48,0.16100237613898,1
820,269,48,0.116725612214469,1
820,280,48,0.142604845880574,1
820,281,48,0.190093299841254,1
820,282,48,0.202169233462848,1
820,283,48,0.185927738670418,1
821,262,48,0.110269607849599,1
821,263,48,0.140439649469685,1
821,264,48,0.134967667839389,1
821,265,48,0.11612322289853,1
821,266,48,0.105270858194162,1
821,267,48,0.0998094318024183,1
821,279,48,0.102712024367853,1
821,280,48,0.156718245544372,1
821,281,48,0.192192583199021,1
821,282,48,0.196412543607553,1
821,283,48,0.186623251551247,1
821,284,48,0.162182613024257,1
822,262,48,0.106383243086727,1
822,263,48,0.116113800523559,1
822,264,48,0.106311426071484,1
822,280,48,0.122360344948171,1
822,281,48,0.146530806404163,1
822,282,48,0.162314972883536,1
822,283,48,0.183578027103877,1
822,284,48,0.172386380650109,1
822,285,48,0.16513980089993,1
823,258,48,0.127832914796095,1
823,259,48,0.12102904506162,1
823,260,48,0.115511531029729,1
823,261,48,0.112359893656237,1
823,282,48,0.132484692301288,1
823,283,48,0.195309657340392,1
823,284,48,0.171971785258453,1
823,285,48,0.12273170634415,1
823,286,48,0.105310780742451,1
824,256,48,0.13391512864404,1
824,257,48,0.184176386039771,1
824,258,48,0.222970112021157,1
824,259,48,0.186407484610864,1
824,260,48,0.147226755001754,1
824,261,48,0.118663037688192,1
824,283,48,0.149825010302076,1
824,284,48,0.144781948251977,1
825,255,48,0.156076979400371,1
825,256,48,0.210129952985418,1
825,257,48,0.258090560521971,1
825,258,48,0.277105566789189,1
825,259,48,0.218992998349747,1
825,260,48,0.158412192491668,1
825,261,48,0.109940717944965,1
825,284,48,0.127298083364054,1
825,285,48,0.106158783596949,1
826,255,48,0.165590571675725,1
826,256,48,0.243332310943809,1
826,257,48,0.27253731618721,1
826,258,48,0.272535050460049,1
826,259,48,0.242676731504188,1
826,260,48,0.195430176596672,1
826,261,48,0.118104165583825,1
826,284,48,0.115791914765869,1
826,285,48,0.144520496409131,1
826,286,48,0.121982480479524,1
826,289,48,0.111016992810906,1
827,256,48,0.161905192162096,1
827,257,48,0.181522032206383,1
827,258,48,0.202246093899608,1
827,259,48,0.24585576456907,1
827,260,48,0.247340839793736,1
827,261,48,0.14125708679335,1
827,285,48,0.146279408725594,1
827,286,48,0.146774786004865,1
827,287,48,0.109594355798188,1
827,289,48,0.106717328913744,1
827,290,48,0.146764372374261,1
828,257,48,0.109910326700838,1
828,258,48,0.154309156676132,1
828,259,48,0.232122582244432,1
828,260,48,0.256376668639909,1
828,261,48,0.146910653384076,1
828,286,48,0.111566791113711,1
828,287,48,0.123868208159473,1
828,288,48,0.11151313259451,1
828,290,48,0.106996481750033,1
829,258,48,0.136863918079132,1
829,259,48,0.1915267644155,1
829,260,48,0.198882077283556,1
829,261,48,0.117507135584054,1
829,287,48,0.106890482754835,1
829,288,48,0.104138517473912,1
830,258,48,0.121716137716029,1
830,259,48,0.140742842978299,1
830,260,48,0.125848268518326,1
830,291,48,0.105876961995495,1
831,258,48,0.101202908470861,1
831,259,48,0.105031410047782,1
837,261,48,0.10108399047368,1
838,260,48,0.290774197675585,1
838,261,48,0.169190245702331,1
838,291,48,0.11584647739735,1
839,261,48,0.19561895088367,1
839,290,48,0.113595717107386,1
839,291,48,0.118364353848061,1
840,262,48,0.1454982230365,1
840,290,48,0.100876709117231,1
841,262,48,0.23216262461483,7
841,263,48,0.125755482633926,1
841,288,48,0.101195719144293,1
841,289,48,0.106042316506552,1
842,261,48,0.270235990967053,7
842,262,48,0.334669175680593,7
842,263,48,0.206303314097653,7
842,288,48,0.118064177678022,1
842,289,48,0.107938501388781,1
843,262,48,0.32714066539977,7
843,263,48,0.224526252649654,1
843,264,48,0.100294896525361,1
846,283,48,0.138251436320859,1
847,282,48,0.144718823786128,1
847,283,48,0.196053469424253,1
847,284,48,0.105800362988792,1
848,282,48,0.100266466006662,1
848,283,48,0.118896952231699,1
857,270,48,0.131549894667864,1
857,271,48,0.139146638193566,1
858,270,48,0.160320141726463,1
858,271,48,0.198553699346117,1
858,272,48,0.123891998294661,1
859,270,48,0.169024499046189,1
859,271,48,0.236541033423746,1
859,272,48,0.155366336254993,1
860,270,48,0.127182618422209,1
860,271,48,0.183113117319166,1
860,272,48,0.13501223077119,1
861,271,48,0.111215407331255,1
864,274,48,0.112437473025654,1
865,272,48,0.115579557309146,1
865,273,48,0.144370141447595,1
866,272,48,0.1614678632484,1
817,267,49,0.12079583855785,1
817,268,49,0.151668789350795,1
817,269,49,0.143613432147588,1
817,270,49,0.109448031216697,1
817,271,49,0.113674494697897,1
817,272,49,0.177763190846735,1
817,273,49,0.247890235058537,1
817,274,49,0.304817457833671,6
817,275,49,0.317552935917417,6
817,276,49,0.212076626547406,1
818,266,49,0.121428967691326,1
818,267,49,0.16423247520833,1
818,268,49,0.216874173095219,1
818,269,49,0.200970053791357,1
818,270,49,0.144852577939045,1
818,271,49,0.168917628617468,1
818,272,49,0.275061053028366,1
818,273,49,0.305217293320025,1
818,274,49,0.267717025224438,1
818,275,49,0.226093787271468,1
818,276,49,0.139509982401129,1
819,264,49,0.100389610456431,1
819,265,49,0.117284495211755,1
819,266,49,0.129939855875948,1
819,267,49,0.16016292422593,1
819,268,49,0.203558080640698,1
819,269,49,0.180661339101201,1
819,270,49,0.125925695386876,1
819,271,49,0.137131513528317,1
819,272,49,0.201246951793403,1
819,273,49,0.190569363975064,1
819,274,49,0.135372775498559,1
819,275,49,0.103278565087226,1
819,281,49,0.12647926263967,1
820,263,49,0.112832896879796,1
820,264,49,0.127481280476501,1
820,265,49,0.130341728338163,1
820,266,49,0.126518498934059,1
820,267,49,0.132119180402835,1
820,268,49,0.139869851767519,1
820,269,49,0.115027591315451,1
820,280,49,0.148564383674269,1
820,281,49,0.205689519895477,1
820,282,49,0.225664039829425,1
820,283,49,0.20650550846091,1
821,263,49,0.123053864424816,1
821,264,49,0.134188366625289,1
821,265,49,0.12464368595899,1
821,266,49,0.107438636226865,1
821,279,49,0.100189224317735,1
821,280,49,0.156924034570912,1
821,281,49,0.193921790525256,1
821,282,49,0.20554179012743,1
821,283,49,0.194144572505502,1
821,284,49,0.157065827698082,1
822,263,49,0.109051289319351,1
822,264,49,0.110081487137744,1
822,280,49,0.122535361478418,1
822,281,49,0.132619230744375,1
822,282,49,0.141904529222447,1
822,283,49,0.164274118837828,1
822,284,49,0.152890963974383,1
822,285,49,0.142493542033803,1
823,259,49,0.100866437094574,1
823,260,49,0.103054018454095,1
823,261,49,0.108176424526496,1
823,282,49,0.112949701650683,1
823,283,49,0.171319724231682,1
823,284,49,0.153568220322898,1
823,285,49,0.109468477225739,1
824,256,49,0.12881102267563,1
824,257,49,0.164529873684014,1
824,258,49,0.1791787038904,1
824,259,49,0.14490413412487,1
824,260,49,0.118605022001374,1
824,261,49,0.1094332168468,1
824,283,49,0.137881796006089,1
824,284,49,0.129184268546603,1
825,255,49,0.149527208788388,1
825,256,49,0.198068093015226,1
825,257,49,0.245786137030553,1
825,258,49,0.256848898466216,1
825,259,49,0.189113263915049,1
825,260,49,0.129339699608412,1
825,283,49,0.10097972345261,1
825,284,49,0.12547869356107,1
825,285,49,0.109615444489453,1
826,255,49,0.155521288028365,1
826,256,49,0.216940641687213,1
826,257,49,0.251730163307532,1
826,258,49,0.259844995848708,1
826,259,49,0.215675385568813,1
826,260,49,0.163341314608588,1
826,261,49,0.10402132055794,1
826,284,49,0.133254614712093,1
826,285,49,0.167359788693601,1
826,286,49,0.132701788177794,1
827,256,49,0.146297436506608,1
827,257,49,0.162820840043844,1
827,258,49,0.181460400070443,1
827,259,49,0.207052790499416,1
827,260,49,0.204434895266062,1
827,261,49,0.120248120802582,1
827,284,49,0.103004913175054,1
827,285,49,0.164911409066378,1
827,286,49,0.156495572493316,1
827,287,49,0.11733947177416,1
828,257,49,0.101701172373678,1
828,258,49,0.14319862979047,1
828,259,49,0.218184939829376,1
828,260,49,0.243343835652155,1
828,261,49,0.136413757306804,1
828,286,49,0.124884713578631,1
828,287,49,0.144078548897761,1
828,288,49,0.119869025434084,1
829,258,49,0.145474890403912,1
829,259,49,0.222360413556541,1
829,260,49,0.234385564389561,1
829,261,49,0.127390891034291,1
829,287,49,0.12463561430598,1
829,288,49,0.114092521359051,1
830,258,49,0.13673671057056,1
830,259,49,0.170696638369563,1
830,260,49,0.15605357051735,1
831,258,49,0.104006952797724,1
831,259,49,0.104155347033832,1
838,260,49,0.27070310112141,1
838,261,49,0.178087778048347,1
838,289,49,0.105868454625723,1
838,290,49,0.111999305357191,1
838,291,49,0.116971138609675,1
839,261,49,0.253728033589018,1
839,262,49,0.115786054375424,1
839,290,49,0.122145983194344,1
840,261,49,0.279375977905105,1
840,262,49,0.177057819874173,1
841,262,49,0.257472866654778,7
841,263,49,0.1305193700619,1
841,288,49,0.118189064994838,1
841,289,49,0.106346120018632,1
842,261,49,0.276015359879794,7
842,262,49,0.333808308288707,7
842,263,49,0.195447648838816,7
842,287,49,0.102099591780557,1
842,288,49,0.130546558787828,1
843,262,49,0.324619956790108,7
843,263,49,0.22464261081086,1
843,264,49,0.0999052023466352,1
846,282,49,0.104975409550987,1
846,283,49,0.14767841899691,1
847,282,49,0.159613670569077,1
847,283,49,0.212840089457219,1
847,284,49,0.107925070419603,1
848,282,49,0.10382223067661,1
848,283,49,0.123911899657751,1
856,271,49,0.113633156070133,1
857,270,49,0.152454985782648,1
857,271,49,0.212130045422388,1
857,272,49,0.154423804649049,1
858,270,49,0.166421581576517,1
858,271,49,0.249789589780207,1
858,272,49,0.190478930961178,1
859,270,49,0.141633186609112,1
859,271,49,0.22227287805912,1
859,272,49,0.180981612706873,1
860,271,49,0.154062159736856,1
860,272,49,0.138066463662608,1
861,271,49,0.100840163373845,1
864,273,49,0.111119179284439,1
865,272,49,0.12025508137785,1
817,267,50,0.126491223064778,1
817,268,50,0.171989366429787,1
817,269,50,0.167515993152663,1
817,270,50,0.124739837755373,1
817,271,50,0.123505778957109,1
817,272,50,0.185415880404636,1
817,273,50,0.214007069660023,1
817,274,50,0.219428693325587,1
817,275,50,0.219350939669466,1
818,266,50,0.111080433171406,1
818,267,50,0.162282936808633,1
818,268,50,0.236447615750042,1
818,269,50,0.247763506838402,1
818,270,50,0.186218187463753,1
818,271,50,0.193670512668796,1
818,272,50,0.309286299656473,1
818,273,50,0.313778713756083,1
818,274,50,0.231514800933567,1
818,275,50,0.179418740254409,1
818,276,50,0.114976993706501,1
819,265,50,0.107093809981673,1
819,266,50,0.120689730633463,1
819,267,50,0.138389928893559,1
819,268,50,0.182042561235722,1
819,269,50,0.193304445231472,1
819,270,50,0.151981906308656,1
819,271,50,0.14846102076548,1
819,272,50,0.216491286990894,1
819,273,50,0.205864198745233,1
819,274,50,0.13684041115984,1
819,281,50,0.117053456398875,1
820,264,50,0.112578688828114,1
820,265,50,0.128423354579845,1
820,266,50,0.125162188905387,1
820,267,50,0.113565489257044,1
820,268,50,0.11502885489406,1
820,269,50,0.10762322763295,1
820,280,50,0.149720558101383,1
820,281,50,0.210875812938059,1
820,282,50,0.222132185116774,1
821,263,50,0.100792288994655,1
821,264,50,0.123062785725511,1
821,265,50,0.125848039767026,1
821,266,50,0.108282434414612,1
821,280,50,0.153091992795303,1
821,281,50,0.20216705487904,1
821,282,50,0.21612829135674,1
821,283,50,0.194801676953789,1
821,284,50,0.148372156331935,1
822,264,50,0.104099281179523,1
822,280,50,0.114338897401942,1
822,281,50,0.125983493215313,1
822,282,50,0.138989213727571,1
822,283,50,0.155810647529795,1
822,284,50,0.140754367686645,1
822,285,50,0.120645015200795,1
823,282,50,0.101086779060955,1
823,283,50,0.144883633651233,1
823,284,50,0.13838320796251,1
823,285,50,0.101132398605903,1
824,257,50,0.144087393948023,1
824,258,50,0.141783269247672,1
824,259,50,0.107785118195752,1
824,283,50,0.127723092386314,1
824,284,50,0.115166192817341,1
825,256,50,0.181964840258357,1
825,257,50,0.229854458641515,1
825,258,50,0.23133500241186,1
825,259,50,0.1541603485091,1
825,260,50,0.100558516059096,1
825,283,50,0.111249850741266,1
825,284,50,0.117064011637427,1
825,285,50,0.105333067654811,1
826,255,50,0.135389408985936,1
826,256,50,0.188881658670379,1
826,257,50,0.23913483352018,1
826,258,50,0.246806999617328,1
826,259,50,0.179127104132898,1
826,260,50,0.124448615564786,1
826,284,50,0.134848183410418,1
826,285,50,0.161655657172683,1
826,286,50,0.12715576737677,1
827,256,50,0.128554821219763,1
827,257,50,0.154201937674002,1
827,258,50,0.169987019158574,1
827,259,50,0.170735319125081,1
827,260,50,0.156754976467381,1
827,284,50,0.103497055257369,1
827,285,50,0.156120758042001,1
827,286,50,0.150178561775421,1
827,287,50,0.120023737563237,1
828,258,50,0.135149339943171,1
828,259,50,0.198158242813217,1
828,260,50,0.21039848522564,1
828,261,50,0.118148957266925,1
828,286,50,0.132661789379072,1
828,287,50,0.149682705207712,1
828,288,50,0.116173776935804,1
829,258,50,0.155473805794261,1
829,259,50,0.244430992544219,1
829,260,50,0.242940209429975,1
829,261,50,0.126548759463157,1
829,287,50,0.128870563371113,1
829,288,50,0.113223462492046,1
830,258,50,0.163884315729911,1
830,259,50,0.221814569383348,1
830,260,50,0.189137271908617,1
831,258,50,0.118366684932736,1
831,259,50,0.128433626602502,1
837,291,50,0.0998850395534885,1
838,261,50,0.157917752003434,1
838,289,50,0.115540724052761,1
838,290,50,0.129796973456875,1
838,291,50,0.11680701499847,1
839,262,50,0.12024428649508,1
839,289,50,0.105046159060165,1
839,290,50,0.125681301855251,1
840,261,50,0.30440712157336,1
840,262,50,0.181762449822558,1
841,262,50,0.253658035691255,1
841,263,50,0.124487405249495,1
841,287,50,0.0997476689514504,1
841,288,50,0.125522058271776,1
841,289,50,0.103056763469693,1
842,262,50,0.301698270466005,7
842,263,50,0.167787586303136,1
842,288,50,0.121620606816031,1
846,282,50,0.104307510219929,1
846,283,50,0.133158364879438,1
847,282,50,0.148565385822821,1
847,283,50,0.180293398081802,1
848,283,50,0.109484751246788,1
856,271,50,0.139538848636591,1
856,272,50,0.107162293763689,1
857,270,50,0.157608153458424,1
857,271,50,0.276740109355332,1
857,272,50,0.223756123273387,1
858,270,50,0.153221019421355,1
858,271,50,0.275769070980255,1
858,272,50,0.240345385399151,1
858,273,50,0.102500745310116,1
859,270,50,0.110058808080299,1
859,271,50,0.1874199160783,1
859,272,50,0.181565538525036,1
860,271,50,0.124860487726682,1
860,272,50,0.131055824538878,1
817,267,51,0.12414443080054,1
817,268,51,0.180741598128702,1
817,269,51,0.186934179032381,1
817,270,51,0.144386589755349,1
817,271,51,0.130243245457105,1
818,266,51,0.10040519822358,1
818,267,51,0.159976056199765,1
818,268,51,0.245384776535533,1
818,269,51,0.282556840980386,1
818,270,51,0.229853696137182,1
818,271,51,0.202839736201557,1
818,272,51,0.282096811223406,1
818,273,51,0.28065447981306,1
818,274,51,0.189543512431368,1
818,275,51,0.132506369210182,1
819,266,51,0.11652253552477,1
819,267,51,0.127995469826958,1
819,268,51,0.161366700709257,1
819,269,51,0.192566057821293,1
819,270,51,0.171625619184219,1
819,271,51,0.147301349711354,1
819,272,51,0.18867857108776,1
819,273,51,0.185749051226454,1
819,274,51,0.124821610898621,1
820,264,51,0.103419399637519,1
820,265,51,0.130432215816645,1
820,266,51,0.132949493156809,1
820,267,51,0.107258685204292,1
820,280,51,0.14449219660546,1
820,281,51,0.196613321891334,1
820,282,51,0.188856496027392,1
821,264,51,0.116799237454274,1
821,265,51,0.131229337846297,1
821,266,51,0.119047612194968,1
821,280,51,0.146171503469564,1
821,281,51,0.20115569091767,1
821,282,51,0.205457522505721,1
821,283,51,0.180523859569973,1
822,280,51,0.100690178771556,1
822,281,51,0.121510719048736,1
822,282,51,0.13787247166739,1
822,283,51,0.15402027646314,1
822,284,51,0.140790553963702,1
823,283,51,0.12685083100111,1
823,284,51,0.131399550599247,1
824,257,51,0.13508135723543,1
824,258,51,0.125416353385393,1
824,282,51,0.102136104845186,1
824,283,51,0.12138185581647,1
824,284,51,0.108687792610921,1
825,256,51,0.17580658294258,1
825,257,51,0.230233967940937,1
825,258,51,0.221284781372823,1
825,259,51,0.133322945993243,1
825,282,51,0.108415589456981,1
825,283,51,0.128366885687532,1
825,284,51,0.114495592042361,1
825,285,51,0.101929509742636,1
826,255,51,0.117035188973642,1
826,256,51,0.179625161070254,1
826,257,51,0.258458632256399,1
826,258,51,0.258713744420362,1
826,259,51,0.15829142269825,1
826,283,51,0.10129524774558,1
826,284,51,0.124202675238657,1
826,285,51,0.13658436220484,1
826,286,51,0.116740720693181,1
827,256,51,0.12080391021086,1
827,257,51,0.164789310336836,1
827,258,51,0.176898227717289,1
827,259,51,0.148495888999333,1
827,260,51,0.121801984810999,1
827,285,51,0.131184197589787,1
827,286,51,0.140678825293089,1
827,287,51,0.120078616089371,1
828,258,51,0.131016359493189,1
828,259,51,0.176032807085243,1
828,260,51,0.171464251481531,1
828,261,51,0.100560008389005,1
828,286,51,0.131900897198153,1
828,287,51,0.135675064894893,1
828,288,51,0.100772801562489,1
829,258,51,0.15615783753842,1
829,259,51,0.246490298889102,1
829,260,51,0.223831110128072,1
829,261,51,0.119259228933196,1
829,287,51,0.121301847326107,1
829,288,51,0.106060202679619,1
830,258,51,0.185278912840603,1
830,259,51,0.270709636872836,1
830,260,51,0.212713099807028,1
830,261,51,0.106658071434156,1
830,287,51,0.105293123320684,1
830,288,51,0.103483482680243,1
831,258,51,0.132293597822535,1
831,259,51,0.16348137576163,1
831,260,51,0.119972900310068,1
837,290,51,0.106169469550529,1
838,289,51,0.112164060757701,1
838,290,51,0.134211557649929,1
838,291,51,0.111024955534726,1
839,262,51,0.112128364662,1
839,289,51,0.100354524364197,1
839,290,51,0.118276371740959,1
840,262,51,0.176273486131476,1
841,263,51,0.11695174921378,1
841,288,51,0.118645260444315,1
846,282,51,0.101394220807995,1
846,283,51,0.114867378262182,1
847,282,51,0.126385409249204,1
847,283,51,0.132420391400183,1
856,271,51,0.163018905990784,1
856,272,51,0.13152708489539,1
857,270,51,0.144823591881474,1
857,271,51,0.293309960299363,1
857,272,51,0.247441751795741,1
858,270,51,0.127721098982129,1
858,271,51,0.258331773321237,1
858,272,51,0.238230634096345,1
858,273,51,0.104411907956028,1
859,271,51,0.151921646680516,1
859,272,51,0.15601503136978,1
860,271,51,0.107265994352969,1
860,272,51,0.115446413159696,1
818,267,52,0.141562524243287,1
818,268,52,0.22293847898426,1
818,269,52,0.271219447269837,1
818,270,52,0.235669382042008,1
818,271,52,0.186546412900325,1
819,266,52,0.106483555978185,1
819,267,52,0.113433031361494,1
819,268,52,0.135741740452349,1
819,269,52,0.168781728559501,1
819,270,52,0.164774005785582,1
819,271,52,0.132689043462515,1
819,272,52,0.138238190531304,1
819,273,52,0.140784475714877,1
819,274,52,0.100735057598009,1
820,265,52,0.124199309326673,1
820,266,52,0.135513326832958,1
820,267,52,0.10088285272357,1
820,280,52,0.12606310956059,1
820,281,52,0.159676522711949,1
821,264,52,0.100794380435111,1
821,265,52,0.129662903409306,1
821,266,52,0.125990105217171,1
821,280,52,0.130951960555813,1
821,281,52,0.178016778002032,1
821,282,52,0.174733074878076,1
821,283,52,0.163949346456592,1
822,281,52,0.11281966198316,1
822,282,52,0.132955604084391,1
822,283,52,0.159305586139813,1
822,284,52,0.150098792929277,1
823,283,52,0.117873039627592,1
823,284,52,0.123448623810896,1
824,257,52,0.126260086215626,1
824,258,52,0.111178545693217,1
824,282,52,0.109493204151964,1
824,283,52,0.119221811756287,1
824,284,52,0.109707816442929,1
825,256,52,0.162966260513055,1
825,257,52,0.219325624525612,1
825,258,52,0.197761958418471,1
825,259,52,0.11211699245452,1
825,282,52,0.131807969705806,1
825,283,52,0.145765143124704,1
825,284,52,0.120758911562298,1
825,285,52,0.102206124528788,1
826,256,52,0.164744159187407,1
826,257,52,0.253737423285233,1
826,258,52,0.243603718914658,1
826,259,52,0.135350009297762,1
826,283,52,0.107260144855443,1
826,284,52,0.10851361483544,1
826,285,52,0.109558191306969,1
826,286,52,0.106573150237305,1
826,287,52,0.10013300596256,1
826,288,52,0.104797288538813,1
827,257,52,0.161888253672986,1
827,258,52,0.17162730758667,1
827,259,52,0.129064740545955,1
827,285,52,0.105606817603254,1
827,286,52,0.128510301859638,1
827,287,52,0.11333631313332,1
828,258,52,0.12487460494976,1
828,259,52,0.154083803966992,1
828,260,52,0.134000757880629,1
828,286,52,0.119318323018999,1
828,287,52,0.111441925582733,1
829,258,52,0.14836539182921,1
829,259,52,0.230248303022396,1
829,260,52,0.191240716361458,1
829,261,52,0.104718805057116,1
829,287,52,0.114847444220335,1
829,288,52,0.10075596110965,1
830,258,52,0.18575443232846,1
830,259,52,0.28408219821967,1
830,260,52,0.211957588728116,1
830,261,52,0.105658863970437,1
830,287,52,0.135578139701257,1
830,288,52,0.125820785683583,1
831,258,52,0.136981082316348,1
831,259,52,0.186388138786645,1
831,260,52,0.136320034631367,1
831,287,52,0.109834217875492,1
831,288,52,0.102848360142583,1
837,290,52,0.105493248029323,1
838,290,52,0.119069430711809,1
839,290,52,0.101259159504794,1
841,263,52,0.106419810615951,1
856,271,52,0.179898235657717,1
856,272,52,0.150274288747962,1
857,271,52,0.260052745600676,1
857,272,52,0.22429377597146,1
858,271,52,0.211546773179367,1
858,272,52,0.197783308539793,1
819,267,53,0.101141995267578,1
819,268,53,0.113406409067355,1
819,269,53,0.135935122444101,1
819,270,53,0.138514522101561,1
819,271,53,0.115287365648764,1
819,273,53,0.0999417154112639,1
820,265,53,0.11627967789473,1
820,266,53,0.133942589692945,1
820,280,53,0.102218705850281,1
821,265,53,0.132100836727168,1
821,266,53,0.133540281513968,1
821,280,53,0.112426416712826,1
821,281,53,0.143790365831587,1
821,282,53,0.140161422531515,1
821,283,53,0.152993847594735,1
822,281,53,0.106142836363471,1
822,282,53,0.123144112259078,1
822,283,53,0.154970400433656,1
822,284,53,0.154905783637899,1
823,283,53,0.105980542762665,1
823,284,53,0.110306306093851,1
824,257,53,0.121122571664514,1
824,258,53,0.103733344457228,1
824,282,53,0.10638582470854,1
824,283,53,0.114020649879213,1
824,284,53,0.112265288654358,1
825,256,53,0.151196385237783,1
825,257,53,0.211112014994565,1
825,258,53,0.181403440996773,1
825,259,53,0.103135802490262,1
825,282,53,0.134282176444078,1
825,283,53,0.148566997974839,1
825,284,53,0.126807488076242,1
825,285,53,0.1017150281667,1
826,256,53,0.151473206989396,1
826,257,53,0.234462141610426,1
826,258,53,0.218043048665936,1
826,259,53,0.122420070823278,1
826,283,53,0.101061300523316,1
826,286,53,0.0998643212214707,1
826,287,53,0.108996911867494,1
826,288,53,0.108405666007734,1
827,257,53,0.151158565022869,1
827,258,53,0.161943600594638,1
827,259,53,0.121473639552317,1
827,286,53,0.112116622095273,1
827,287,53,0.103600298344049,1
828,258,53,0.122679104438096,1
828,259,53,0.14502364033968,1
828,260,53,0.118678963135831,1
829,258,53,0.145113670315561,1
829,259,53,0.219444989132474,1
829,260,53,0.177125519366019,1
829,287,53,0.11708478443404,1
829,288,53,0.104106209076034,1
830,258,53,0.179574291138328,1
830,259,53,0.276645340959667,1
830,260,53,0.208757445186131,1
830,261,53,0.102954620567837,1
830,286,53,0.110848947748846,1
830,287,53,0.164896562017723,1
830,288,53,0.143150493981224,1
831,258,53,0.136786948713182,1
831,259,53,0.197342581035355,1
831,260,53,0.152681852607535,1
831,286,53,0.104780088619646,1
831,287,53,0.132142948752185,1
831,288,53,0.114847814579583,1
819,269,54,0.10096426640049,1
819,270,54,0.104222948489407,1
820,265,54,0.100173396906367,1
820,266,54,0.120764445165171,1
821,265,54,0.121627807035518,1
821,266,54,0.127164710463304,1
822,282,54,0.106355760251984,1
822,283,54,0.128661005394584,1
824,280,54,0.104215661126568,1
824,283,54,0.103623249724471,1
824,284,54,0.106712274599309,1
825,257,54,0.196548356522168,1
825,258,54,0.160319085113315,1
825,282,54,0.119553838821605,1
825,283,54,0.137625256869732,1
825,284,54,0.125837571671827,1
826,256,54,0.135435344425536,1
826,257,54,0.199518768401558,1
826,258,54,0.181078113076666,1
826,259,54,0.115549296780047,1
826,287,54,0.107431730116192,1
827,257,54,0.135741348307263,1
827,258,54,0.147980316248158,1
827,259,54,0.119845845302363,1
828,258,54,0.121529596477436,1
828,259,54,0.141037213222488,1
828,260,54,0.111721993424221,1
829,258,54,0.144226278665808,1
829,259,54,0.21428054728549,1
829,260,54,0.17302514142273,1
829,287,54,0.104579027119969,1
830,258,54,0.174254984661324,1
830,259,54,0.270673472381616,1
830,260,54,0.211169660322135,1
830,286,54,0.105763686530378,1
830,287,54,0.158700135913623,1
830,288,54,0.132645482679267,1
831,258,54,0.134662404676157,1
831,259,54,0.201833295839594,1
831,260,54,0.164710053457887,1
831,286,54,0.102849906937087,1
831,287,54,0.129415917362949,1
831,288,54,0.107841282086332,1
820,266,55,0.101406627842784,1
821,265,55,0.106565873767385,1
821,266,55,0.110214827359737,1
822,281,55,0.100951543471049,1
823,281,55,0.103660154934185,1
824,279,55,0.110805855361116,1
824,280,55,0.110987429428626,1
825,258,55,0.137939746335393,1
825,282,55,0.101107922216815,1
825,283,55,0.120856163543505,1
825,284,55,0.119703169848751,1
826,257,55,0.160672876230879,1
826,258,55,0.153532578691793,1
826,259,55,0.115571115296888,1
827,257,55,0.121045351761425,1
827,258,55,0.141685320119647,1
827,259,55,0.125286019609056,1
828,258,55,0.121781909161205,1
828,259,55,0.141503157834508,1
828,260,55,0.113672218077817,1
829,258,55,0.140805052438947,1
829,259,55,0.2159020236424,1
829,260,55,0.179719384819967,1
830,258,55,0.171088761669235,1
830,259,55,0.283169959821582,1
830,260,55,0.233662078492632,1
830,261,55,0.106708908687325,1
830,287,55,0.132808538784406,1
830,288,55,0.111086500527313,1
831,258,55,0.13185136709527,1
831,259,55,0.211149203420174,1
831,260,55,0.186710612761964,1
831,287,55,0.115219034367614,1
832,259,55,0.0998204881152459,1
855,271,55,0.124196880205727,1
823,280,56,0.108181914557693,1
823,281,56,0.112744718700151,1
824,279,56,0.106065801640007,1
824,280,56,0.105570391681978,1
825,258,56,0.108984646440652,1
826,257,56,0.11431061938411,1
826,258,56,0.122927299598467,1
826,259,56,0.109034024042669,1
827,257,56,0.101215794794088,1
827,258,56,0.129655398188086,1
827,259,56,0.122278887699575,1
828,258,56,0.115191910999199,1
828,259,56,0.130775451695657,1
828,260,56,0.1059769589923,1
829,258,56,0.128677235843956,1
829,259,56,0.198895737004034,1
829,260,56,0.168958716708094,1
830,258,56,0.156890680452806,1
830,259,56,0.275149024242549,1
830,260,56,0.240383728474179,1
830,261,56,0.114510667842315,1
831,258,56,0.129591021036548,1
831,259,56,0.218748517674769,1
831,260,56,0.207939539466946,1
831,261,56,0.109593822045155,1
832,259,56,0.113699178052446,1
832,260,56,0.111568686481624,1
855,271,56,0.121510827977927,1
856,271,56,0.133173734788206,1
823,279,57,0.100460436216042,1
823,280,57,0.114880765659685,1
823,281,57,0.112768149369011,1
826,258,57,0.116101654918827,1
826,259,57,0.107877021753709,1
827,258,57,0.129199257203204,1
827,259,57,0.12781818756955,1
828,258,57,0.116305472327021,1
828,259,57,0.128372648041705,1
828,260,57,0.104541588157222,1
829,258,57,0.121662032587148,1
829,259,57,0.177812241661181,1
829,260,57,0.157059172124547,1
830,258,57,0.144162958127417,1
830,259,57,0.255542488899676,1
830,260,57,0.24472250884362,1
830,261,57,0.129004284845272,1
831,258,57,0.132884691181428,1
831,259,57,0.232837702379536,1
831,260,57,0.237415320891892,1
831,261,57,0.128163896141185,1
832,259,57,0.131652081141397,1
832,260,57,0.128331832274055,1
855,271,57,0.113954420931437,1
856,271,57,0.109643526434743,1
823,280,58,0.100599495220532,1
826,258,58,0.111246757152258,1
826,259,58,0.101953986131723,1
827,258,58,0.120270690930837,1
827,259,58,0.126987940173091,1
827,260,58,0.102710662752973,1
828,258,58,0.112221041617209,1
828,259,58,0.123314662692518,1
828,260,58,0.104999602724179,1
829,258,58,0.112528755687226,1
829,259,58,0.144777863407336,1
829,260,58,0.135428165991888,1
830,258,58,0.126272329856629,1
830,259,58,0.210396960216974,1
830,260,58,0.221010170883775,1
830,261,58,0.131241494343948,1
831,258,58,0.12951777704891,1
831,259,58,0.224537733786324,1
831,260,58,0.233553171088051,1
831,261,58,0.127611461751972,1
832,259,58,0.137263165347858,1
832,260,58,0.127577759060456,1
854,271,58,0.11090734468783,1
855,271,58,0.101763360048489,1
827,258,59,0.109750974188173,1
827,259,59,0.124630353026082,1
827,260,59,0.113727249104817,1
828,258,59,0.106875526776991,1
828,259,59,0.121433499145648,1
828,260,59,0.113005408038664,1
829,258,59,0.112061558389516,1
829,259,59,0.123932683347283,1
829,260,59,0.121455241412055,1
830,258,59,0.120047571270101,1
830,259,59,0.176577344108151,1
830,260,59,0.194834813213515,1
830,261,59,0.128532523414484,1
831,258,59,0.123666721835954,1
831,259,59,0.205082718947325,1
831,260,59,0.211102821370893,1
831,261,59,0.11778141928553,1
832,259,59,0.130727838746525,1
832,260,59,0.118827400943616,1
853,271,59,0.100274951590596,1
854,270,59,0.102830365040325,1
854,271,59,0.127842685744476,1
826,258,60,0.105608506005706,1
827,258,60,0.101330126872352,1
827,259,60,0.119997997595541,1
827,260,60,0.119938620293843,1
828,258,60,0.10308863615081,1
828,259,60,0.119084844192253,1
828,260,60,0.119080737561775,1
829,258,60,0.113846232459513,1
829,259,60,0.115976767602011,1
829,260,60,0.11660497313608,1
830,258,60,0.115466902740414,1
830,259,60,0.149550203740485,1
830,260,60,0.165292138372732,1
830,261,60,0.118175078486788,1
831,258,60,0.110303953223338,1
831,259,60,0.167897190854536,1
831,260,60,0.17054443161179,1
831,261,60,0.101061256951639,1
832,259,60,0.11449048326333,1
832,260,60,0.10555433551931,1
836,285,60,0.116000394343413,1
854,270,60,0.108603219987479,1
854,271,60,0.122227538479211,1
825,275,61,0.101417488083069,1
826,258,61,0.099776121255988,1
826,275,61,0.102126595326862,1
827,259,61,0.110501398273893,1
827,260,61,0.11063537028519,1
828,258,61,0.100215367323436,1
828,259,61,0.11119807669706,1
828,260,61,0.110786781859873,1
829,258,61,0.112908864097195,1
829,259,61,0.113134249485092,1
829,260,61,0.111489897998194,1
830,258,61,0.109663830835838,1
830,259,61,0.129772704033249,1
830,260,61,0.137958329655278,1
830,261,61,0.10163145769181,1
831,259,61,0.128944951115251,1
831,260,61,0.130546776646209,1
835,285,61,0.107714314221979,1
835,286,61,0.11199852106702,1
836,285,61,0.121602393855393,1
836,286,61,0.110151256284208,1
854,271,61,0.101069426640921,1
825,274,62,0.102722699428515,1
825,275,62,0.115631658140923,1
826,275,62,0.114007338732143,1
829,258,62,0.100377900568461,1
829,259,62,0.105040821529834,1
829,260,62,0.101760713069162,1
830,259,62,0.103624785626055,1
830,260,62,0.104241586273887,1
833,287,62,0.104947371177373,1
833,288,62,0.102804853823929,1
834,286,62,0.112408334467217,1
834,287,62,0.107407700336786,1
835,285,62,0.112680984230837,1
835,286,62,0.125869782033434,1
835,287,62,0.103220887080899,1
836,285,62,0.111692092361451,1
836,286,62,0.10832316303891,1
825,275,63,0.112255561277653,1
826,275,63,0.113070286264478,1
833,287,63,0.102056455821151,1
833,288,63,0.103925179654476,1
834,285,63,0.101757597694316,1
834,286,63,0.125305496148303,1
834,287,63,0.117733043832065,1
835,285,63,0.11152314318711,1
835,286,63,0.132793626378237,1
835,287,63,0.116173058003147,1
836,260,63,0.107279305500038,1
836,261,63,0.101704963109505,1
836,286,63,0.100630638076073,1
862,271,63,0.107606812003954,1
825,274,64,0.102330750415547,1
825,275,64,0.112364849934401,1
826,274,64,0.106001773061878,1
826,275,64,0.122340726800976,1
833,286,64,0.0999724770146384,1
833,287,64,0.102091934058471,1
834,285,64,0.117472790210315,1
834,286,64,0.148747744180502,1
834,287,64,0.135971777116677,1
835,260,64,0.112951161301835,1
835,261,64,0.109588157727253,1
835,285,64,0.118254978047961,1
835,286,64,0.15136071581445,1
835,287,64,0.135929970093394,1
836,259,64,0.104324546745311,1
836,260,64,0.152740543655333,1
836,261,64,0.151449917928484,1
836,286,64,0.102593335121972,1
837,260,64,0.128923165277167,1
837,261,64,0.13424202514449,1
862,270,64,0.117667784354085,1
862,271,64,0.129018532783379,1
863,270,64,0.13770851144997,1
863,271,64,0.164291896081704,1
864,271,64,0.160652299506809,1
825,275,65,0.102001272293284,1
826,274,65,0.111342331623932,1
826,275,65,0.121152995587398,1
833,286,65,0.106499960714262,1
833,287,65,0.106013907773691,1
834,285,65,0.129189518933581,1
834,286,65,0.172789287939633,1
834,287,65,0.153786721385961,1
835,260,65,0.135806324569348,1
835,261,65,0.143578520342059,1
835,285,65,0.125350767119841,1
835,286,65,0.174110435625637,1
835,287,65,0.157401896036364,1
836,259,65,0.119109004686688,1
836,260,65,0.193810377749295,1
836,261,65,0.205795268353536,1
836,262,65,0.1064811050714,1
836,286,65,0.106998398903784,1
836,287,65,0.103421992152251,1
837,260,65,0.15263653806432,1
837,261,65,0.16714774713153,1
838,261,65,0.111372973405197,1
839,262,65,0.110999727534225,1
840,262,65,0.0999008669648565,1
843,265,65,0.118743776004131,1
843,266,65,0.107751633362617,1
844,265,65,0.122005660611246,1
844,266,65,0.113716160113233,1
846,266,65,0.105073936003722,1
847,266,65,0.113006867689815,1
847,267,65,0.105655879310619,1
862,270,65,0.153136359654561,1
862,271,65,0.156389747784823,1
863,270,65,0.17213475422024,1
863,271,65,0.18778238885234,1
864,271,65,0.168235078310299,1
825,260,66,0.106602985942561,1
826,275,66,0.104486644273574,1
833,286,66,0.100847080377436,1
834,261,66,0.105485459592208,1
834,285,66,0.125942285302577,1
834,286,66,0.170801493608261,1
835,259,66,0.10381950744685,1
835,260,66,0.145071198824217,1
835,261,66,0.172656122004345,1
835,262,66,0.110201962822349,1
835,285,66,0.122706728880786,1
835,286,66,0.175784797104496,1
835,287,66,0.156971887164264,1
836,259,66,0.117321291492279,1
836,260,66,0.199630420821738,1
836,261,66,0.232369089002351,1
836,262,66,0.126820450649902,1
836,286,66,0.10645563742668,1
836,287,66,0.104740187857195,1
837,260,66,0.149389958008459,1
837,261,66,0.172716250917457,1
837,262,66,0.103304207018651,1
838,261,66,0.11009017968714,1
839,262,66,0.106560754095435,1
840,263,66,0.103308553293348,1
843,264,66,0.106766314370676,1
843,265,66,0.149605822985114,1
843,266,66,0.131281863501918,1
844,264,66,0.101843041751281,1
844,265,66,0.14396565468481,1
844,266,66,0.126595599015038,1
845,265,66,0.107471402127343,1
845,266,66,0.102157008356827,1
846,265,66,0.104554420015854,1
846,266,66,0.120809356670381,1
847,265,66,0.100204049580551,1
847,266,66,0.135085834225156,1
847,267,66,0.118572310565491,1
848,266,66,0.107338464943355,1
848,267,66,0.111310655015358,1
862,269,66,0.108379751753333,1
862,270,66,0.172005106697802,1
862,271,66,0.173682147834746,1
863,270,66,0.189613009254856,1
863,271,66,0.198415838562722,1
825,260,67,0.10757637718815,1
834,259,67,0.102889056088123,1
834,260,67,0.104856044944125,1
834,261,67,0.129053902091508,1
834,262,67,0.102183663329723,1
834,285,67,0.119403658146773,1
834,286,67,0.154219083128575,1
835,259,67,0.116846512722916,1
835,260,67,0.163769591506561,1
835,261,67,0.223044379943185,1
835,262,67,0.153788812826417,1
835,285,67,0.120049237886714,1
835,286,67,0.166442005799721,1
835,287,67,0.148326830895802,1
836,259,67,0.11595403407997,1
836,260,67,0.191751114976088,1
836,261,67,0.246829155814659,1
836,262,67,0.147819667478127,1
836,286,67,0.109023534161632,1
836,287,67,0.106667254164908,1
837,260,67,0.13950553809016,1
837,261,67,0.168128850563802,1
837,262,67,0.107045772208698,1
838,261,67,0.110187682205484,1
840,263,67,0.104154747923285,1
841,263,67,0.103812067583144,1
842,264,67,0.103856968195435,1
842,265,67,0.104908951851912,1
843,264,67,0.122490384615694,1
843,265,67,0.165622204712623,1
843,266,67,0.145664100407671,1
844,264,67,0.115692843667182,1
844,265,67,0.160220199194253,1
844,266,67,0.136988195392482,1
845,265,67,0.125860479480572,1
845,266,67,0.112732126485739,1
846,265,67,0.118764951838748,1
846,266,67,0.130192451775612,1
847,265,67,0.110819776511651,1
847,266,67,0.147779015104263,1
847,267,67,0.120378846724005,1
848,266,67,0.131415312653101,1
848,267,67,0.133539431866283,1
849,266,67,0.12147383562486,1
849,267,67,0.134298352428856,1
850,266,67,0.106042011504819,1
850,267,67,0.112353074688917,1
861,270,67,0.101989769370776,1
861,271,67,0.110194141706476,1
862,270,67,0.173139440822237,1
862,271,67,0.184610752079488,1
862,272,67,0.147205960419303,1
863,271,67,0.202971104805203,1
863,272,67,0.181026360818297,1
834,259,68,0.123923827404102,1
834,260,68,0.127368909123665,1
834,261,68,0.147161419273341,1
834,262,68,0.112854758968313,1
834,285,68,0.110450659056996,1
834,286,68,0.129322630404274,1
835,259,68,0.133740210150065,1
835,260,68,0.182585802001263,1
835,261,68,0.246821661486358,1
835,262,68,0.172770040151686,1
835,285,68,0.113903398498645,1
835,286,68,0.144813385216332,1
836,259,68,0.112967032284879,1
836,260,68,0.172853632412414,1
836,261,68,0.228992654458591,1
836,262,68,0.150413881505484,1
836,286,68,0.107472611241357,1
836,287,68,0.106796433291827,1
837,260,68,0.124751667465453,1
837,261,68,0.150762226163527,1
837,262,68,0.106375574471722,1
838,261,68,0.104715145036318,1
840,263,68,0.100359317248576,1
841,263,68,0.115262758544648,1
842,263,68,0.114648430589439,1
842,264,68,0.118887105032885,1
842,265,68,0.107913284281199,1
843,263,68,0.100518288509074,1
843,264,68,0.130703612894575,1
843,265,68,0.157008106120078,1
843,266,68,0.139827304025741,1
844,264,68,0.124112405618556,1
844,265,68,0.161682366610174,1
844,266,68,0.139213313751022,1
845,264,68,0.10552819251361,1
845,265,68,0.141781711560249,1
845,266,68,0.12169122561018,1
846,265,68,0.123727003249933,1
846,266,68,0.126046040356452,1
847,265,68,0.110490832142422,1
847,266,68,0.141006255546571,1
847,267,68,0.111131858642204,1
848,266,68,0.148173208058553,1
848,267,68,0.148005772999959,1
849,266,68,0.148943729579905,1
849,267,68,0.168867619226146,1
850,266,68,0.122474873098978,1
850,267,68,0.140430107272604,1
858,268,68,0.102234587726244,1
858,269,68,0.103107600722862,1
861,270,68,0.108362900407575,1
861,271,68,0.12086315679753,1
861,272,68,0.102325990209925,1
862,271,68,0.186067560179241,1
862,272,68,0.151338494259604,1
862,273,68,0.103236485740967,1
834,260,69,0.152985285760368,1
834,261,69,0.153425653798477,1
834,262,69,0.110636546720447,1
835,260,69,0.191037389134621,1
835,261,69,0.231703030574612,1
835,262,69,0.163299104547301,1
835,283,69,0.100870718011757,1
836,260,69,0.150030864686131,1
836,261,69,0.190979264518613,1
836,262,69,0.138974824181517,1
837,260,69,0.108883353186481,1
837,261,69,0.129844978551093,1
837,262,69,0.100608013483223,1
838,261,69,0.100092713055024,1
841,262,69,0.10297357424697,1
841,263,69,0.126366760571804,1
841,264,69,0.102021827231517,1
842,263,69,0.136907881900386,1
842,264,69,0.129442594121683,1
842,265,69,0.105027706455308,1
843,263,69,0.11770012543072,1
843,264,69,0.134492028529422,1
843,265,69,0.138042063523954,1
843,266,69,0.120020240936225,1
844,264,69,0.131780247226845,1
844,265,69,0.157285777519377,1
844,266,69,0.136198491440697,1
845,264,69,0.121064893658187,1
845,265,69,0.155647035885785,1
845,266,69,0.131372982769704,1
846,265,69,0.122916177928125,1
846,266,69,0.118087586561043,1
847,265,69,0.100973677882542,1
847,266,69,0.125982708925142,1
847,267,69,0.102079581488277,1
848,266,69,0.156580776906062,1
848,267,69,0.155163063492751,1
849,266,69,0.16625076971302,1
849,267,69,0.190844933040988,1
849,268,69,0.119161769986528,1
850,266,69,0.13092675434115,1
850,267,69,0.162602938091329,1
850,268,69,0.111018245496596,1
851,267,69,0.105002391311454,1
861,270,69,0.111448635620863,1
861,271,69,0.124906532095472,1
861,272,69,0.112357366499019,1
862,271,69,0.169571890013885,1
862,272,69,0.145161904161079,1
834,261,70,0.143121137564406,1
834,262,70,0.101768762936334,1
835,261,70,0.186254134096591,1
835,262,70,0.135707209898986,1
836,261,70,0.152917542696846,1
836,262,70,0.122833881924763,1
837,261,70,0.114272014879025,1
841,262,70,0.108302945781168,1
841,263,70,0.12788095256907,1
841,264,70,0.102872967246698,1
842,263,70,0.144800488000186,1
842,264,70,0.131831258766718,1
843,263,70,0.128674632436305,1
843,264,70,0.137033292077316,1
843,265,70,0.12371930195617,1
844,264,70,0.137077048933107,1
844,265,70,0.148530996877405,1
844,266,70,0.125085382933222,1
845,264,70,0.129833421163989,1
845,265,70,0.155467063077374,1
845,266,70,0.13027536867536,1
846,265,70,0.122285423451,1
846,266,70,0.112461186910408,1
847,266,70,0.112980909863738,1
848,266,70,0.144536182212552,1
848,267,70,0.144518306932404,1
849,266,70,0.156911790929909,1
849,267,70,0.179971708396655,1
849,268,70,0.126028971152313,1
850,266,70,0.125853802121199,1
850,267,70,0.160574099241007,1
850,268,70,0.125151001877531,1
851,267,70,0.112132503971236,1
851,268,70,0.101783740700017,1
861,271,70,0.120366428796297,1
861,272,70,0.112593808199744,1
