x,y,z,signal,mito.p
3,585,1,0.103362701993906,1
4,584,1,0.193024606141284,1
4,585,1,0.172245251991001,1
4,586,1,0.120517687870114,1
5,583,1,0.275867542968394,2
5,584,1,0.316678692020948,2
5,585,1,0.262072379934408,1
5,586,1,0.163555382253601,1
6,582,1,0.259028026920561,2
6,583,1,0.352755015953532,2
6,584,1,0.362493198433692,2
6,585,1,0.266081497001963,2
6,586,1,0.161432406796918,1
7,582,1,0.278530643815773,2
7,583,1,0.387634818086871,2
7,584,1,0.369980751338917,2
7,585,1,0.248937088150145,2
7,586,1,0.147382654459083,1
8,581,1,0.164950972148338,1
8,582,1,0.283834122881409,2
8,583,1,0.402720421668082,2
8,584,1,0.411519939528559,2
8,585,1,0.290524989473743,2
8,586,1,0.167820983992919,1
9,581,1,0.146756257149575,1
9,582,1,0.229194042745839,1
9,583,1,0.327438521378054,2
9,584,1,0.372731082681984,2
9,585,1,0.298058619426515,2
9,586,1,0.192720759057527,1
9,587,1,0.115586888243661,1
10,581,1,0.105521896406403,1
10,582,1,0.146811778357932,1
10,583,1,0.206316516315532,1
10,584,1,0.256215148436355,2
10,585,1,0.240789555066006,1
10,586,1,0.191268340804149,1
10,587,1,0.131772959864005,1
11,582,1,0.112634438787771,1
11,583,1,0.150385690631004,1
11,584,1,0.178671638508997,1
11,585,1,0.17899746750338,1
11,586,1,0.162919322924903,1
11,587,1,0.124744717783104,1
12,582,1,0.117460067280874,1
12,583,1,0.156541562397511,1
12,584,1,0.167706630128816,1
12,585,1,0.156408352890547,1
12,586,1,0.134840754439631,1
12,587,1,0.101996414051392,1
13,582,1,0.119963979009373,1
13,583,1,0.156155702526288,1
13,584,1,0.163920719865349,1
13,585,1,0.152721840513338,1
13,586,1,0.126534086701208,1
14,581,1,0.10006706023068,1
14,582,1,0.107682659399243,1
14,583,1,0.127147870010465,1
14,584,1,0.13744142796798,1
14,585,1,0.136634916242113,1
14,586,1,0.119167129302696,1
15,581,1,0.106024473905161,1
15,582,1,0.0997360897785088,1
15,583,1,0.108639885552974,1
15,584,1,0.121613951242497,1
15,585,1,0.129375036237784,1
15,586,1,0.123809974614275,1
15,587,1,0.109317795476632,1
16,581,1,0.109416311036447,1
16,582,1,0.103998303820004,1
16,583,1,0.105409350766862,1
16,584,1,0.113839762065602,1
16,585,1,0.128500912163424,1
16,586,1,0.140528797119124,1
16,587,1,0.135347100888377,1
16,588,1,0.115024377904334,1
16,589,1,0.101929487956798,1
17,582,1,0.116825957784684,1
17,583,1,0.1112494694891,1
17,584,1,0.111759465065725,1
17,585,1,0.127970122004348,1
17,586,1,0.146747303170122,1
17,587,1,0.143156692052159,1
17,588,1,0.126792630134669,1
17,589,1,0.123287038249828,1
17,590,1,0.107975079810924,1
18,583,1,0.105503225943165,1
18,584,1,0.105481287604215,1
18,585,1,0.121453149971599,1
18,586,1,0.137219811530071,1
18,587,1,0.132334544305214,1
18,588,1,0.123232530082942,1
18,589,1,0.125100654805719,1
18,590,1,0.112227152544792,1
19,584,1,0.101446136460149,1
19,585,1,0.116321245273794,1
19,586,1,0.126899751100527,1
19,587,1,0.122402576795297,1
19,588,1,0.116893984064101,1
19,589,1,0.112821459314802,1
20,587,1,0.11077487589936,1
20,588,1,0.110792969037889,1
20,589,1,0.108179006148309,1
2,585,2,0.103296298759426,1
3,584,2,0.122661643088872,1
3,585,2,0.117941719482152,1
4,583,2,0.1864750642806,2
4,584,2,0.206540670803577,2
4,585,2,0.197060759433902,1
4,586,2,0.138655901297806,1
5,582,2,0.278567679740516,2
5,583,2,0.302129956847638,2
5,584,2,0.321088254578324,2
5,585,2,0.284736078363921,2
5,586,2,0.184049407282498,1
5,587,2,0.100602251129049,1
6,581,2,0.192971187266302,2
6,582,2,0.295142192853897,2
6,583,2,0.365256013061981,2
6,584,2,0.344291806075557,2
6,585,2,0.2528472975128,2
6,586,2,0.160472707950564,1
7,581,2,0.172756358645369,2
7,582,2,0.307819960252559,2
7,583,2,0.421209408874764,2
7,584,2,0.372567558181326,2
7,585,2,0.225350258403502,2
7,586,2,0.12857747849137,1
8,581,2,0.18049717191832,2
8,582,2,0.315018589373115,2
8,583,2,0.442938168062906,2
8,584,2,0.448791194894208,2
8,585,2,0.295414189042374,2
8,586,2,0.154014688395671,2
9,581,2,0.152385075028237,1
9,582,2,0.226455279682795,2
9,583,2,0.317007331388444,2
9,584,2,0.398885242731789,2
9,585,2,0.329501226313678,2
9,586,2,0.196668200417467,2
9,587,2,0.100799249569923,1
10,581,2,0.101038414500408,1
10,582,2,0.129133529329705,1
10,583,2,0.178820152567215,2
10,584,2,0.260186271002292,2
10,585,2,0.258466889089033,2
10,586,2,0.189127359352289,1
10,587,2,0.114111028428504,1
11,582,2,0.102245404394853,1
11,583,2,0.137671704276527,1
11,584,2,0.174834760277332,1
11,585,2,0.175126853901443,1
11,586,2,0.150585532123748,1
11,587,2,0.106367807820445,1
12,582,2,0.114799918414555,1
12,583,2,0.156983368300934,1
12,584,2,0.167172833524084,1
12,585,2,0.152544275040035,1
12,586,2,0.130439241749427,1
13,580,2,0.101126560001296,1
13,581,2,0.109746388269257,1
13,582,2,0.122701630994675,1
13,583,2,0.158659320145973,1
13,584,2,0.161918383487056,1
13,585,2,0.149499943812026,1
13,586,2,0.126537801186601,1
14,580,2,0.127835420167475,1
14,581,2,0.12468199635526,1
14,582,2,0.109344210805308,1
14,583,2,0.120444149773662,1
14,584,2,0.125332913625532,1
14,585,2,0.1228825841658,1
14,586,2,0.106434287305358,1
15,580,2,0.138574247976668,1
15,581,2,0.118186548730539,1
15,584,2,0.108448388036217,1
15,585,2,0.113748882442035,1
15,586,2,0.103624992591517,1
16,580,2,0.132157915622948,1
16,581,2,0.109816909027134,1
16,584,2,0.100543843297146,1
16,585,2,0.111563370737132,1
16,586,2,0.118144502063037,1
16,587,2,0.118773306707653,1
17,581,2,0.106938956244572,1
17,582,2,0.113020669018241,1
17,583,2,0.108550138792987,1
17,584,2,0.101116821731672,1
17,585,2,0.110466889506368,1
17,586,2,0.123844330880933,1
17,587,2,0.12571109398883,1
17,588,2,0.104833758031766,1
17,589,2,0.105149162502626,1
18,582,2,0.10493558503897,1
18,583,2,0.104097658134586,1
18,585,2,0.108263622343427,1
18,586,2,0.120475728345964,1
18,587,2,0.115153437209143,1
18,588,2,0.100260758117084,1
18,589,2,0.104780143084241,1
19,585,2,0.109809665235971,1
19,586,2,0.119652169201797,1
19,587,2,0.108449433756445,1
20,585,2,0.108609265557547,1
20,586,2,0.110865820880442,1
20,587,2,0.100354960080959,1
2,584,3,0.111304358908152,1
2,585,3,0.115243216647887,1
3,583,3,0.142804720052075,1
3,584,3,0.150759078109924,1
3,585,3,0.139484939580252,1
3,586,3,0.100970115898015,1
4,582,3,0.232650649173748,2
4,583,3,0.241992765117543,2
4,584,3,0.246009180440857,2
4,585,3,0.236823944317104,1
4,586,3,0.157130978246871,1
5,581,3,0.255339532032086,2
5,582,3,0.353926091893895,2
5,583,3,0.346104540305005,2
5,584,3,0.324307765730366,2
5,585,3,0.306498540243579,2
5,586,3,0.202695601096794,1
5,587,3,0.101641795071981,1
6,581,3,0.223535824878683,2
6,582,3,0.333717243485516,2
6,583,3,0.37526743352339,2
6,584,3,0.327116897050421,2
6,585,3,0.249888279626727,2
6,586,3,0.163445886631391,1
7,580,3,0.100698555426299,1
7,581,3,0.190307933918057,2
7,582,3,0.338065500694524,2
7,583,3,0.449474485919872,2
7,584,3,0.38613922030241,2
7,585,3,0.219064412326986,2
7,586,3,0.117778107838142,1
8,581,3,0.195450873142852,2
8,582,3,0.343648252418558,2
8,583,3,0.453697975634174,2
8,584,3,0.447795320663716,2
8,585,3,0.283237016631204,2
8,586,3,0.134515611699147,1
9,581,3,0.153165759643055,1
9,582,3,0.220615847214457,2
9,583,3,0.283160003693578,2
9,584,3,0.377903563503221,2
9,585,3,0.339015036447412,2
9,586,3,0.189178752144329,2
10,582,3,0.113036180534957,1
10,583,3,0.14954525835524,2
10,584,3,0.241414394688091,2
10,585,3,0.26451372273593,2
10,586,3,0.174002802692584,1
11,583,3,0.122597342187767,1
11,584,3,0.161609100836698,1
11,585,3,0.169039084664786,1
11,586,3,0.133475784540321,1
12,582,3,0.104863125341503,1
12,583,3,0.143479688887591,1
12,584,3,0.158506263740514,1
12,585,3,0.149320744400867,1
12,586,3,0.128106468671996,1
13,580,3,0.113668394663234,1
13,581,3,0.114335880063368,1
13,582,3,0.112344981250069,1
13,583,3,0.141551762039274,1
13,584,3,0.147840124380088,1
13,585,3,0.137554017179198,1
13,586,3,0.120200311780907,1
14,579,3,0.132975995628838,1
14,580,3,0.148216474732988,1
14,581,3,0.13435128112248,1
14,582,3,0.104308196473829,1
14,583,3,0.107860377373412,1
14,584,3,0.11157362097395,1
14,585,3,0.105583844436995,1
15,579,3,0.160154863465839,1
15,580,3,0.155772064810549,1
15,581,3,0.120916804423811,1
15,585,3,0.100597741460566,1
16,579,3,0.153018650771393,1
16,580,3,0.151494295680661,1
16,581,3,0.117706966183879,1
16,585,3,0.10306385475999,1
16,586,3,0.107559046553955,1
16,587,3,0.104617631625054,1
17,580,3,0.116039804924507,1
17,581,3,0.112892982221232,1
17,582,3,0.112363575462873,1
17,583,3,0.106018853158936,1
17,585,3,0.10154857347082,1
17,586,3,0.115646483403739,1
17,587,3,0.11517723823725,1
18,586,3,0.116884507224534,1
18,587,3,0.107757744290199,1
19,585,3,0.10769918395743,1
19,586,3,0.122626785747937,1
19,587,3,0.104868931267352,1
20,585,3,0.108007856604322,1
20,586,3,0.110674083719465,1
1,585,4,0.136490367206426,1
1,586,4,0.110691784712908,1
2,584,4,0.132348062417745,1
2,585,4,0.135545896660893,1
2,586,4,0.103638902849134,1
3,582,4,0.171444698691851,2
3,583,4,0.198967455983006,2
3,584,4,0.198694697290196,2
3,585,4,0.179675932965908,1
3,586,4,0.122521658186263,1
4,581,4,0.207381560581941,2
4,582,4,0.320349453237222,2
4,583,4,0.327821516411569,2
4,584,4,0.306507014934593,2
4,585,4,0.296643607457126,2
4,586,4,0.19591081575648,1
5,581,4,0.305885835333306,2
5,582,4,0.448836291579042,2
5,583,4,0.403549677808909,2
5,584,4,0.33151334453327,2
5,585,4,0.324537911323884,2
5,586,4,0.226320054985808,2
5,587,4,0.11025230989416,1
6,580,4,0.136950070175835,1
6,581,4,0.275644586701444,2
6,582,4,0.395772656473063,2
6,583,4,0.389594279935815,2
6,584,4,0.311702850174256,2
6,585,4,0.24312240439387,2
6,586,4,0.166674329977048,1
7,580,4,0.11545329748453,1
7,581,4,0.222201268009338,2
7,582,4,0.371530290858474,2
7,583,4,0.451128074602118,2
7,584,4,0.375946759526523,2
7,585,4,0.204798065186921,2
7,586,4,0.107823330555751,1
8,580,4,0.0998110112756794,1
8,581,4,0.20710516365417,2
8,582,4,0.359114411019419,2
8,583,4,0.422245935479121,2
8,584,4,0.38829087681493,2
8,585,4,0.238341175438782,2
8,586,4,0.11193337051823,1
9,581,4,0.145135510618241,1
9,582,4,0.213646971542334,2
9,583,4,0.241965641749128,2
9,584,4,0.308235786544067,2
9,585,4,0.292514014704967,2
9,586,4,0.160051598593321,1
10,582,4,0.101878933919524,1
10,583,4,0.124419542363863,1
10,584,4,0.198891249121389,2
10,585,4,0.232216958495011,1
10,586,4,0.145573068283237,1
11,583,4,0.100139291176847,1
11,584,4,0.130405179591583,1
11,585,4,0.140940484101396,1
11,586,4,0.108349698189696,1
12,583,4,0.112587697272162,1
12,584,4,0.125921468934288,1
12,585,4,0.122238398719496,1
12,586,4,0.107820901434804,1
13,578,4,0.102840647955901,1
13,579,4,0.10966812264594,1
13,580,4,0.118342339258677,1
13,581,4,0.10802072114171,1
13,583,4,0.108694295683589,1
13,584,4,0.113703295575844,1
13,585,4,0.106889545963798,1
14,578,4,0.172228934398277,1
14,579,4,0.171709886805927,1
14,580,4,0.15755600905497,1
14,581,4,0.127538544551905,1
15,578,4,0.201456466198256,1
15,579,4,0.210684010419568,1
15,580,4,0.173197086149807,1
15,581,4,0.123669205421496,1
16,579,4,0.179462083179276,1
16,580,4,0.173515224743346,1
16,581,4,0.135393177935925,1
16,582,4,0.106453273663248,1
17,579,4,0.116916205618947,1
17,580,4,0.128230647949074,1
17,581,4,0.122338504645492,1
17,582,4,0.115392395174167,1
17,583,4,0.10634057552284,1
18,586,4,0.105113727836982,1
19,586,4,0.117398783718343,1
20,585,4,0.103478014434884,1
20,586,4,0.108402681347916,1
1,585,5,0.15144610540682,1
1,586,5,0.13033824260407,1
2,584,5,0.154881350820488,1
2,585,5,0.149547153723154,1
2,586,5,0.113423968452851,1
3,582,5,0.228158017215758,2
3,583,5,0.259503764266799,2
3,584,5,0.233181896835424,2
3,585,5,0.208583768484926,2
3,586,5,0.143643572854577,1
4,581,5,0.230173490454416,2
4,582,5,0.3889995701278,2
4,583,5,0.396704131766179,2
4,584,5,0.332436933353,2
4,585,5,0.332284933560689,2
4,586,5,0.242495451545491,2
4,587,5,0.118793502179557,1
5,580,5,0.132422548198154,2
5,581,5,0.314560019267286,2
5,582,5,0.486931182339292,2
5,583,5,0.422471244616585,2
5,584,5,0.307083119636884,2
5,585,5,0.309878634808137,2
5,586,5,0.249354069091071,2
5,587,5,0.129754578215963,1
6,580,5,0.147485047898077,2
6,581,5,0.317051273423859,2
6,582,5,0.443424384397263,2
6,583,5,0.384408945470108,2
6,584,5,0.282276195814189,2
6,585,5,0.219965409232623,2
6,586,5,0.164550929696522,1
7,580,5,0.126563759012678,1
7,581,5,0.249703121788852,2
7,582,5,0.382656971943076,2
7,583,5,0.402215818086383,2
7,584,5,0.327588320800719,2
7,585,5,0.184544011164518,2
7,586,5,0.100545499020841,1
8,580,5,0.10079940207079,1
8,581,5,0.200692676500872,2
8,582,5,0.338664023024204,2
8,583,5,0.350385152486763,2
8,584,5,0.294185445988603,2
8,585,5,0.183154782734501,1
9,581,5,0.126742740565456,1
9,582,5,0.196259476309175,2
9,583,5,0.201640316885847,2
9,584,5,0.219425730451608,2
9,585,5,0.212525240525231,1
9,586,5,0.123629435374074,1
10,583,5,0.107789704114668,1
10,584,5,0.15074707411314,1
10,585,5,0.178930900875114,1
10,586,5,0.11599996951957,1
11,584,5,0.104246324693671,1
11,585,5,0.112802560100264,1
13,578,5,0.118896995803375,1
13,579,5,0.123861922945186,1
13,580,5,0.117126918244894,1
14,578,5,0.221269901645412,1
14,579,5,0.208363274017678,1
14,580,5,0.156930755501961,1
14,581,5,0.116758269185757,1
15,577,5,0.146952242548978,1
15,578,5,0.25435415857555,1
15,579,5,0.240906762874897,1
15,580,5,0.179566698773755,1
15,581,5,0.139018951396556,1
15,582,5,0.102270076856483,1
16,578,5,0.158347891590563,1
16,579,5,0.17719986353848,1
16,580,5,0.182421602139625,1
16,581,5,0.166538419026161,1
16,582,5,0.122849055760989,1
17,579,5,0.105727903291325,1
17,580,5,0.130666217503504,1
17,581,5,0.135628508558907,1
17,582,5,0.114573879451516,1
19,586,5,0.105746464825372,1
20,586,5,0.104756037054401,1
1,585,6,0.15806868428968,1
1,586,6,0.142286838002063,1
2,582,6,0.160512260139606,2
2,583,6,0.194998904145963,2
2,584,6,0.182908831515453,1
2,585,6,0.153928765050268,1
2,586,6,0.115581267497435,1
3,581,6,0.179473433600918,2
3,582,6,0.302692793974536,2
3,583,6,0.317301636275119,2
3,584,6,0.242060257643927,2
3,585,6,0.200413011697389,1
3,586,6,0.139013690116659,1
4,581,6,0.257694145412196,2
4,582,6,0.448617561764679,2
4,583,6,0.436025216637144,2
4,584,6,0.311931645045813,2
4,585,6,0.309424291154897,2
4,586,6,0.248102538050664,1
4,587,6,0.120274950062183,1
5,580,6,0.120510193541813,2
5,581,6,0.288929699694209,2
5,582,6,0.466198253809966,2
5,583,6,0.401693088687397,2
5,584,6,0.268297857453593,2
5,585,6,0.267307800041869,2
5,586,6,0.243398975608346,1
5,587,6,0.132331102142797,1
6,580,6,0.13784028309162,2
6,581,6,0.315388796119675,2
6,582,6,0.4480269912659,2
6,583,6,0.358179144990476,2
6,584,6,0.245573768680911,2
6,585,6,0.182234951971841,1
6,586,6,0.145030960381276,1
7,580,6,0.12207315313763,1
7,581,6,0.245882060075637,2
7,582,6,0.355322455185884,2
7,583,6,0.319901013546102,2
7,584,6,0.250826922460573,2
7,585,6,0.149055937538956,1
8,581,6,0.167634540790596,1
8,582,6,0.269870337460652,2
8,583,6,0.25519838158714,2
8,584,6,0.20055353035303,1
8,585,6,0.129499139264429,1
9,582,6,0.152249839438331,1
9,583,6,0.152356579152023,1
9,584,6,0.14393813917131,1
9,585,6,0.13503450679063,1
10,584,6,0.103434486330392,1
10,585,6,0.119227367144998,1
13,578,6,0.122507758821566,1
13,579,6,0.130007631618227,1
13,580,6,0.105479719023873,1
14,577,6,0.126457553052019,1
14,578,6,0.245001040783523,1
14,579,6,0.232695222998468,1
14,580,6,0.148333998436532,1
15,577,6,0.138306445562021,1
15,578,6,0.268025273047487,1
15,579,6,0.244525499509827,1
15,580,6,0.171410277067678,1
15,581,6,0.143244401836285,1
15,582,6,0.101488749559441,1
16,578,6,0.14644738843014,1
16,579,6,0.155445309918047,1
16,580,6,0.170152558849255,1
16,581,6,0.1795263949733,1
16,582,6,0.124403900132119,1
17,580,6,0.11957720413295,1
17,581,6,0.136740937023149,1
17,582,6,0.105528050905662,1
1,584,7,0.17276556316196,1
1,585,7,0.157764837205923,1
1,586,7,0.147005345529307,1
2,582,7,0.198610647526868,2
2,583,7,0.232323643744108,2
2,584,7,0.211273600555633,1
2,585,7,0.154179302188233,1
2,586,7,0.120514256600616,1
3,581,7,0.223818975416259,2
3,582,7,0.375719010375194,2
3,583,7,0.352635890990889,2
3,584,7,0.235511979361852,2
3,585,7,0.173922761523463,1
3,586,7,0.12756964383577,1
4,580,7,0.115753898478412,1
4,581,7,0.28557110775184,2
4,582,7,0.486929395900569,2
4,583,7,0.434297948250499,2
4,584,7,0.265321519826244,2
4,585,7,0.245324451549879,1
4,586,7,0.218034116472321,1
4,587,7,0.113649658842481,1
5,580,7,0.112546010070988,1
5,581,7,0.259623237802851,2
5,582,7,0.421054947282749,2
5,583,7,0.365211177807204,2
5,584,7,0.231853374643229,2
5,585,7,0.213836464761988,1
5,586,7,0.213841954793185,1
5,587,7,0.125092191007623,1
6,580,7,0.123429158164568,1
6,581,7,0.281384000387138,2
6,582,7,0.4065173446727,2
6,583,7,0.32268999296593,2
6,584,7,0.212541231330384,2
6,585,7,0.149006494579425,1
6,586,7,0.122335106054751,1
7,580,7,0.11528081900442,1
7,581,7,0.226793896964133,1
7,582,7,0.306944409205804,2
7,583,7,0.245973168450504,2
7,584,7,0.180907126926464,1
7,585,7,0.116435021813187,1
8,581,7,0.140753387323931,1
8,582,7,0.200135786907771,1
8,583,7,0.178080675865132,1
8,584,7,0.134003949505908,1
9,582,7,0.113534891047455,1
9,583,7,0.113104076099346,1
13,578,7,0.128014837437015,1
13,579,7,0.135925275245287,1
14,577,7,0.123795868284116,1
14,578,7,0.263703137058342,1
14,579,7,0.250726969035444,1
14,580,7,0.136124397805374,1
15,577,7,0.135027143177358,1
15,578,7,0.272045588035818,1
15,579,7,0.238377405287516,1
15,580,7,0.148407285995846,1
15,581,7,0.126593583825015,1
16,578,7,0.141905890837328,1
16,579,7,0.13707293140971,1
16,580,7,0.140797155072642,1
16,581,7,0.16102192892866,1
16,582,7,0.113030886576303,1
17,580,7,0.108987130026194,1
17,581,7,0.128950441146448,1
1,583,8,0.206103842964157,1
1,584,8,0.213449504705941,1
1,585,8,0.153784194228743,1
1,586,8,0.135487706687371,1
1,587,8,0.101847671241874,1
2,582,8,0.223300450684024,2
2,583,8,0.257375549316057,2
2,584,8,0.230610754010598,1
2,585,8,0.149078366059264,1
2,586,8,0.116126262022943,1
3,581,8,0.242908162462153,2
3,582,8,0.420137632784387,2
3,583,8,0.356896242343228,2
3,584,8,0.219963884223957,2
3,585,8,0.143508402622186,1
3,586,8,0.108660440491206,1
4,580,8,0.111894972978607,1
4,581,8,0.287977070352314,2
4,582,8,0.491311137942712,2
4,583,8,0.393203452587826,2
4,584,8,0.215826252497544,2
4,585,8,0.172957398359208,1
4,586,8,0.161116599288054,1
5,580,8,0.106366642278107,1
5,581,8,0.237422379503431,2
5,582,8,0.381380931834824,2
5,583,8,0.319805765862,2
5,584,8,0.196161832182883,2
5,585,8,0.159749930093373,1
5,586,8,0.160898196261262,1
5,587,8,0.103699445693169,1
6,580,8,0.105191808280675,1
6,581,8,0.22338781189474,2
6,582,8,0.325784061262285,2
6,583,8,0.266245130431812,2
6,584,8,0.173201889927104,1
6,585,8,0.114868358624896,1
7,580,8,0.102069963040763,1
7,581,8,0.189575080110752,1
7,582,8,0.242044789698887,2
7,583,8,0.18613805915128,1
7,584,8,0.12806764630853,1
8,581,8,0.120650679518697,1
8,582,8,0.146584072778279,1
8,583,8,0.12290282320938,1
13,578,8,0.118988245786189,1
13,579,8,0.124864507213808,1
14,577,8,0.10955965095812,1
14,578,8,0.241274965324354,1
14,579,8,0.232093977439028,1
14,580,8,0.117541241313574,1
15,577,8,0.116763083855974,1
15,578,8,0.232249332250404,1
15,579,8,0.204235620205108,1
15,580,8,0.12082028226818,1
15,581,8,0.102659095674229,1
16,578,8,0.122776094989246,1
16,579,8,0.114809722041693,1
16,580,8,0.110712132685679,1
16,581,8,0.127288682774921,1
17,581,8,0.111350664706999,1
19,579,8,0.105711563912762,1
19,580,8,0.118380290188619,1
20,579,8,0.11831365820284,1
20,580,8,0.117213113913273,1
1,582,9,0.160840387539907,1
1,583,9,0.258714942641457,1
1,584,9,0.258467978380937,1
1,585,9,0.157512753273454,1
1,586,9,0.121591490043432,1
1,587,9,0.10688201895674,1
2,581,9,0.130990368988355,1
2,582,9,0.244557372190944,2
2,583,9,0.286921023637034,2
2,584,9,0.253228397178402,1
2,585,9,0.149886293864606,1
2,586,9,0.106989303316384,1
3,581,9,0.238176322002001,2
3,582,9,0.429992848786735,2
3,583,9,0.349053994208159,2
3,584,9,0.206272116777517,2
3,585,9,0.12075945620825,1
4,580,9,0.10243576904803,1
4,581,9,0.27066660984262,2
4,582,9,0.469873437551371,2
4,583,9,0.344673450387111,2
4,584,9,0.172966221623632,2
4,585,9,0.116556368931314,1
4,586,9,0.108439314234655,1
5,581,9,0.223430076420623,2
5,582,9,0.36221523292558,2
5,583,9,0.287550460070954,2
5,584,9,0.161687976463481,1
5,585,9,0.111760412749682,1
5,586,9,0.107991092401916,1
6,581,9,0.1669036368158,1
6,582,9,0.24346180596538,2
6,583,9,0.210467197758957,1
6,584,9,0.135223575186442,1
7,581,9,0.146428380286412,1
7,582,9,0.175076757366769,1
7,583,9,0.139967485000892,1
8,581,9,0.107027134424217,1
8,582,9,0.11398577075244,1
13,578,9,0.100854215239409,1
13,579,9,0.102993802397631,1
14,578,9,0.188730639240781,1
14,579,9,0.184268725314489,1
15,578,9,0.168067174856186,1
15,579,9,0.155190088824894,1
18,580,9,0.109391660360655,1
19,579,9,0.13234004522933,1
19,580,9,0.166594430415875,1
19,581,9,0.117970890719346,1
20,579,9,0.150215325377188,1
20,580,9,0.168441531804901,1
20,581,9,0.108237958626164,1
1,582,10,0.189653269483635,1
1,583,10,0.303479175586014,2
1,584,10,0.285026548943094,1
1,585,10,0.16827383531625,1
1,586,10,0.127980372241166,1
1,587,10,0.122633822573638,1
2,581,10,0.130763491270549,1
2,582,10,0.278841527725231,2
2,583,10,0.341169960835645,2
2,584,10,0.278450493717462,2
2,585,10,0.15464368911283,1
2,586,10,0.106182148908294,1
3,581,10,0.211726528129398,2
3,582,10,0.410618441548646,2
3,583,10,0.344068087304273,2
3,584,10,0.197894960959973,2
3,585,10,0.106923662586237,1
4,581,10,0.244350755302556,2
4,582,10,0.442136797794827,2
4,583,10,0.312503349008812,2
4,584,10,0.14644897879632,2
5,581,10,0.202455063658509,2
5,582,10,0.343972665333465,2
5,583,10,0.256973164886647,2
5,584,10,0.129459489039117,1
6,581,10,0.124733988257848,1
6,582,10,0.184456595489206,2
6,583,10,0.160887020126325,1
6,584,10,0.101188660532754,1
7,581,10,0.104519181422753,1
7,582,10,0.118395115451435,1
7,583,10,0.0998447466459523,1
14,578,10,0.135765312729155,1
14,579,10,0.134516112773423,1
15,578,10,0.114330019672923,1
15,579,10,0.113086712786393,1
18,580,10,0.100459466746247,1
19,579,10,0.13194709406781,1
19,580,10,0.178831154415447,1
19,581,10,0.116450631366174,1
20,579,10,0.152286243573769,1
20,580,10,0.186953132711514,1
20,581,10,0.110622353246935,1
23,583,10,0.103338182033142,1
24,583,10,0.110857945299974,1
24,584,10,0.101472715182611,1
1,582,11,0.209043602169363,1
1,583,11,0.320503174110742,2
1,584,11,0.281606564509004,1
1,585,11,0.184963628191852,1
1,586,11,0.145343979302866,1
1,587,11,0.133678686943316,1
2,581,11,0.128395043883255,1
2,582,11,0.305492317739996,2
2,583,11,0.382504514648164,2
2,584,11,0.277305277566905,2
2,585,11,0.152765782548753,1
2,586,11,0.10632408364341,1
3,581,11,0.175864152019717,2
3,582,11,0.365636197722384,2
3,583,11,0.326753400341991,2
3,584,11,0.18259391722595,2
4,581,11,0.202390272576047,2
4,582,11,0.384436526341123,2
4,583,11,0.274772412459592,2
4,584,11,0.125404785105371,1
5,581,11,0.159751618495824,1
5,582,11,0.288448210886717,2
5,583,11,0.213260534346401,1
5,584,11,0.101561862832051,1
6,582,11,0.140337724426209,1
6,583,11,0.122657187884983,1
19,579,11,0.113926044877333,1
19,580,11,0.156949480429794,1
19,581,11,0.102808949561489,1
20,579,11,0.1324156529804,1
20,580,11,0.170361081998475,1
20,581,11,0.101842039602729,1
23,583,11,0.107228315746003,1
24,582,11,0.100558091235253,1
24,583,11,0.142485263415331,1
24,584,11,0.099995744289712,1
25,583,11,0.109782476510043,1
1,582,12,0.201019289785426,1
1,583,12,0.31685581088457,2
1,584,12,0.27936841821929,1
1,585,12,0.215661573347468,1
1,586,12,0.157095761439609,1
1,587,12,0.133286443821534,1
1,588,12,0.103654534187959,1
2,581,12,0.118999912102483,1
2,582,12,0.296607116178336,2
2,583,12,0.387367244423524,2
2,584,12,0.25472061815796,2
2,585,12,0.151235926533905,1
2,586,12,0.102717623328241,1
3,581,12,0.14876800500992,2
3,582,12,0.321958533452262,2
3,583,12,0.310627719064815,2
3,584,12,0.163022130294821,2
4,581,12,0.164775672402196,1
4,582,12,0.320108044365414,2
4,583,12,0.241889609174215,2
4,584,12,0.111800444227161,1
5,581,12,0.122105614036375,1
5,582,12,0.220944704440333,1
5,583,12,0.166854226535026,1
6,582,12,0.108655364390933,1
19,580,12,0.115899754664384,1
20,579,12,0.102289313751511,1
20,580,12,0.130523389549026,1
24,582,12,0.110114242145304,1
24,583,12,0.137084238259675,1
25,583,12,0.106725367887997,1
1,582,13,0.172708397122827,1
1,583,13,0.293110924882628,2
1,584,13,0.285632783459455,1
1,585,13,0.239094769363943,1
1,586,13,0.155635772607496,1
1,587,13,0.122987548333688,1
1,588,13,0.101358154353047,1
2,581,13,0.101006465568858,1
2,582,13,0.252463322116571,2
2,583,13,0.34938553109212,2
2,584,13,0.233349952790404,2
2,585,13,0.149676093205853,1
3,581,13,0.123330185102153,1
3,582,13,0.276120476548549,2
3,583,13,0.293459345791104,2
3,584,13,0.152970874428475,1
4,581,13,0.125975998887012,1
4,582,13,0.242744027958029,1
4,583,13,0.2060383111632,1
4,584,13,0.102828785567064,1
5,582,13,0.155946710981549,1
5,583,13,0.125470861552279,1
24,582,13,0.107939459965657,1
24,583,13,0.11288698022284,1
1,582,14,0.130723176577175,1
1,583,14,0.2397749668006,1
1,584,14,0.26548256074136,1
1,585,14,0.231015578453873,1
1,586,14,0.1473133319223,1
1,587,14,0.108199724480327,1
2,582,14,0.182665276738594,1
2,583,14,0.274551896206506,2
2,584,14,0.20613893994931,1
2,585,14,0.142078598068738,1
3,582,14,0.207638655257169,1
3,583,14,0.249323242130183,1
3,584,14,0.139252746117953,1
4,582,14,0.16106410631119,1
4,583,14,0.157965288702133,1
4,600,14,0.139424669059193,1
5,582,14,0.101199292021739,1
29,591,14,0.114062838154662,1
1,583,15,0.175858607523924,1
1,584,15,0.217916080801583,1
1,585,15,0.206279872535875,1
1,586,15,0.143620174864475,1
2,582,15,0.123651341034267,1
2,583,15,0.199101961747337,1
2,584,15,0.178606999927402,1
2,585,15,0.136016743086482,1
3,582,15,0.141477298044703,1
3,583,15,0.195055874112553,1
3,584,15,0.131445943541447,1
3,600,15,0.101151679072607,1
4,582,15,0.106012295621672,1
4,583,15,0.121076374794857,1
4,600,15,0.137068661385445,1
1,583,16,0.114880166549137,1
1,584,16,0.156796565632283,1
1,585,16,0.175230456454451,1
1,586,16,0.140356830606209,1
1,592,16,0.100372334286831,1
2,583,16,0.130622133860141,1
2,584,16,0.142055864546697,1
2,585,16,0.124940964612564,1
3,583,16,0.131525254884991,1
3,584,16,0.11374984101891,1
3,599,16,0.100259200429661,1
3,600,16,0.121491384117437,1
3,601,16,0.107515409520273,1
4,599,16,0.105075362976116,1
4,600,16,0.142495154185822,1
30,584,16,0.106323691498325,1
30,585,16,0.106364637981004,1
1,584,17,0.108350286407325,1
1,585,17,0.143689813295911,1
1,586,17,0.127177204641445,1
1,592,17,0.112624972841123,1
2,584,17,0.11179613063122,1
2,585,17,0.11498281052527,1
2,599,17,0.113106712185754,1
2,600,17,0.113046343628423,1
3,584,17,0.102459864184951,1
3,599,17,0.127755760250521,1
3,600,17,0.141708304178826,1
3,601,17,0.105220206120617,1
4,599,17,0.112094923400541,1
4,600,17,0.14009097802407,1
4,601,17,0.125306062580093,1
30,584,17,0.140546051502886,1
30,585,17,0.133906958954759,1
1,585,18,0.110350531345162,1
1,586,18,0.103307714538582,1
1,592,18,0.109671488557924,1
1,599,18,0.113526688679417,1
1,600,18,0.105142234606115,1
2,585,18,0.103845389022493,1
2,599,18,0.144562172717386,1
2,600,18,0.135415029131523,1
3,599,18,0.141885379470772,1
3,600,18,0.147978638738626,1
3,601,18,0.10056358126645,1
4,599,18,0.103741383431481,1
4,600,18,0.122481757423813,1
4,601,18,0.100020296929233,1
30,584,18,0.147462172768089,1
30,585,18,0.136724608537505,1
1,598,19,0.114888314452581,1
1,599,19,0.140470585359764,1
1,600,19,0.118806442967379,1
2,598,19,0.102973280138156,1
2,599,19,0.153272662750533,1
2,600,19,0.139773787114488,1
3,599,19,0.131636003192891,1
3,600,19,0.134162593978836,1
30,584,19,0.127118066983966,1
30,585,19,0.116621203585452,1
1,596,20,0.101252144464931,1
1,597,20,0.113431168672338,1
1,598,20,0.149455413558982,1
1,599,20,0.169372397094551,1
2,598,20,0.112960137067125,1
2,599,20,0.146812039787989,1
2,600,20,0.135589010834461,1
3,599,20,0.110631862765259,1
3,600,20,0.115722908123738,1
28,593,20,0.111628194498351,1
29,591,20,0.101535480182131,1
29,592,20,0.137946870304446,1
29,593,20,0.135087794950584,1
30,591,20,0.11803894967752,1
1,597,21,0.125000254770909,1
1,598,21,0.178748281087376,1
2,598,21,0.123993139047966,1
2,599,21,0.140805891193713,1
27,593,21,0.101119501389757,1
27,594,21,0.194483211572679,1
28,593,21,0.143035737079117,1
28,594,21,0.210940974379768,1
29,591,21,0.104692694730172,1
29,592,21,0.176651154527579,1
29,593,21,0.189838361963996,1
30,591,21,0.142869336847832,1
30,592,21,0.253057247634415,1
1,597,22,0.130758044811028,1
1,598,22,0.202508438961815,1
1,599,22,0.216482224082251,1
2,597,22,0.0997036833443589,1
2,598,22,0.151319224685819,1
2,599,22,0.161234068527002,1
2,600,22,0.132684337721489,1
4,584,22,0.110235208011265,1
4,585,22,0.118352850925553,1
5,584,22,0.147663561055337,1
5,585,22,0.138837148577746,1
6,584,22,0.118917038774412,1
6,585,22,0.100398455506693,1
26,594,22,0.106048786900463,1
27,593,22,0.104174071961665,1
27,594,22,0.216408544377851,1
27,595,22,0.212119936793517,1
27,596,22,0.100640746704944,1
28,593,22,0.162731801323595,1
28,594,22,0.254465789209892,1
28,595,22,0.203721169424594,1
29,591,22,0.0998425462763058,1
29,592,22,0.194646387499927,1
29,593,22,0.239027146122531,1
30,592,22,0.310683904741233,1
1,588,23,0.105724624522693,1
1,589,23,0.113233462191726,1
1,597,23,0.126505797790456,1
1,598,23,0.202827841133963,1
1,599,23,0.224311073926899,1
1,600,23,0.167057314117644,1
2,597,23,0.104559953618727,1
2,598,23,0.179072552394336,1
2,599,23,0.196955076333356,1
2,600,23,0.151839884430187,1
3,585,23,0.100418607406921,1
3,599,23,0.106410802171904,1
3,601,23,0.112621280141568,1
4,584,23,0.126184260606175,1
4,585,23,0.150920543848883,1
4,586,23,0.104293447461446,1
5,584,23,0.176730149976472,1
5,585,23,0.179089763206422,1
6,584,23,0.132143591434408,1
6,585,23,0.118442031253749,1
26,595,23,0.120981639077949,1
27,593,23,0.101059470512917,1
27,594,23,0.20126518653988,1
27,595,23,0.22059863640237,1
27,596,23,0.121565771861574,1
28,593,23,0.161959918187363,1
28,594,23,0.248439630323337,1
28,595,23,0.219767354178602,1
29,592,23,0.178716157869121,1
29,593,23,0.255676253945511,1
1,588,24,0.114513303928723,1
1,589,24,0.126271305922239,1
1,597,24,0.119848187279957,1
1,598,24,0.179656641606285,1
1,599,24,0.206874560558051,1
1,600,24,0.17145448053315,1
1,601,24,0.159979531040939,1
1,603,24,0.130385713945255,1
1,604,24,0.11818187566827,1
1,605,24,0.126633854946713,1
1,606,24,0.138261926201897,1
2,597,24,0.105525872321854,1
2,598,24,0.179838041387091,1
2,599,24,0.205451182826838,1
2,600,24,0.165213033994649,1
2,601,24,0.182303348610505,1
2,606,24,0.124596029438181,1
3,585,24,0.122851463096097,1
3,586,24,0.120923220353127,1
3,598,24,0.108688239220601,1
3,599,24,0.118238987242807,1
3,600,24,0.0997757944684167,1
3,601,24,0.122490351936937,1
3,602,24,0.148143546640002,1
3,603,24,0.103538611743515,1
4,584,24,0.140792264151992,1
4,585,24,0.202148558702506,1
4,586,24,0.155300074628461,1
5,584,24,0.175117202775171,1
5,585,24,0.199853333517013,1
5,586,24,0.114678691118537,1
6,584,24,0.125632904615947,1
6,585,24,0.121819446160223,1
26,595,24,0.119848002100333,1
26,596,24,0.109080700200764,1
27,594,24,0.167907985737307,1
27,595,24,0.201128022903303,1
28,588,24,0.106558717119574,1
28,593,24,0.154066604047825,1
28,594,24,0.225912289454391,1
29,588,24,0.138972950599442,1
1,587,25,0.107148089397259,1
1,588,25,0.111715392315281,1
1,589,25,0.119885375705566,1
1,590,25,0.100957131538517,1
1,597,25,0.114791411044784,1
1,598,25,0.147996753662992,1
1,599,25,0.171118717196601,1
1,600,25,0.18088477465659,1
1,601,25,0.174974581786155,1
1,602,25,0.164002427651083,1
1,603,25,0.119122718871762,1
1,604,25,0.108865456120495,1
1,605,25,0.130924259862689,1
1,606,25,0.154372161319871,1
1,607,25,0.132887011373184,1
2,586,25,0.100141556904008,1
2,587,25,0.100646007984841,1
2,598,25,0.15465790437218,1
2,599,25,0.178379425062777,1
2,600,25,0.170489062904299,1
2,601,25,0.185115867628383,1
2,602,25,0.205996395210727,1
2,603,25,0.136195713746341,1
2,604,25,0.107279327285876,1
2,605,25,0.120309469722627,1
2,606,25,0.121995323231075,1
3,585,25,0.15868675940904,1
3,586,25,0.161369129830203,1
3,587,25,0.108277587065639,1
3,598,25,0.10447942226825,1
3,599,25,0.114724267091809,1
3,600,25,0.103153329197,1
3,601,25,0.122576482247802,1
3,602,25,0.152917967520688,1
3,603,25,0.110901135723976,1
3,605,25,0.104401832005914,1
3,610,25,0.124875312989498,1
4,584,25,0.144898437128211,1
4,585,25,0.253043805772317,1
4,586,25,0.214974099440892,1
4,587,25,0.107490148841014,1
5,584,25,0.14712583210683,1
5,585,25,0.194902109667356,1
5,586,25,0.135536365356732,1
6,584,25,0.107027591926816,1
6,585,25,0.111555451584988,1
15,613,25,0.123782045169852,1
24,608,25,0.112007170044739,1
25,598,25,0.104863168913179,1
25,607,25,0.103603598898519,1
26,595,25,0.114334355054702,1
26,596,25,0.11954786950197,1
27,594,25,0.13392468173404,1
27,595,25,0.171639159082588,1
28,588,25,0.146592024609179,1
28,589,25,0.104491066798705,1
29,588,25,0.163429656182019,1
29,589,25,0.108454074139956,1
1,587,26,0.116905388950338,1
1,588,26,0.105296685305211,1
1,589,26,0.104018226968932,1
1,590,26,0.100338065163525,1
1,597,26,0.115282899551957,1
1,598,26,0.127509340635954,1
1,599,26,0.140620264960319,1
1,600,26,0.180558237622469,1
1,601,26,0.188223617431054,1
1,602,26,0.143223334930858,1
1,603,26,0.105818880951163,1
1,604,26,0.104826350846817,1
1,605,26,0.132507676360467,1
1,606,26,0.152698693060374,1
1,607,26,0.127467914864837,1
1,608,26,0.10049013031335,1
2,586,26,0.117217253222509,1
2,587,26,0.122615892828895,1
2,598,26,0.125105611083883,1
2,599,26,0.138850089365567,1
2,600,26,0.156012743856781,1
2,601,26,0.168379278772576,1
2,602,26,0.159444601572627,1
2,603,26,0.120821752812251,1
2,604,26,0.102280490487087,1
2,605,26,0.112882666626899,1
2,606,26,0.119846651378372,1
3,585,26,0.173880420747147,1
3,586,26,0.190525770513058,1
3,587,26,0.130189456222876,1
3,601,26,0.10896603044201,1
3,602,26,0.129719437659134,1
3,603,26,0.106780464272512,1
3,610,26,0.133596096831139,1
3,611,26,0.170660495664182,1
4,584,26,0.129077507047072,1
4,585,26,0.253067465192476,1
4,586,26,0.23777350185583,1
4,587,26,0.1231843398091,1
4,609,26,0.113064621946576,1
4,610,26,0.167031715757895,1
5,584,26,0.113095906410064,1
5,585,26,0.166387976921272,1
5,586,26,0.141694230527423,1
5,609,26,0.100256041483139,1
6,610,26,0.122512704206811,1
6,611,26,0.160479821026699,1
7,612,26,0.108625964402439,1
7,613,26,0.148600123341646,1
8,613,26,0.16165284679957,1
8,614,26,0.190732932047398,1
8,615,26,0.16179611047081,1
9,613,26,0.107605984142106,1
9,614,26,0.109434251674109,1
12,613,26,0.10928165277125,1
12,614,26,0.164689618341764,1
13,613,26,0.119751817625193,1
13,614,26,0.167034580595603,1
14,612,26,0.109054382908359,1
14,613,26,0.127612202470467,1
15,611,26,0.121535772762533,1
15,612,26,0.141422365053974,1
15,613,26,0.175630923730109,1
16,611,26,0.137994733790716,1
16,612,26,0.165527915605395,1
17,611,26,0.127363778558796,1
19,610,26,0.126647198772539,1
19,611,26,0.129538549845523,1
20,609,26,0.118231046304825,1
20,610,26,0.134495416227244,1
21,609,26,0.113724591232571,1
22,608,26,0.100637925438912,1
23,607,26,0.107043560946132,1
23,608,26,0.141800632560625,1
24,607,26,0.121731758161936,1
25,597,26,0.122118369644573,1
25,606,26,0.130770843990902,1
26,595,26,0.105430025527203,1
26,597,26,0.198460150957384,1
26,598,26,0.218731960437826,1
27,588,26,0.102620175274492,1
28,588,26,0.161612586570791,1
28,589,26,0.120939036871576,1
1,587,27,0.114887856949981,1
1,597,27,0.110719136832623,1
1,598,27,0.118982123965688,1
1,599,27,0.130234618265224,1
1,600,27,0.169598969810624,1
1,601,27,0.185993706188136,1
1,602,27,0.129653677106878,1
1,603,27,0.0998814122114476,1
1,604,27,0.104388945682687,1
1,605,27,0.124590975123746,1
1,606,27,0.13375095056824,1
1,607,27,0.113437442993706,1
2,586,27,0.133951086169798,1
2,587,27,0.143528042555218,1
2,588,27,0.100446438815073,1
2,598,27,0.106676186358523,1
2,599,27,0.113853018748076,1
2,600,27,0.133916054542159,1
2,601,27,0.146571110204619,1
2,602,27,0.120472406005656,1
2,603,27,0.102999913325213,1
2,605,27,0.106689660899378,1
2,606,27,0.113916480894414,1
2,607,27,0.100211064620414,1
3,585,27,0.165419443917576,1
3,586,27,0.209811247960088,1
3,587,27,0.157099704676302,1
3,609,27,0.106125211620461,1
3,610,27,0.135039125388304,1
3,611,27,0.159754319939747,1
4,584,27,0.103951366231852,1
4,585,27,0.207428465491335,1
4,586,27,0.22501225112563,1
4,587,27,0.134176504236452,1
4,609,27,0.122681805882018,1
4,610,27,0.166812778978071,1
5,585,27,0.134645825653375,1
5,586,27,0.141617914736615,1
5,609,27,0.102423285762808,1
5,610,27,0.158239931869938,1
5,611,27,0.205180602717836,1
6,610,27,0.12652610219155,1
6,611,27,0.173777972843558,1
6,612,27,0.175191100337952,1
7,611,27,0.104489378396254,1
7,612,27,0.120335503799137,1
7,613,27,0.163521864741709,1
8,612,27,0.112853190387971,1
8,613,27,0.171016421793878,1
8,614,27,0.196953006678739,1
9,613,27,0.116146206957708,1
9,614,27,0.116815598618675,1
12,613,27,0.125292065179124,1
13,612,27,0.109253429218013,1
13,613,27,0.14918529095258,1
14,612,27,0.13389773265233,1
15,583,27,0.10073004685525,1
15,611,27,0.138620793419734,1
15,612,27,0.187311052245395,1
16,611,27,0.167435124121695,1
17,610,27,0.100064075570862,1
17,611,27,0.150683655538478,1
18,610,27,0.118381183407981,1
19,610,27,0.143284062954517,1
20,609,27,0.120445032100104,1
22,608,27,0.103398507018797,1
23,607,27,0.12841272309086,1
24,597,27,0.100662140397942,1
24,598,27,0.113560750837261,1
25,596,27,0.101210010654076,1
25,597,27,0.177133547447353,1
25,598,27,0.195542961880433,1
26,596,27,0.154196567464915,1
26,597,27,0.254614325053949,1
26,598,27,0.257238930325433,1
26,599,27,0.134645967261323,1
27,597,27,0.219975931792417,1
27,598,27,0.171959617867883,1
1,587,28,0.104821699570386,1
1,596,28,0.108480173573981,1
1,597,28,0.11282785345828,1
1,598,28,0.120764957132366,1
1,599,28,0.137425110375255,1
1,600,28,0.158671814324114,1
1,601,28,0.168428928697569,1
1,602,28,0.129031364642011,1
1,603,28,0.10537401413749,1
1,604,28,0.104382181179962,1
1,605,28,0.114300478076481,1
1,606,28,0.117614027798613,1
1,607,28,0.108555182214504,1
1,608,28,0.101559978357057,1
2,586,28,0.144057111633086,1
2,587,28,0.158256521785639,1
2,588,28,0.103711700227091,1
2,596,28,0.107997366723284,1
2,597,28,0.10525007450463,1
2,598,28,0.10299278935616,1
2,599,28,0.109476276555773,1
2,600,28,0.122308581796884,1
2,601,28,0.130493052769494,1
2,602,28,0.107054148863441,1
2,606,28,0.103285776199632,1
2,607,28,0.104704001580138,1
2,608,28,0.107701471470428,1
2,609,28,0.110568139188863,1
2,610,28,0.114806780953552,1
3,585,28,0.144170103882309,1
3,586,28,0.215531424750755,1
3,587,28,0.191861503817659,1
3,588,28,0.105594094673813,1
3,608,28,0.106760421301474,1
3,609,28,0.130079949707747,1
3,610,28,0.139586047654799,1
3,611,28,0.149954941040409,1
4,585,28,0.157884539493275,1
4,586,28,0.202786774829175,1
4,587,28,0.157772418677576,1
4,609,28,0.137531349014671,1
4,610,28,0.161374118787125,1
4,611,28,0.175928398456226,1
5,585,28,0.115384476022023,1
5,586,28,0.140977334846515,1
5,587,28,0.113948527862236,1
5,609,28,0.107966212974824,1
5,610,28,0.152478372879831,1
5,611,28,0.184926265479538,1
6,610,28,0.120970920445612,1
6,611,28,0.164418395550538,1
6,612,28,0.179102311849159,1
7,611,28,0.108144737025003,1
7,612,28,0.133905989484964,1
7,613,28,0.173342430368584,1
8,612,28,0.12157877800691,1
8,613,28,0.159908596352138,1
8,614,28,0.172499078790517,1
9,613,28,0.116863549248298,1
11,613,28,0.115538055287596,1
12,612,28,0.124567228560234,1
12,613,28,0.150735484047279,1
13,611,28,0.100727388983003,1
13,612,28,0.136644229687894,1
14,611,28,0.105749830737356,1
14,612,28,0.156072066693883,1
15,583,28,0.10055153369799,1
15,611,28,0.138007031896315,1
16,610,28,0.100163005061601,1
16,611,28,0.174539344312915,1
17,610,28,0.116205823903625,1
19,609,28,0.107003180895243,1
20,583,28,0.10568463661689,1
24,597,28,0.136201356278405,1
24,598,28,0.155696467952398,1
25,596,28,0.120334087719662,1
25,597,28,0.223768693701962,1
25,598,28,0.238483131959737,1
25,599,28,0.133236859254055,1
26,596,28,0.167552310144749,1
26,597,28,0.255835290563524,1
26,598,28,0.240613656209316,1
26,599,28,0.119200657707508,1
27,597,28,0.195197438488422,1
27,598,28,0.146361160083004,1
1,595,29,0.107049116334843,1
1,596,29,0.132200016755046,1
1,597,29,0.137584027171158,1
1,598,29,0.128735894212997,1
1,599,29,0.14278829353016,1
1,600,29,0.151999585516261,1
1,601,29,0.156059844838718,1
1,602,29,0.14582055540387,1
1,603,29,0.121739971422893,1
1,604,29,0.103344489033268,1
1,605,29,0.104461361808478,1
1,606,29,0.1135773625388,1
1,607,29,0.117115851039148,1
1,608,29,0.106158304308511,1
1,609,29,0.100115174254088,1
2,586,29,0.130446191431776,1
2,587,29,0.151626241609017,1
2,588,29,0.102485952726057,1
2,595,29,0.112410720016487,1
2,596,29,0.150875229305669,1
2,597,29,0.139708233527693,1
2,598,29,0.111664576847951,1
2,599,29,0.114017360217662,1
2,600,29,0.12185575225939,1
2,601,29,0.123478513980747,1
2,602,29,0.110371173426746,1
2,607,29,0.10760696450482,1
2,608,29,0.12767936820928,1
2,609,29,0.140141401346316,1
2,610,29,0.134849098415617,1
3,585,29,0.111618009619046,1
3,586,29,0.19489899429251,1
3,587,29,0.21791531829725,1
3,588,29,0.12643502649544,1
3,595,29,0.10660868293922,1
3,596,29,0.143082620202674,1
3,597,29,0.118010105227897,1
3,608,29,0.13770089729956,1
3,609,29,0.167505350770759,1
3,610,29,0.155077619435786,1
3,611,29,0.161397396955117,1
4,585,29,0.116890302257465,1
4,586,29,0.177849800446038,1
4,587,29,0.188223573859378,1
4,588,29,0.112601084669664,1
4,608,29,0.10884788584208,1
4,609,29,0.148022809525341,1
4,610,29,0.154105600697995,1
4,611,29,0.172836454279085,1
5,585,29,0.101015735442963,1
5,586,29,0.1308577368061,1
5,587,29,0.125615062014557,1
5,609,29,0.107165931998649,1
5,610,29,0.137651497911704,1
5,611,29,0.160131759584551,1
5,612,29,0.211396341967398,1
6,610,29,0.10650510217205,1
6,611,29,0.140626256065792,1
6,612,29,0.171532506512248,1
6,613,29,0.200732893157975,1
7,611,29,0.103464561679867,1
7,612,29,0.136807950261095,1
7,613,29,0.167395484789302,1
8,612,29,0.117483606878923,1
8,613,29,0.140522141545589,1
8,614,29,0.137881850470685,1
9,613,29,0.108546544129704,1
10,613,29,0.110712317865302,1
11,612,29,0.121230574956815,1
11,613,29,0.152655491743453,1
12,611,29,0.107389204160252,1
12,612,29,0.149870030736476,1
12,613,29,0.17484706927585,1
13,611,29,0.124788354816786,1
13,612,29,0.166409163648809,1
13,613,29,0.192845069049634,1
14,611,29,0.123111357251519,1
14,612,29,0.177890790500393,1
15,611,29,0.134642753850205,1
16,610,29,0.105346237193933,1
16,611,29,0.177501194357938,1
17,610,29,0.139702275100977,1
18,601,29,0.112211183525476,1
20,582,29,0.10777626225257,1
20,583,29,0.139876354840187,1
22,602,29,0.104814771673875,1
22,603,29,0.12029499303322,1
23,597,29,0.100491753358288,1
23,598,29,0.114292123207576,1
24,597,29,0.180161593761394,1
24,598,29,0.213436062843843,1
25,596,29,0.144765434586709,1
25,597,29,0.26062643207494,1
25,598,29,0.282214432963221,1
25,599,29,0.141459313835364,1
26,596,29,0.180108980962421,1
26,597,29,0.2249225370444,1
26,598,29,0.202715556924479,1
26,599,29,0.105671750293664,1
27,597,29,0.155877671660661,1
27,598,29,0.116864834612745,1
1,595,30,0.113978058565758,1
1,596,30,0.152207760092072,1
1,597,30,0.171407194371589,1
1,598,30,0.1367060143247,1
1,599,30,0.135270120629508,1
1,600,30,0.148543556413061,1
1,601,30,0.157058921587409,1
1,602,30,0.169536901957923,1
1,603,30,0.139593803413157,1
1,604,30,0.106086563543701,1
1,605,30,0.100952218832029,1
1,606,30,0.120885944784165,1
1,607,30,0.141509410370038,1
1,608,30,0.129721017132395,1
1,609,30,0.119763015545968,1
2,587,30,0.129130348597345,1
2,595,30,0.12130180375443,1
2,596,30,0.180947964479952,1
2,597,30,0.175326717180025,1
2,598,30,0.122135264562007,1
2,599,30,0.11779575436699,1
2,600,30,0.131389561792486,1
2,601,30,0.127078013720649,1
2,602,30,0.121676868742883,1
2,603,30,0.100167035441647,1
2,607,30,0.120804095390484,1
2,608,30,0.164568412831584,1
2,609,30,0.185763495237103,1
2,610,30,0.160935297543519,1
3,586,30,0.152620242257434,1
3,587,30,0.21044203511597,1
3,588,30,0.140946671279412,1
3,595,30,0.119276788318692,1
3,596,30,0.182066275120476,1
3,597,30,0.14899552540995,1
3,598,30,0.10201678381,1
3,599,30,0.101260597370107,1
3,600,30,0.104473017231853,1
3,608,30,0.175245957078247,1
3,609,30,0.215700025351686,1
3,610,30,0.184140537443203,1
3,611,30,0.18858295304441,1
4,586,30,0.145127406286473,1
4,587,30,0.194314741686776,1
4,588,30,0.132148253603758,1
4,599,30,0.104265223908209,1
4,608,30,0.116666746879967,1
4,609,30,0.152143154189234,1
4,610,30,0.148200788929567,1
4,611,30,0.173204798336489,1
5,586,30,0.109163388349212,1
5,587,30,0.121160696881161,1
5,610,30,0.116020219456069,1
5,611,30,0.13496640426078,1
5,612,30,0.181000795137306,1
6,611,30,0.11788978204416,1
6,612,30,0.161977172571126,1
6,613,30,0.204322414984034,1
7,611,30,0.101007718254548,1
7,612,30,0.136730022318269,1
7,613,30,0.163037162523099,1
8,612,30,0.113012052719279,1
8,613,30,0.131904295788894,1
10,612,30,0.101446452354801,1
10,613,30,0.137831296433411,1
11,612,30,0.14682805237898,1
11,613,30,0.203544311991029,1
12,611,30,0.118546134881033,1
12,612,30,0.181252432460094,1
12,613,30,0.209806128288138,1
12,616,30,0.218757776655955,1
13,611,30,0.144625427898263,1
13,612,30,0.200695987948261,1
13,613,30,0.213280577317438,1
14,611,30,0.142662774424039,1
14,613,30,0.25450299942134,1
15,600,30,0.100937121246237,1
15,601,30,0.104385601556541,1
16,601,30,0.101093696064546,1
16,610,30,0.115790444221798,1
17,600,30,0.102682406520978,1
17,601,30,0.116084019282898,1
18,598,30,0.113706487201123,1
18,599,30,0.108417604647004,1
18,600,30,0.123094157332352,1
18,601,30,0.149536478662493,1
18,602,30,0.10660515363345,1
19,597,30,0.101182516926415,1
19,598,30,0.121681825021047,1
19,599,30,0.108843495995707,1
19,600,30,0.103881706014579,1
19,601,30,0.119779060815717,1
20,582,30,0.105843629663227,1
20,583,30,0.141808453676497,1
20,596,30,0.102277287968889,1
20,597,30,0.119044997894398,1
20,598,30,0.122715083749691,1
20,599,30,0.110202899613386,1
21,596,30,0.115545821938873,1
21,597,30,0.135127031244973,1
21,598,30,0.129466885331146,1
21,599,30,0.122081050503935,1
21,603,30,0.114417598742021,1
22,596,30,0.103170790546225,1
22,597,30,0.120618349334981,1
22,598,30,0.111606735447838,1
22,599,30,0.105579879414464,1
22,602,30,0.144000315953202,1
22,603,30,0.173761175962395,1
23,597,30,0.121673775153875,1
23,598,30,0.128838603546644,1
23,602,30,0.121608864249304,1
24,596,30,0.112590997826631,1
24,597,30,0.201979457027299,1
24,598,30,0.239551683746078,1
24,599,30,0.129364960287671,1
25,596,30,0.156644228159481,1
25,597,30,0.256793693152512,1
25,598,30,0.2827774879485,1
25,599,30,0.145070327390693,1
26,597,30,0.188552583586121,1
26,598,30,0.169365338483012,1
1,595,31,0.119557585985755,1
1,596,31,0.166410252940713,1
1,597,31,0.203695222491436,1
1,598,31,0.148105105528703,1
1,599,31,0.119071718224808,1
1,600,31,0.142846548861196,1
1,601,31,0.165773866824444,1
1,602,31,0.184547758328668,1
1,603,31,0.149547382474454,1
1,604,31,0.108798072523302,1
1,606,31,0.122751106632963,1
1,607,31,0.161775468389226,1
1,608,31,0.16353709304253,1
2,587,31,0.10324372953213,1
2,595,31,0.123457425289482,1
2,596,31,0.197703615944082,1
2,597,31,0.215492188456366,1
2,598,31,0.14141718002451,1
2,599,31,0.117648471208623,1
2,600,31,0.14087995215028,1
2,601,31,0.137509443354478,1
2,602,31,0.130561253335616,1
2,603,31,0.108636693927695,1
2,607,31,0.13292366604576,1
2,608,31,0.191399731193633,1
2,609,31,0.212057433224055,1
3,586,31,0.11294040999074,1
3,587,31,0.171926133034748,1
3,588,31,0.140743246016303,1
3,595,31,0.116913874534272,1
3,596,31,0.195202340301991,1
3,597,31,0.178988306558465,1
3,598,31,0.122006673652717,1
3,599,31,0.126187147229721,1
3,600,31,0.136649338466925,1
3,601,31,0.103840323815139,1
3,608,31,0.179332413871001,1
3,609,31,0.230118742643311,1
3,610,31,0.206289284017927,1
4,586,31,0.114610120193168,1
4,587,31,0.166223787952553,1
4,588,31,0.130565763004099,1
4,596,31,0.104391625340771,1
4,598,31,0.105896166211766,1
4,599,31,0.144651527332287,1
4,600,31,0.139906528225933,1
4,608,31,0.107611898997146,1
4,609,31,0.140565702328838,1
4,610,31,0.14648274684535,1
4,611,31,0.172078318006683,1
5,587,31,0.102496192069956,1
5,599,31,0.106411020030284,1
5,611,31,0.121148257167615,1
6,611,31,0.109236654122688,1
6,612,31,0.153997913300347,1
7,611,31,0.10541267310717,1
7,612,31,0.132830596945466,1
7,613,31,0.157105739353451,1
8,612,31,0.109662273148415,1
10,612,31,0.110056553246057,1
10,613,31,0.167116691419342,1
11,599,31,0.109058293466295,1
11,612,31,0.162760297199809,1
11,613,31,0.237686619933551,1
11,614,31,0.2079728064417,1
11,616,31,0.15403244385371,1
12,611,31,0.121155849532187,1
12,612,31,0.211781297726341,1
12,613,31,0.243414138551652,1
12,614,31,0.194184309874167,1
12,615,31,0.163894021320777,1
12,616,31,0.224251576803092,1
12,617,31,0.187868617199476,1
13,611,31,0.14989409319464,1
13,612,31,0.228971500409811,1
13,613,31,0.237502769245961,1
13,614,31,0.205964892888857,1
13,616,31,0.205623487020244,1
14,600,31,0.10964970271984,1
14,601,31,0.1190126786036,1
14,611,31,0.164783613340177,1
14,612,31,0.249346335118552,1
14,613,31,0.280481042756074,1
14,614,31,0.261735396590926,1
15,600,31,0.125676443613358,1
15,601,31,0.142916187292631,1
15,602,31,0.112844693911119,1
15,613,31,0.249656151521943,1
16,600,31,0.115298487319106,1
16,601,31,0.135055225122648,1
16,602,31,0.116749260741709,1
17,598,31,0.130974465326554,1
17,599,31,0.131661111371283,1
17,600,31,0.125537101392973,1
17,601,31,0.142193834259283,1
17,602,31,0.115562597034197,1
18,597,31,0.115064039022566,1
18,598,31,0.176845113844041,1
18,599,31,0.168419658823465,1
18,600,31,0.147259248579256,1
18,601,31,0.169087558154523,1
18,602,31,0.128642356717184,1
18,608,31,0.131233183046719,1
19,597,31,0.131343419387424,1
19,598,31,0.16833614281317,1
19,599,31,0.155396858214148,1
19,600,31,0.131842816153822,1
19,601,31,0.14202058238192,1
19,602,31,0.112685570149754,1
19,607,31,0.124615789193323,1
20,583,31,0.108714578298845,1
20,596,31,0.141145641338632,1
20,597,31,0.162483050624353,1
20,598,31,0.158750689950897,1
20,599,31,0.156099669350736,1
20,600,31,0.122450756176219,1
21,596,31,0.163263691667495,1
21,597,31,0.17912844396194,1
21,598,31,0.153703118232314,1
21,599,31,0.162183244813561,1
21,600,31,0.118570578591363,1
21,602,31,0.117044611348613,1
21,603,31,0.153041852688953,1
22,596,31,0.138365038573548,1
22,597,31,0.147285533192905,1
22,598,31,0.119046838797716,1
22,599,31,0.123835769046566,1
22,602,31,0.17509117959158,1
23,596,31,0.112893145615017,1
23,597,31,0.137419881774115,1
23,598,31,0.131698920693277,1
24,596,31,0.117826134718198,1
24,597,31,0.190107939924447,1
24,598,31,0.218546824385788,1
25,597,31,0.210737494652064,1
25,598,31,0.231628566580041,1
25,599,31,0.149006505472344,1
26,598,31,0.135911604631889,1
1,594,32,0.105887419197775,1
1,595,32,0.125699286064589,1
1,596,32,0.165695143698528,1
1,597,32,0.207848409306241,1
1,598,32,0.153392582896266,1
1,599,32,0.10600606487198,1
1,600,32,0.138023676276611,1
1,601,32,0.176599620127592,1
1,602,32,0.187129140497394,1
1,603,32,0.154639985520356,1
1,604,32,0.118065081790302,1
1,605,32,0.100777725161896,1
1,606,32,0.121217285595584,1
1,607,32,0.170431243290025,1
1,608,32,0.196687720528391,1
2,595,32,0.123210809602372,1
2,596,32,0.190189506102233,1
2,597,32,0.228802703736337,1
2,598,32,0.158112528288824,1
2,599,32,0.116896805330133,1
2,600,32,0.150473955954001,1
2,601,32,0.156666667572708,1
2,602,32,0.142768446631665,1
2,603,32,0.122836158544843,1
2,604,32,0.106027360528707,1
2,606,32,0.108406069045739,1
2,607,32,0.153743356675255,1
2,608,32,0.205383211012017,1
2,609,32,0.220976925694859,1
3,587,32,0.12064405662392,1
3,588,32,0.125799544491451,1
3,595,32,0.108532808158792,1
3,596,32,0.173459997643804,1
3,597,32,0.182181772741078,1
3,598,32,0.133605094382268,1
3,599,32,0.142488662006073,1
3,600,32,0.182503037602383,1
3,601,32,0.143442740106201,1
3,602,32,0.100053324259768,1
3,607,32,0.110582713914541,1
3,608,32,0.163752315336961,1
3,609,32,0.211161163845282,1
3,610,32,0.219536293579884,1
4,587,32,0.117796680265108,1
4,588,32,0.110204206763671,1
4,598,32,0.105487670854774,1
4,599,32,0.160025433801782,1
4,600,32,0.188187757941568,1
4,601,32,0.120252521541875,1
4,609,32,0.127527978420434,1
4,610,32,0.158099881609816,1
5,599,32,0.112561369086837,1
5,600,32,0.120087406675037,1
6,611,32,0.107666450735708,1
7,611,32,0.115196638526064,1
7,612,32,0.134922157223632,1
8,611,32,0.101939553013993,1
8,612,32,0.1101665826213,1
10,599,32,0.130293799494379,1
10,600,32,0.135691633024756,1
10,601,32,0.102903118846607,1
10,613,32,0.175229977166013,1
10,614,32,0.198863777179565,1
11,599,32,0.150561883596508,1
11,600,32,0.146634583243876,1
11,601,32,0.10289102770647,1
11,612,32,0.167896482814798,1
11,613,32,0.239832982487417,1
11,614,32,0.22751319998015,1
11,615,32,0.171446942633173,1
11,616,32,0.161993566414284,1
12,599,32,0.102021435086431,1
12,600,32,0.103555506660949,1
12,611,32,0.124189102661531,1
12,612,32,0.232416364270993,1
12,613,32,0.266267417344172,1
12,614,32,0.21932599488486,1
12,615,32,0.184812271081764,1
12,616,32,0.216917156553759,1
12,617,32,0.174067702704236,1
13,600,32,0.0999361055579572,1
13,611,32,0.150509946158516,1
13,612,32,0.2400678556078,1
13,613,32,0.2579437893308,1
13,614,32,0.217576962445968,1
13,615,32,0.168829025613981,1
13,616,32,0.183231861029642,1
14,598,32,0.111078537803493,1
14,599,32,0.122558639646411,1
14,600,32,0.131498730627124,1
14,601,32,0.140594938923547,1
14,602,32,0.111882162905814,1
14,612,32,0.263412361477436,1
14,613,32,0.281791330201794,1
14,614,32,0.236865119551083,1
15,596,32,0.104500140600267,1
15,597,32,0.108915955693174,1
15,598,32,0.114607538571355,1
15,599,32,0.119283236926765,1
15,600,32,0.138866483208726,1
15,601,32,0.17286504819157,1
15,602,32,0.157146478870668,1
15,603,32,0.11171575178161,1
15,613,32,0.226651635441445,1
16,596,32,0.101045287932324,1
16,597,32,0.106621885157099,1
16,598,32,0.120148417914591,1
16,599,32,0.126656381503292,1
16,600,32,0.128053844980104,1
16,601,32,0.160210471817548,1
16,602,32,0.156551039237077,1
16,603,32,0.108332552735124,1
17,592,32,0.109289593709232,1
17,593,32,0.121465350040926,1
17,597,32,0.113863955238794,1
17,598,32,0.182404630971757,1
17,599,32,0.194782287557895,1
17,600,32,0.146852408945958,1
17,601,32,0.149760132076262,1
17,602,32,0.139140091549222,1
18,592,32,0.100717781428408,1
18,593,32,0.131745629530129,1
18,594,32,0.102736827544512,1
18,597,32,0.135012023805728,1
18,598,32,0.227096959757718,1
18,599,32,0.226002766039954,1
18,600,32,0.16372458196508,1
18,601,32,0.163157834280246,1
18,602,32,0.138959857310753,1
18,607,32,0.107954818981506,1
19,594,32,0.104330058562346,1
19,596,32,0.115892238550245,1
19,597,32,0.162234060280892,1
19,598,32,0.207118278728696,1
19,599,32,0.198235931111824,1
19,600,32,0.166919191904192,1
19,601,32,0.155063959715307,1
19,602,32,0.125132276949698,1
19,604,32,0.101668352008605,1
20,595,32,0.10050821255896,1
20,596,32,0.170059794750694,1
20,597,32,0.20553211721532,1
20,598,32,0.195166720456724,1
20,599,32,0.19894285977181,1
20,600,32,0.174178995658087,1
20,601,32,0.124574755567292,1
20,602,32,0.106472009484,1
20,603,32,0.125035449792334,1
20,604,32,0.13114710720045,1
21,596,32,0.187297283595726,1
21,597,32,0.200033306325424,1
21,598,32,0.16157234812785,1
21,599,32,0.173404814115937,1
21,600,32,0.142021824174691,1
21,602,32,0.128880802715013,1
21,603,32,0.185141444202293,1
22,596,32,0.151237593150518,1
22,597,32,0.151319823796366,1
22,598,32,0.114347829595557,1
22,599,32,0.119762144112444,1
22,600,32,0.100317041829774,1
23,596,32,0.119346688180184,1
23,597,32,0.13514582153032,1
25,598,32,0.160592845954678,1
1,594,33,0.111625318767723,1
1,595,33,0.131252169404609,1
1,596,33,0.153255092472118,1
1,597,33,0.184825647586348,1
1,598,33,0.151364201548543,1
1,599,33,0.111132490431508,1
1,600,33,0.140776011916781,1
1,601,33,0.182909594019786,1
1,602,33,0.179942624302813,1
1,603,33,0.156904013385713,1
1,604,33,0.132133254054237,1
1,605,33,0.114337045605705,1
1,606,33,0.129219234816727,1
1,607,33,0.175055690461342,1
2,589,33,0.105999943051479,1
2,595,33,0.122191570060535,1
2,596,33,0.1644274693521,1
2,597,33,0.202209885836713,1
2,598,33,0.157673892224842,1
2,599,33,0.118729484494348,1
2,600,33,0.155621829671122,1
2,601,33,0.175105830567692,1
2,602,33,0.154079751801109,1
2,603,33,0.135438252834921,1
2,604,33,0.119376643707549,1
2,605,33,0.118207779029752,1
2,606,33,0.153619994367105,1
2,607,33,0.197513469149285,1
2,608,33,0.201562258227992,1
3,588,33,0.108191881578616,1
3,589,33,0.102742753292471,1
3,595,33,0.101809458881875,1
3,596,33,0.134855971847533,1
3,597,33,0.151986045617892,1
3,598,33,0.127766043166096,1
3,599,33,0.142354875174399,1
3,600,33,0.218519701017374,1
3,601,33,0.202788256266165,1
3,602,33,0.137953819986795,1
3,603,33,0.106523238882255,1
3,605,33,0.10245646559421,1
3,606,33,0.125377236913113,1
3,607,33,0.14874913847414,1
3,608,33,0.146411125902649,1
3,609,33,0.165569668164083,1
4,599,33,0.144992475698301,1
4,600,33,0.2116491884042,1
4,601,33,0.165004913883434,1
4,609,33,0.115452567658954,1
4,610,33,0.163623626391399,1
5,590,33,0.106690554118739,1
5,591,33,0.099699032067928,1
5,595,33,0.105973113791879,1
5,599,33,0.102976471763435,1
5,600,33,0.126267613222684,1
6,589,33,0.102333375609036,1
6,590,33,0.146583735097788,1
6,591,33,0.119662757119106,1
7,611,33,0.118994193319986,1
8,592,33,0.12317854477617,1
8,593,33,0.13403576772243,1
8,603,33,0.106437413573123,1
8,604,33,0.116251595949439,1
8,605,33,0.102254336588467,1
8,611,33,0.105214890376125,1
9,592,33,0.102708702027546,1
9,593,33,0.102680729011446,1
9,600,33,0.123088699979912,1
9,601,33,0.130042107706995,1
9,602,33,0.117373512146166,1
9,603,33,0.128712016934457,1
9,604,33,0.134656925537879,1
9,605,33,0.104443802422982,1
10,599,33,0.154793041925814,1
10,600,33,0.189766599413348,1
10,601,33,0.161894843889006,1
10,602,33,0.116707987471459,1
10,613,33,0.162567350924819,1
10,614,33,0.212153247339948,1
11,599,33,0.171436561681326,1
11,600,33,0.196746259075322,1
11,601,33,0.157521946897126,1
11,602,33,0.1057579786408,1
11,612,33,0.159886723370702,1
11,613,33,0.22808862932146,1
11,614,33,0.236229125579899,1
11,615,33,0.206138090301625,1
11,616,33,0.186058214054703,1
12,599,33,0.136030947452913,1
12,600,33,0.153486534323003,1
12,601,33,0.134878269652811,1
12,611,33,0.11859904178882,1
12,612,33,0.230356491494321,1
12,613,33,0.289182720417716,1
12,614,33,0.243102317851157,1
12,615,33,0.204022358636104,1
12,616,33,0.193754823862181,1
12,617,33,0.147664944456055,1
13,598,33,0.130028426200678,1
13,599,33,0.151956297055988,1
13,600,33,0.144850769714484,1
13,601,33,0.127567813825371,1
13,612,33,0.240406429317462,1
13,613,33,0.282029885128812,1
13,614,33,0.222221659553784,1
13,615,33,0.166433531108706,1
13,616,33,0.148018779145295,1
14,596,33,0.128872229987727,1
14,597,33,0.164696208557785,1
14,598,33,0.189318639010666,1
14,599,33,0.182216510259903,1
14,600,33,0.153669317504527,1
14,601,33,0.155221002929135,1
14,602,33,0.15086850837462,1
14,603,33,0.106655010523905,1
14,613,33,0.254596831025967,1
15,595,33,0.108199920552869,1
15,596,33,0.164515571281312,1
15,597,33,0.170166360177681,1
15,598,33,0.159746651324741,1
15,599,33,0.145282445203198,1
15,600,33,0.145869867648373,1
15,601,33,0.201209981226175,1
15,602,33,0.232858899999992,1
15,603,33,0.151150558727373,1
16,593,33,0.101224825023974,1
16,596,33,0.130900393477068,1
16,597,33,0.131369213819715,1
16,598,33,0.139645490314011,1
16,599,33,0.146148454052872,1
16,600,33,0.13780993541917,1
16,601,33,0.179773587985119,1
16,602,33,0.209073339838347,1
16,603,33,0.136553970960712,1
17,592,33,0.115504102058942,1
17,593,33,0.17128382117052,1
17,594,33,0.134612700286568,1
17,597,33,0.126238049840404,1
17,598,33,0.20653461434059,1
17,599,33,0.231173329707439,1
17,600,33,0.158485992018177,1
17,601,33,0.144317681149489,1
17,602,33,0.155588039836254,1
17,603,33,0.11587683596272,1
18,592,33,0.102751652807328,1
18,593,33,0.165207238961719,1
18,594,33,0.136881379428357,1
18,597,33,0.142243625792224,1
18,598,33,0.235653064449284,1
18,599,33,0.249412803710546,1
18,600,33,0.172379670611979,1
18,601,33,0.144922074762532,1
18,602,33,0.140644196703454,1
18,603,33,0.120909876527301,1
18,604,33,0.109815100802573,1
19,593,33,0.100790469877175,1
19,594,33,0.105105536361862,1
19,596,33,0.12102244395268,1
19,597,33,0.181267225044153,1
19,598,33,0.233060353644754,1
19,599,33,0.235585462993709,1
19,600,33,0.201282811282889,1
19,601,33,0.157570551101891,1
19,602,33,0.132660460442949,1
19,603,33,0.148011720533756,1
19,604,33,0.169131271438638,1
20,596,33,0.163914881260743,1
20,597,33,0.217583585340746,1
20,598,33,0.215996683108875,1
20,599,33,0.215738368426714,1
20,600,33,0.198095586742888,1
20,601,33,0.135668681644334,1
20,602,33,0.120707486091501,1
20,603,33,0.177280906856152,1
21,596,33,0.163713787082309,1
21,597,33,0.179414600945173,1
21,598,33,0.14459964435889,1
21,599,33,0.145385688289877,1
21,600,33,0.133030863262052,1
22,596,33,0.127691775244068,1
22,597,33,0.126572538705426,1
1,594,34,0.117817986814754,1
1,595,34,0.148314042608847,1
1,596,34,0.15591804081863,1
1,597,34,0.162132973992183,1
1,598,34,0.145822254699241,1
1,599,34,0.126397478603503,1
1,600,34,0.144306308942009,1
1,601,34,0.178393771037155,1
1,602,34,0.171481255328155,1
1,603,34,0.158457016853526,1
1,604,34,0.145520335662155,1
1,605,34,0.131366675769578,1
1,606,34,0.140214841406497,1
2,589,34,0.116393356397851,1
2,594,34,0.10639504011805,1
2,595,34,0.138817813646446,1
2,596,34,0.151483990979248,1
2,597,34,0.162434359276236,1
2,598,34,0.141089085302966,1
2,599,34,0.123244229077993,1
2,600,34,0.155159174720653,1
2,601,34,0.190441807893083,1
2,602,34,0.179243113720695,1
2,603,34,0.154853552091093,1
2,604,34,0.132329479097859,1
2,605,34,0.139026892334537,1
2,606,34,0.194086992535446,1
2,607,34,0.235093778413993,1
3,595,34,0.120765926602161,1
3,596,34,0.118798164348907,1
3,597,34,0.118276567813502,1
3,598,34,0.109878050981717,1
3,599,34,0.130051432045695,1
3,600,34,0.216063892419364,1
3,601,34,0.252815664475902,1
3,602,34,0.202949122894576,1
3,603,34,0.144026077706736,1
3,604,34,0.11266753147582,1
3,605,34,0.120739946990246,1
3,606,34,0.165724423864912,1
3,607,34,0.192951667155379,1
3,608,34,0.144313618090687,1
4,594,34,0.105012979228763,1
4,595,34,0.122757195774708,1
4,599,34,0.121323720307543,1
4,600,34,0.200536101682563,1
4,601,34,0.209240742218184,1
4,602,34,0.149693042587883,1
4,603,34,0.102028885843056,1
4,606,34,0.107048822226029,1
4,607,34,0.111215516260446,1
4,609,34,0.106455931535494,1
5,590,34,0.118268093122487,1
5,591,34,0.135932878502778,1
5,592,34,0.103089028295896,1
5,594,34,0.118490766173543,1
5,595,34,0.131880004579431,1
5,600,34,0.122770746565996,1
5,601,34,0.114371194906902,1
6,590,34,0.159351663187361,1
6,591,34,0.155626393804201,1
6,592,34,0.103022821133959,1
6,594,34,0.103502087785967,1
6,595,34,0.100144007810792,1
7,592,34,0.121895500520974,1
7,593,34,0.146215456397899,1
7,594,34,0.111075062962319,1
7,603,34,0.109492659506012,1
7,604,34,0.112527655502402,1
8,592,34,0.185091946778166,1
8,593,34,0.220310039405272,1
8,594,34,0.122893858337008,1
8,601,34,0.118835167594893,1
8,602,34,0.134299049575674,1
8,603,34,0.154675736080652,1
8,604,34,0.158228570555378,1
8,605,34,0.126652579874546,1
8,606,34,0.103357244641466,1
9,592,34,0.132699609593986,1
9,593,34,0.145431013726011,1
9,599,34,0.127441401499889,1
9,600,34,0.168423591167239,1
9,601,34,0.189764115827806,1
9,602,34,0.175268135061417,1
9,603,34,0.178769141027341,1
9,604,34,0.170861829486834,1
9,605,34,0.12080300609858,1
10,599,34,0.163250271591236,1
10,600,34,0.229420985821159,1
10,601,34,0.230087697824041,1
10,602,34,0.169163470907326,1
10,603,34,0.125743805424713,1
10,613,34,0.140001699659603,1
10,614,34,0.200138924068455,1
10,615,34,0.215064706741483,1
11,599,34,0.168290523268222,1
11,600,34,0.236860805955142,1
11,601,34,0.227258109602025,1
11,602,34,0.149742910371257,1
11,612,34,0.14213530660527,1
11,613,34,0.217119786633777,1
11,614,34,0.238604980152141,1
11,615,34,0.228012945319957,1
11,616,34,0.195761996696529,1
12,599,34,0.170801951110861,1
12,600,34,0.218714074264759,1
12,601,34,0.194599090445447,1
12,602,34,0.121438041492888,1
12,612,34,0.212972983069531,1
12,613,34,0.308708974947249,1
12,614,34,0.255985046414513,1
12,615,34,0.198979263907248,1
12,616,34,0.15862501834391,1
13,597,34,0.127936658957051,1
13,598,34,0.169653238333291,1
13,599,34,0.205082261444725,1
13,600,34,0.192659540852512,1
13,601,34,0.150815318250938,1
13,602,34,0.107095531062881,1
13,605,34,0.101968506392806,1
13,612,34,0.243031034588946,1
13,613,34,0.302618787482565,1
13,614,34,0.215112352369372,1
14,596,34,0.171082955743386,1
14,597,34,0.230646264926675,1
14,598,34,0.245620891448687,1
14,599,34,0.217752294870868,1
14,600,34,0.162331671728427,1
14,601,34,0.151098926291114,1
14,602,34,0.170213156157886,1
14,603,34,0.120744968625924,1
14,613,34,0.221293473922219,1
15,595,34,0.113904171895897,1
15,596,34,0.200227113141019,1
15,597,34,0.212342217699488,1
15,598,34,0.182533712062405,1
15,599,34,0.152776882433257,1
15,600,34,0.14232405910643,1
15,601,34,0.200294714596593,1
15,602,34,0.272984252655502,1
15,603,34,0.17501795738978,1
16,593,34,0.101507245735974,1
16,596,34,0.135652712625019,1
16,597,34,0.14016557273367,1
16,598,34,0.14504171169237,1
16,599,34,0.149733139422876,1
16,600,34,0.141346888017932,1
16,601,34,0.174994864401411,1
16,602,34,0.229177507294733,1
16,603,34,0.153183569565689,1
17,593,34,0.178892939052253,1
17,594,34,0.159986709474588,1
17,597,34,0.123158360197185,1
17,598,34,0.192880579965711,1
17,599,34,0.220302065788534,1
17,600,34,0.157818887870209,1
17,601,34,0.130571013391077,1
17,602,34,0.152077742210387,1
17,603,34,0.130650727772627,1
17,604,34,0.104452680152002,1
18,593,34,0.162227633458657,1
18,594,34,0.144239088738601,1
18,597,34,0.133146938207363,1
18,598,34,0.216574247462318,1
18,599,34,0.249339973653831,1
18,600,34,0.181614001121854,1
18,601,34,0.127038069386522,1
18,602,34,0.129123573201701,1
18,603,34,0.146653624066362,1
18,604,34,0.146697740388481,1
19,596,34,0.110737262649909,1
19,597,34,0.172308768601935,1
19,598,34,0.244023728087078,1
19,599,34,0.268656670206835,1
19,600,34,0.220218364598615,1
19,601,34,0.145401777131302,1
19,602,34,0.1286758306574,1
20,596,34,0.130277492794573,1
20,597,34,0.18841672709983,1
20,598,34,0.214584024009999,1
20,599,34,0.210206246990388,1
20,600,34,0.181467741897877,1
21,596,34,0.117878148406623,1
21,597,34,0.137081939853757,1
1,595,35,0.169612389886883,1
1,596,35,0.168467903561902,1
1,597,35,0.140169635792472,1
1,598,35,0.137477178528276,1
1,599,35,0.143724681529764,1
1,600,35,0.148515833934099,1
1,601,35,0.170466394739773,1
1,602,35,0.168696099322912,1
1,603,35,0.15684606305641,1
2,594,35,0.128985135093596,1
2,595,35,0.161754445055475,1
2,596,35,0.145256117017873,1
2,597,35,0.121702902819393,1
2,598,35,0.114263442151739,1
2,599,35,0.120696320849483,1
2,600,35,0.151343406966092,1
2,601,35,0.205599457240838,1
2,602,35,0.217980196523064,1
2,603,35,0.174545270060873,1
2,604,35,0.143436672750294,1
2,606,35,0.220807540803757,1
3,593,35,0.106353472738986,1
3,594,35,0.144179428221009,1
3,595,35,0.17263867154804,1
3,596,35,0.127915036512752,1
3,599,35,0.107740326512651,1
3,600,35,0.180314671952691,1
3,601,35,0.262332132481882,1
3,602,35,0.268369598218403,1
3,603,35,0.183300312132902,1
3,604,35,0.126203824288775,1
3,605,35,0.141849138729119,1
3,606,35,0.209537443547049,1
3,607,35,0.234050824987402,1
4,592,35,0.103596159034813,1
4,593,35,0.106604728809608,1
4,594,35,0.139827641706231,1
4,595,35,0.177017418037446,1
4,596,35,0.121181709321993,1
4,599,35,0.0998576111833409,1
4,600,35,0.169097285531227,1
4,601,35,0.229385213475025,1
4,602,35,0.222385380126985,1
4,603,35,0.150273144991462,1
4,604,35,0.114978801931062,1
4,605,35,0.127426543558316,1
4,606,35,0.149147329129719,1
5,590,35,0.112467668197238,1
5,591,35,0.151596896085118,1
5,592,35,0.149426155178436,1
5,593,35,0.122849055760989,1
5,594,35,0.128344228415925,1
5,595,35,0.145169975814089,1
5,600,35,0.116025404485533,1
5,601,35,0.135940024257669,1
5,602,35,0.129515903466835,1
5,603,35,0.107699990033439,1
5,604,35,0.115434463627507,1
5,605,35,0.130481190380657,1
5,606,35,0.119686645290565,1
6,590,35,0.134317393251341,1
6,591,35,0.160709912155622,1
6,592,35,0.14364752698419,1
6,593,35,0.127570057766693,1
6,594,35,0.120987684648017,1
6,595,35,0.106679998880188,1
6,603,35,0.113336759743001,1
6,604,35,0.133927764430129,1
6,605,35,0.122292994029735,1
7,591,35,0.105242972321415,1
7,592,35,0.145508124699909,1
7,593,35,0.17835880476703,1
7,594,35,0.136088440279616,1
7,602,35,0.118479187000601,1
7,603,35,0.15869073532449,1
7,604,35,0.1626871839272,1
7,605,35,0.125786777990334,1
8,592,35,0.202534778040058,1
8,593,35,0.25038739317723,1
8,594,35,0.144423538536739,1
8,598,35,0.106415333626225,1
8,599,35,0.114916570684576,1
8,600,35,0.127665708488801,1
8,601,35,0.147303691688948,1
8,602,35,0.183882963479537,1
8,603,35,0.221849317795092,1
8,604,35,0.204741008076979,1
8,605,35,0.14718792174537,1
8,606,35,0.116853930800784,1
9,592,35,0.135424941687851,1
9,593,35,0.158053227237559,1
9,598,35,0.112618698519755,1
9,599,35,0.156730707043756,1
9,600,35,0.205641961410939,1
9,601,35,0.234749801816486,1
9,602,35,0.234952279395638,1
9,603,35,0.223406111998731,1
9,604,35,0.187060014033154,1
9,605,35,0.127340696463346,1
9,606,35,0.100235225114849,1
9,615,35,0.178917219368798,1
10,599,35,0.157691135715685,1
10,600,35,0.248200508964528,1
10,601,35,0.287816247295578,3
10,602,35,0.23520604083764,1
10,603,35,0.155342143081801,1
10,604,35,0.108745503296005,1
10,614,35,0.190100685240365,1
10,615,35,0.259743473843237,1
10,616,35,0.24463928694214,1
11,599,35,0.162186273045055,1
11,600,35,0.280902947296407,3
11,601,35,0.305181499188053,3
11,602,35,0.209906386715,1
11,603,35,0.107237193475022,1
11,613,35,0.201059985730967,1
11,614,35,0.244429489321391,1
11,615,35,0.249062509219994,1
11,616,35,0.198616638632341,1
12,598,35,0.103103592128655,1
12,599,35,0.203572437507995,1
12,600,35,0.297341582137659,3
12,601,35,0.256683783599378,1
12,602,35,0.152474701966114,1
12,612,35,0.189028647719931,1
12,613,35,0.299447924106965,1
12,614,35,0.262144207842571,1
12,615,35,0.186826077703808,1
13,597,35,0.135024812092683,1
13,598,35,0.177906356481704,1
13,599,35,0.228697260280011,1
13,600,35,0.22856105522031,1
13,601,35,0.166118322710389,1
13,602,35,0.12512644923801,1
13,605,35,0.108235180931808,1
13,612,35,0.243841402408154,1
13,613,35,0.292618543156093,1
13,614,35,0.201616809966554,1
14,596,35,0.175386584663079,1
14,597,35,0.241655651059032,1
14,598,35,0.241285749314205,1
14,599,35,0.210745751484698,1
14,600,35,0.157509332896875,1
14,601,35,0.141737660595644,1
14,602,35,0.178296061553349,1
14,603,35,0.13734387098504,1
14,604,35,0.10122429127094,1
14,613,35,0.195887918840654,1
15,595,35,0.101980706462133,1
15,596,35,0.188896952328714,1
15,597,35,0.212393545134013,1
15,598,35,0.182573394966475,1
15,599,35,0.158090982094959,1
15,600,35,0.141748248512952,1
15,601,35,0.179424807610315,1
15,602,35,0.257610204578059,1
15,603,35,0.179992699051648,1
15,604,35,0.103575898205395,1
16,596,35,0.120578208928311,1
16,597,35,0.135372285317202,1
16,598,35,0.143008308708969,1
16,599,35,0.150070612947715,1
16,600,35,0.141811917624753,1
16,601,35,0.156981538290535,1
16,602,35,0.213634945759711,1
16,603,35,0.16438574947217,1
17,593,35,0.150216087881521,1
17,594,35,0.15486790895839,1
17,597,35,0.110720356839555,1
17,598,35,0.155135123155408,1
17,599,35,0.186260277702931,1
17,600,35,0.156523218721844,1
17,601,35,0.12227860448368,1
17,602,35,0.144650645005845,1
18,593,35,0.134297099743166,1
18,594,35,0.131235459666799,1
18,597,35,0.11305263973563,1
18,598,35,0.179955684912744,1
18,599,35,0.245341684147803,1
18,600,35,0.203084696164972,1
19,597,35,0.137085970233803,1
19,598,35,0.216421289093131,1
19,599,35,0.273973700063759,1
19,600,35,0.214201137905674,1
20,597,35,0.138668253868,1
1,601,36,0.171283908313872,1
1,602,36,0.175459240433089,1
2,596,36,0.140258903264021,1
2,600,36,0.150537472564935,1
2,601,36,0.226997834194437,1
2,602,36,0.257715669820223,1
2,603,36,0.189727145260578,1
3,594,36,0.169561509062038,1
3,595,36,0.213563836784205,1
3,596,36,0.138705082827281,1
3,600,36,0.143496943271354,1
3,601,36,0.245818183998375,1
3,602,36,0.306115000564111,1
3,603,36,0.213822325753071,1
4,594,36,0.150398173916226,1
4,595,36,0.207729436844465,1
4,600,36,0.136044672530906,1
4,601,36,0.224638754717519,1
4,602,36,0.285936870187431,1
4,603,36,0.213469787321197,1
5,591,36,0.1403457851863,1
5,592,36,0.17359329429412,1
5,594,36,0.124457765616781,1
5,595,36,0.135720521046055,1
6,591,36,0.141481023423015,1
6,592,36,0.174510913794215,1
7,592,36,0.161558241797691,1
7,593,36,0.191537090902752,1
7,603,36,0.195372858056674,1
7,604,36,0.206618468031375,1
8,592,36,0.180136093437917,1
8,593,36,0.220232307534989,1
8,602,36,0.217450561013405,1
8,603,36,0.270505568927503,1
8,604,36,0.230878959463249,1
8,605,36,0.161981311880362,1
9,599,36,0.181162108375398,1
9,600,36,0.242138643089353,1
9,601,36,0.26305882089701,3
9,602,36,0.282914477298372,1
9,603,36,0.253454730250256,1
9,604,36,0.183278482723142,1
9,615,36,0.223636584379821,1
9,616,36,0.250189752054133,1
10,599,36,0.151457597436409,1
10,600,36,0.264723738215059,3
10,601,36,0.33057770814508,3
10,602,36,0.309775718509029,3
10,603,36,0.194766166037713,1
10,614,36,0.19353971049694,1
10,615,36,0.303899467974329,1
10,616,36,0.293630582478444,1
10,617,36,0.163423643290708,1
11,599,36,0.172877335404249,3
11,600,36,0.335038903138715,3
11,601,36,0.364006943821278,3
11,602,36,0.262209848572717,3
11,613,36,0.181653553310895,1
11,614,36,0.248472200151272,1
11,615,36,0.263286722549206,1
11,616,36,0.198657683151291,1
12,599,36,0.233415985665636,3
12,600,36,0.362055542732425,3
12,601,36,0.293026504760053,3
12,602,36,0.168840354249784,1
12,612,36,0.16581131668011,1
12,613,36,0.26443209120063,1
12,614,36,0.267858175669383,1
12,615,36,0.187045439307475,1
13,598,36,0.169504353915825,1
13,599,36,0.22429412454487,1
13,600,36,0.236479858790407,3
13,601,36,0.168038951302948,1
13,613,36,0.255248815802305,1
14,597,36,0.209802947555778,1
14,598,36,0.202967292283538,1
14,599,36,0.179916372367921,1
14,600,36,0.139544850634983,1
14,601,36,0.127979740451862,1
14,602,36,0.165717125609154,1
15,596,36,0.152080672405609,1
15,597,36,0.181854124629215,1
15,598,36,0.165495955780926,1
15,599,36,0.151800637242878,1
15,600,36,0.128924112961123,1
15,601,36,0.143864524824425,1
15,602,36,0.197431314753871,1
15,603,36,0.16295903850773,1
16,598,36,0.131201876797393,1
16,599,36,0.140631582703204,1
16,600,36,0.12735020598167,1
16,601,36,0.130668396087313,1
16,602,36,0.17569003960175,1
17,598,36,0.118394276696669,1
17,599,36,0.150978069354344,1
17,600,36,0.143158914207643,1
18,598,36,0.141407496219482,1
1,602,37,0.182543276045324,1
2,601,37,0.22846328037899,1
2,602,37,0.26473942401848,1
2,603,37,0.194286463668943,1
3,601,37,0.228528725036594,1
3,602,37,0.295940730963025,1
3,603,37,0.225633147511022,1
4,601,37,0.217178935184175,1
4,602,37,0.309714631019041,1
4,603,37,0.269458868336761,1
5,602,37,0.206658031113335,1
9,601,37,0.267534895618056,3
9,602,37,0.296768026378423,3
9,615,37,0.230980568612073,1
9,616,37,0.270837301884007,1
10,600,37,0.269622981055048,3
10,601,37,0.33478098060164,3
10,602,37,0.345827141228683,3
10,603,37,0.235585550137062,3
10,614,37,0.185530691771338,1
10,615,37,0.286116799424166,1
10,616,37,0.288671798942972,1
10,617,37,0.159531069563982,1
11,599,37,0.192973431207625,3
11,600,37,0.364105633667798,3
11,601,37,0.362969349710855,3
11,602,37,0.266941362245298,3
11,614,37,0.222022798423754,1
11,615,37,0.233157431339256,1
11,616,37,0.178456830145489,1
12,599,37,0.23894801995861,3
12,600,37,0.365833185270338,3
12,601,37,0.278007740130083,3
12,613,37,0.206876630212669,1
13,600,37,0.209758656946953,3
2,602,38,0.244140173391637,1
3,601,38,0.234957159423369,1
3,602,38,0.276942238361074,1
3,603,38,0.22977128031171,1
4,601,38,0.22097770998503,1
4,602,38,0.310551642918226,1
4,603,38,0.303719516951755,1
5,602,38,0.246140135113579,1
8,602,38,0.205264521766135,1
9,601,38,0.259204535780717,3
9,602,38,0.299268517730344,3
9,603,38,0.287147356708888,1
10,600,38,0.258175133145413,3
10,601,38,0.32093366227128,3
10,602,38,0.36031962536806,3
10,603,38,0.291915383446097,3
10,615,38,0.238550145197683,1
10,616,38,0.258418132383401,1
11,599,38,0.209696196949167,3
11,600,38,0.34876655186048,3
11,601,38,0.318640506740405,3
11,602,38,0.244924528920172,3
12,600,38,0.315360125956756,3
12,601,38,0.231926487915838,3
2,602,39,0.19924620578129,1
3,601,39,0.243102099992776,1
3,602,39,0.248556881703905,1
3,603,39,0.222002995096936,1
4,601,39,0.225354245211871,1
4,602,39,0.292664249844393,1
4,603,39,0.30117395070084,1
5,602,39,0.278175207867434,1
8,602,39,0.17731128720736,1
8,603,39,0.193711709688613,1
9,601,39,0.243661494957257,1
9,602,39,0.281073399693576,3
9,603,39,0.285124367356091,1
9,604,39,0.166291095299313,1
10,601,39,0.281269167234598,3
10,602,39,0.326071852183373,3
10,603,39,0.306048662687146,3
10,604,39,0.156196583651452,1
11,600,39,0.282859838416458,3
11,601,39,0.248957305407887,3
11,602,39,0.205163021546502,3
11,603,39,0.173277650179041,1
3,602,40,0.221257156930133,1
4,601,40,0.217926276573806,1
4,602,40,0.272607619086707,1
4,603,40,0.27619709734109,1
5,602,40,0.286562385170496,1
8,602,40,0.157038835044696,1
9,601,40,0.217634346343481,1
9,602,40,0.258880754655113,1
9,603,40,0.26122665369999,1
10,601,40,0.229659562534016,1
10,602,40,0.278553693232466,3
10,603,40,0.277487995390915,1
11,602,40,0.183196099576427,1
3,602,41,0.201492739618666,1
4,601,41,0.199024077376187,1
4,602,41,0.252423628319582,1
4,603,41,0.254567398358716,1
5,602,41,0.265848649964522,1
9,602,41,0.230903729961151,1
10,602,41,0.234360205674031,1
4,602,42,0.224520305115857,1
