x,y,z,signal,mito.p
875,536,20,0.106505145743726,1
875,535,21,0.101076474359541,1
875,536,21,0.121030602749043,1
876,536,21,0.105528279656962,1
901,544,21,0.111771055131586,1
901,545,21,0.10103373054522,1
902,544,21,0.108500859227242,1
902,552,21,0.113115753308559,1
875,536,22,0.109327315887874,1
901,543,22,0.118090865329674,1
901,544,22,0.139128632198389,1
901,545,22,0.110281448452598,1
902,542,22,0.107704020413484,1
902,543,22,0.135535613745318,1
902,544,22,0.137630136897463,1
902,548,22,0.107951660034984,1
902,549,22,0.105133825272614,1
902,552,22,0.112608720605913,1
903,544,22,0.116864442467659,1
903,547,22,0.122330465671239,1
903,548,22,0.136385010893453,1
903,549,22,0.123881715379085,1
903,550,22,0.103440390292513,1
903,551,22,0.100476775594605,1
903,552,22,0.119477664638745,1
903,553,22,0.100090991973815,1
901,543,23,0.129609637035191,1
901,544,23,0.136607880017051,1
902,542,23,0.104211848604903,1
902,543,23,0.148156585464095,1
902,544,23,0.147656164763307,1
902,548,23,0.112884039134698,1
902,549,23,0.124872197614652,1
902,550,23,0.118788426079284,1
902,551,23,0.105385800275893,1
903,542,23,0.111073777597872,1
903,543,23,0.122728710791413,1
903,544,23,0.117697881489398,1
903,546,23,0.100970791258996,1
903,547,23,0.138235336586515,1
903,548,23,0.158703262181388,1
903,549,23,0.15682469114925,1
903,550,23,0.149822570288211,1
903,551,23,0.135796673443077,1
903,552,23,0.119576201984398,1
904,544,23,0.121068640822337,1
904,546,23,0.114094220654422,1
904,547,23,0.141464324578124,1
904,548,23,0.144503242025369,1
904,549,23,0.128228273292723,1
904,550,23,0.118045082390941,1
904,551,23,0.108402801170026,1
897,565,24,0.10136516939291,1
900,563,24,0.103546912147824,1
901,543,24,0.111756120939579,1
901,544,24,0.110161560985622,1
902,543,24,0.131720455994223,1
902,544,24,0.134610957419522,1
902,548,24,0.103879331358228,1
902,549,24,0.13077314239682,1
902,550,24,0.154288394772439,1
902,551,24,0.132235756422422,1
903,543,24,0.110464384134988,1
903,544,24,0.11714629674787,1
903,546,24,0.103135835169019,1
903,547,24,0.140342658918535,1
903,548,24,0.159723885123944,1
903,549,24,0.171143912518345,1
903,550,24,0.195812561626721,1
903,551,24,0.174821525380697,1
903,552,24,0.118794787544004,1
904,544,24,0.114778786151614,1
904,546,24,0.115385434598899,1
904,547,24,0.150791658830779,1
904,548,24,0.155593780404589,1
904,549,24,0.137287434771484,1
904,550,24,0.136915419800363,1
904,551,24,0.128695710234652,1
878,528,25,0.105330529604674,1
879,527,25,0.110475745449549,1
879,528,25,0.0999190799254947,1
899,563,25,0.10455491019721,1
899,564,25,0.101470079096203,1
900,562,25,0.111605057938305,1
902,543,25,0.103751099915266,1
902,544,25,0.11065469432357,1
902,549,25,0.11821973945486,1
902,550,25,0.168431466747706,1
902,551,25,0.144720022007223,1
902,562,25,0.102061619064777,1
903,544,25,0.118528924068947,1
903,545,25,0.10929166336385,1
903,546,25,0.102950579294872,1
903,547,25,0.124655112631065,1
903,548,25,0.135432610302857,1
903,549,25,0.155972527199678,1
903,550,25,0.211320549036704,1
903,551,25,0.190348542720245,1
903,552,25,0.110305892162928,1
904,543,25,0.103890235170189,1
904,544,25,0.126453086955212,1
904,545,25,0.12639477715958,1
904,546,25,0.121090023622417,1
904,547,25,0.14472722222671,1
904,548,25,0.148749073116625,1
904,549,25,0.131304847561096,1
904,550,25,0.140095269834173,1
904,551,25,0.134828271154409,1
905,547,25,0.121199094420784,1
905,548,25,0.133084870354662,1
905,549,25,0.116649034993604,1
874,530,26,0.102135799843453,1
874,531,26,0.100838191755498,1
874,532,26,0.10107728043555,1
874,533,26,0.108487243078439,1
874,534,26,0.109169107131709,1
875,529,26,0.11250778681807,1
875,530,26,0.10656047087954,1
875,531,26,0.10409989118299,1
875,532,26,0.105368197318721,1
875,533,26,0.114171473236268,1
875,534,26,0.113944290516728,1
876,529,26,0.115334281451078,1
876,530,26,0.106486366351298,1
876,531,26,0.0999818013533383,1
876,533,26,0.0999515299313207,1
877,528,26,0.122539391858464,1
877,529,26,0.114888586775557,1
877,530,26,0.105230238499055,1
878,527,26,0.119817632642044,1
878,528,26,0.118235643116661,1
878,529,26,0.112125913755216,1
878,530,26,0.101166297369961,1
879,527,26,0.113370930830036,1
879,528,26,0.110240000895643,1
879,529,26,0.104963056980794,1
880,527,26,0.104271171442005,1
882,561,26,0.101918769324461,1
902,550,26,0.137114259144555,1
902,551,26,0.118422086318983,1
903,544,26,0.113895925956182,1
903,545,26,0.115464386476115,1
903,548,26,0.100191065221053,1
903,549,26,0.117972306798822,1
903,550,26,0.172378112924556,1
903,551,26,0.157379031799295,1
904,544,26,0.152482207187334,1
904,545,26,0.163445135019977,1
904,546,26,0.136022385618546,1
904,547,26,0.132691973657738,1
904,548,26,0.133183178949016,1
904,549,26,0.117673840817072,1
904,550,26,0.12369917184178,1
904,551,26,0.119489418098391,1
905,545,26,0.164307080810849,1
905,547,26,0.145738956547327,1
905,548,26,0.164832522546676,1
905,549,26,0.139498239834402,1
905,550,26,0.105910087362302,1
866,538,27,0.104238296612337,1
868,537,27,0.100599930937293,1
873,530,27,0.10170240327353,1
873,531,27,0.102794178763268,1
873,532,27,0.102191876590681,1
873,533,27,0.10699332280351,1
873,534,27,0.104311584171651,1
874,529,27,0.118680128678168,1
874,530,27,0.115335207349196,1
874,531,27,0.117983635434625,1
874,532,27,0.119489832029314,1
874,533,27,0.126838402180483,1
874,534,27,0.115954066758727,1
875,529,27,0.127217497548981,1
875,530,27,0.119189743002627,1
875,531,27,0.115773865199016,1
875,532,27,0.117795656330718,1
875,533,27,0.128207217280215,1
875,534,27,0.118164621284508,1
876,528,27,0.144973347732463,1
876,529,27,0.131935634716978,1
876,530,27,0.121025395933741,1
876,531,27,0.11192166063026,1
876,532,27,0.108221706390953,1
876,533,27,0.112560682832938,1
876,534,27,0.104008673878932,1
877,527,27,0.141452701833506,1
877,528,27,0.139015999415496,1
877,529,27,0.132796251571726,1
877,530,27,0.121857201017623,1
877,531,27,0.109770897337101,1
877,559,27,0.109720931517456,1
878,527,27,0.132474954031665,1
878,528,27,0.134174173151777,1
878,529,27,0.130385888231959,1
878,530,27,0.117566425742399,1
878,531,27,0.103330785741113,1
879,527,27,0.125225269799559,1
879,528,27,0.124262738794254,1
879,529,27,0.118530950151889,1
879,530,27,0.104604407621337,1
880,526,27,0.120620941849713,1
880,527,27,0.114725704957122,1
880,528,27,0.10584450109675,1
881,526,27,0.119308584749375,1
881,527,27,0.103056643647584,1
881,561,27,0.105554281054715,1
882,560,27,0.113351018574027,1
882,561,27,0.127107174064924,1
882,562,27,0.103776240772415,1
883,561,27,0.103758158526805,1
903,544,27,0.103817655650612,1
903,545,27,0.112851785201415,1
903,550,27,0.124628610159036,1
903,551,27,0.117646902628281,1
904,544,27,0.17132486568947,1
904,545,27,0.196192310570362,1
904,546,27,0.143259368707048,1
904,547,27,0.114113697193669,1
904,548,27,0.109295595707624,1
904,549,27,0.102431640631713,1
904,550,27,0.113093760505013,1
904,551,27,0.11208583870606,1
905,544,27,0.18553260892509,1
905,545,27,0.206380130962737,1
905,546,27,0.166960171065628,1
905,547,27,0.162136089367029,1
905,549,27,0.14458623517555,1
905,550,27,0.117192755047584,1
905,551,27,0.10790781603584,1
906,545,27,0.150609409402288,1
906,550,27,0.128939602692001,1
906,551,27,0.113648482407225,1
906,552,27,0.102834079525719,1
866,538,28,0.103123330097959,1
867,538,28,0.102121758870808,1
868,537,28,0.108696169265664,1
872,534,28,0.100427343527993,1
873,531,28,0.100506752907808,1
873,532,28,0.102836410610394,1
873,533,28,0.111805258897378,1
873,534,28,0.107108591672812,1
874,529,28,0.121026822906135,1
874,530,28,0.115329946069299,1
874,531,28,0.118271600642419,1
874,532,28,0.120539266742736,1
874,533,28,0.125572405343588,1
874,534,28,0.107264458451384,1
875,528,28,0.151934946934666,1
875,529,28,0.131488818070796,1
875,532,28,0.119825802331326,1
875,533,28,0.123825464345153,1
875,534,28,0.104794772274514,1
876,527,28,0.158709068107237,1
876,528,28,0.148737167156113,1
876,533,28,0.110318517056097,1
876,559,28,0.117875948036977,1
877,527,28,0.140196987912187,1
877,559,28,0.11495961950063,1
877,560,28,0.10023464779014,1
878,526,28,0.122686413586773,1
878,527,28,0.132054498249564,1
879,526,28,0.115824462807966,1
879,527,28,0.124450826827352,1
879,528,28,0.127132717960078,1
880,526,28,0.115249970257693,1
880,527,28,0.114404908491337,1
880,528,28,0.109518366794951,1
880,529,28,0.102737143439164,1
881,526,28,0.1123309838491,1
881,527,28,0.101213964783689,1
881,560,28,0.103264796437557,1
881,561,28,0.116490434092353,1
881,562,28,0.103218643139576,1
882,560,28,0.116735470306202,1
882,561,28,0.132944122947721,1
882,562,28,0.102868490256972,1
883,561,28,0.111840551955074,1
904,544,28,0.163252700712182,1
904,545,28,0.195553833013637,1
904,546,28,0.131249043136844,1
905,544,28,0.186588176351932,1
905,545,28,0.22670854005052,1
905,546,28,0.176836421294645,1
905,549,28,0.122709561039737,1
905,550,28,0.109344472235365,1
905,551,28,0.104154333992361,1
906,545,28,0.152456020609957,1
906,550,28,0.121922406031008,1
906,551,28,0.110127662221563,1
868,537,29,0.105229846353969,1
872,534,29,0.104260572631778,1
873,532,29,0.100934561410262,1
873,533,29,0.112264144897858,1
873,534,29,0.105588245176288,1
874,529,29,0.123814941785358,1
874,530,29,0.113989387201562,1
874,531,29,0.114516746091141,1
874,532,29,0.117063935386994,1
874,533,29,0.118481942909119,1
875,528,29,0.153712965431128,1
875,532,29,0.120510879795713,1
875,533,29,0.117513420798341,1
876,527,29,0.159745627390351,1
876,533,29,0.107762493602901,1
876,559,29,0.127393004260585,1
876,560,29,0.117195859529511,1
877,559,29,0.116576117793537,1
877,560,29,0.103073418742909,1
878,526,29,0.126363351088144,1
879,526,29,0.119416479112486,1
879,527,29,0.126748078095787,1
879,561,29,0.104145271083718,1
880,526,29,0.115525920575783,1
880,527,29,0.117313339661378,1
880,528,29,0.110739092660308,1
880,560,29,0.103946431739526,1
880,561,29,0.119452959498357,1
881,526,29,0.108605126248311,1
881,527,29,0.103531574917813,1
881,560,29,0.109702337304651,1
881,561,29,0.124199505399216,1
881,562,29,0.105953375822574,1
882,560,29,0.113893867194483,1
882,561,29,0.127750433613109,1
883,561,29,0.113256598751771,1
896,568,29,0.0999699498574206,1
897,568,29,0.100527144452255,1
904,544,29,0.13116188889159,1
904,545,29,0.15892063038087,1
904,546,29,0.106173750467712,1
905,544,29,0.156023745705013,1
905,545,29,0.203250377463601,1
905,546,29,0.162079173865035,1
905,549,29,0.0998641905064422,1
906,545,29,0.143983562643715,1
906,550,29,0.116859366367386,1
873,533,30,0.102785682286415,1
874,529,30,0.121612654985131,1
874,530,30,0.108282957274726,1
874,531,30,0.105990858356998,1
874,532,30,0.107555114210181,1
874,533,30,0.104518157488363,1
875,528,30,0.149743694661428,1
875,532,30,0.113604997874409,1
875,533,30,0.10350477833697,1
875,560,30,0.0999726077296669,1
876,527,30,0.153594744580765,1
876,559,30,0.124531379963667,1
876,560,30,0.121869313943597,1
877,559,30,0.111070825616811,1
877,560,30,0.107076860599643,1
878,526,30,0.124200485761929,1
879,526,30,0.120286147982958,1
879,560,30,0.105652698578259,1
879,561,30,0.118033644825947,1
879,562,30,0.116998294656847,1
880,526,30,0.114674922168549,1
880,527,30,0.115632812790342,1
880,560,30,0.109339701136825,1
880,561,30,0.129209158866613,1
880,562,30,0.122216471273465,1
881,526,30,0.103722789218676,1
881,527,30,0.102761489113223,1
881,560,30,0.103520093781143,1
881,561,30,0.119837566683891,1
881,562,30,0.106244990158247,1
882,561,30,0.113384372692134,1
883,561,30,0.103878089565457,1
904,545,30,0.110314486676052,1
905,544,30,0.116207414269805,1
905,545,30,0.153028040467607,1
873,529,31,0.1141451777297,1
874,528,31,0.15219697610222,1
874,529,31,0.119510844470146,1
874,530,31,0.103275994358332,1
874,532,31,0.099999371631753,1
875,532,31,0.110839514480955,1
875,560,31,0.101528476035187,1
876,559,31,0.120859812671384,1
876,560,31,0.120206596995195,1
876,561,31,0.105668024915351,1
876,562,31,0.101991327058199,1
877,559,31,0.108611923429793,1
877,560,31,0.106215709991862,1
877,561,31,0.0999557128122328,1
877,562,31,0.102198161804968,1
878,526,31,0.128639263128176,1
878,560,31,0.101627863028526,1
878,561,31,0.105047150315798,1
878,562,31,0.10859672780773,1
879,526,31,0.126926961612294,1
879,560,31,0.108744228824477,1
879,561,31,0.122705922804777,1
879,562,31,0.122547539761907,1
879,563,31,0.104298915706805,1
880,526,31,0.116073355115156,1
880,527,31,0.111630057187507,1
880,560,31,0.10980877201661,1
880,561,31,0.132178176452366,1
880,562,31,0.125443030144127,1
880,563,31,0.103848286538958,1
881,561,31,0.118247952115179,1
881,562,31,0.109135807478198,1
882,561,31,0.110032839361303,1
882,562,31,0.100258372567814,1
896,532,31,0.108015220217594,1
905,545,31,0.108923853059479,1
906,545,31,0.12044291887381,1
873,529,32,0.114070735520967,1
874,529,32,0.115536976888611,1
874,530,32,0.100574289005869,1
875,528,32,0.135791390377342,1
875,531,32,0.115786283126724,1
875,532,32,0.108202774497658,1
875,559,32,0.105567047555832,1
875,560,32,0.118404254610512,1
875,561,32,0.11883804332552,1
875,562,32,0.109036006553935,1
876,527,32,0.146387335767462,1
876,532,32,0.11065617576056,1
876,559,32,0.121830393543861,1
876,560,32,0.133805447842207,1
876,561,32,0.130141919524177,1
876,562,32,0.120871391844325,1
876,563,32,0.101195435928398,1
877,559,32,0.114836714695079,1
877,560,32,0.124537229461193,1
877,561,32,0.123386011312243,1
877,562,32,0.119228282150198,1
877,563,32,0.103868895941786,1
878,559,32,0.104889486205584,1
878,560,32,0.118417674686771,1
878,561,32,0.122614335141472,1
878,562,32,0.121669875488858,1
878,563,32,0.106115636744624,1
879,526,32,0.120745622201067,1
879,527,32,0.112794782556068,1
879,560,32,0.113878388356525,1
879,561,32,0.128034542727562,1
879,562,32,0.126764286759321,1
879,563,32,0.106817587340607,1
880,526,32,0.11152529998508,1
880,527,32,0.102708952564684,1
880,560,32,0.103413680855022,1
880,561,32,0.128391220468672,1
880,562,32,0.125777998297586,1
880,563,32,0.104454118017315,1
881,561,32,0.11633914233978,1
881,562,32,0.11602658092079,1
882,561,32,0.107588609936235,1
882,562,32,0.111325926887855,1
886,565,32,0.10006091662434,1
886,566,32,0.102492902408405,1
887,565,32,0.103553393434654,1
887,566,32,0.104686213443342,1
895,532,32,0.101053305120739,1
896,532,32,0.110474307584236,1
873,529,33,0.108419500014917,1
874,529,33,0.106372622490661,1
874,559,33,0.104209648235256,1
874,560,33,0.114616819338379,1
874,561,33,0.111592945012331,1
874,562,33,0.100478605605004,1
875,528,33,0.120913699941884,1
875,531,33,0.123581985818727,1
875,532,33,0.110073077804244,1
875,559,33,0.11425205905134,1
875,560,33,0.13042260826205,1
875,561,33,0.1320863818236,1
875,562,33,0.120651921311468,1
876,527,33,0.135069233416536,1
876,532,33,0.112852046631472,1
876,559,33,0.123489254398923,1
876,560,33,0.141513571465112,1
876,561,33,0.144028408791411,1
876,562,33,0.133718500562414,1
876,563,33,0.10996795024257,1
877,527,33,0.123406925716804,1
877,559,33,0.118301665098974,1
877,560,33,0.134494000147768,1
877,561,33,0.137243677915692,1
877,562,33,0.13095722183571,1
877,563,33,0.112114508868979,1
878,527,33,0.118268714018873,1
878,559,33,0.110094809177733,1
878,560,33,0.126859872123915,1
878,561,33,0.130913617480785,1
878,562,33,0.128380708801796,1
878,563,33,0.11233803156772,1
879,526,33,0.120877219556013,1
879,527,33,0.111439659855572,1
879,560,33,0.111938381260989,1
879,561,33,0.124027168527053,1
879,562,33,0.125303295778657,1
879,563,33,0.109585325568302,1
880,526,33,0.113485785768414,1
880,527,33,0.10198688274723,1
880,561,33,0.12049146861398,1
880,562,33,0.126162431196415,1
880,563,33,0.108267739866825,1
881,561,33,0.113311825851314,1
881,562,33,0.126527038982588,1
881,563,33,0.105654986091258,1
882,561,33,0.102765824495002,1
882,562,33,0.12451622791328,1
882,563,33,0.104864726600602,1
883,562,33,0.102198434127944,1
883,563,33,0.100191054328134,1
884,563,33,0.100304525865794,1
886,565,33,0.102893293433631,1
886,566,33,0.103782340807078,1
887,565,33,0.105635847232501,1
887,566,33,0.104582131601896,1
895,532,33,0.100107396709892,1
896,532,33,0.105894172807581,1
899,534,33,0.103553709329307,1
899,567,33,0.0998529272281528,1
874,528,34,0.112341146942566,1
874,560,34,0.108852308367211,1
874,561,34,0.112176075647404,1
874,562,34,0.102987484504587,1
875,528,34,0.107273161893698,1
875,529,34,0.106617266559425,1
875,532,34,0.104612326773481,1
875,560,34,0.116012921200311,1
875,561,34,0.124326941659088,1
875,562,34,0.118964401186406,1
876,527,34,0.120354076226104,1
876,528,34,0.103073440528747,1
876,559,34,0.10382154442271,1
876,560,34,0.126804503416424,1
876,561,34,0.139865701565364,1
876,562,34,0.136130879092204,1
876,563,34,0.11290300370675,1
877,527,34,0.11521418701864,1
877,559,34,0.101209934403643,1
877,560,34,0.125089478670782,1
877,561,34,0.139393667811599,1
877,562,34,0.136833908087172,1
877,563,34,0.116318794367009,1
878,527,34,0.114702383217454,1
878,560,34,0.116360078530178,1
878,561,34,0.130140601480972,1
878,562,34,0.130655945480848,1
878,563,34,0.114528499550787,1
879,526,34,0.115747373619906,1
879,527,34,0.108540041057036,1
879,561,34,0.111775455870879,1
879,562,34,0.117901851398458,1
879,563,34,0.107946006610001,1
880,526,34,0.110421313533096,1
880,527,34,0.101237580632172,1
880,561,34,0.102105005561321,1
880,562,34,0.11538678532086,1
880,563,34,0.105205751217049,1
881,526,34,0.104370482184911,1
881,562,34,0.117691966634358,1
881,563,34,0.102905852969286,1
882,562,34,0.113864532563503,1
882,563,34,0.100518735118755,1
898,533,34,0.101938746937984,1
898,534,34,0.104677749645247,1
899,534,34,0.109805406104626,1
902,538,34,0.099722909346468,1
903,538,34,0.120685406144603,1
903,539,34,0.104610660156867,1
904,539,34,0.10401438176851,1
858,551,35,0.110459972502776,1
859,551,35,0.100931576750445,1
859,552,35,0.101747064241602,1
873,560,35,0.102098230165677,1
873,561,35,0.112940813028745,1
873,562,35,0.101822606635158,1
874,560,35,0.111258314539362,1
874,561,35,0.123857086489132,1
874,562,35,0.115768898027933,1
875,529,35,0.101171776508239,1
875,560,35,0.109682414155723,1
875,561,35,0.121277207543234,1
875,562,35,0.121059458091585,1
875,563,35,0.105133171697472,1
876,527,35,0.107683018865571,1
876,560,35,0.115917346728637,1
876,561,35,0.130787826051689,1
876,562,35,0.134605946676762,1
876,563,35,0.119561278685311,1
876,564,35,0.101581143298755,1
877,527,35,0.107624218888583,1
877,560,35,0.111513579204191,1
877,561,35,0.12801671101909,1
877,562,35,0.134062368230731,1
877,563,35,0.121682729133328,1
877,564,35,0.10633193743804,1
878,527,35,0.110283430963863,1
878,560,35,0.102825713763894,1
878,561,35,0.120033987800056,1
878,562,35,0.129376267137636,1
878,563,35,0.119825943939273,1
878,564,35,0.106228291313355,1
879,527,35,0.107130671619711,1
879,561,35,0.10245089931258,1
879,562,35,0.116322508852403,1
879,563,35,0.112535291438651,1
879,564,35,0.102332384353403,1
880,527,35,0.102410911406776,1
880,562,35,0.111289729717879,1
880,563,35,0.109095939394504,1
881,527,35,0.101729602892378,1
881,528,35,0.102398493479069,1
881,562,35,0.107451348263387,1
881,563,35,0.101388436667984,1
882,526,35,0.101056769068994,1
882,527,35,0.104595344712694,1
882,528,35,0.109477082631782,1
882,529,35,0.102001816939237,1
883,527,35,0.106678800659093,1
883,528,35,0.116301333017785,1
883,529,35,0.10713488717938,1
884,527,35,0.103247411338766,1
884,528,35,0.116827667972973,1
884,529,35,0.109220085992825,1
885,528,35,0.10822231639442,1
885,529,35,0.1015212758157,1
888,528,35,0.101449905410138,1
889,527,35,0.104962588585275,1
889,528,35,0.106159829317177,1
890,527,35,0.105515426012492,1
890,528,35,0.103266626447956,1
898,532,35,0.104569375993698,1
898,533,35,0.10653341286864,1
898,534,35,0.106388144900296,1
899,533,35,0.108715743841182,1
899,534,35,0.115741861802871,1
899,535,35,0.102048667384036,1
900,534,35,0.113332707577117,1
900,535,35,0.110716086815291,1
902,537,35,0.10549009997572,1
902,538,35,0.116322694032026,1
903,538,35,0.130961077929051,1
903,539,35,0.119504853364673,1
904,539,35,0.106692634666276,1
858,551,36,0.111428483720635,1
858,552,36,0.125043641267453,1
862,555,36,0.102602071243044,1
873,561,36,0.12050590173171,1
873,562,36,0.111167979561747,1
874,560,36,0.102583836496568,1
874,561,36,0.12439899831855,1
874,562,36,0.120135596948879,1
875,561,36,0.109048773055052,1
875,562,36,0.11414199699734,1
875,563,36,0.103336744167829,1
876,561,36,0.104254189381219,1
876,562,36,0.113146111873929,1
876,563,36,0.107823690022079,1
877,562,36,0.105190686310013,1
877,563,36,0.106854971838759,1
877,564,36,0.102297374511602,1
878,562,36,0.104720613281677,1
878,563,36,0.110222583118095,1
878,564,36,0.105682174817187,1
879,562,36,0.102192867846314,1
879,563,36,0.110381630629027,1
879,564,36,0.104735057292326,1
880,562,36,0.100856546324084,1
880,563,36,0.10900285940129,1
880,564,36,0.101242253694441,1
881,528,36,0.101075897034832,1
881,563,36,0.100854302382761,1
882,527,36,0.102973792105351,1
882,528,36,0.116480913681111,1
882,529,36,0.110867944999655,1
883,527,36,0.107568784823578,1
883,528,36,0.130765996641929,1
883,529,36,0.122650826420263,1
884,527,36,0.103631571914619,1
884,528,36,0.129127636260503,1
884,529,36,0.123388385968594,1
885,528,36,0.115183305593156,1
885,529,36,0.110621568956764,1
886,528,36,0.102792686433359,1
887,528,36,0.103235352877386,1
888,527,36,0.10413320172942,1
888,528,36,0.114186265820326,1
888,529,36,0.108700363039495,1
889,527,36,0.11181228483016,1
889,528,36,0.121996347165465,1
889,529,36,0.112612358840873,1
889,530,36,0.100594026975173,1
890,527,36,0.109974159206424,1
890,528,36,0.114677667184147,1
890,529,36,0.104514878719731,1
891,528,36,0.103184646339246,1
897,533,36,0.101378905363822,1
897,534,36,0.109761725499268,1
898,533,36,0.109405744904976,1
898,534,36,0.108405317434325,1
899,534,36,0.113906960483172,1
899,535,36,0.101490601355678,1
899,568,36,0.100949059885507,1
900,535,36,0.112114258331841,1
900,536,36,0.10360494962048,1
900,537,36,0.119703485743403,1
900,538,36,0.124361831678779,1
901,537,36,0.125855414273217,1
901,538,36,0.13224715041574,1
902,537,36,0.109742227174183,1
902,538,36,0.126827433011008,1
902,539,36,0.104469335425217,1
903,538,36,0.122789547744262,1
903,539,36,0.120808441665182,1
904,539,36,0.10225567641751,1
861,554,37,0.10204464789691,1
861,555,37,0.112954407391709,1
862,555,37,0.109820786906313,1
865,557,37,0.113268461140608,1
873,561,37,0.102279684411078,1
874,561,37,0.10131821001892,1
874,562,37,0.102238585427533,1
875,562,37,0.100191893082901,1
876,529,37,0.100218471805363,1
876,562,37,0.100400928199316,1
876,563,37,0.100390961178392,1
877,563,37,0.10179905614419,1
877,564,37,0.100564528950407,1
878,563,37,0.110494906094144,1
878,564,37,0.107519124005666,1
879,563,37,0.111683247311189,1
879,564,37,0.106659531085308,1
880,563,37,0.105445972760681,1
881,528,37,0.102857216085764,1
881,529,37,0.100607327229323,1
882,527,37,0.101617024574079,1
882,528,37,0.122761890622815,1
882,529,37,0.120056274712415,1
883,527,37,0.1066841817611,1
883,528,37,0.141280310496748,1
883,529,37,0.136067384267108,1
884,527,37,0.101650923338138,1
884,528,37,0.134355485789231,1
884,529,37,0.130934270455289,1
885,528,37,0.117530903933403,1
885,529,37,0.114983159098679,1
886,528,37,0.106738668142147,1
886,529,37,0.102221091399551,1
887,528,37,0.110202387646191,1
887,529,37,0.105612841387485,1
888,527,37,0.106113697805034,1
888,528,37,0.126238311270461,1
888,529,37,0.120225267458432,1
888,530,37,0.103480617842535,1
889,527,37,0.113266674701885,1
889,528,37,0.13501779705282,1
889,529,37,0.125887297847253,1
889,530,37,0.106487717073259,1
890,528,37,0.124501773009711,1
890,529,37,0.116764597971721,1
890,530,37,0.100174595127462,1
891,528,37,0.111238336925839,1
891,529,37,0.107875627460071,1
895,531,37,0.100345341633445,1
897,533,37,0.101939836229888,1
897,534,37,0.117082387991851,1
898,533,37,0.109120982215381,1
898,534,37,0.112396428506704,1
898,567,37,0.10850110976438,1
899,534,37,0.111693508440926,1
899,535,37,0.100936358741904,1
899,537,37,0.101636697185869,1
899,538,37,0.115923424977462,1
900,536,37,0.101089622112825,1
900,537,37,0.142799959846454,1
900,538,37,0.18194207405756,1
900,539,37,0.125456439327468,1
901,537,37,0.13262088646807,1
901,538,37,0.163347273035304,1
901,539,37,0.116854725983874,1
902,538,37,0.121345767575684,1
902,539,37,0.106705629918693,1
903,539,37,0.112725906628966,1
903,540,37,0.102329541301533,1
878,563,38,0.103627715821278,1
879,563,38,0.103579100723593,1
881,528,38,0.102566200860639,1
881,529,38,0.102890156272947,1
882,528,38,0.121951370302741,1
882,529,38,0.124333161515861,1
883,527,38,0.102438982459148,1
883,528,38,0.140758572353395,1
883,529,38,0.1423987518523,1
884,528,38,0.130577560035422,1
884,529,38,0.131232333399034,1
885,528,38,0.115485181058566,1
885,529,38,0.114602124790591,1
886,528,38,0.107624164423988,1
886,529,38,0.104894791057158,1
887,528,38,0.113345288898611,1
887,529,38,0.110593650405259,1
888,528,38,0.131158392264577,1
888,529,38,0.126819165285455,1
888,530,38,0.10845369288779,1
889,528,38,0.138792803504326,1
889,529,38,0.133456297108155,1
889,530,38,0.111968042679541,1
890,528,38,0.129316508583772,1
890,529,38,0.125732444110153,1
890,530,38,0.107935309763502,1
891,529,38,0.116986301552982,1
891,530,38,0.102837151328888,1
892,529,38,0.104902699316382,1
897,533,38,0.106752001075055,1
897,534,38,0.115612148922919,1
898,533,38,0.11734254357733,1
898,534,38,0.123428842269916,1
898,535,38,0.111040663123984,1
898,567,38,0.112698303972114,1
899,534,38,0.116832177641457,1
899,537,38,0.113619899387659,1
899,538,38,0.146702816488755,1
899,539,38,0.106224478791691,1
899,567,38,0.114794123381625,1
900,537,38,0.157585931903578,1
900,538,38,0.235889462578332,1
900,539,38,0.167068490252581,1
901,537,38,0.132320394403378,1
901,538,38,0.184579489401837,1
901,539,38,0.13956978452667,1
902,538,38,0.116524093212193,1
902,539,38,0.109179814871127,1
881,528,39,0.107728180907919,1
882,528,39,0.116272412317729,1
882,529,39,0.120983273015805,1
883,528,39,0.127134754935939,1
883,529,39,0.134186220720238,1
883,530,39,0.104673174619249,1
884,528,39,0.119820867839,1
884,529,39,0.123279979638289,1
885,528,39,0.112849944298097,1
885,529,39,0.111156062708315,1
886,528,39,0.109647948959874,1
886,529,39,0.105438946827899,1
887,528,39,0.119463492951071,1
887,529,39,0.115201976056394,1
887,530,39,0.101332054919023,1
888,528,39,0.136724869967562,1
888,529,39,0.133638001890694,1
888,530,39,0.113285323379285,1
889,527,39,0.108995724539318,1
889,528,39,0.140847720002834,1
889,529,39,0.140197815774034,1
889,530,39,0.117206164230925,1
890,528,39,0.133678381941582,1
890,529,39,0.134304703000657,1
890,530,39,0.114991524860503,1
891,529,39,0.127327940855148,1
891,530,39,0.110437881662959,1
892,530,39,0.10004022007816,1
894,531,39,0.103851489057157,1
894,532,39,0.103449627487861,1
895,532,39,0.106112935300701,1
896,533,39,0.107169548447771,1
897,533,39,0.127295774065217,1
897,534,39,0.117271489066419,1
898,533,39,0.135755160528608,1
898,534,39,0.137709807707336,1
898,535,39,0.121842767899892,1
899,534,39,0.123557923360563,1
899,537,39,0.124181172616468,1
899,538,39,0.171168683016246,1
899,539,39,0.133748249124318,1
900,537,39,0.163782619437735,1
900,538,39,0.270240195633803,1
900,539,39,0.212979714893499,1
900,540,39,0.112779369075624,1
901,537,39,0.129716964966512,1
901,538,39,0.198883144789622,1
901,539,39,0.172780628068995,1
901,540,39,0.114110200566656,1
902,538,39,0.116168177975416,1
902,539,39,0.117153987148714,1
882,529,40,0.109383490671374,1
883,529,40,0.115970711139023,1
883,530,40,0.101374668018315,1
884,529,40,0.110705901935987,1
885,528,40,0.104565988295876,1
885,529,40,0.104338860040932,1
886,528,40,0.105660857374622,1
886,529,40,0.10145544990593,1
887,529,40,0.112698489151737,1
888,528,40,0.130380441772438,1
888,529,40,0.13095028304628,1
888,530,40,0.111506291841352,1
889,528,40,0.129853747350921,1
889,529,40,0.135129318757972,1
889,530,40,0.115482043897882,1
890,528,40,0.12352919873305,1
890,529,40,0.128277618215983,1
890,530,40,0.112796906675282,1
891,529,40,0.12600000688058,1
891,530,40,0.110719354691004,1
894,532,40,0.106743798707016,1
894,533,40,0.100108594930987,1
895,533,40,0.100710635673517,1
897,534,40,0.125206054690369,1
898,534,40,0.152326318622924,1
899,537,40,0.123167804357994,1
899,538,40,0.167782118057777,1
899,539,40,0.143882138674515,1
900,537,40,0.151768808133438,1
900,538,40,0.257276075179366,1
900,539,40,0.232034327814354,1
900,540,40,0.138647393928035,1
901,537,40,0.124217489608554,1
901,538,40,0.199346725638209,1
901,539,40,0.204511450701089,1
901,540,40,0.148287888710227,1
902,538,40,0.119106956817909,1
902,539,40,0.131391163051585,1
884,529,41,0.100236368871349,1
885,529,41,0.10295117840542,1
886,529,41,0.105497354659802,1
887,529,41,0.114932202023401,1
888,529,41,0.128621082846295,1
888,530,41,0.108982892680687,1
889,529,41,0.129628688750595,1
889,530,41,0.111753027350571,1
890,529,41,0.122940142350017,1
890,530,41,0.110429951617897,1
891,529,41,0.121728838859632,1
892,529,41,0.114740639149129,1
894,531,41,0.103402885972252,1
894,533,41,0.10226795273727,1
899,537,41,0.120436938661256,1
899,538,41,0.15272420427677,1
899,539,41,0.144702342799618,1
899,540,41,0.107875954247642,1
900,537,41,0.137209495935739,1
900,538,41,0.221552703609579,1
900,539,41,0.230836586008176,1
900,540,41,0.154879183129598,1
901,537,41,0.118680651538282,1
901,538,41,0.192078229334918,1
901,539,41,0.224759426474666,1
901,540,41,0.168089254803084,1
901,541,41,0.105212962329454,1
902,538,41,0.124285472316295,1
902,539,41,0.143039658529972,1
902,540,41,0.125078803610121,1
903,539,41,0.101725735906118,1
885,528,42,0.102595589956214,1
885,529,42,0.1060504099454,1
886,528,42,0.127713408581286,1
886,529,42,0.118956895965187,1
887,528,42,0.137888418900867,1
887,529,42,0.12468245385786,1
887,530,42,0.102879219782228,1
888,529,42,0.126610478742449,1
888,530,42,0.108568308181949,1
888,531,42,0.101617187967865,1
889,529,42,0.126482486943706,1
889,530,42,0.11129574260919,1
889,531,42,0.10151968544952,1
890,529,42,0.122463391962308,1
890,530,42,0.111722832178987,1
891,528,42,0.114629052086463,1
891,529,42,0.121248559166153,1
891,530,42,0.111840867849726,1
892,528,42,0.113076669515036,1
892,529,42,0.116565682377095,1
892,530,42,0.107830530775237,1
892,531,42,0.100468039473533,1
893,529,42,0.1079210073608,1
893,530,42,0.103323302305731,1
893,531,42,0.104686365944209,1
893,532,42,0.108281846196984,1
893,533,42,0.105884478109634,1
894,530,42,0.101161656986449,1
894,531,42,0.107475410721551,1
894,532,42,0.111601354345831,1
894,533,42,0.107042645940932,1
895,531,42,0.112604940763005,1
898,538,42,0.100514519559085,1
899,537,42,0.122541428834325,1
899,538,42,0.147742828827205,1
899,539,42,0.151206984048011,1
899,540,42,0.122717992159076,1
900,537,42,0.13225237901688,1
900,538,42,0.196746825507112,1
900,539,42,0.223849540947091,1
900,540,42,0.164788057651146,1
900,541,42,0.107169951485776,1
901,537,42,0.121413946355967,1
901,538,42,0.189636777604206,1
901,539,42,0.230426750822141,1
901,540,42,0.172566070242625,1
901,541,42,0.111224600954927,1
902,538,42,0.133674231739427,1
902,539,42,0.152545222723992,1
902,540,42,0.126419667479591,1
903,539,42,0.106810626765339,1
885,528,43,0.105203812277459,1
885,529,43,0.110560045750015,1
885,530,43,0.102697220890875,1
886,528,43,0.143311175430012,1
886,529,43,0.135459733671271,1
886,530,43,0.111971517520715,1
886,531,43,0.103757777274639,1
887,527,43,0.121084402876191,1
887,528,43,0.154360277145196,1
887,529,43,0.138572788325516,1
887,530,43,0.111959328344307,1
887,531,43,0.107320502519855,1
888,528,43,0.131495408286816,1
888,529,43,0.12620308357028,1
888,530,43,0.109835612169129,1
888,531,43,0.108541348207321,1
888,532,43,0.100181283379754,1
889,529,43,0.12416898344006,1
889,530,43,0.112534550720156,1
889,531,43,0.108112439520043,1
889,532,43,0.10564233941225,1
890,529,43,0.122943203260268,1
890,530,43,0.114455168419796,1
890,531,43,0.105142092998167,1
890,532,43,0.101240990115832,1
891,528,43,0.111435052150818,1
891,529,43,0.117455971543314,1
891,530,43,0.110265544790796,1
891,531,43,0.100931141033683,1
892,528,43,0.110621525385088,1
892,529,43,0.113416909841312,1
892,530,43,0.107817350343197,1
892,531,43,0.104008837272718,1
892,532,43,0.104682281099568,1
892,533,43,0.104602501360505,1
893,528,43,0.105573572414338,1
893,529,43,0.108012028592315,1
893,530,43,0.105630553273847,1
893,531,43,0.107138993809859,1
893,532,43,0.111531280197634,1
893,533,43,0.10964357000642,1
894,529,43,0.102222758016165,1
894,530,43,0.102971657093219,1
894,531,43,0.106758438790209,1
894,532,43,0.111250569673923,1
894,533,43,0.108681147930305,1
895,530,43,0.105355082244195,1
895,531,43,0.113151253331717,1
895,532,43,0.117174411371917,1
898,538,43,0.109239736818777,1
898,539,43,0.105464196614238,1
898,540,43,0.100065110398171,1
899,537,43,0.124160759286183,1
899,538,43,0.145798192241077,1
899,539,43,0.152196671100487,1
899,540,43,0.130965500454182,1
899,541,43,0.102858098412206,1
900,537,43,0.132237553754064,1
900,538,43,0.181913153357503,1
900,539,43,0.205956832128766,1
900,540,43,0.161999241625105,1
900,541,43,0.112978796637444,1
901,537,43,0.128352507034396,1
901,538,43,0.189557651440285,1
901,539,43,0.217764603869385,1
901,540,43,0.162198331506435,1
901,541,43,0.112076557939037,1
902,537,43,0.114964172740789,1
902,538,43,0.152882064459526,1
902,539,43,0.16607532835893,1
902,540,43,0.129232949001801,1
903,538,43,0.120465227572008,1
903,539,43,0.122254204345026,1
885,529,44,0.10462290379787,1
885,530,44,0.105856929917377,1
885,531,44,0.108122232254262,1
886,528,44,0.135931484209141,1
886,529,44,0.134789644863486,1
886,530,44,0.119303170968611,1
886,531,44,0.120607761417672,1
887,527,44,0.10961321144105,1
887,528,44,0.149052985557896,1
887,529,44,0.139076466009097,1
887,530,44,0.116218056651709,1
887,531,44,0.117202112065041,1
888,528,44,0.123390052585208,1
888,529,44,0.118597505887235,1
888,530,44,0.106588117108069,1
888,531,44,0.108882329252091,1
888,532,44,0.101328427576982,1
889,529,44,0.116401210192481,1
889,530,44,0.110350683846028,1
889,531,44,0.110122063261176,1
889,532,44,0.109263385346017,1
890,529,44,0.119697516423768,1
890,530,44,0.116264830846075,1
890,531,44,0.111734117243115,1
890,532,44,0.111322266867057,1
890,533,44,0.103819463875173,1
891,528,44,0.106517879566086,1
891,529,44,0.117466777319003,1
891,530,44,0.116203449247274,1
891,531,44,0.112417332018345,1
891,532,44,0.111994686759517,1
891,533,44,0.109465819353493,1
892,528,44,0.106387807219806,1
892,529,44,0.118998539594684,1
892,530,44,0.121396201790848,1
892,531,44,0.119157369247235,1
892,532,44,0.116614711405703,1
892,533,44,0.111470878961547,1
893,528,44,0.104432136106688,1
893,529,44,0.11789352920831,1
893,530,44,0.122065931132305,1
893,531,44,0.119282158527779,1
893,532,44,0.115683257898425,1
893,533,44,0.108724109603007,1
894,528,44,0.100048139230304,1
894,529,44,0.111435803762231,1
894,530,44,0.11367559488272,1
894,531,44,0.111650045693949,1
894,532,44,0.110117902166102,1
894,533,44,0.104982587984636,1
895,529,44,0.104567938128385,1
895,530,44,0.111430869269905,1
895,531,44,0.116294622979655,1
895,532,44,0.118438186053327,1
895,534,44,0.101821539129092,1
896,530,44,0.128058844829944,1
896,531,44,0.149316822950011,1
896,536,44,0.0999544274477858,1
898,540,44,0.110005171346936,1
898,541,44,0.106100473801317,1
899,538,44,0.142327207160033,1
899,539,44,0.150185184670198,1
899,540,44,0.136722582454563,1
900,537,44,0.137498005789484,1
900,538,44,0.169088582088913,1
900,539,44,0.182116959872778,1
900,540,44,0.15363198747097,1
900,541,44,0.118997973162894,1
901,537,44,0.142305236142325,1
901,538,44,0.187344406363501,1
901,539,44,0.19550729846349,1
901,540,44,0.147462913486584,1
901,541,44,0.113006889475653,1
902,537,44,0.131727830500415,1
902,538,44,0.178337280359004,1
902,539,44,0.185831597766954,1
902,540,44,0.133852527038306,1
903,538,44,0.143071705497794,1
903,539,44,0.148619098806617,1
885,530,45,0.108786221027384,1
885,531,45,0.122774809624799,1
886,528,45,0.119490997571652,1
886,529,45,0.127116269652324,1
886,530,45,0.125506318003761,1
886,531,45,0.138679517146289,1
886,532,45,0.11225901433299,1
887,528,45,0.132367571635749,1
887,529,45,0.133018401762668,1
887,530,45,0.119893621645281,1
887,531,45,0.126104208544136,1
887,532,45,0.108690014766405,1
888,529,45,0.11490572133721,1
888,530,45,0.107893644348167,1
888,531,45,0.111846793597685,1
888,532,45,0.104597022222227,1
889,529,45,0.113676771317977,1
889,530,45,0.111490039606141,1
889,531,45,0.112560475867476,1
889,532,45,0.111673073324803,1
890,529,45,0.122346739692288,1
890,530,45,0.121446331004279,1
890,531,45,0.117656684469581,1
890,532,45,0.117991282263793,1
890,533,45,0.11146481160564,1
891,528,45,0.110402316282287,1
891,529,45,0.125795023930049,1
891,530,45,0.126901711825955,1
891,531,45,0.122808065706634,1
891,532,45,0.121382324211989,1
891,533,45,0.118759527165065,1
892,528,45,0.11147083538987,1
892,529,45,0.132313924009467,1
892,530,45,0.137855249962384,1
892,531,45,0.133454979064951,1
892,532,45,0.12636328573063,1
892,533,45,0.117467082320737,1
893,528,45,0.109800493398138,1
893,529,45,0.1323692600382,1
893,530,45,0.138742521790028,1
893,531,45,0.131185842420563,1
893,532,45,0.120672857501867,1
893,533,45,0.109211524158458,1
894,528,45,0.107038539310454,1
894,529,45,0.125289341949364,1
894,530,45,0.127318115442172,1
894,531,45,0.12013774285393,1
894,532,45,0.113484740048186,1
894,533,45,0.105911568799291,1
895,528,45,0.101380942339683,1
895,529,45,0.115633128684994,1
895,530,45,0.120491599329008,1
895,531,45,0.120875672761509,1
895,532,45,0.121550380166968,1
896,529,45,0.1161633633052,1
896,530,45,0.133562394139624,1
896,531,45,0.149554648051455,1
897,538,45,0.108883767117405,1
898,541,45,0.113932112233239,1
898,542,45,0.100975213784127,1
899,538,45,0.139624368943989,1
899,539,45,0.144925832819602,1
900,537,45,0.147263257173464,1
900,538,45,0.156887085789522,1
900,539,45,0.161077766031669,1
900,540,45,0.14808092324843,1
901,536,45,0.135726305186066,1
901,537,45,0.16185410437179,1
901,538,45,0.184673212077274,1
901,539,45,0.181771904876286,1
901,540,45,0.142096255490505,1
902,537,45,0.150465241618767,1
902,538,45,0.207765252762275,1
902,539,45,0.219630168756188,1
902,540,45,0.14717142986594,1
903,537,45,0.12023427590248,1
903,538,45,0.17596929047431,1
903,539,45,0.193592475796779,1
903,540,45,0.134315378061318,1
904,538,45,0.110820277585927,1
904,539,45,0.119869406686251,1
885,530,46,0.103067427637435,1
885,531,46,0.126591808279211,1
885,532,46,0.108047158256225,1
886,529,46,0.110511801011578,1
886,530,46,0.122152715018312,1
886,531,46,0.146823008957464,1
886,532,46,0.125495359727204,1
887,528,46,0.109869903078273,1
887,529,46,0.11779745366236,1
887,530,46,0.11699928591248,1
887,531,46,0.126598365816474,1
887,532,46,0.11106163199314,1
888,529,46,0.108499933329123,1
888,530,46,0.105709690330687,1
888,531,46,0.108242032577886,1
888,532,46,0.100712857829001,1
889,529,46,0.108978491941394,1
889,530,46,0.107585091523384,1
889,531,46,0.10754056127034,1
889,532,46,0.104508157788682,1
890,528,46,0.10640401588334,1
890,529,46,0.118370660848186,1
890,530,46,0.11858074168483,1
890,531,46,0.117535729496539,1
890,532,46,0.116445468122548,1
890,533,46,0.106692002876972,1
891,528,46,0.10908824899366,1
891,529,46,0.125261750185431,1
891,530,46,0.12718340271238,1
891,531,46,0.126173335008376,1
891,532,46,0.123668638989706,1
891,533,46,0.116055283762465,1
892,528,46,0.108395328627563,1
892,529,46,0.130727784281929,1
892,530,46,0.135220209274458,1
892,531,46,0.131867858974699,1
892,532,46,0.123116901747311,1
892,533,46,0.11212564143224,1
893,528,46,0.105885000969748,1
893,529,46,0.129105185954358,1
893,530,46,0.132473363665485,1
893,531,46,0.124242586894027,1
893,532,46,0.111889973128767,1
893,533,46,0.100737955114474,1
894,528,46,0.10354491874364,1
894,529,46,0.122282678435402,1
894,530,46,0.122882366307419,1
894,531,46,0.11612731863609,1
894,532,46,0.108036406945131,1
895,528,46,0.099915005973773,1
895,529,46,0.115211855933965,1
895,530,46,0.1194804423331,1
895,531,46,0.119127936579983,1
895,532,46,0.11850773734141,1
896,529,46,0.115110976610718,1
896,530,46,0.129027595692022,1
896,531,46,0.138911721501507,1
896,537,46,0.101124784455492,1
897,539,46,0.100377748067595,1
898,541,46,0.115197967462187,1
898,542,46,0.105793740094015,1
900,537,46,0.145244014984818,1
900,538,46,0.138934248058086,1
900,539,46,0.140317539847224,1
901,536,46,0.153516816637939,1
901,537,46,0.160395226617419,1
901,538,46,0.163020757787022,1
901,539,46,0.161124300581816,1
901,540,46,0.135853218585824,1
902,537,46,0.146299898306312,1
902,538,46,0.196598660022304,1
902,539,46,0.215289841592242,1
902,540,46,0.143455680894023,1
902,554,46,0.107275525657131,1
902,555,46,0.105805297481118,1
903,537,46,0.110311621838344,1
903,538,46,0.169661702131386,1
903,539,46,0.197014203097916,1
903,540,46,0.131180287031851,1
903,554,46,0.120763399444943,1
903,555,46,0.121900674657519,1
904,539,46,0.112989373661834,1
885,531,47,0.118364266704709,1
885,532,47,0.112982957732518,1
886,530,47,0.111967345532722,1
886,531,47,0.141694186955747,1
886,532,47,0.130843477975074,1
887,529,47,0.101076801147112,1
887,530,47,0.113095819266712,1
887,531,47,0.127055737701208,1
887,532,47,0.115451761582945,1
888,529,47,0.101772259563346,1
888,530,47,0.10602744767206,1
888,531,47,0.109506112261029,1
888,532,47,0.102283344431876,1
889,529,47,0.104987032295605,1
889,530,47,0.105109893529479,1
889,531,47,0.104535215799583,1
889,532,47,0.100308850354654,1
890,528,47,0.105386889567797,1
890,529,47,0.114420430900972,1
890,530,47,0.116511555462376,1
890,531,47,0.119419997525336,1
890,532,47,0.118209707076422,1
890,533,47,0.105200686009694,1
891,528,47,0.108526403122395,1
891,529,47,0.12286017743133,1
891,530,47,0.125945629428723,1
891,531,47,0.130140024156263,1
891,532,47,0.128699827758049,1
891,533,47,0.115336743250781,1
892,528,47,0.107673716312709,1
892,529,47,0.127574556542258,1
892,530,47,0.130911983542929,1
892,531,47,0.129695582166432,1
892,532,47,0.121962415722649,1
892,533,47,0.109476734058373,1
893,528,47,0.104661007228679,1
893,529,47,0.124706461851429,1
893,530,47,0.124867589909897,1
893,531,47,0.116667291525919,1
893,532,47,0.10490317860482,1
894,528,47,0.102178957588697,1
894,529,47,0.120224701026642,1
894,530,47,0.11872252391908,1
894,531,47,0.111587139086481,1
894,532,47,0.102748472074968,1
895,529,47,0.115228195312528,1
895,530,47,0.118703178094861,1
895,531,47,0.116528047341805,1
895,532,47,0.11240772446375,1
896,530,47,0.12231351628921,1
896,531,47,0.125737574675021,1
900,538,47,0.121336911632503,1
900,539,47,0.124326680229031,1
901,537,47,0.150876296811735,1
901,538,47,0.142885589083043,1
901,539,47,0.148644250556685,1
901,540,47,0.144109364965731,1
902,537,47,0.142415929985629,1
902,538,47,0.17547605910009,1
902,539,47,0.194396808938838,1
902,540,47,0.143837357884334,1
902,554,47,0.132955375333091,1
902,555,47,0.135041129685408,1
903,538,47,0.153722660129075,1
903,539,47,0.177839735388843,1
903,540,47,0.123894427415607,1
903,554,47,0.146122016938357,1
903,555,47,0.147463719562593,1
903,556,47,0.10164953993742,1
904,539,47,0.103889004270337,1
904,554,47,0.100496263026771,1
904,555,47,0.102733483418366,1
885,531,48,0.106235850999171,1
885,532,48,0.109308503816689,1
886,530,48,0.0999928576661659,1
886,531,48,0.12680535306411,1
886,532,48,0.122669159203011,1
887,530,48,0.106427686196419,1
887,531,48,0.121584017500969,1
887,532,48,0.112503647508834,1
888,530,48,0.103627389033706,1
888,531,48,0.107939416393981,1
888,532,48,0.100661955218318,1
889,530,48,0.105596436651407,1
889,531,48,0.106731533280175,1
889,532,48,0.101325137915431,1
890,529,48,0.111871313558448,1
890,530,48,0.121394883747644,1
890,531,48,0.130929575607182,1
890,532,48,0.127918576711441,1
890,533,48,0.10920763538636,1
891,528,48,0.102950394115249,1
891,529,48,0.11824167779381,1
891,530,48,0.129347880190613,1
891,531,48,0.142972743328297,1
891,532,48,0.141566532837494,1
891,533,48,0.12001835646123,1
892,528,48,0.101567548935791,1
892,529,48,0.11850865234661,1
892,530,48,0.12759738810057,1
892,531,48,0.135392611504135,1
892,532,48,0.130149032600311,1
892,533,48,0.113179531349549,1
893,529,48,0.112987151506349,1
893,530,48,0.114712350238377,1
893,531,48,0.112739566349445,1
893,532,48,0.104885314217591,1
894,529,48,0.111056523214109,1
894,530,48,0.110881680970567,1
894,531,48,0.107976114638233,1
894,532,48,0.101510186824116,1
895,529,48,0.11067107727381,1
895,530,48,0.116153559678062,1
895,531,48,0.115261386036849,1
895,532,48,0.108061918161527,1
896,530,48,0.115132392089554,1
896,531,48,0.117297904395096,1
901,538,48,0.125191305677986,1
901,539,48,0.131452751615848,1
902,538,48,0.146651336553363,1
902,539,48,0.154480589436015,1
902,540,48,0.131375466355245,1
902,554,48,0.138650792518776,1
902,555,48,0.146220924643258,1
902,556,48,0.102538794276329,1
903,539,48,0.135064832677243,1
903,553,48,0.102990262198942,1
903,554,48,0.148390118755436,1
903,555,48,0.151104056855983,1
903,556,48,0.109595172767116,1
904,554,48,0.100891403665018,1
904,555,48,0.102877106555934,1
885,532,49,0.10098609581025,1
886,531,49,0.107261931294166,1
886,532,49,0.105199062964757,1
887,530,49,0.100025383922425,1
887,531,49,0.113177004192332,1
887,532,49,0.105594399675547,1
888,530,49,0.102000335502247,1
888,531,49,0.10647041911782,1
889,530,49,0.104971150419642,1
889,531,49,0.105110884785112,1
890,529,49,0.107491194561242,1
890,530,49,0.117680768713583,1
890,531,49,0.12514214593435,1
890,532,49,0.119229665550916,1
890,533,49,0.103576464637185,1
891,529,49,0.112225039318498,1
891,530,49,0.122017392285054,1
891,531,49,0.132780326124087,1
891,532,49,0.129312031594046,1
891,533,49,0.111198501520902,1
892,529,49,0.114052664168277,1
892,530,49,0.122642384408005,1
892,531,49,0.12994403875686,1
892,532,49,0.123859744361378,1
892,533,49,0.108459967209158,1
893,529,49,0.110301807318287,1
893,530,49,0.111751589485258,1
893,531,49,0.110604347251759,1
893,532,49,0.10296606902575,1
894,529,49,0.110220382748448,1
894,530,49,0.109150861492314,1
894,531,49,0.106350095934083,1
894,532,49,0.10008820338654,1
895,529,49,0.110819417045323,1
895,530,49,0.114329213596914,1
895,531,49,0.113659614970486,1
896,530,49,0.113826995564485,1
902,539,49,0.118896788837913,1
902,554,49,0.12441218964351,1
902,555,49,0.137335320043592,1
902,556,49,0.114654715803726,1
903,553,49,0.103269959681183,1
903,554,49,0.12928481018936,1
903,555,49,0.132466413983136,1
903,556,49,0.1080026388961,1
887,531,50,0.101571034669884,1
888,531,50,0.101090253902129,1
890,530,50,0.100524290507466,1
890,531,50,0.100836742997266,1
891,531,50,0.102286209269584,1
892,530,50,0.102591330824868,1
892,531,50,0.10616774846932,1
902,554,50,0.104511207806014,1
902,555,50,0.119771849703311,1
902,556,50,0.119776697052284,1
903,554,50,0.104476492073027,1
903,555,50,0.10821025793304,1
903,556,50,0.102199719492391,1
889,531,51,0.0997275606228989,1
901,555,51,0.100733064193824,1
901,556,51,0.107314783737358,1
902,555,51,0.101699603793336,1
902,556,51,0.110556265907107,1
901,555,52,0.106278910708143,1
