x,y,z,signal,mito.p
939,669,23,0.101792934323688,1
940,668,23,0.10551329100036,1
940,670,23,0.106518249925333,1
941,646,23,0.100664373446346,1
941,669,23,0.130434263685425,1
941,670,23,0.124355121640649,1
941,671,23,0.105803064432714,1
942,644,23,0.124962597949781,1
942,669,23,0.152095693740968,1
942,670,23,0.155251699174995,1
943,669,23,0.160162020113649,1
943,670,23,0.165828157132949,1
944,667,23,0.121163736005574,1
944,668,23,0.13070207699299,1
944,669,23,0.131457337534765,1
945,667,23,0.141265648627717,1
945,668,23,0.130995869912471,1
926,646,24,0.101007282537787,1
927,645,24,0.105753436293559,1
936,669,24,0.102939250659069,1
936,670,24,0.108338598305193,1
936,671,24,0.109883802442971,1
936,672,24,0.107950167705075,1
936,673,24,0.100951717757753,1
937,663,24,0.105001018803655,1
937,664,24,0.101249693558146,1
937,668,24,0.101952853268143,1
937,669,24,0.111563414308808,1
937,670,24,0.118394505447969,1
937,671,24,0.119059942979323,1
937,672,24,0.115079212858791,1
937,673,24,0.107546280052838,1
938,668,24,0.105243963577048,1
938,669,24,0.119534917821229,1
938,670,24,0.125845817611541,1
938,671,24,0.123873763548185,1
938,672,24,0.117543049538135,1
938,673,24,0.110201799428563,1
938,674,24,0.105280618249624,1
939,668,24,0.112356734709715,1
939,669,24,0.128907838940075,1
939,670,24,0.131550265027112,1
939,671,24,0.125456591828334,1
939,672,24,0.116598099704164,1
939,673,24,0.108412561225488,1
939,674,24,0.104381658319848,1
940,668,24,0.124995189563555,1
940,669,24,0.143040442820143,1
940,670,24,0.140278837305868,1
940,671,24,0.130405854952563,1
940,672,24,0.119842065459455,1
940,673,24,0.109510480321565,1
940,674,24,0.103439791181966,1
941,644,24,0.104050840368544,1
941,645,24,0.103212815427889,1
941,646,24,0.10142668170674,1
941,667,24,0.103101751225337,1
941,668,24,0.135808045650557,1
941,669,24,0.161859365651687,1
941,670,24,0.160381316359802,1
941,671,24,0.140821261102482,1
941,672,24,0.123680762808599,1
941,673,24,0.109326923742789,1
942,643,24,0.117914519863304,1
942,668,24,0.132555823062632,1
942,669,24,0.176930263792192,1
942,670,24,0.191237579200774,1
942,671,24,0.153137928234903,1
943,667,24,0.104446623689014,1
943,668,24,0.132535485982781,1
943,669,24,0.175642731654351,1
943,670,24,0.193189829937312,1
943,671,24,0.145004926304766,1
944,666,24,0.102337721883734,1
944,667,24,0.133720548431194,1
944,668,24,0.142761954451916,1
944,669,24,0.141505619634212,1
944,670,24,0.134624911248815,1
945,666,24,0.123695773251039,1
945,667,24,0.161468734681923,1
945,668,24,0.149985757108378,1
945,669,24,0.114988453057334,1
946,667,24,0.130551493280154,1
946,668,24,0.117876002501572,1
926,646,25,0.106780072127426,1
927,645,25,0.10753181425635,1
935,668,25,0.103287736925059,1
935,669,25,0.106282581621861,1
935,670,25,0.108094422631948,1
935,671,25,0.107443527147515,1
935,672,25,0.107332212407825,1
935,673,25,0.102099363029257,1
936,667,25,0.102746337062836,1
936,668,25,0.111173611200891,1
936,669,25,0.116706571391984,1
936,670,25,0.123291722205016,1
936,671,25,0.125838726321245,1
936,672,25,0.124562424782937,1
936,673,25,0.116149191617526,1
936,674,25,0.1072517682007,1
937,663,25,0.108127199425345,1
937,664,25,0.109448554076811,1
937,667,25,0.103767646259291,1
937,668,25,0.117704253847037,1
937,669,25,0.130006869113894,1
937,670,25,0.13801129102766,1
937,671,25,0.137550291800885,1
937,672,25,0.130673243436286,1
937,673,25,0.120448572298793,1
937,674,25,0.114945469598794,1
938,664,25,0.10525826597975,1
938,665,25,0.100007879001525,1
938,667,25,0.103177685763978,1
938,668,25,0.123119733906262,1
938,669,25,0.144506422757729,1
938,670,25,0.152648498489428,1
938,671,25,0.147349202304705,1
938,672,25,0.136539831951796,1
938,673,25,0.12586516343576,1
938,674,25,0.121163071537512,1
938,675,25,0.119534100852301,1
939,664,25,0.102073132880204,1
939,667,25,0.102706915588823,1
939,668,25,0.129792333073363,1
939,669,25,0.158043075037012,1
939,670,25,0.162870206752943,1
939,671,25,0.152198860577214,1
939,672,25,0.137904845422782,1
939,673,25,0.125956892707012,1
939,674,25,0.119065171580464,1
939,675,25,0.115752809186508,1
940,667,25,0.105995030344991,1
940,668,25,0.14074589299563,1
940,669,25,0.17231473792157,1
940,670,25,0.174640190957405,1
940,671,25,0.160778711832291,1
940,672,25,0.141374969963223,1
940,673,25,0.124639535756835,1
940,674,25,0.11563533994756,1
940,675,25,0.111116259982135,1
941,643,25,0.101187124631169,1
941,644,25,0.114589009716065,1
941,645,25,0.117678709951884,1
941,646,25,0.110512617980506,1
941,667,25,0.113025788690191,1
941,668,25,0.150082235692333,1
941,669,25,0.184611144224573,1
941,670,25,0.190389870455091,1
941,671,25,0.170199812332059,1
941,672,25,0.144514211194844,1
941,673,25,0.122772260681743,1
941,674,25,0.11109472468119,1
942,642,25,0.106631296639151,1
942,643,25,0.125167657150746,1
942,667,25,0.113035929997819,1
942,668,25,0.143916484048255,1
942,669,25,0.185361916883702,1
942,670,25,0.206208131771064,1
942,671,25,0.175558736355618,1
942,672,25,0.143370955769714,1
942,673,25,0.121409785260893,1
943,667,25,0.118011543093211,1
943,668,25,0.140736590442768,1
943,669,25,0.173212499630251,1
943,670,25,0.192104089124724,1
943,671,25,0.157039837193247,1
944,666,25,0.111351830249337,1
944,667,25,0.142113292015887,1
944,668,25,0.149454542125459,1
944,669,25,0.143013319451729,1
944,670,25,0.135588782083161,1
945,666,25,0.124912882667274,1
945,667,25,0.162352989170992,1
945,668,25,0.15316968109391,1
945,669,25,0.120588589880158,1
946,666,25,0.11604784389876,1
946,667,25,0.134277677668514,1
946,668,25,0.122724680411367,1
948,657,25,0.115701111392735,1
924,647,26,0.100010798303828,1
926,646,26,0.104958198738901,1
927,645,26,0.100827810803651,1
934,640,26,0.105956327803635,1
934,669,26,0.100737595648146,1
935,638,26,0.10339153555061,1
935,639,26,0.10376617571522,1
935,668,26,0.113411463381791,1
935,669,26,0.122973572718557,1
935,670,26,0.121796462101045,1
935,671,26,0.114061476539782,1
935,672,26,0.111674522083036,1
935,673,26,0.106110135820507,1
935,674,26,0.100277032138133,1
936,667,26,0.101566601251834,1
936,668,26,0.12056617225277,1
936,669,26,0.134231851158104,1
936,670,26,0.137829455530093,1
936,671,26,0.133992882300162,1
936,672,26,0.131495615252278,1
936,673,26,0.123149384431894,1
936,674,26,0.115811772557282,1
937,668,26,0.119549252902688,1
937,669,26,0.138166700303632,1
937,670,26,0.147575143231473,1
937,671,26,0.148601724600745,1
937,672,26,0.144075019591991,1
937,673,26,0.134187201082951,1
937,674,26,0.12716225955652,1
937,675,26,0.124337355289692,1
938,668,26,0.116759510978528,1
938,669,26,0.142014852706504,1
938,670,26,0.156106401174704,1
938,671,26,0.161847339869064,1
938,672,26,0.162403717494971,1
938,673,26,0.154811581674024,1
938,674,26,0.140793516837682,1
938,675,26,0.129670811668531,1
939,639,26,0.101387434519432,1
939,668,26,0.120672922859381,1
939,669,26,0.154542178000278,1
939,670,26,0.168354312202132,1
939,671,26,0.170137210726325,1
939,672,26,0.170011920371504,1
939,673,26,0.162561632142322,1
939,674,26,0.141036766612808,1
939,675,26,0.122632591673787,1
939,676,26,0.119734214668021,1
940,668,26,0.133939899141942,1
940,669,26,0.17659202776302,1
940,670,26,0.193806173082545,1
940,671,26,0.186599504987736,1
940,672,26,0.17052783080317,1
940,673,26,0.152835813125274,1
940,674,26,0.131826651061963,1
940,675,26,0.115864723036745,1
941,643,26,0.104642924983069,1
941,644,26,0.118127541788089,1
941,645,26,0.122455244058865,1
941,646,26,0.109048805733809,1
941,667,26,0.116298195857101,1
941,668,26,0.158477212325429,1
941,669,26,0.201131530423235,1
941,670,26,0.220704994863896,1
941,671,26,0.205483316938012,1
941,672,26,0.171565991345383,1
941,673,26,0.140051970480981,1
941,674,26,0.119503469963955,1
942,642,26,0.113583440787625,1
942,667,26,0.139068165604787,1
942,668,26,0.181669130185125,1
942,669,26,0.21240825057472,1
942,670,26,0.227169266954319,1
942,671,26,0.208392684899091,1
942,672,26,0.17358817462217,1
942,673,26,0.139321066506185,1
943,667,26,0.155051051606242,1
943,668,26,0.188448011563318,1
943,669,26,0.198428692207191,1
943,670,26,0.194598763657876,1
943,671,26,0.172346850246906,1
943,672,26,0.148352810507717,1
944,666,26,0.128687420723261,1
944,667,26,0.158042203603489,1
944,668,26,0.169158743380462,1
944,669,26,0.159835276114067,1
944,670,26,0.145278763396561,1
944,671,26,0.13067593398729,1
945,666,26,0.130244639750742,1
945,667,26,0.150744677670951,1
945,668,26,0.144391927285679,1
945,669,26,0.128472917361486,1
946,666,26,0.119338126345817,1
946,667,26,0.126601818871811,1
946,668,26,0.116973458801431,1
947,667,26,0.101072302371548,1
924,646,27,0.112095533404008,1
925,646,27,0.110831344791674,1
925,649,27,0.100086547662846,1
925,650,27,0.104804728402519,1
925,651,27,0.102637658409554,1
933,641,27,0.107018637947364,1
934,640,27,0.123536834669298,1
934,669,27,0.10042737620675,1
935,638,27,0.11722259075284,1
935,639,27,0.115935450760085,1
935,668,27,0.115315665452435,1
935,669,27,0.125673339131431,1
935,670,27,0.124014587205559,1
935,671,27,0.11412960085547,1
935,672,27,0.111787143973011,1
935,673,27,0.107059377464581,1
935,674,27,0.10483723287294,1
935,675,27,0.10653534091531,1
936,668,27,0.1207543365363,1
936,669,27,0.136277312602885,1
936,670,27,0.140635994335416,1
936,671,27,0.137123910270826,1
936,672,27,0.136714990089991,1
936,673,27,0.128648511216443,1
936,674,27,0.122901614095366,1
937,637,27,0.103518350914096,1
937,638,27,0.100693806113597,1
937,668,27,0.118710977424895,1
937,669,27,0.138819197047164,1
937,670,27,0.153073507511689,1
937,671,27,0.161182534127015,1
937,672,27,0.158981325725772,1
937,673,27,0.147499873160893,1
937,674,27,0.138856494401964,1
937,675,27,0.137432016485928,1
938,637,27,0.114797750723666,1
938,638,27,0.113015941491377,1
938,639,27,0.107665601088023,1
938,668,27,0.114138685549951,1
938,669,27,0.141918199835845,1
938,670,27,0.164558020986818,1
938,671,27,0.180724648746673,1
938,672,27,0.183131962069108,1
938,673,27,0.173494321231705,1
938,674,27,0.156285720407972,1
938,675,27,0.140112415288745,1
939,638,27,0.114401444543081,1
939,640,27,0.100824335962477,1
939,668,27,0.115243990045139,1
939,669,27,0.155780713788268,1
939,670,27,0.183366824296572,1
939,671,27,0.193655654727223,1
939,672,27,0.191572514675476,1
939,673,27,0.181215396535351,1
939,674,27,0.155593856655022,1
939,675,27,0.131771554677449,1
939,676,27,0.124220822841781,1
940,668,27,0.123307887296874,1
940,669,27,0.177834147321374,1
940,670,27,0.217501256658627,1
940,671,27,0.218847120377937,1
940,672,27,0.195123824141536,1
940,673,27,0.171316717786027,1
940,674,27,0.146790112341957,1
940,675,27,0.126130362442756,1
941,642,27,0.104846067030283,1
941,643,27,0.109895664831808,1
941,644,27,0.117423848325059,1
941,645,27,0.117389078127477,1
941,646,27,0.100000145029005,1
941,668,27,0.160303628061195,1
941,669,27,0.21006614226567,1
941,670,27,0.245106331738983,1
941,671,27,0.23981191558199,1
941,672,27,0.195502462007435,1
941,673,27,0.155106300491623,1
941,674,27,0.131124439035923,1
942,642,27,0.115348387781237,1
942,643,27,0.128324174551968,1
942,667,27,0.162714220152262,1
942,668,27,0.221816617252128,1
942,669,27,0.235247237857456,1
942,670,27,0.234978465973015,1
942,671,27,0.22978936255732,1
942,672,27,0.196185382673852,1
942,673,27,0.155496397708354,1
943,666,27,0.133153375922517,1
943,667,27,0.196011030611666,1
943,668,27,0.243381721224583,1
943,669,27,0.220240433652594,1
943,670,27,0.185119048360743,1
943,671,27,0.173434431962812,1
943,672,27,0.16096144054922,1
944,666,27,0.141696626969613,1
944,667,27,0.168929186004572,1
944,668,27,0.180954532910135,1
944,669,27,0.164176812392026,1
944,670,27,0.145926445469877,1
944,671,27,0.137496774889632,1
945,666,27,0.132306538610357,1
945,667,27,0.132054618071673,1
945,668,27,0.125753728873961,1
945,669,27,0.127238390167704,1
946,667,27,0.112820860204255,1
946,668,27,0.105146874989627,1
924,645,28,0.114907170095443,1
924,646,28,0.103439769396128,1
925,645,28,0.125933538288586,1
925,646,28,0.101752379986095,1
926,645,28,0.103893241615845,1
927,644,28,0.101153650690953,1
933,641,28,0.103018137178771,1
934,638,28,0.143094547949025,1
934,640,28,0.126817139202513,1
935,638,28,0.117349613081788,1
935,639,28,0.114718101699631,1
935,668,28,0.100829924029945,1
935,669,28,0.112611944909949,1
935,670,28,0.110963824473062,1
935,671,28,0.100236085655454,1
935,675,28,0.109204879477843,1
936,638,28,0.100614200661238,1
936,668,28,0.104675451239329,1
936,669,28,0.121681726984776,1
936,670,28,0.124754902662408,1
936,671,28,0.121327935867212,1
936,672,28,0.126403698460275,1
936,673,28,0.121926948378249,1
936,674,28,0.11608740698072,1
937,637,28,0.109079894124755,1
937,638,28,0.110489339812514,1
937,668,28,0.100697825600723,1
937,669,28,0.119299859521223,1
937,670,28,0.134518443858098,1
937,671,28,0.147771912921047,1
937,672,28,0.154012531597701,1
937,673,28,0.143586080027874,1
937,674,28,0.131998160072279,1
938,637,28,0.126556580579029,1
938,638,28,0.125812354564245,1
938,669,28,0.117869662822689,1
938,670,28,0.144573468674433,1
938,671,28,0.167144882293822,1
938,672,28,0.171896983583392,1
938,673,28,0.160147586995919,1
938,674,28,0.144879755772054,1
938,675,28,0.127903903949491,1
939,637,28,0.12249156105095,1
939,669,28,0.131091760278797,1
939,670,28,0.166003718309148,1
939,671,28,0.180962789742768,1
939,672,28,0.173555190863311,1
939,673,28,0.159495547754986,1
939,674,28,0.141867133831376,1
939,675,28,0.12261731980129,1
940,642,28,0.0999688932442735,1
940,668,28,0.100257043631691,1
940,669,28,0.156442894336829,1
940,670,28,0.21011036751698,1
940,671,28,0.218331711020548,1
940,672,28,0.187361464674721,1
940,673,28,0.159474938352159,1
940,674,28,0.142061419935409,1
940,675,28,0.124659524263277,1
941,643,28,0.109227885322859,1
941,644,28,0.109208136460636,1
941,645,28,0.0998728068054044,1
941,668,28,0.144505289894149,1
941,669,28,0.198978479617077,1
941,670,28,0.24360472106321,1
941,671,28,0.245186111478046,1
941,672,28,0.199224180298987,1
941,673,28,0.158382640002307,1
941,674,28,0.136923741990511,1
942,643,28,0.126190306176243,1
942,644,28,0.137293240697333,1
942,667,28,0.168727525394348,1
942,668,28,0.234349617756723,1
942,669,28,0.234477522412113,1
942,670,28,0.223328031555038,1
942,671,28,0.224327151875405,1
942,672,28,0.199112593236321,1
942,673,28,0.163764123261202,1
943,666,28,0.141752976039817,1
943,667,28,0.222911050614112,1
943,668,28,0.272225582630067,1
943,669,28,0.217509339204556,1
943,670,28,0.164036642309794,1
943,671,28,0.157091110163178,1
943,672,28,0.156835159244449,1
944,666,28,0.142600445141281,1
944,667,28,0.174159758763059,1
944,668,28,0.182108605003873,1
944,669,28,0.152372776922638,1
945,667,28,0.118722099095237,1
945,668,28,0.111952237054011,1
914,658,29,0.104785589543762,1
915,657,29,0.109657970445393,1
916,656,29,0.105713993033708,1
917,654,29,0.103088777758758,1
925,644,29,0.109299353764694,1
925,645,29,0.10308340754967,1
926,643,29,0.116228905999075,1
926,644,29,0.1038516851297,1
927,643,29,0.111221180578348,1
929,642,29,0.109390189816584,1
931,638,29,0.10084840931356,1
931,641,29,0.116000296307141,1
932,641,29,0.119532303520659,1
933,676,29,0.10087819055422,1
934,638,29,0.140233054367135,1
934,640,29,0.115886291016448,1
934,676,29,0.116260332070511,1
935,638,29,0.111254088086773,1
935,639,29,0.106360324385063,1
935,675,29,0.107213544947782,1
935,676,29,0.133473616849432,1
936,638,29,0.100819815401074,1
936,669,29,0.10431375186254,1
936,670,29,0.109132801032542,1
936,671,29,0.109289364957932,1
936,672,29,0.116015633537152,1
936,673,29,0.111640677783573,1
936,674,29,0.103863645554808,1
936,675,29,0.114480766779545,1
937,637,29,0.110942866496826,1
937,638,29,0.119841150454256,1
937,639,29,0.106026663381889,1
937,669,29,0.106792381125943,1
937,670,29,0.12521627224843,1
937,671,29,0.142595369041008,1
937,672,29,0.149475151528286,1
937,673,29,0.135548064351783,1
937,674,29,0.120334262006366,1
938,636,29,0.110185144155348,1
938,637,29,0.131291100697265,1
938,638,29,0.134021410855133,1
938,669,29,0.105752543074198,1
938,670,29,0.138525164483465,1
938,671,29,0.16480314434402,1
938,672,29,0.160822915297763,1
938,673,29,0.141501785326709,1
938,674,29,0.128807210153965,1
938,675,29,0.116537491502615,1
939,637,29,0.128137600634618,1
939,669,29,0.114646491649849,1
939,670,29,0.15828345997443,1
939,671,29,0.179005038082114,1
939,672,29,0.157103059695367,1
939,673,29,0.13547305571126,1
939,674,29,0.128831610292619,1
939,675,29,0.120428507541917,1
940,669,29,0.134797629373144,1
940,670,29,0.200733895306527,1
940,671,29,0.222388451930155,1
940,672,29,0.183850045078192,1
940,673,29,0.152634904126464,1
940,674,29,0.144086958231261,1
940,675,29,0.13135949733593,1
941,643,29,0.112271443153616,1
941,644,29,0.10674000797119,1
941,655,29,0.10673238292786,1
941,668,29,0.118284508751483,1
941,669,29,0.174709393672079,1
941,670,29,0.23144926913261,1
941,671,29,0.247869146367271,1
941,672,29,0.210440945824066,1
941,673,29,0.17539135576162,1
941,674,29,0.153193166227365,1
942,643,29,0.131306143818462,1
942,644,29,0.133364807481121,1
942,645,29,0.120413192097744,1
942,646,29,0.101833717412581,1
942,667,29,0.151958192423901,1
942,668,29,0.204301043076874,1
942,669,29,0.203422725228683,1
942,670,29,0.196244465866735,1
942,671,29,0.205278137914938,1
942,672,29,0.198985647157806,1
942,673,29,0.177864451422149,1
943,666,29,0.144021720539119,1
943,667,29,0.227517796791986,1
943,668,29,0.254221439249943,1
943,669,29,0.185606245057813,1
943,670,29,0.134740299940226,1
943,671,29,0.132595255429564,1
943,672,29,0.145216445006722,1
944,666,29,0.148489930572617,1
944,667,29,0.186122787278783,1
944,668,29,0.177872043786721,1
944,669,29,0.135380749115298,1
945,667,29,0.123215482664641,1
945,668,29,0.112447723262472,1
912,668,30,0.100896054941449,1
912,669,30,0.109496025417996,1
913,668,30,0.108286061756653,1
913,669,30,0.124006090728707,1
917,653,30,0.110811465214422,1
917,654,30,0.109212341127386,1
926,677,30,0.108778225624807,1
926,678,30,0.159346489050816,1
926,679,30,0.180133849496594,1
927,642,30,0.104168037284516,1
927,677,30,0.113111570427647,1
927,678,30,0.164758483375948,1
927,679,30,0.182546260705141,1
928,640,30,0.11059660238632,1
929,639,30,0.115672136228083,1
929,640,30,0.110967288421318,1
930,638,30,0.0997380613968554,1
930,639,30,0.100642990646266,1
931,640,30,0.106503293947489,1
932,640,30,0.138799317469913,1
933,638,30,0.119082643822607,1
933,640,30,0.133313480046596,1
933,676,30,0.119832534155294,1
933,677,30,0.118985729521891,1
934,638,30,0.119086216700053,1
934,639,30,0.135694530541221,1
934,675,30,0.101675192761763,1
934,676,30,0.134838140139061,1
934,677,30,0.130609585217405,1
935,675,30,0.106397294952291,1
935,676,30,0.140225255037101,1
935,677,30,0.135011457373938,1
936,672,30,0.111207085141107,1
936,673,30,0.116576967441223,1
936,674,30,0.107243881727314,1
936,675,30,0.111219666462601,1
936,676,30,0.136326156451869,1
937,637,30,0.109516634820824,1
937,638,30,0.121390755331327,1
937,639,30,0.104651247173218,1
937,670,30,0.10423871054326,1
937,671,30,0.126821561727644,1
937,672,30,0.144527533234833,1
937,673,30,0.142603157478123,1
937,674,30,0.125041157681912,1
937,675,30,0.114294639471875,1
938,636,30,0.110225458848722,1
938,637,30,0.13525224534936,1
938,638,30,0.13749816918327,1
938,670,30,0.117839838010352,1
938,671,30,0.1493119538152,1
938,672,30,0.151834481542342,1
938,673,30,0.141346779088742,1
938,674,30,0.130399319201138,1
938,675,30,0.121167396026372,1
939,637,30,0.136861979139543,1
939,670,30,0.132252161158499,1
939,671,30,0.162360004210855,1
939,672,30,0.144958097645804,1
939,673,30,0.130564695498033,1
939,674,30,0.134811670345789,1
939,675,30,0.135461247787018,1
940,669,30,0.103483885718248,1
940,670,30,0.166211576990307,1
940,671,30,0.204494392389869,1
940,672,30,0.1826074462314,1
940,673,30,0.164859515200062,1
940,674,30,0.165808419163645,1
940,675,30,0.154605498538669,1
941,643,30,0.112806002262682,1
941,644,30,0.1009163920213,1
941,669,30,0.137293600163662,1
941,670,30,0.195211424996472,1
941,671,30,0.230227998621302,1
941,672,30,0.224991467436098,1
941,673,30,0.211143168743025,1
941,674,30,0.187474424245186,1
941,675,30,0.153566564599204,1
942,644,30,0.130826343413421,1
942,645,30,0.102329247192719,1
942,668,30,0.151174784579323,1
942,669,30,0.157318739492398,1
942,670,30,0.159881919593404,1
942,671,30,0.177070030836419,1
942,672,30,0.199272479502019,1
942,673,30,0.199901872364264,1
942,674,30,0.167428119974751,1
943,645,30,0.124912229092131,1
943,646,30,0.109048675018781,1
943,647,30,0.107619121002471,1
943,667,30,0.190751820369017,1
943,668,30,0.198187326907059,1
943,669,30,0.145382572915031,1
943,672,30,0.135340630494467,1
943,673,30,0.14480578195884,1
944,667,30,0.172548968359729,1
944,668,30,0.155890917450216,1
912,659,31,0.110309454147455,1
912,668,31,0.103675426806682,1
912,669,31,0.121454337299775,1
913,658,31,0.107292867184245,1
913,668,31,0.101913105006559,1
913,669,31,0.125907112066991,1
917,652,31,0.109260237292414,1
917,655,31,0.111702712957517,1
918,650,31,0.111766828678998,1
918,654,31,0.106634357549402,1
918,655,31,0.124168852725032,1
918,656,31,0.106951330600604,1
919,655,31,0.103587270412875,1
924,678,31,0.114149665612346,1
925,677,31,0.110171429970274,1
925,678,31,0.153968339025148,1
925,679,31,0.161831490671858,1
926,677,31,0.140173622600842,1
926,678,31,0.220933332232853,1
926,679,31,0.247576126845043,1
926,680,31,0.175498171725745,1
927,677,31,0.13771965490615,1
927,678,31,0.216970270427007,1
927,679,31,0.245418653513754,1
927,680,31,0.172110561047048,1
928,677,31,0.100254146115225,1
928,678,31,0.138567755796919,1
928,679,31,0.152535887492373,1
929,638,31,0.10523256958373,1
932,639,31,0.104990376421751,1
932,640,31,0.10275959374531,1
932,676,31,0.109095721536123,1
932,677,31,0.115334902347463,1
932,678,31,0.103939656343882,1
933,638,31,0.100191631652844,1
933,639,31,0.122584510329136,1
933,676,31,0.140534003934426,1
933,677,31,0.146120818717262,1
933,678,31,0.116392593893519,1
934,639,31,0.100488234945437,1
934,675,31,0.104269167144902,1
934,676,31,0.151290227735329,1
934,677,31,0.156181006777222,1
934,678,31,0.119653759567977,1
935,675,31,0.106256580224107,1
935,676,31,0.138966229668393,1
935,677,31,0.141792419299668,1
936,672,31,0.111164101682568,1
936,673,31,0.126397914320264,1
936,674,31,0.118390594890033,1
936,675,31,0.113360952916193,1
936,676,31,0.126233790709059,1
936,677,31,0.124035425359687,1
937,637,31,0.103962477009275,1
937,638,31,0.117894226355129,1
937,639,31,0.101639714524444,1
937,671,31,0.118074220949378,1
937,672,31,0.14382784836601,1
937,673,31,0.153837013993178,1
937,674,31,0.137548788578058,1
937,675,31,0.121171709622312,1
937,676,31,0.117573789355672,1
938,636,31,0.102851856769595,1
938,637,31,0.131486007697683,1
938,638,31,0.134081659590354,1
938,639,31,0.113624496199494,1
938,670,31,0.10362064631682,1
938,671,31,0.138519924989406,1
938,672,31,0.145948449166342,1
938,673,31,0.144010021544068,1
938,674,31,0.137790360843651,1
938,675,31,0.132007070480055,1
939,636,31,0.116763672073602,1
939,637,31,0.135708092225428,1
939,670,31,0.115550255356923,1
939,671,31,0.152021011888016,1
939,672,31,0.141073116283651,1
939,673,31,0.134438239295192,1
939,674,31,0.148313585106247,1
939,675,31,0.154760940493398,1
939,676,31,0.131041184455686,1
940,670,31,0.136456381299016,1
940,671,31,0.187279397422659,1
940,672,31,0.185059812666993,1
940,673,31,0.180807315109282,1
940,674,31,0.189086401976691,1
940,675,31,0.177764552461615,1
940,676,31,0.139608356352997,1
941,643,31,0.110985610311146,1
941,670,31,0.152985917549672,1
941,671,31,0.20447539513906,1
941,672,31,0.23333544342224,1
941,673,31,0.238139874294887,1
941,674,31,0.21185009740301,1
941,675,31,0.171372685604064,1
941,676,31,0.137863561259613,1
942,644,31,0.122912648622356,1
942,654,31,0.109143530557798,1
942,655,31,0.122771857643738,1
942,656,31,0.114921821071554,1
942,671,31,0.149869377161334,1
942,672,31,0.190642956536111,1
942,673,31,0.205362666966703,1
942,674,31,0.175541754294832,1
942,675,31,0.142501711723085,1
943,645,31,0.112913493587788,1
943,668,31,0.140466696587666,1
943,672,31,0.118795310404118,1
943,673,31,0.129638132911405,1
943,674,31,0.123523131377143,1
944,646,31,0.114707829676975,1
945,657,31,0.104399381099129,1
912,659,32,0.101729853429516,1
912,669,32,0.111090476442763,1
913,669,32,0.100508582918207,1
917,651,32,0.119932770796318,1
917,655,32,0.126709190374807,1
917,656,32,0.105190000056114,1
918,654,32,0.120109018226417,1
918,655,32,0.163958540080263,1
918,656,32,0.132498918453557,1
919,655,32,0.119001044966064,1
922,678,32,0.145719567151432,1
923,677,32,0.102257756965047,1
923,678,32,0.153892709488239,1
924,677,32,0.117500316616734,1
924,678,32,0.166699808514687,1
924,679,32,0.160551235003938,1
925,677,32,0.139777305527338,1
925,678,32,0.216981729777839,1
925,679,32,0.222204318026669,1
925,680,32,0.145857438827747,1
926,677,32,0.162232404557198,1
926,678,32,0.274725921481121,1
926,679,32,0.306298764108349,1
926,680,32,0.198360350033122,1
927,677,32,0.151451159721255,1
927,678,32,0.254182987245725,1
927,679,32,0.293722867288567,1
927,680,32,0.195910271110528,1
928,677,32,0.108192251937864,1
928,678,32,0.152332124548774,1
928,679,32,0.171784623123474,1
931,677,32,0.102998769568714,1
932,676,32,0.113869107589501,1
932,677,32,0.128879430207213,1
932,678,32,0.109831037143132,1
933,676,32,0.136443233545732,1
933,677,32,0.152806119027966,1
933,678,32,0.121291716911398,1
934,676,32,0.138906547364962,1
934,677,32,0.152486444532841,1
934,678,32,0.120124954566975,1
935,675,32,0.102672602893841,1
935,676,32,0.123923086685607,1
935,677,32,0.128933666051123,1
935,678,32,0.106427882268961,1
936,672,32,0.101764917735912,1
936,673,32,0.124868820809749,1
936,674,32,0.124076360949446,1
936,675,32,0.116111785333536,1
936,676,32,0.117568963792536,1
936,677,32,0.113167570924441,1
937,638,32,0.104746287891859,1
937,671,32,0.101310083901315,1
937,672,32,0.126667372458605,1
937,673,32,0.145528636066465,1
937,674,32,0.139208978369243,1
937,675,32,0.126899751100527,1
937,676,32,0.119935090988074,1
937,677,32,0.110169785139499,1
938,637,32,0.1220120983264,1
938,638,32,0.122925839947315,1
938,639,32,0.104430720027213,1
938,671,32,0.118332459381106,1
938,672,32,0.127744083041308,1
938,673,32,0.131210917920197,1
938,674,32,0.1335344646952,1
938,675,32,0.136195691960503,1
938,676,32,0.125621151156301,1
939,636,32,0.1141265290523,1
939,637,32,0.132795576210746,1
939,671,32,0.133583461045051,1
939,672,32,0.134492921748783,1
939,673,32,0.132223708853962,1
939,674,32,0.148844549552028,1
939,675,32,0.158285039447691,1
939,676,32,0.134129196289053,1
940,670,32,0.108179322042961,1
940,671,32,0.161266899784995,1
940,672,32,0.181010380906063,1
940,673,32,0.183094947930204,1
940,674,32,0.191070786824404,1
940,675,32,0.180881071064116,1
940,676,32,0.141705929522474,1
941,643,32,0.103778593642928,1
941,671,32,0.167781268410092,1
941,672,32,0.219665919316483,1
941,673,32,0.233072379427376,1
941,674,32,0.209028221367676,1
941,675,32,0.174706136689285,1
941,676,32,0.139857717055706,1
942,644,32,0.113753315860085,1
942,655,32,0.100175433882228,1
942,671,32,0.124972303540648,1
942,672,32,0.167256403998974,1
942,673,32,0.185549645450471,1
942,674,32,0.167876102163271,1
942,675,32,0.146186895164171,1
943,645,32,0.109656990082679,1
943,656,32,0.116625593431826,1
943,672,32,0.105522887662036,1
943,673,32,0.114281546183187,1
943,674,32,0.116481360290791,1
944,646,32,0.102170439326006,1
944,647,32,0.102767447539939,1
911,659,33,0.123981516303348,1
911,660,33,0.104271716087958,1
912,658,33,0.121543092804129,1
913,657,33,0.108989994863902,1
917,650,33,0.138590151638469,1
917,651,33,0.118247919436421,1
917,655,33,0.132918589945487,1
917,656,33,0.110547213891383,1
918,654,33,0.122058240731461,1
918,655,33,0.178614134789374,1
918,656,33,0.137987500892473,1
919,655,33,0.114186952074226,1
920,647,33,0.101842900143333,1
921,645,33,0.102268758813279,1
922,644,33,0.103555593804301,1
922,677,33,0.10411933504348,1
922,678,33,0.167476963823735,1
923,677,33,0.12856338305413,1
923,678,33,0.193362526275804,1
923,679,33,0.176804592185205,1
924,677,33,0.151238867622046,1
924,678,33,0.239450924244939,1
924,679,33,0.221098403528015,1
924,680,33,0.127721033624615,1
925,677,33,0.160406184893975,1
925,678,33,0.275777785315489,1
925,679,33,0.281220541243995,1
925,680,33,0.166826732807364,1
926,677,33,0.162276183198827,1
926,678,33,0.285518473167029,1
926,679,33,0.316744964540399,1
926,680,33,0.195616075153042,1
927,677,33,0.144371753599613,1
927,678,33,0.238945797803126,1
927,679,33,0.275288780393857,1
927,680,33,0.182729065672503,1
928,677,33,0.107575375039599,1
928,678,33,0.140725196449451,1
928,679,33,0.156512619911616,1
930,677,33,0.103380402987349,1
931,676,33,0.116878472547385,1
931,677,33,0.136149658484632,1
931,678,33,0.111772776212794,1
932,676,33,0.132142741786723,1
932,677,33,0.161641986559285,1
932,678,33,0.130485307904055,1
933,676,33,0.134174652440215,1
933,677,33,0.163783164083687,1
933,678,33,0.136163241954677,1
934,635,33,0.106786673236365,1
934,676,33,0.12992187166661,1
934,677,33,0.146802715449289,1
934,678,33,0.124480989320179,1
935,674,33,0.0998351826630335,1
935,675,33,0.111443396126804,1
935,676,33,0.121866547142161,1
935,677,33,0.119913054612852,1
935,678,33,0.104578950869536,1
936,636,33,0.0998674910609119,1
936,673,33,0.120642390007306,1
936,674,33,0.133350897223505,1
936,675,33,0.131965786316886,1
936,676,33,0.124767865236068,1
936,677,33,0.111260852589498,1
937,635,33,0.110887737433554,1
937,672,33,0.108406123510334,1
937,673,33,0.129906305685299,1
937,674,33,0.137971934911162,1
937,675,33,0.135987713457235,1
937,676,33,0.126801311791145,1
937,677,33,0.1135957824649,1
938,637,33,0.107226823416094,1
938,638,33,0.107245559236846,1
938,672,33,0.106314900912658,1
938,673,33,0.111764236164266,1
938,674,33,0.12174637645929,1
938,675,33,0.131390182688871,1
938,676,33,0.125706900214999,1
939,636,33,0.108367834899901,1
939,671,33,0.110761989576134,1
939,672,33,0.120500945453546,1
939,673,33,0.120394521634506,1
939,674,33,0.133817887555753,1
939,675,33,0.142894739135038,1
940,671,33,0.128795108120909,1
940,672,33,0.162217808045682,1
940,673,33,0.168169513830585,1
940,674,33,0.176386728917836,1
940,675,33,0.170293643936687,1
940,676,33,0.138176111785684,1
941,671,33,0.126731564430519,1
941,672,33,0.179851701107569,1
941,673,33,0.200555425720943,1
941,674,33,0.200136789056323,1
941,675,33,0.183071974763944,1
941,676,33,0.145027997507296,1
942,644,33,0.105346923447832,1
942,672,33,0.135236014899988,1
942,673,33,0.156538566844774,1
942,674,33,0.164781031718364,1
942,675,33,0.158439206930892,1
942,676,33,0.13452126512413,1
943,644,33,0.137866861814083,1
943,645,33,0.106378275915644,1
943,656,33,0.101566056605882,1
943,673,33,0.105806452130536,1
943,674,33,0.113649963844215,1
943,675,33,0.116291812606542,1
944,645,33,0.122836289259871,1
912,657,34,0.118114786179891,1
913,656,34,0.107728071978729,1
917,650,34,0.126322698714279,1
917,651,34,0.102422991653994,1
917,655,34,0.107354248783047,1
918,655,34,0.137873637209727,1
918,656,34,0.105080384611795,1
919,647,34,0.116250408621264,1
919,648,34,0.102972822635556,1
920,646,34,0.102447304649296,1
922,677,34,0.129113028856068,1
922,678,34,0.192280009767252,1
922,679,34,0.159783000995584,1
923,677,34,0.157519071166498,1
923,678,34,0.23765662083451,1
923,679,34,0.194087450038046,1
923,680,34,0.104511414771476,1
924,677,34,0.173086294270231,1
924,678,34,0.294100372290885,1
924,679,34,0.26953335411717,1
924,680,34,0.144618445537157,1
925,677,34,0.168414876832005,1
925,678,34,0.309785631065357,1
925,679,34,0.322843997055345,2
925,680,34,0.183955913358361,1
926,677,34,0.151472912880582,1
926,678,34,0.269081276191091,1
926,679,34,0.301447471897983,1
926,680,34,0.187298307530116,1
927,677,34,0.127944196857028,1
927,678,34,0.199476351374809,1
927,679,34,0.225807063856446,1
927,680,34,0.157253360192308,1
928,677,34,0.0997632022540042,1
928,678,34,0.121130784925472,1
928,679,34,0.130206863107505,1
930,677,34,0.112019980117533,1
931,676,34,0.1227907132866,1
931,677,34,0.151091028924809,1
931,678,34,0.118022839050257,1
932,676,34,0.126778807020404,1
932,677,34,0.166827843885106,1
932,678,34,0.137158103143699,1
933,676,34,0.115676918219543,1
933,677,34,0.14841292852791,1
933,678,34,0.133548146201517,1
934,676,34,0.113861918262933,1
934,677,34,0.125223559611269,1
934,678,34,0.113322141445647,1
935,635,34,0.134365420131397,1
935,636,34,0.105890730645164,1
935,674,34,0.100999069276829,1
935,675,34,0.118391520788152,1
935,676,34,0.118281567663342,1
935,677,34,0.107254545895056,1
936,635,34,0.162350342191665,1
936,636,34,0.126923726415339,1
936,673,34,0.107927652041416,1
936,674,34,0.133570879723557,1
936,675,34,0.14426366316396,1
936,676,34,0.12710369922375,1
936,677,34,0.104833856068037,1
937,635,34,0.134135307216635,1
937,636,34,0.114569587641413,1
937,673,34,0.111298661911493,1
937,674,34,0.130240206332692,1
937,675,34,0.137658273307348,1
937,676,34,0.123487544210633,1
938,674,34,0.111055357671772,1
938,675,34,0.120895574124599,1
939,636,34,0.104397812518787,1
939,672,34,0.105353949380614,1
939,673,34,0.109537701726251,1
939,674,34,0.120777832562674,1
939,675,34,0.128788202010237,1
940,671,34,0.101449044869533,1
940,672,34,0.138162876889048,1
940,673,34,0.148728006211198,1
940,674,34,0.164526714737492,1
940,675,34,0.167809720714629,1
940,676,34,0.1411798886761,1
941,671,34,0.100470719131618,1
941,672,34,0.142499467781762,1
941,673,34,0.169398659922361,1
941,674,34,0.200225936705762,1
941,675,34,0.201535744863044,1
941,676,34,0.155421073173179,1
941,677,34,0.126541101741071,1
942,644,34,0.103348987808832,1
942,673,34,0.140323356665993,1
942,674,34,0.168817762335691,1
942,675,34,0.169343116928166,1
942,676,34,0.13714193805184,1
943,644,34,0.131305392207048,1
943,645,34,0.101881733399718,1
943,674,34,0.11428639353216,1
943,675,34,0.112864028842418,1
944,645,34,0.112471611433931,1
944,647,34,0.0997975694135816,1
944,656,34,0.117005865235581,1
911,658,35,0.108498604393,1
912,656,35,0.113845872993184,1
912,657,35,0.0998063164275723,1
913,655,35,0.119321874110606,1
917,649,35,0.138407128812726,1
917,650,35,0.112721179102102,1
918,648,35,0.125707368610518,1
918,649,35,0.108225780342675,1
919,647,35,0.112387452741413,1
920,645,35,0.111136466346958,1
921,644,35,0.110954391205172,1
921,678,35,0.154651248798645,1
922,643,35,0.106341969816477,1
922,677,35,0.171271381456974,1
922,678,35,0.229954782425891,1
922,679,35,0.156978575416555,1
923,642,35,0.100671301342856,1
923,677,35,0.182844879187757,1
923,678,35,0.2733722148601,1
923,679,35,0.206383268123421,1
923,680,35,0.104881697768469,1
924,677,35,0.177964306811007,1
924,678,35,0.308124373768105,1
924,679,35,0.279487848183666,2
924,680,35,0.147852171948548,1
925,677,35,0.17160002082447,1
925,678,35,0.316547955206606,2
925,679,35,0.329633422779171,2
925,680,35,0.188936079693912,2
926,677,35,0.147593334406273,1
926,678,35,0.251769051028512,1
926,679,35,0.276593839238436,2
926,680,35,0.178190117022747,1
926,681,35,0.101394863490219,1
927,677,35,0.117720190187596,1
927,678,35,0.168496922298229,1
927,679,35,0.182735383565548,1
927,680,35,0.137027780260281,1
928,678,35,0.113054164744296,1
928,679,35,0.116823256340761,1
930,676,35,0.101210457263757,1
930,677,35,0.121747335036166,1
931,676,35,0.121744546448891,1
931,677,35,0.156599872193143,1
931,678,35,0.123068755045146,1
932,676,35,0.114413317824837,1
932,677,35,0.160287800649827,1
932,678,35,0.139833578347109,1
933,676,35,0.10224020847247,1
933,677,35,0.133761854380201,1
933,678,35,0.127634805277479,1
934,676,35,0.107793930567256,1
934,677,35,0.113890359674552,1
934,678,35,0.104860892293099,1
935,634,35,0.127632572229075,1
935,635,35,0.129646520459067,1
935,636,35,0.112455326519964,1
935,675,35,0.121008893161392,1
935,676,35,0.11782599311025,1
935,677,35,0.101772412064213,1
936,634,35,0.167401127321365,1
936,635,35,0.177695927071651,1
936,636,35,0.152538741437162,1
936,674,35,0.128641082245656,1
936,675,35,0.151653909623383,1
936,676,35,0.127368636800689,1
937,635,35,0.153346669242504,1
937,636,35,0.137098246553563,1
937,674,35,0.123513251499572,1
937,675,35,0.136082547210414,1
937,676,35,0.118131016629263,1
938,635,35,0.110564816848555,1
938,636,35,0.105951306167956,1
938,674,35,0.104165324947675,1
938,675,35,0.110158227752395,1
938,676,35,0.108136872337455,1
939,636,35,0.100165913470985,1
939,673,35,0.10373763626733,1
939,674,35,0.113574922524935,1
939,675,35,0.122602440073879,1
939,676,35,0.122359636908433,1
940,672,35,0.11338236839503,1
940,673,35,0.130306544209658,1
940,674,35,0.161707866933651,1
940,675,35,0.183224530095127,1
940,676,35,0.159696249788334,1
940,677,35,0.128294894385584,1
941,672,35,0.116026025381918,1
941,673,35,0.149005764753849,1
941,674,35,0.208799578996985,1
941,675,35,0.230212378175395,1
941,676,35,0.17514859616785,1
941,677,35,0.130865841137867,1
942,644,35,0.109527636669056,1
942,673,35,0.135416358067646,1
942,674,35,0.173003889337679,1
942,675,35,0.174383477534343,1
942,676,35,0.136435564930726,1
943,644,35,0.127068188307673,1
943,674,35,0.115870899321842,1
943,675,35,0.106255153251713,1
944,647,35,0.101299615806116,1
944,656,35,0.103435684551487,1
945,646,35,0.111896541558949,1
945,668,35,0.100273034436844,1
946,667,35,0.109040407293228,1
947,665,35,0.101380484837083,1
912,656,36,0.100340439819876,1
913,654,36,0.127209349645538,1
913,655,36,0.108475424261279,1
917,649,36,0.121892875327485,1
918,647,36,0.127027655755918,1
918,648,36,0.111062677713368,1
919,646,36,0.114406989038874,1
919,647,36,0.10257482805252,1
920,645,36,0.110975577932709,1
921,644,36,0.109127768503945,1
921,677,36,0.152232497911216,1
921,678,36,0.152726971078207,1
922,676,36,0.104638665851724,1
922,677,36,0.197183827633238,1
922,678,36,0.236543625938478,1
922,679,36,0.140868024403929,1
923,677,36,0.181231812164348,1
923,678,36,0.262898302842007,1
923,679,36,0.189546736735405,1
924,677,36,0.160070770130835,1
924,678,36,0.270701205753497,1
924,679,36,0.242967681371798,1
924,680,36,0.135308910314216,1
925,677,36,0.163587211363042,1
925,678,36,0.287702133075695,1
925,679,36,0.292101064144086,2
925,680,36,0.177611790164971,1
926,677,36,0.143984314255129,1
926,678,36,0.22854911658104,1
926,679,36,0.239171194083942,1
926,680,36,0.164444102839477,1
927,677,36,0.114765976078821,1
927,678,36,0.1512268854111,1
927,679,36,0.156393756379031,1
927,680,36,0.126359179100151,1
928,677,36,0.101822966101487,1
928,678,36,0.114655293128435,1
928,679,36,0.116888613855013,1
929,677,36,0.108064129424092,1
929,678,36,0.106095125378067,1
930,677,36,0.124544200929379,1
930,678,36,0.109497310782443,1
931,676,36,0.111341699834628,1
931,677,36,0.147659574246968,1
931,678,36,0.129729459144653,1
931,679,36,0.105416289556292,1
932,676,36,0.10199620708593,1
932,677,36,0.144275743411178,1
932,678,36,0.13804767337726,1
932,679,36,0.108896533618522,1
933,677,36,0.121306531281295,1
933,678,36,0.12062507026603,1
934,676,36,0.100224626304622,1
934,677,36,0.106529382488594,1
935,634,36,0.103900605229117,1
935,635,36,0.10831338119761,1
935,636,36,0.100095283783917,1
935,675,36,0.109927570191682,1
935,676,36,0.10730270349014,1
936,634,36,0.136098004262535,1
936,635,36,0.154280965801652,1
936,636,36,0.140263772398833,1
936,674,36,0.111953467953863,1
936,675,36,0.136848068881926,1
936,676,36,0.113329439701405,1
937,635,36,0.141203831312154,1
937,636,36,0.128271561752996,1
937,674,36,0.109938985970837,1
937,675,36,0.120689970277682,1
937,676,36,0.105410135057033,1
938,635,36,0.106769092065032,1
938,675,36,0.100668610791853,1
938,676,36,0.102539251778929,1
939,637,36,0.10291683303168,1
939,673,36,0.100402747316796,1
939,674,36,0.113351138396137,1
939,675,36,0.126952516400367,1
939,676,36,0.131239762369821,1
940,673,36,0.119592062074523,1
940,674,36,0.166642283009226,1
940,675,36,0.207402017483901,1
940,676,36,0.185070836301063,1
940,677,36,0.136571029271932,1
941,672,36,0.105467039666108,1
941,673,36,0.140179069060363,1
941,674,36,0.210884984775892,1
941,675,36,0.243613261111739,1
941,676,36,0.186276246722246,1
941,677,36,0.130406900672791,1
942,644,36,0.112112123319709,1
942,672,36,0.112993338684365,1
942,673,36,0.138607754595641,1
942,674,36,0.16966506804337,1
942,675,36,0.164990208442727,1
942,676,36,0.128767657964924,1
943,671,36,0.101128313761262,1
943,674,36,0.120726842808639,1
943,675,36,0.10059757806678,1
944,647,36,0.100311431976467,1
945,646,36,0.108681191501981,1
945,669,36,0.10922810318124,1
946,667,36,0.101911928571302,1
946,668,36,0.126060996334296,1
947,666,36,0.114429025414096,1
912,655,37,0.118458806349074,1
913,653,37,0.124478429484204,1
913,654,37,0.122584543007893,1
913,655,37,0.10155516368684,1
917,648,37,0.128957946367668,1
917,649,37,0.108300582017736,1
918,647,37,0.122442924167428,1
919,646,37,0.11352801761554,1
920,644,37,0.118690999811372,1
920,645,37,0.113111777393108,1
921,643,37,0.110527323421213,1
921,644,37,0.107119473698935,1
921,676,37,0.117135284006718,1
921,677,37,0.168841519792122,1
921,678,37,0.137910433490251,1
922,676,37,0.112788159661291,1
922,677,37,0.20042460176325,1
922,678,37,0.213115963524876,1
922,679,37,0.118468588190374,1
923,677,37,0.163592407285425,1
923,678,37,0.224015461889938,1
923,679,37,0.160449996214362,1
924,677,37,0.143272723425794,1
924,678,37,0.226154068685446,1
924,679,37,0.200116724299448,1
924,680,37,0.1215350102582,1
925,677,37,0.15229760488833,1
925,678,37,0.247792307716349,1
925,679,37,0.240080600323079,1
925,680,37,0.157817504469491,1
926,677,37,0.135774103314822,1
926,678,37,0.1998962298322,1
926,679,37,0.197654772095098,1
926,680,37,0.147813861552278,1
927,677,37,0.11037988776198,1
927,678,37,0.136116347938202,1
927,679,37,0.136000349243324,1
928,677,37,0.103438364209571,1
928,678,37,0.113694962492777,1
929,677,37,0.110149622346352,1
929,678,37,0.110969260039664,1
929,679,37,0.106627157329915,1
930,677,37,0.120099584958526,1
930,678,37,0.114452532333388,1
930,679,37,0.103465498470905,1
931,677,37,0.13066456177981,1
931,678,37,0.127732068151604,1
931,679,37,0.109404415968853,1
932,677,37,0.126414046733365,1
932,678,37,0.129215651046362,1
932,679,37,0.10794613732503,1
933,677,37,0.112319480926591,1
933,678,37,0.113485840233009,1
934,677,37,0.103015860558691,1
936,634,37,0.112771504388076,1
936,635,37,0.122926253878239,1
936,636,37,0.117247165178198,1
936,675,37,0.116535912029354,1
936,676,37,0.100703642419492,1
937,634,37,0.114830669125011,1
937,635,37,0.125515696807056,1
937,636,37,0.113561066731913,1
937,675,37,0.104749435945462,1
938,635,37,0.105044383514361,1
938,676,37,0.102351185531669,1
939,674,37,0.117926131715003,1
939,675,37,0.141339143152494,1
939,676,37,0.151315041804907,1
939,677,37,0.130729004288862,1
940,673,37,0.111906693759496,1
940,674,37,0.171886711560735,1
940,675,37,0.232662413526313,1
940,676,37,0.215990692003402,1
940,677,37,0.146224824308275,1
940,678,37,0.114613072174229,1
941,672,37,0.100045622966005,1
941,673,37,0.133484302803012,1
941,674,37,0.199138278739422,1
941,675,37,0.23501445617753,1
941,676,37,0.185279304985688,1
941,677,37,0.12677510342793,1
942,672,37,0.118679246351726,1
942,673,37,0.147747621711584,1
942,674,37,0.16231526699235,1
942,675,37,0.14666648860375,1
942,676,37,0.11617302532439,1
943,672,37,0.121683012349223,1
943,674,37,0.127991679091132,1
944,655,37,0.104237359821299,1
945,646,37,0.104351441362426,1
945,669,37,0.10891326514217,1
945,670,37,0.100346703248325,1
946,645,37,0.103218294566167,1
946,668,37,0.12210782529894,1
946,669,37,0.134947156472833,1
947,666,37,0.104410448304876,1
947,667,37,0.12699488985544,1
947,668,37,0.140891498644464,1
948,665,37,0.103613239131871,1
948,666,37,0.12619057849922,1
912,655,38,0.111617693724394,1
913,654,38,0.110938748973428,1
915,652,38,0.101352239498007,1
918,646,38,0.13347044700999,1
918,647,38,0.108861741635102,1
919,645,38,0.126587298610728,1
919,646,38,0.106999825876179,1
920,644,38,0.129929529388696,1
920,645,38,0.109854914421672,1
921,643,38,0.115111390541641,1
921,644,38,0.102911244964212,1
921,676,38,0.117512963295741,1
922,676,38,0.102745498308069,1
922,677,38,0.165408725285238,1
922,678,38,0.161929810159131,1
923,677,38,0.130582069703905,1
923,678,38,0.166890434597921,1
924,677,38,0.124817014086785,1
924,678,38,0.181099310697121,1
924,679,38,0.158315398013061,1
925,677,38,0.133676344965722,1
925,678,38,0.200446213314629,1
925,679,38,0.188935404332932,1
925,680,38,0.129806853334446,1
926,677,38,0.120427331106661,1
926,678,38,0.162589910160155,1
926,679,38,0.157652160851353,1
926,680,38,0.125693752461716,1
927,677,38,0.10370182034952,1
927,678,38,0.118290924680799,1
927,679,38,0.117127353961656,1
928,677,38,0.100557601053896,1
928,678,38,0.106676829040746,1
928,679,38,0.105688808604883,1
929,677,38,0.106957212776886,1
929,678,38,0.111874908221732,1
929,679,38,0.107634545375835,1
929,680,38,0.103252923155801,1
930,677,38,0.112636758979527,1
930,678,38,0.117382095766371,1
930,679,38,0.108861926814726,1
930,680,38,0.102146692762495,1
931,677,38,0.116390001378787,1
931,678,38,0.123689248392533,1
931,679,38,0.111033669869959,1
931,680,38,0.100190433431749,1
932,677,38,0.112191990202124,1
932,678,38,0.118877083547366,1
932,679,38,0.104588013778179,1
933,677,38,0.105404416274536,1
933,678,38,0.107180800833142,1
936,634,38,0.102730640366496,1
937,634,38,0.11467320108734,1
937,635,38,0.110260381547171,1
938,676,38,0.103240189333441,1
939,674,38,0.120551586634172,1
939,675,38,0.149843059868929,1
939,676,38,0.1594499064242,1
939,677,38,0.129575411483561,1
940,673,38,0.107323890217677,1
940,674,38,0.164650164188994,1
940,675,38,0.225366924569636,1
940,676,38,0.210691526533707,1
940,677,38,0.137745514695955,1
940,678,38,0.10886107716704,1
941,673,38,0.126935153087414,1
941,674,38,0.170801907539184,1
941,675,38,0.194392059626135,1
941,676,38,0.15775794198817,1
941,677,38,0.114078338778459,1
942,672,38,0.119315501752967,1
942,673,38,0.149422898195642,1
942,674,38,0.146639942560045,1
942,675,38,0.122683058567708,1
942,676,38,0.100631269865377,1
943,672,38,0.123005162183779,1
943,673,38,0.150868595517972,1
945,655,38,0.121967415572489,1
945,669,38,0.108036167300912,1
946,668,38,0.119022678303281,1
946,669,38,0.125885979804049,1
946,670,38,0.101279431227131,1
947,666,38,0.100127722896824,1
947,667,38,0.125865740760469,1
947,668,38,0.140605526840856,1
947,669,38,0.135082697064472,1
948,666,38,0.120093386887591,1
948,667,38,0.152191714822323,1
948,668,38,0.146688503193134,1
949,665,38,0.100631193614944,1
949,666,38,0.118714343336879,1
912,654,39,0.133097963643351,1
912,655,39,0.101231818277998,1
913,653,39,0.103798647506884,1
919,644,39,0.127364671778157,1
919,645,39,0.134982351494257,1
919,646,39,0.101568856086076,1
920,643,39,0.1267513459715,1
920,644,39,0.135489242588956,1
920,645,39,0.106154687859389,1
921,642,39,0.102788558017042,1
921,643,39,0.113911546402088,1
924,677,39,0.104847700968139,1
924,678,39,0.138827628166503,1
925,677,39,0.107461478678096,1
925,678,39,0.149203068196456,1
925,679,39,0.141904790652504,1
926,677,39,0.101476571275952,1
926,678,39,0.12574202987891,1
926,679,39,0.123854080043476,1
927,678,39,0.104382921898457,1
927,679,39,0.103437601705238,1
928,678,39,0.101349636090356,1
928,680,39,0.100552524953623,1
929,677,39,0.103658510103409,1
929,678,39,0.11011541858056,1
929,679,39,0.107268270973049,1
929,680,39,0.102379616050369,1
929,681,39,0.100480294007456,1
930,677,39,0.106650566212936,1
930,678,39,0.115755652238378,1
930,679,39,0.111342887162803,1
930,680,39,0.10520800605129,1
930,681,39,0.0997118966053166,1
931,677,39,0.107333802774005,1
931,678,39,0.115579742488769,1
931,679,39,0.108417277859433,1
931,680,39,0.103139811084469,1
932,677,39,0.105434644124877,1
932,678,39,0.111091859843481,1
932,679,39,0.101417880228154,1
933,677,39,0.106132237553243,1
933,678,39,0.10897943962535,1
934,677,39,0.100136273838272,1
936,633,39,0.108891305017382,1
936,634,39,0.110368733412881,1
937,634,39,0.124749924598406,1
937,635,39,0.107010010755483,1
938,676,39,0.104220584725975,1
939,674,39,0.120669001408526,1
939,675,39,0.152650175998961,1
939,676,39,0.157224483063928,1
939,677,39,0.124977891608116,1
940,673,39,0.10261461988578,1
940,674,39,0.149638131382992,1
940,675,39,0.195445492040845,1
940,676,39,0.180641862561954,1
940,677,39,0.124874975309008,1
940,678,39,0.107115334389699,1
941,673,39,0.119010554484387,1
941,674,39,0.143083622351225,1
941,675,39,0.15161471690067,1
941,676,39,0.127369693413836,1
941,677,39,0.104654928979854,1
942,672,39,0.113923844507687,1
942,673,39,0.141991193286345,1
942,674,39,0.130209205085099,1
942,675,39,0.105689429501269,1
943,672,39,0.118222430005863,1
943,673,39,0.143210764502283,1
945,655,39,0.100538091835892,1
945,668,39,0.100133496143917,1
945,669,39,0.10461267534689,1
946,667,39,0.102425235595317,1
946,668,39,0.124236857218611,1
946,669,39,0.120739315200942,1
947,667,39,0.133760874017487,1
947,668,39,0.150090318238262,1
947,669,39,0.132206062325114,1
948,666,39,0.119812175289604,1
948,667,39,0.156435628759828,1
948,668,39,0.15164564189783,1
949,666,39,0.120251268856186,1
949,667,39,0.142291467492656,1
950,665,39,0.103825378730213,1
912,654,40,0.114080277718048,1
919,644,40,0.130085385274349,1
920,643,40,0.118752326945578,1
920,644,40,0.123899568873395,1
921,642,40,0.09972914009616,1
921,643,40,0.102573074292554,1
929,678,40,0.107145420632093,1
929,679,40,0.107864440432215,1
929,680,40,0.10022214271908,1
930,678,40,0.111772514782737,1
930,679,40,0.112701920421236,1
930,680,40,0.104225519218301,1
931,677,40,0.0997273972291133,1
931,678,40,0.108420992344826,1
931,679,40,0.105684353400995,1
931,680,40,0.102069255001025,1
932,677,40,0.101158792148741,1
932,678,40,0.103745130595631,1
933,677,40,0.108912600674109,1
933,678,40,0.109872288627544,1
934,677,40,0.104763259059726,1
934,678,40,0.100322662575999,1
936,633,40,0.102414429819627,1
936,634,40,0.111703431890173,1
937,634,40,0.118881266428278,1
938,675,40,0.105117420536537,1
938,676,40,0.109156863490706,1
938,677,40,0.104551173925979,1
939,674,40,0.116990016038375,1
939,675,40,0.147009060014701,1
939,676,40,0.146340659609367,1
939,677,40,0.117986140806005,1
939,678,40,0.104250485788745,1
940,674,40,0.129573396293539,1
940,675,40,0.155953333876326,1
940,676,40,0.143654487559457,1
940,677,40,0.112731723447734,1
940,678,40,0.106739615826104,1
941,673,40,0.108298305397656,1
941,674,40,0.121353915479127,1
941,675,40,0.120962010037835,1
941,676,40,0.107273379752079,1
941,677,40,0.100702901700997,1
942,672,40,0.1030530489843,1
942,673,40,0.124817406231871,1
942,674,40,0.112604265402024,1
943,672,40,0.109373970260131,1
943,673,40,0.124791437512875,1
946,667,40,0.105845590388654,1
946,668,40,0.125670681259185,1
946,669,40,0.113584094362768,1
947,667,40,0.141675701672133,1
947,668,40,0.160285818138561,1
947,669,40,0.129673077395691,1
948,666,40,0.119185560121715,1
948,667,40,0.159369854362161,1
948,668,40,0.156851738267231,1
948,669,40,0.115349694931522,1
949,666,40,0.119188599246128,1
949,667,40,0.139013711902497,1
949,668,40,0.121807235197977,1
950,666,40,0.109424861977895,1
919,644,41,0.127246788608285,1
920,643,41,0.104438835251899,1
920,644,41,0.105141657281406,1
930,679,41,0.100598798073713,1
932,677,41,0.103390239293244,1
933,677,41,0.118587233864579,1
933,678,41,0.112146250835067,1
934,677,41,0.113226632331487,1
934,678,41,0.104340450407112,1
936,634,41,0.110748711107822,1
937,634,41,0.106854405406968,1
938,675,41,0.105439110221684,1
938,676,41,0.106633638616745,1
938,677,41,0.100351920956546,1
939,674,41,0.108651540976349,1
939,675,41,0.127929687488864,1
939,676,41,0.122883793279813,1
939,677,41,0.105826211885679,1
939,678,41,0.102787457832219,1
940,674,41,0.112317138948997,1
940,675,41,0.122169620828665,1
940,676,41,0.113446353401482,1
940,677,41,0.102362938991316,1
941,673,41,0.100022475513041,1
941,674,41,0.107254535002137,1
941,675,41,0.102824798758695,1
942,673,41,0.108159823717876,1
943,672,41,0.101049634207022,1
943,673,41,0.106184839459297,1
946,667,41,0.110477913140439,1
946,668,41,0.127416794395773,1
946,669,41,0.110101475644186,1
947,666,41,0.102636253222998,1
947,667,41,0.151554076020364,1
947,668,41,0.16541632854273,1
947,669,41,0.125089380634511,1
948,666,41,0.122504937555534,1
948,667,41,0.165445989961281,1
948,668,41,0.157167502204419,1
948,669,41,0.109798282135572,1
949,666,41,0.118831627396204,1
949,667,41,0.137335625045326,1
950,666,41,0.107047656683692,1
919,644,42,0.11488707265981,1
933,676,42,0.101592624435425,1
933,677,42,0.11997367370732,1
933,678,42,0.105986370474353,1
934,676,42,0.101744907443632,1
934,677,42,0.115769290173018,1
934,678,42,0.103196051225483,1
936,634,42,0.105449643674398,1
937,676,42,0.103900289334465,1
938,675,42,0.109242100582209,1
938,676,42,0.11259374284223,1
938,677,42,0.10246464617641,1
939,675,42,0.114269662008512,1
939,676,42,0.111873165354685,1
939,677,42,0.101943409107334,1
939,678,42,0.101572483428117,1
940,674,42,0.100316333790036,1
940,675,42,0.103261866242334,1
946,658,42,0.105916437934103,1
946,659,42,0.103703225536077,1
946,667,42,0.105311063958346,1
946,668,42,0.117787355926408,1
946,669,42,0.103471151895888,1
947,666,42,0.100322967577732,1
947,667,42,0.14573574313621,1
947,668,42,0.150385026162942,1
947,669,42,0.113930576331655,1
948,655,42,0.0998109350252461,1
948,666,42,0.118163510206765,1
948,667,42,0.158386496095648,1
948,668,42,0.143082053770883,1
949,666,42,0.111315132005085,1
949,667,42,0.128598556289716,1
950,666,42,0.0998292787009127,1
919,644,43,0.104574299593105,1
933,676,43,0.111180375703616,1
933,677,43,0.119556714552232,1
934,676,43,0.10988028403012,1
934,677,43,0.118305815301129,1
936,634,43,0.105257492582498,1
937,675,43,0.100583907453383,1
937,676,43,0.107358213805578,1
938,675,43,0.105728426151439,1
938,676,43,0.111920516873761,1
938,677,43,0.103334031830987,1
939,675,43,0.102113959540774,1
939,676,43,0.10358483039901,1
939,677,43,0.100732682941658,1
946,657,43,0.100582959769426,1
946,658,43,0.132497622196191,1
946,659,43,0.129573123970562,1
946,667,43,0.100825011323457,1
946,668,43,0.111877500736464,1
946,669,43,0.104159813130639,1
947,658,43,0.106764288287734,1
947,659,43,0.103709456285769,1
947,667,43,0.138427378749225,1
947,668,43,0.133949561161132,1
947,669,43,0.106804831732408,1
948,666,43,0.114151038120145,1
948,667,43,0.14813901518568,1
948,668,43,0.12656225578985,1
949,666,43,0.1020547674187,1
949,667,43,0.116295494413178,1
917,646,44,0.108268142904829,1
933,676,44,0.11356655676311,1
933,677,44,0.109082900570411,1
934,676,44,0.111844386262576,1
934,677,44,0.111419867421673,1
937,676,44,0.103359804477441,1
938,676,44,0.104793672089691,1
940,639,44,0.102361152552593,1
945,658,44,0.11015419737235,1
945,659,44,0.10400517725192,1
946,657,44,0.104664667249477,1
946,658,44,0.140962487797861,1
946,659,44,0.135666546632202,1
946,668,44,0.105151112335134,1
946,669,44,0.105558692686927,1
946,670,44,0.103467840448499,1
947,658,44,0.106682722109948,1
947,659,44,0.103095150116397,1
947,667,44,0.122944401481363,1
947,668,44,0.115674075167673,1
947,669,44,0.100042344197373,1
948,666,44,0.106781139633492,1
948,667,44,0.127606516366727,1
948,668,44,0.108538908193455,1
917,646,45,0.100247937151371,1
918,645,45,0.113801026845489,1
933,676,45,0.108370187770414,1
934,676,45,0.105806724453513,1
934,677,45,0.10019690382566,1
939,678,45,0.10850121869357,1
940,640,45,0.100943079672953,1
945,657,45,0.101313613207085,1
945,658,45,0.117846014295449,1
945,659,45,0.103300884678343,1
946,657,45,0.105843978236636,1
946,658,45,0.13805586485238,1
946,659,45,0.128208056034981,1
946,668,45,0.101160611266221,1
946,669,45,0.107675317571809,1
946,670,45,0.106133729883152,1
947,658,45,0.103720109560592,1
947,659,45,0.101169238458102,1
947,666,45,0.101977972339454,1
947,667,45,0.110889752623577,1
947,668,45,0.104405938636393,1
948,666,45,0.101761660753118,1
948,667,45,0.109958005007485,1
923,639,46,0.107520158832975,1
924,638,46,0.113360059696832,1
925,637,46,0.10444269134524,1
941,640,46,0.100082005315605,1
945,655,46,0.104132994763958,1
945,657,46,0.0998595828016875,1
945,658,46,0.116463583046915,1
945,659,46,0.101140655438536,1
946,657,46,0.101852997879285,1
946,658,46,0.122998735361544,1
946,659,46,0.113002652130146,1
946,668,46,0.0997983428108336,1
946,669,46,0.105751889499055,1
946,670,46,0.101828641312308,1
947,665,46,0.10221666887442,1
947,666,46,0.101816811602228,1
947,667,46,0.102365444362695,1
922,640,47,0.103991746282741,1
924,639,47,0.115129603502279,1
925,638,47,0.101898944211804,1
944,654,47,0.108777746336369,1
945,655,47,0.120061405277284,1
946,658,47,0.10420733893642,1
947,666,47,0.102331305954418,1
921,641,48,0.103884156921364,1
922,640,48,0.114709637901536,1
923,640,48,0.105995106595424,1
941,643,48,0.0999607780195873,1
944,654,48,0.110420071740326,1
945,654,48,0.159912114764989,1
945,655,48,0.130327818080547,1
946,655,48,0.123368942108104,1
919,642,49,0.108874464564543,1
920,641,49,0.120492939158051,1
921,641,49,0.109696945309725,1
944,651,49,0.101578398283157,1
944,654,49,0.104134704952248,1
945,653,49,0.122994792124851,1
945,654,49,0.144942444521141,1
945,655,49,0.131960797359965,1
946,654,49,0.142347914599131,1
946,655,49,0.128173078871937,1
946,656,49,0.103534167432545,1
918,643,50,0.119016687197808,1
919,642,50,0.122558966433982,1
919,643,50,0.105749591093137,1
920,642,50,0.107400892262384,1
921,641,50,0.115014487133844,1
922,641,50,0.101751704625114,1
944,650,50,0.103901509341397,1
944,651,50,0.100396886926351,1
945,652,50,0.114113533799883,1
945,653,50,0.108987413242089,1
945,654,50,0.12167361176009,1
945,655,50,0.123277703018209,1
946,654,50,0.126179892545639,1
946,655,50,0.124474671427135,1
946,656,50,0.104778323966761,1
947,656,50,0.101443271622441,1
917,644,51,0.107019716346349,1
918,643,51,0.131734889111954,1
918,644,51,0.103350229601603,1
919,642,51,0.143648953956584,1
919,643,51,0.118683897628157,1
920,642,51,0.123208184408883,1
922,641,51,0.106879361084493,1
940,641,51,0.0998850940180837,1
941,642,51,0.100982141680638,1
942,642,51,0.0999099843380946,1
945,651,51,0.122580795843742,1
945,652,51,0.104468344169584,1
945,654,51,0.101688754445971,1
945,655,51,0.111754192892909,1
946,653,51,0.103655612586944,1
946,654,51,0.108688010469302,1
946,655,51,0.114247375096152,1
946,656,51,0.104965300922116,1
947,657,51,0.0999548304857904,1
917,644,52,0.10791668287194,1
918,643,52,0.141231793435335,1
918,644,52,0.104076547657483,1
919,643,52,0.124532904972333,1
920,642,52,0.127311242010256,1
922,641,52,0.101726640018399,1
940,641,52,0.104866926970248,1
940,642,52,0.100976335754788,1
941,641,52,0.0997648688706176,1
941,642,52,0.102229282874671,1
942,643,52,0.101151962288502,1
943,642,52,0.100167656338032,1
945,651,52,0.109162026734332,1
945,656,52,0.101231774706322,1
918,644,53,0.104468496670451,1
919,643,53,0.130365594723784,1
920,642,53,0.12725582973109,1
923,640,53,0.100846492159808,1
940,641,53,0.104623001834142,1
940,642,53,0.100112973884442,1
941,642,53,0.100088813390006,1
944,656,53,0.103296723583269,1
945,650,53,0.10629292989495,1
945,656,53,0.105664735253801,1
944,657,54,0.102992658641131,1
945,657,54,0.100361920656227,1
922,648,55,0.100767246173778,1
922,649,55,0.109541263710777,1
922,649,56,0.111712364083788,1
934,661,56,0.106546724015709,1
922,649,57,0.10181735624818,1
934,661,57,0.107701035753667,1
