x,y,z,signal,mito.p
823,589,25,0.260186772076568,2
823,590,25,0.193153142585979,2
822,589,26,0.313902130528828,2
822,590,26,0.284267443200898,2
822,591,26,0.243629535132788,2
823,588,26,0.302047715308871,2
823,589,26,0.353938509821603,2
823,590,26,0.33313471196099,2
823,591,26,0.289158385636576,2
823,592,26,0.23288166620079,2
824,589,26,0.219088725322288,2
824,590,26,0.215309209202299,2
824,591,26,0.199362781800877,2
821,589,27,0.143214293808053,2
821,590,27,0.147838218119256,2
821,591,27,0.150599747383097,2
822,588,27,0.238700184264567,2
822,589,27,0.317143383947278,2
822,590,27,0.342120193735351,2
822,591,27,0.334937054345673,2
822,592,27,0.3041297007112,2
822,593,27,0.258948203609821,2
823,588,27,0.293043868073006,2
823,589,27,0.424379684032736,2
823,590,27,0.473215341541769,2
823,591,27,0.457109550734764,2
823,592,27,0.394426204536124,2
823,593,27,0.306903451830206,2
824,589,27,0.296517140667049,2
824,590,27,0.320844209620108,2
824,591,27,0.303612875274335,2
824,592,27,0.259296646304135,2
825,590,27,0.140857915775058,2
825,591,27,0.130260772163843,2
821,590,28,0.132274720393835,2
821,591,28,0.141342443706963,2
821,592,28,0.146270324031113,2
821,593,28,0.148254948523044,2
822,589,28,0.276417373949956,2
822,590,28,0.341195493837879,2
822,591,28,0.358572575440434,2
822,592,28,0.349749768519045,2
822,593,28,0.324468567001263,2
822,594,28,0.263484842960741,2
823,585,28,0.280330088683991,2
823,588,28,0.272696483520251,2
823,589,28,0.450027933350556,2
823,590,28,0.552940311008147,2
823,591,28,0.545213571386598,2
823,592,28,0.491662238509272,2
823,593,28,0.405403914059907,2
823,594,28,0.280861379917343,2
824,588,28,0.2437446950729,2
824,589,28,0.359567905024974,2
824,590,28,0.394741619899903,2
824,591,28,0.350535714413761,2
824,592,28,0.297494562292684,2
824,593,28,0.233353046379412,2
825,589,28,0.175373992448667,2
825,590,28,0.163147268148775,2
825,591,28,0.135615687593195,2
825,592,28,0.113517919879588,2
827,587,28,0.228987600144155,2
821,590,29,0.140266038125994,2
821,591,29,0.15475249848114,2
821,592,29,0.152838460104601,2
821,593,29,0.147958606660507,2
822,585,29,0.258629934301253,2
822,589,29,0.24601220867235,2
822,590,29,0.344654736352197,2
822,591,29,0.37149486708575,2
822,592,29,0.366710827757549,2
822,593,29,0.350218621540449,2
822,594,29,0.308527978204448,2
823,584,29,0.291657046978097,2
823,585,29,0.328749244540535,2
823,586,29,0.240629908444527,2
823,588,29,0.244817277239285,2
823,589,29,0.435127770823115,2
823,590,29,0.581070228713782,2
823,591,29,0.568134669493073,2
823,592,29,0.523267215247674,2
823,593,29,0.454508757384305,2
823,594,29,0.33403795280795,2
823,595,29,0.188348777070846,2
824,585,29,0.300452469101014,2
824,586,29,0.22653401370163,2
824,588,29,0.247326221496382,2
824,589,29,0.369645554434158,2
824,590,29,0.415461433354702,2
824,591,29,0.351982076204152,2
824,592,29,0.299583649878228,2
824,593,29,0.245580958007479,2
824,594,29,0.170935977586753,2
825,589,29,0.19050335288567,2
825,590,29,0.169072645748354,2
825,591,29,0.13541825343556,2
825,592,29,0.113972317997423,2
826,587,29,0.257605912767956,2
827,586,29,0.277448301593926,2
827,587,29,0.332713765997533,2
827,588,29,0.266845526343567,2
828,586,29,0.232239158264019,1
828,587,29,0.283932507726196,2
836,594,29,0.250411945816751,1
837,594,29,0.255255482268758,1
821,590,30,0.1896757306827,2
821,591,30,0.199298840366101,2
821,592,30,0.165457634491737,2
821,593,30,0.13397391772811,2
822,585,30,0.231355851458906,2
822,586,30,0.225801769897791,2
822,589,30,0.257002227194651,2
822,590,30,0.371125814988608,2
822,591,30,0.379055206476013,2
822,592,30,0.337760172173778,2
822,593,30,0.304067240713413,2
822,594,30,0.277507406572647,2
823,584,30,0.233834622330257,2
823,585,30,0.355008281614876,2
823,586,30,0.341921790107921,2
823,587,30,0.257721486638992,2
823,588,30,0.248602915179776,2
823,589,30,0.390409070280154,2
823,590,30,0.532547197981254,2
823,591,30,0.497485810887486,2
823,592,30,0.448705663693891,2
823,593,30,0.401581458053055,2
823,594,30,0.306574442103463,2
824,584,30,0.223302956055404,2
824,585,30,0.344050636847968,2
824,586,30,0.30930259546336,2
824,587,30,0.233055974691299,2
824,588,30,0.236733685589922,2
824,589,30,0.314967697655351,2
824,590,30,0.354995689400463,2
824,591,30,0.291411433439539,2
824,592,30,0.249333307187377,2
824,593,30,0.212602318820371,2
825,585,30,0.186971759603076,2
825,586,30,0.206094039337019,2
825,587,30,0.211412267415037,2
825,589,30,0.182365873965806,2
825,590,30,0.153267063790145,2
825,591,30,0.121702793890203,2
826,586,30,0.268353520269898,2
826,587,30,0.333969174917119,2
826,588,30,0.276062961936007,2
827,585,30,0.20173828779971,2
827,586,30,0.374370597712827,2
827,587,30,0.43114571176646,2
827,588,30,0.313846402355009,2
828,585,30,0.190999961064793,1
828,586,30,0.307164881887213,2
828,587,30,0.326074444698105,2
828,588,30,0.233242810038707,2
829,586,30,0.205472968664922,1
829,587,30,0.197989162923848,2
835,594,30,0.135739725262326,1
836,593,30,0.229663767200766,1
836,594,30,0.285877460206976,1
836,595,30,0.153619645793695,1
837,593,30,0.257543322055141,1
837,594,30,0.300909209196444,1
837,595,30,0.159433218472228,1
838,594,30,0.160382612617168,1
821,589,31,0.228680942687286,2
821,590,31,0.289683925408675,2
821,591,31,0.267819527592623,2
822,585,31,0.214086108680591,2
822,586,31,0.278233789986041,2
822,587,31,0.247501924280529,2
822,588,31,0.226915570869832,2
822,589,31,0.309141053473968,2
822,590,31,0.41007218344453,2
822,591,31,0.37674281405011,2
822,592,31,0.285642543514917,2
822,593,31,0.232638405532745,2
823,584,31,0.173164342035167,2
823,585,31,0.335228222071665,2
823,586,31,0.437216553406925,2
823,587,31,0.353667733640058,2
823,588,31,0.265922373240598,2
823,589,31,0.334463147009833,2
823,590,31,0.427149796916783,2
823,591,31,0.376974397508942,2
823,592,31,0.322977391741933,2
823,593,31,0.291449340797805,2
824,585,31,0.308021936757435,2
824,586,31,0.346940767914019,2
824,587,31,0.272521129309514,2
824,589,31,0.241228997205997,2
824,590,31,0.262940937727138,2
824,591,31,0.217086715731566,2
824,592,31,0.186777473499043,2
825,586,31,0.218647387814384,2
825,587,31,0.230264577043445,2
826,585,31,0.157160193055742,2
826,586,31,0.298363185442928,2
826,587,31,0.37001255866252,2
826,588,31,0.2866469360081,2
827,585,31,0.212857779557744,2
827,586,31,0.424835792338861,2
827,587,31,0.466617892623139,2
827,588,31,0.300203130184144,2
828,585,31,0.217645566050095,2
828,586,31,0.36168311383038,2
828,587,31,0.338835281497381,2
828,588,31,0.213655620520053,2
829,586,31,0.275039114689415,2
829,587,31,0.218220668603834,2
835,594,31,0.129192155019989,1
836,593,31,0.264269547062686,1
836,594,31,0.264229831479859,1
836,595,31,0.135751990689167,1
837,592,31,0.160292560855448,1
837,593,31,0.306302816274233,3
837,594,31,0.305358530908323,3
837,595,31,0.160555559492797,1
838,593,31,0.202893525435786,1
838,594,31,0.204676914141336,1
820,589,32,0.20276568613791,2
820,590,32,0.235973817343393,2
820,591,32,0.186847079251721,2
821,588,32,0.199975813498721,2
821,589,32,0.328357556957624,2
821,590,32,0.405548179879699,2
821,591,32,0.327850251932002,2
821,592,32,0.205099929759411,2
822,586,32,0.283316229938478,2
822,587,32,0.265471014247176,2
822,588,32,0.262505722039735,2
822,589,32,0.362106042305103,2
822,590,32,0.435079929122683,2
822,591,32,0.357529425941299,2
822,592,32,0.243111860048238,2
823,585,32,0.277326518759037,2
823,586,32,0.436187259700812,2
823,587,32,0.371214919066371,2
823,588,32,0.2691007309445,2
823,589,32,0.297068169869706,2
823,590,32,0.333919394277097,2
823,591,32,0.278361912499813,2
823,592,32,0.22083797561956,2
824,585,32,0.252811154807419,2
824,586,32,0.345592202750786,2
824,587,32,0.281854530918075,2
824,588,32,0.20780601406533,2
824,589,32,0.206173426930997,2
824,590,32,0.204245576333112,2
825,586,32,0.265332325601934,2
825,587,32,0.256044369251615,2
826,585,32,0.183612416049292,2
826,586,32,0.336526570878114,2
826,587,32,0.370160397359757,2
826,588,32,0.25991625732508,2
827,585,32,0.203914867310998,2
827,586,32,0.422289071438527,2
827,587,32,0.433681757606133,2
827,588,32,0.2507472516507,2
828,585,32,0.19705873335096,2
828,586,32,0.347422365650702,2
828,587,32,0.303749646765825,2
828,588,32,0.184297885658765,2
829,586,32,0.27976864585073,2
829,587,32,0.209574980546068,2
835,593,32,0.170635060698219,1
836,592,32,0.152466739242294,1
836,593,32,0.271138164307946,3
836,594,32,0.234152521279577,3
837,592,32,0.168968280691013,3
837,593,32,0.340289682262026,3
837,594,32,0.336905056243146,3
837,595,32,0.207810981236413,3
838,593,32,0.278103358173433,3
838,594,32,0.320559272643808,3
838,595,32,0.236034164114886,3
839,594,32,0.190570213622749,1
819,590,33,0.215257707481068,2
820,589,33,0.286585674231408,2
820,590,33,0.36375119986801,2
820,591,33,0.263493775154355,2
821,588,33,0.230258280936238,2
821,589,33,0.387373910889978,2
821,590,33,0.465515006355978,2
821,591,33,0.339467179731006,2
821,592,33,0.214423135595749,2
822,586,33,0.250624248808878,2
822,587,33,0.253688405149544,2
822,588,33,0.273429010539985,2
822,589,33,0.366499984416573,2
822,590,33,0.396852667610235,2
822,591,33,0.294617982017921,2
822,592,33,0.201574371153967,2
823,585,33,0.21798183046092,2
823,586,33,0.356151580611682,2
823,587,33,0.324183063593173,2
823,588,33,0.260027321527632,2
823,589,33,0.27451239848206,2
823,590,33,0.271700326073864,2
823,591,33,0.207880390916548,2
824,585,33,0.239014379621414,2
824,586,33,0.360807540997787,2
824,587,33,0.304234926309145,2
824,588,33,0.22646976726512,2
825,585,33,0.257021093730432,2
825,586,33,0.377331990255251,2
825,587,33,0.318381799913158,2
825,588,33,0.236050655994315,2
826,585,33,0.231720655317622,2
826,586,33,0.387481489358436,2
826,587,33,0.350991583075667,2
826,588,33,0.226066903547273,2
827,585,33,0.184092281811848,2
827,586,33,0.361500134576313,2
827,587,33,0.342553557626517,2
827,588,33,0.200296893180402,2
828,586,33,0.269672957767612,2
828,587,33,0.236097974834633,2
836,593,33,0.236155010158737,3
836,594,33,0.218345022167617,3
837,592,33,0.157350623066434,3
837,593,33,0.321366220086437,3
837,594,33,0.374706448192729,3
837,595,33,0.265294222171125,3
838,593,33,0.308552029769693,3
838,594,33,0.432553861196852,3
838,595,33,0.347537242374918,3
838,596,33,0.165101174609008,3
839,594,33,0.270877148181863,3
839,595,33,0.255300687882782,3
818,590,34,0.156926648871482,2
819,589,34,0.226767514314213,2
819,590,34,0.325406120543205,2
819,591,34,0.240993296223767,2
820,588,34,0.186267074884413,2
820,589,34,0.328975751899093,2
820,590,34,0.452532520440036,2
820,591,34,0.316126595312225,2
820,592,34,0.162306639800469,2
821,588,34,0.237639606094966,2
821,589,34,0.37198718345477,2
821,590,34,0.436762710827961,2
821,591,34,0.297228361137137,2
821,592,34,0.188359822490755,2
822,588,34,0.26241879654578,2
822,589,34,0.344026127780123,2
822,590,34,0.345285981010678,2
822,591,34,0.229531766807816,2
823,586,34,0.274379875228996,2
823,587,34,0.272700884259544,2
823,589,34,0.267377580081252,2
823,590,34,0.253677316157959,2
824,585,34,0.259269435792369,2
824,586,34,0.394516572192496,2
824,587,34,0.351178265922208,2
824,588,34,0.254573193391646,2
825,584,34,0.148940777598845,2
825,585,34,0.322830685908276,2
825,586,34,0.480125242950199,2
825,587,34,0.390984564978978,2
825,588,34,0.258157486616565,2
826,585,34,0.256015960518754,2
826,586,34,0.393136352206527,2
826,587,34,0.321340469225821,2
826,588,34,0.209164491784891,2
827,586,34,0.264678685101902,2
827,587,34,0.245062651133624,2
836,594,34,0.205678605190597,3
837,593,34,0.265472364969137,3
837,594,34,0.374186725239399,3
837,595,34,0.280868896031482,3
838,593,34,0.284059824163958,3
838,594,34,0.485526344356288,3
838,595,34,0.410250043026647,3
838,596,34,0.178033879884928,3
839,593,34,0.177052820024333,3
839,594,34,0.32968163483885,3
839,595,34,0.324443404358276,3
839,596,34,0.16415095260222,3
840,594,34,0.154924748209951,3
840,595,34,0.166031135786377,3
818,590,35,0.191343240515481,2
819,589,35,0.260434150268011,2
819,590,35,0.38814852814889,2
819,591,35,0.282579868611241,2
820,588,35,0.220976838551507,2
820,589,35,0.322836001652768,2
820,590,35,0.438295910968955,2
820,591,35,0.298593614252342,2
821,588,35,0.275733908637588,2
821,589,35,0.346528492714119,2
821,590,35,0.361537497288627,2
821,591,35,0.233365769308853,2
822,587,35,0.222539907076514,2
822,588,35,0.298193190548359,2
822,589,35,0.362270547168475,2
822,590,35,0.317575288187291,2
822,591,35,0.18906686007993,2
823,586,35,0.235413049871113,2
823,587,35,0.265568941589363,2
823,588,35,0.264988545076969,2
823,589,35,0.27930179712643,2
823,590,35,0.24915283330469,2
824,585,35,0.274247700549341,2
824,586,35,0.410140678119466,2
824,587,35,0.396871664861044,2
824,588,35,0.275335053513947,2
825,584,35,0.164723255675766,2
825,585,35,0.349131813221795,2
825,586,35,0.505415725235004,2
825,587,35,0.434141177359647,2
825,588,35,0.272711406819339,2
825,589,35,0.273207208922452,2
826,585,35,0.242132172695442,2
826,586,35,0.340324365316255,2
826,587,35,0.289592838819646,2
826,588,35,0.215643447530182,2
827,586,35,0.176251003146573,2
827,587,35,0.175591022967659,2
836,594,35,0.216338590051764,3
837,593,35,0.248402376540213,3
837,594,35,0.379886292627239,3
837,595,35,0.286903878182462,3
838,592,35,0.11513994088245,3
838,593,35,0.281967817276111,3
838,594,35,0.548957859806406,3
838,595,35,0.463800460898774,3
838,596,35,0.186036798575866,3
839,593,35,0.204488488427748,3
839,594,35,0.425487798901037,3
839,595,35,0.399974883209394,3
839,596,35,0.180464798162927,3
840,594,35,0.19579040542939,3
840,595,35,0.194908231487858,3
817,587,36,0.299550382903473,4
818,590,36,0.190062363951175,2
819,586,36,0.237730387682262,2
819,589,36,0.248082342578761,2
819,590,36,0.36342567587536,2
819,591,36,0.26501094091852,2
820,586,36,0.240099488644698,2
820,588,36,0.244967250948655,2
820,589,36,0.290337239121135,2
820,590,36,0.355518157369392,2
820,591,36,0.241258647731629,2
821,587,36,0.25378611463335,2
821,588,36,0.333438755117289,2
821,589,36,0.35258789678959,2
821,590,36,0.29657443742121,2
821,591,36,0.18521447033155,2
822,587,36,0.23787890174048,2
822,588,36,0.362317996723821,2
822,589,36,0.399155343552353,2
822,590,36,0.290135219044583,2
823,585,36,0.175664920530439,2
823,586,36,0.230947846283271,2
823,587,36,0.272409498675172,2
823,588,36,0.288273444893607,2
823,589,36,0.279924087805459,2
824,584,36,0.157566782151902,2
824,585,36,0.303620042815064,2
824,586,36,0.423831334488164,2
824,587,36,0.409114390859009,2
824,588,36,0.273482364057452,2
824,589,36,0.232481787142759,2
825,584,36,0.183407847029684,2
825,585,36,0.357841856645261,2
825,586,36,0.477929143327987,2
825,587,36,0.421320124503906,2
825,588,36,0.273444565628377,2
825,589,36,0.279009845110267,2
826,585,36,0.216529346850027,2
826,586,36,0.273173223015042,2
826,587,36,0.255296592145223,2
826,588,36,0.237685443498295,2
836,594,36,0.230245623364312,3
837,593,36,0.266825505158367,3
837,594,36,0.362097480470736,3
837,595,36,0.251178872674819,3
838,592,36,0.132450543000092,3
838,593,36,0.319131842746711,3
838,594,36,0.590489422952718,3
838,595,36,0.444570973055619,3
838,596,36,0.166320037785208,3
839,592,36,0.117280301437924,3
839,593,36,0.286728937902648,3
839,594,36,0.547215820621539,3
839,595,36,0.430551437675207,3
839,596,36,0.175236872383766,3
840,593,36,0.169378900167219,3
840,594,36,0.268359554947047,3
840,595,36,0.217192355260435,3
816,587,37,0.271766598593315,4
817,586,37,0.26869516578273,4
817,587,37,0.356270770931839,4
817,588,37,0.250676709106984,4
818,586,37,0.276866641502923,2
818,587,37,0.279776619467469,4
819,585,37,0.237876243868234,2
819,586,37,0.340880971693462,2
819,587,37,0.26490257815989,2
819,590,37,0.277776418101308,2
820,585,37,0.282491439894458,2
820,586,37,0.330454356729849,2
820,587,37,0.27097917126161,2
820,588,37,0.252505804500834,2
820,589,37,0.264338760670278,2
820,590,37,0.259556420637448,2
821,586,37,0.233592015237354,2
821,587,37,0.267960307678321,2
821,588,37,0.386386358849634,2
821,589,37,0.385550000525592,2
821,590,37,0.256567098650601,2
822,587,37,0.247566236074552,2
822,588,37,0.405909519790159,2
822,589,37,0.40961829729389,2
822,590,37,0.252630441280512,2
823,585,37,0.180975926603133,2
823,586,37,0.236004295730873,2
823,587,37,0.27183112824572,2
823,588,37,0.295641088546018,2
823,589,37,0.259497359230403,2
824,584,37,0.175162277674167,2
824,585,37,0.317479713715617,2
824,586,37,0.406499088140386,2
824,587,37,0.365669813270547,2
824,588,37,0.252204724218514,2
825,584,37,0.191096472327504,2
825,585,37,0.333158611025368,2
825,586,37,0.39936583831992,2
825,587,37,0.344879391914518,2
825,588,37,0.256696397599629,2
826,585,37,0.181364999885474,2
826,586,37,0.207523560674572,2
826,587,37,0.212354526698005,2
835,592,37,0.292616734931532,3
836,592,37,0.263699084892458,3
836,593,37,0.298584921702946,3
836,594,37,0.230738375450094,3
837,592,37,0.214905343335899,3
837,593,37,0.30298598778347,3
837,594,37,0.311264824113741,3
837,595,37,0.189204394075754,3
838,592,37,0.18077937477194,3
838,593,37,0.371838560467362,3
838,594,37,0.546010976632146,3
838,595,37,0.337093481956734,3
838,596,37,0.130352958937695,3
839,592,37,0.177640830687137,3
839,593,37,0.411558936178729,3
839,594,37,0.604325957293226,3
839,595,37,0.367256170856466,3
839,596,37,0.144048244796986,3
840,593,37,0.25582134762715,3
840,594,37,0.328313810994751,3
840,595,37,0.20582284922455,3
841,594,37,0.125379600676546,3
815,587,38,0.217798045130844,4
816,586,38,0.241821354143499,4
816,587,38,0.376068673076441,4
816,588,38,0.259985863077758,4
817,586,38,0.285294710824069,4
817,587,38,0.384427942720918,4
817,588,38,0.246850048433382,4
818,586,38,0.294351519432317,2
818,587,38,0.283053884876271,2
819,585,38,0.276315220155181,2
819,586,38,0.421429140837678,2
819,587,38,0.293744130266537,2
819,588,38,0.183554596435017,2
819,589,38,0.187095546735068,2
820,584,38,0.206878373079716,2
820,585,38,0.344148324545936,2
820,586,38,0.431187540575581,2
820,587,38,0.304741381687082,2
820,588,38,0.281683316016573,2
820,589,38,0.311996457914113,2
820,590,38,0.253244692985289,2
821,585,38,0.27518107121037,2
821,586,38,0.277986825725522,2
821,587,38,0.283312526346003,2
821,588,38,0.435149948806285,2
821,589,38,0.472582332230402,2
821,590,38,0.291681904619351,2
821,591,38,0.145536119501847,2
822,586,38,0.181798200382853,2
822,587,38,0.256185410767371,2
822,588,38,0.407676612688822,2
822,589,38,0.402240653941798,2
822,590,38,0.231373911918678,2
823,586,38,0.254621427237164,2
823,587,38,0.274631044156265,2
823,588,38,0.283230524451455,2
823,589,38,0.227883755300119,2
824,585,38,0.318463910736897,2
824,586,38,0.38259893447042,2
824,587,38,0.312323855488838,2
824,588,38,0.2265557341822,2
825,585,38,0.286513497749836,2
825,586,38,0.316767295024435,2
825,587,38,0.259583674720891,2
826,586,38,0.158271989730679,2
834,592,38,0.250302079835293,3
835,591,38,0.227834541091888,3
835,592,38,0.302769305837887,3
835,593,38,0.251654479306029,3
836,591,38,0.20524502344105,3
836,592,38,0.347118431423593,3
836,593,38,0.328914272264021,3
836,594,38,0.199745362903469,3
837,592,38,0.275579490617249,3
837,593,38,0.31143072327075,3
837,594,38,0.238922835529785,3
838,592,38,0.22522191803135,3
838,593,38,0.399844211752567,3
838,594,38,0.431943901302179,3
838,595,38,0.217580230321681,3
839,592,38,0.243621082227611,3
839,593,38,0.521177517658665,3
839,594,38,0.56837575157731,3
839,595,38,0.272519451799981,3
840,592,38,0.185488884748055,3
840,593,38,0.347742159967936,3
840,594,38,0.355367377584013,3
840,595,38,0.183518497301312,3
841,593,38,0.154963396286712,3
841,594,38,0.145317596652946,3
815,587,39,0.32095276845128,4
816,586,39,0.253746072262952,4
816,587,39,0.422411115703473,4
816,588,39,0.292939601051936,4
817,586,39,0.255122828300665,4
817,587,39,0.348452378289472,4
817,588,39,0.242141279175761,4
818,586,39,0.259830813268115,2
818,587,39,0.260095946917596,4
819,585,39,0.255741371815544,2
819,586,39,0.400397267038165,2
819,587,39,0.281066210367008,2
819,588,39,0.19941539459985,2
819,589,39,0.210900866651855,2
819,590,39,0.201417970622362,2
820,584,39,0.182246487573106,2
820,585,39,0.357304508948921,2
820,586,39,0.477691808407901,2
820,587,39,0.317071512467439,2
820,588,39,0.29703400967559,2
820,589,39,0.404961661546804,2
820,590,39,0.340938007017565,2
820,591,39,0.185049006891303,2
821,585,39,0.27965244019039,2
821,586,39,0.319019449608037,2
821,587,39,0.278314920447066,2
821,588,39,0.404876130346486,2
821,589,39,0.52852714442298,2
821,590,39,0.36600235230306,2
821,591,39,0.170166349284762,2
822,586,39,0.198154495649067,2
822,587,39,0.235077068676183,2
822,588,39,0.328192638163329,2
822,589,39,0.34425004262395,2
822,590,39,0.212161656673448,2
823,586,39,0.264503657678735,2
823,588,39,0.238475615845598,2
823,589,39,0.189039409923944,2
824,585,39,0.295362077317678,2
824,586,39,0.335324319403453,2
824,587,39,0.261245237019876,2
825,586,39,0.244744512540085,2
834,592,39,0.222292507099233,3
835,591,39,0.260068366046582,3
835,592,39,0.328513957489228,3
835,593,39,0.242288703942075,3
836,591,39,0.273993917321501,3
836,592,39,0.407934208438326,3
836,593,39,0.314425077786194,3
836,594,39,0.16342088738219,3
837,591,39,0.218648368177098,3
837,592,39,0.322868876482437,3
837,593,39,0.293371200290217,3
837,594,39,0.178674710312166,3
838,591,39,0.167596175929731,3
838,592,39,0.285194256324664,3
838,593,39,0.397217754684845,3
838,594,39,0.302860653856973,3
838,595,39,0.136569983551704,3
839,591,39,0.144435335568061,3
839,592,39,0.323609420690586,3
839,593,39,0.565098377239317,3
839,594,39,0.447470493817885,3
839,595,39,0.183994103932522,3
840,592,39,0.25606750581166,3
840,593,39,0.426759873986757,3
840,594,39,0.336793817753889,3
840,595,39,0.155695030087084,3
841,593,39,0.202307181389595,3
841,594,39,0.161403780205676,3
814,587,40,0.202496870681792,4
815,586,40,0.17629345285208,4
815,587,40,0.356671172849983,4
815,588,40,0.320556200840638,4
816,586,40,0.215408966554885,4
816,587,40,0.377361923996778,4
816,588,40,0.306789773327084,4
816,589,40,0.182975093141985,4
817,587,40,0.287448088417798,4
817,588,40,0.269603569873315,4
818,586,40,0.197790933583122,2
819,585,40,0.203554485977414,2
819,586,40,0.316286546935437,2
819,587,40,0.243966997764708,2
819,588,40,0.214283531945308,2
819,589,40,0.260507307112297,2
819,590,40,0.237286740875521,2
820,585,40,0.318127036322605,2
820,586,40,0.447638724059569,2
820,587,40,0.299447357675175,2
820,588,40,0.2930632574689,2
820,589,40,0.488319637372056,2
820,590,40,0.441656681495133,2
820,591,40,0.215388858226334,2
821,585,40,0.246721577346201,2
821,586,40,0.312777414851907,2
821,587,40,0.245498934327093,2
821,588,40,0.329273237518129,2
821,589,40,0.520263383892663,2
821,590,40,0.408075990672577,2
821,591,40,0.182126251532721,2
822,586,40,0.189360337104759,2
822,588,40,0.235728683093273,2
822,589,40,0.273843355394503,2
822,590,40,0.18940318984827,2
824,586,40,0.268309905022053,2
834,592,40,0.206947608473147,3
835,591,40,0.300355522121541,3
835,592,40,0.345270338778934,3
835,593,40,0.224426299224525,3
836,590,40,0.190930573170495,3
836,591,40,0.338367408838691,3
836,592,40,0.415188674661891,3
836,593,40,0.268676931036253,3
837,591,40,0.267927432848652,3
837,592,40,0.333101314271207,3
837,593,40,0.25048290229139,3
838,591,40,0.221267570560737,3
838,592,40,0.329806641977776,3
838,593,40,0.345695140835732,3
838,594,40,0.203836481865572,3
839,591,40,0.19704792757527,3
839,592,40,0.380395601949965,3
839,593,40,0.511406264276293,3
839,594,40,0.313825422592934,3
839,595,40,0.126653342378879,3
840,591,40,0.178106252439043,3
840,592,40,0.335100012414541,3
840,593,40,0.463248059188318,3
840,594,40,0.292197967551883,3
841,592,40,0.230208478510378,3
841,593,40,0.273178996262134,3
813,588,41,0.238823579251475,4
813,589,41,0.238442305299168,4
814,588,41,0.328056345960276,4
814,589,41,0.254474263900907,4
815,587,41,0.317979001552825,4
815,588,41,0.339620748103659,4
815,589,41,0.213027948739017,4
816,587,41,0.292350664491013,4
816,588,41,0.312063514723735,4
816,589,41,0.228683709488723,4
817,588,41,0.300391860899465,4
818,589,41,0.222021164485898,2
818,590,41,0.142494359002732,1
819,586,41,0.25266969936074,2
819,588,41,0.222037765294518,2
819,589,41,0.301922446739889,2
819,590,41,0.265251129783395,2
819,591,41,0.135736304885747,1
820,585,41,0.25273791081978,2
820,586,41,0.373859545523055,2
820,587,41,0.26397432717081,2
820,588,41,0.265572253036752,2
820,589,41,0.490371906891238,2
820,590,41,0.451933017747643,2
820,591,41,0.202995788159752,2
821,586,41,0.265287272488776,2
821,588,41,0.242259140559795,2
821,589,41,0.42680475281321,2
821,590,41,0.3622775404225,2
821,591,41,0.161468723789004,2
822,589,41,0.202931607080757,2
822,590,41,0.156040531693257,2
834,592,41,0.184911342180451,3
835,591,41,0.309485945076674,3
835,592,41,0.323213789870982,3
835,593,41,0.196201286335653,3
836,590,41,0.235659796273252,3
836,591,41,0.378605633921313,3
836,592,41,0.378180461505268,3
836,593,41,0.217323157432291,3
836,615,41,0.126855199061646,1
836,616,41,0.116126534345919,1
837,590,41,0.241668896848587,3
837,591,41,0.320728918964968,3
837,592,41,0.317696700662933,3
837,593,41,0.203084020803992,3
837,615,41,0.142468815107578,1
837,616,41,0.142593005277576,1
838,590,41,0.205469918647591,3
838,591,41,0.30517550808258,3
838,592,41,0.359623458912088,3
838,593,41,0.279736751383775,3
839,591,41,0.277274014889254,3
839,592,41,0.416076926852249,3
839,593,41,0.413913375272135,3
839,594,41,0.217355836189417,3
840,591,41,0.2347867070262,3
840,592,41,0.396953492468887,3
840,593,41,0.442418314394547,3
840,594,41,0.240626095922862,3
841,591,41,0.223863440311789,3
841,592,41,0.333896061644509,3
841,593,41,0.336284247001106,3
841,594,41,0.183497158072909,3
842,591,41,0.216684636303889,3
842,592,41,0.228596391849682,3
842,593,41,0.196342807139846,3
801,600,42,0.103855268900064,1
812,588,42,0.162183854817028,4
812,589,42,0.205025836124088,4
813,587,42,0.150850742023662,4
813,588,42,0.337520636884045,4
813,589,42,0.37696986605462,4
813,590,42,0.213995414236648,4
814,587,42,0.224422225272803,4
814,588,42,0.377162757865015,4
814,589,42,0.328603671570458,4
814,590,42,0.172040639399717,4
815,587,42,0.25936230882012,4
815,588,42,0.330938067692826,4
815,589,42,0.242983127531,4
815,590,42,0.134467976964177,1
816,587,42,0.244059500433212,4
816,588,42,0.342385763101594,4
816,589,42,0.2835022156382,4
816,590,42,0.155058742007086,1
817,588,42,0.321579416297926,4
817,590,42,0.143006609413599,1
818,589,42,0.228137647457149,2
818,590,42,0.144609840131114,1
819,588,42,0.235843058743213,2
819,589,42,0.332759494471671,2
819,590,42,0.270767412915434,2
819,591,42,0.12601581250611,1
820,586,42,0.32130683189182,2
820,588,42,0.24445258230976,2
820,589,42,0.444220221062468,2
820,590,42,0.391569689018236,2
820,591,42,0.16858787817223,2
821,588,42,0.184926472445,2
821,589,42,0.324620741080279,2
821,590,42,0.282932537758144,2
821,591,42,0.132262378716561,1
822,589,42,0.148906671869324,2
822,590,42,0.123395204935914,1
824,589,42,0.13577253473448,1
824,590,42,0.110173456053216,1
825,589,42,0.142131570334039,1
825,590,42,0.125070666599596,1
826,589,42,0.10577742250129,1
826,590,42,0.10075698504404,1
831,590,42,0.112141457950689,1
832,591,42,0.119768832364736,1
834,593,42,0.124301038297606,1
835,591,42,0.274490699787329,3
835,592,42,0.275689639814601,3
836,590,42,0.251793320452138,3
836,591,42,0.374752590597791,3
836,592,42,0.330703085643253,3
836,593,42,0.18167714737354,3
837,590,42,0.273179976624848,3
837,591,42,0.371662705182348,3
837,592,42,0.305639263217872,3
837,593,42,0.170671639120362,3
837,615,42,0.112863865448632,1
837,616,42,0.112899757616876,1
838,590,42,0.255737188934632,3
838,591,42,0.406570589260978,3
838,592,42,0.388429957605258,3
838,593,42,0.233466659525019,3
838,615,42,0.126782064003198,1
838,616,42,0.124893122912132,1
839,590,42,0.214295405227063,3
839,591,42,0.380711235172124,3
839,592,42,0.460440605377795,3
839,593,42,0.33983278966573,3
839,594,42,0.161009935824795,3
840,590,42,0.17200286275648,3
840,591,42,0.298381224116862,3
840,592,42,0.433637183781413,3
840,593,42,0.380689536477393,3
840,594,42,0.190684306056795,3
841,590,42,0.203388957179653,3
841,591,42,0.321749476550009,3
841,592,42,0.421569441634939,3
841,593,42,0.345998726489432,3
841,594,42,0.170657031715926,3
842,590,42,0.280491957460954,3
842,591,42,0.314168157397671,3
842,592,42,0.289690243301719,3
842,593,42,0.211071449764052,3
843,591,42,0.249872397750764,3
812,588,43,0.185716328897652,4
812,589,43,0.27299416521183,4
812,590,43,0.184487694773071,1
813,587,43,0.150367858922532,4
813,588,43,0.371068474662771,4
813,589,43,0.46578218787424,4
813,590,43,0.268125618617702,4
813,591,43,0.10907563499341,1
814,587,43,0.198627945482307,4
814,588,43,0.366127381227824,4
814,589,43,0.357050333575996,4
814,590,43,0.190129703976692,4
815,587,43,0.212455787273419,4
815,588,43,0.326090021572335,4
815,589,43,0.271846421904055,4
815,590,43,0.145926271183173,1
816,587,43,0.215599265850548,4
816,588,43,0.364735941535242,4
816,589,43,0.313217140207793,4
816,590,43,0.157394227421359,1
817,588,43,0.297870585858013,4
817,589,43,0.248534638363221,1
817,590,43,0.128344261094682,1
818,588,43,0.226094745848344,1
818,589,43,0.222498579341669,2
818,590,43,0.145188221453485,1
819,588,43,0.261256434940651,2
819,589,43,0.349852053028849,2
819,590,43,0.257423303873137,2
819,591,43,0.113673808443997,1
820,588,43,0.240758074529975,2
820,589,43,0.376502864829453,2
820,590,43,0.303499066056184,2
820,591,43,0.132425565536728,1
821,588,43,0.15734872769852,1
821,589,43,0.236583450450496,2
821,590,43,0.204735692332486,1
821,591,43,0.10558868089305,1
822,588,43,0.105039536165387,1
822,589,43,0.118700955939377,1
822,590,43,0.103144614861767,1
824,588,43,0.111960003705288,1
824,589,43,0.11193951412457,1
825,588,43,0.114242015779983,1
825,589,43,0.122843086441354,1
825,590,43,0.110674966045908,1
826,588,43,0.106513369897603,1
826,589,43,0.102916963746709,1
831,589,43,0.10890587974306,1
831,590,43,0.119342439941758,1
831,591,43,0.100592196964774,1
832,590,43,0.1783254942206,1
832,591,43,0.139170657080053,1
833,591,43,0.131415051223044,1
834,592,43,0.13437482072053,1
834,593,43,0.103445902109548,1
835,591,43,0.219361070084175,3
835,593,43,0.145787386465388,1
836,590,43,0.235837546926178,3
836,591,43,0.339154901527911,3
836,592,43,0.296251571300806,3
837,590,43,0.286674800095009,3
837,591,43,0.411492794374306,3
837,592,43,0.322631171203103,3
837,593,43,0.168856769878781,3
838,589,43,0.186699589127893,3
838,590,43,0.303255021097968,3
838,591,43,0.500898431708303,3
838,592,43,0.442965966792301,3
838,593,43,0.225321108952146,3
838,615,43,0.103834746640589,1
838,616,43,0.101544684698722,1
839,590,43,0.268120368230723,3
839,591,43,0.48304254095634,3
839,592,43,0.529634736431167,3
839,593,43,0.308936615169388,3
839,594,43,0.128833788876427,3
840,590,43,0.205863828385986,3
840,591,43,0.368570946184831,3
840,592,43,0.464547322999967,3
840,593,43,0.318948754563454,3
840,594,43,0.149728836719855,3
841,590,43,0.268478570980499,3
841,591,43,0.422132518406056,3
841,592,43,0.461959557580682,3
841,593,43,0.30382339182774,3
841,594,43,0.146938452113471,3
842,589,43,0.218827622052852,3
842,590,43,0.360000070695045,3
842,591,43,0.400064335860567,3
842,592,43,0.329870343768333,3
842,593,43,0.202970690874279,3
843,590,43,0.317103777293641,3
843,591,43,0.269158136627851,3
843,592,43,0.214340153338488,3
811,590,44,0.128470782349354,1
812,588,44,0.189646123728744,4
812,589,44,0.323410668489746,4
812,590,44,0.251887348129308,1
812,591,44,0.119789659625944,1
813,587,44,0.137655321326288,4
813,588,44,0.34353725357352,4
813,589,44,0.47146480588005,4
813,590,44,0.289692269384661,4
813,591,44,0.116391373886586,1
814,587,44,0.176863250554245,4
814,588,44,0.346617858221939,4
814,589,44,0.363676496229221,4
814,590,44,0.193664586920837,4
815,587,44,0.188590708802768,4
815,588,44,0.34181185876895,4
815,589,44,0.306756027063892,4
815,590,44,0.154002205110449,4
816,587,44,0.188713864145456,4
816,588,44,0.345337678804451,4
816,589,44,0.295121539879393,4
816,590,44,0.141591782623834,1
817,588,44,0.235941966448114,4
817,589,44,0.193018527892458,1
817,590,44,0.107224111079252,1
818,588,44,0.203639189315884,1
818,589,44,0.205188009902785,2
818,590,44,0.137511371401148,1
819,588,44,0.286685649442375,2
819,589,44,0.337214589430642,2
819,590,44,0.226906072244427,2
820,587,44,0.255494952200977,1
820,588,44,0.254111355410105,1
820,589,44,0.308670174369622,2
820,590,44,0.221038013184847,1
820,591,44,0.100406799482679,1
821,587,44,0.145662597184843,1
821,588,44,0.151187442151249,1
821,589,44,0.173899221925414,1
821,590,44,0.140699369338402,1
825,588,44,0.106017012255618,1
825,589,44,0.102158620508846,1
826,588,44,0.101351389850322,1
831,590,44,0.115284925634899,1
832,589,44,0.157165269156016,1
832,590,44,0.180143870982113,1
832,591,44,0.148674750730002,1
833,590,44,0.153936466344031,1
833,591,44,0.129801624733306,1
834,591,44,0.117010255081955,1
834,592,44,0.108248611900987,1
835,592,44,0.179284615742245,1
835,593,44,0.120192577808388,1
836,591,44,0.283746587383987,3
836,592,44,0.272514048912136,3
836,593,44,0.161973414514056,1
837,590,44,0.277210835958811,3
837,591,44,0.412587619881376,3
837,592,44,0.360974093729939,3
837,593,44,0.193919110867172,3
838,589,44,0.214512784319465,3
838,590,44,0.327639321447673,3
838,591,44,0.537233462468134,3
838,592,44,0.501707383448035,3
838,593,44,0.245176765353508,3
839,589,44,0.207387290257357,3
839,590,44,0.289079825904446,3
839,591,44,0.508911306527246,3
839,592,44,0.555524285691604,3
839,593,44,0.285314775580944,3
839,594,44,0.109659157773569,3
840,590,44,0.226202106458421,3
840,591,44,0.399217781764302,3
840,592,44,0.452833905724089,3
840,593,44,0.259876585313929,3
841,589,44,0.17318909074723,3
841,590,44,0.314870511031658,3
841,591,44,0.477474821460585,3
841,592,44,0.433632390897035,3
841,593,44,0.238136170702413,3
842,589,44,0.255834811275086,3
842,590,44,0.390011653021827,3
842,591,44,0.443686163027679,3
842,592,44,0.329051871617359,3
842,593,44,0.180739169007756,3
843,590,44,0.283623824186384,3
843,591,44,0.263863851185887,3
843,592,44,0.204632078886559,3
805,593,45,0.106671872762582,1
811,589,45,0.172843044495105,4
811,590,45,0.225946558577697,1
811,591,45,0.128608207415987,1
812,588,45,0.178710744088357,4
812,589,45,0.34652847092828,4
812,590,45,0.336214488747562,4
812,591,45,0.157176826543119,1
813,588,45,0.289547349989727,4
813,589,45,0.417845021899464,4
813,590,45,0.285528167864976,4
813,591,45,0.117412966298936,1
814,587,45,0.156567247900612,4
814,588,45,0.331733773643004,4
814,589,45,0.361006467485331,4
814,590,45,0.187107267515958,4
815,587,45,0.171331107332081,4
815,588,45,0.343101515026003,4
815,589,45,0.319610129036006,4
815,590,45,0.148881432975904,4
816,587,45,0.159011008930162,1
816,588,45,0.284576148526547,4
816,589,45,0.240850991129403,4
816,590,45,0.117079109223219,1
817,587,45,0.131493600062255,1
817,588,45,0.178810948050624,1
817,589,45,0.148849701902735,1
818,587,45,0.171492529499364,1
818,588,45,0.183359188360324,1
818,589,45,0.182754282780085,1
818,590,45,0.12875440128245,1
819,587,45,0.27347033827483,1
819,588,45,0.288027504567478,1
819,589,45,0.293315711760617,2
819,590,45,0.190317192899243,1
820,587,45,0.250253628131395,1
820,588,45,0.271833764332128,1
820,589,45,0.252448333459969,1
820,590,45,0.158562645489475,1
821,587,45,0.156238859070254,1
821,588,45,0.167710518900914,1
821,589,45,0.141289449655824,1
822,588,45,0.108332770593505,1
831,590,45,0.105152277877472,1
832,589,45,0.135168772910742,1
832,590,45,0.158877450849788,1
832,591,45,0.137731038006549,1
833,590,45,0.133461950533138,1
833,591,45,0.117348894149131,1
834,591,45,0.104975420443906,1
836,591,45,0.234136094757662,3
836,592,45,0.25573618678608,3
836,593,45,0.161176989631222,1
837,590,45,0.256222642764656,3
837,591,45,0.382040912013738,3
837,592,45,0.410734908639043,3
837,593,45,0.244367181824471,3
837,594,45,0.11040069323735,1
838,589,45,0.247108428473057,3
838,590,45,0.330028116807737,3
838,591,45,0.516033707000346,3
838,592,45,0.54298832231303,3
838,593,45,0.28760895504621,3
838,594,45,0.117128552182751,3
839,589,45,0.221494252206,3
839,590,45,0.288906563134164,3
839,591,45,0.469019955558596,3
839,592,45,0.508766038558902,3
839,593,45,0.253824457708378,3
840,590,45,0.233382958335101,3
840,591,45,0.381824970786651,3
840,592,45,0.387880736627162,3
840,593,45,0.199727346015374,3
841,589,45,0.17497452732156,3
841,590,45,0.31203924530011,3
841,591,45,0.447406443453918,3
841,592,45,0.356780973473926,3
841,593,45,0.178268927292015,3
842,589,45,0.238541518005802,3
842,590,45,0.34091942369768,3
842,591,45,0.398294018657867,3
842,592,45,0.283559011318085,3
843,590,45,0.215570072827516,3
843,591,45,0.22099045470031,3
805,593,46,0.147996982414292,1
810,590,46,0.158937786728362,1
810,591,46,0.10721231404793,1
811,589,46,0.208051366173831,1
811,590,46,0.328967734710678,5
811,591,46,0.184926831911328,1
812,588,46,0.151659018402414,1
812,589,46,0.313780325908101,4
812,590,46,0.367962511298823,5
812,591,46,0.177002200629545,5
813,588,46,0.229202866010263,4
813,589,46,0.332230621466345,4
813,590,46,0.248420415214147,4
813,591,46,0.10749907014171,1
814,588,46,0.298741431163741,4
814,589,46,0.332788077491237,4
814,590,46,0.170100109444068,4
815,587,46,0.144452786024367,1
815,588,46,0.297247445531298,4
815,589,46,0.28407333138357,4
815,590,46,0.130832900950684,1
816,587,46,0.125573342134626,1
816,588,46,0.209386358759937,1
816,589,46,0.177902184493711,1
817,587,46,0.11192381742823,1
817,588,46,0.139878936462,1
817,589,46,0.119757100690928,1
818,587,46,0.152495921372408,1
818,588,46,0.173074464560152,1
818,589,46,0.163068131091935,1
818,590,46,0.119451140380877,1
819,587,46,0.235889135790761,1
819,588,46,0.288368670791872,1
819,589,46,0.260644819322283,1
819,590,46,0.165043213386785,1
820,587,46,0.236127189643504,1
820,588,46,0.307778545374361,6
820,589,46,0.248538429099047,1
820,590,46,0.134964901037952,1
821,587,46,0.182934582376068,1
821,588,46,0.204497507764715,1
821,589,46,0.144163785989264,1
822,588,46,0.134039939710423,1
823,588,46,0.107538034113123,1
832,589,46,0.108799434138182,1
832,590,46,0.123552346186014,1
832,591,46,0.109985248198009,1
833,590,46,0.111063505575215,1
836,587,46,0.259512326101166,3
836,588,46,0.313230843499948,3
836,591,46,0.220205293095765,3
836,592,46,0.254825342681629,3
836,593,46,0.165010578201336,3
837,588,46,0.303481877029936,3
837,590,46,0.250598933665025,3
837,591,46,0.364452333495065,3
837,592,46,0.473246538861905,3
837,593,46,0.305066295676265,3
837,594,46,0.126520731982462,3
838,589,46,0.284991038027017,3
838,590,46,0.328142007875622,3
838,591,46,0.478319937691536,3
838,592,46,0.574023991530623,3
838,593,46,0.342776884252715,3
838,594,46,0.136758333014859,3
839,589,46,0.227391635003642,3
839,590,46,0.298379176248082,3
839,591,46,0.414759972940076,3
839,592,46,0.429435523476872,3
839,593,46,0.229401334995207,3
840,590,46,0.24920616503632,3
840,591,46,0.345321709785136,3
840,592,46,0.303361662775389,3
840,593,46,0.153541423742055,3
841,590,46,0.275914970737903,3
841,591,46,0.362769312145568,3
841,592,46,0.273055296273493,3
842,590,46,0.261065068138922,3
842,591,46,0.304579621839309,3
805,593,47,0.196708395288732,1
806,592,47,0.202518395089819,1
806,593,47,0.109131886027342,1
810,589,47,0.111024955534726,1
810,590,47,0.200984628517035,1
810,591,47,0.129012051496549,1
811,589,47,0.208597580706271,1
811,590,47,0.359514028647392,1
811,591,47,0.204476658717668,1
812,589,47,0.244644711615822,1
812,590,47,0.320028526056408,5
812,591,47,0.162542580426918,1
813,588,47,0.174653611033665,1
813,589,47,0.253457257407473,4
813,590,47,0.198516946637269,1
814,588,47,0.237647231138295,1
814,589,47,0.274456670308242,4
814,590,47,0.144783527725238,1
815,587,47,0.114473021914106,1
815,588,47,0.219162208954145,1
815,589,47,0.216614071974335,1
815,590,47,0.107537565717604,1
816,587,47,0.100199670627097,1
816,588,47,0.151828011148431,1
816,589,47,0.134873258910052,1
817,588,47,0.127681764651469,1
817,589,47,0.114580894491379,1
818,587,47,0.138989714801847,1
818,588,47,0.178957795492229,1
818,589,47,0.162073509547133,1
818,590,47,0.115432001827803,1
819,587,47,0.197338812085367,1
819,588,47,0.300484254638779,6
819,589,47,0.260599330492364,1
819,590,47,0.150789959535408,1
820,587,47,0.216170512310947,6
820,588,47,0.347809412850101,6
820,589,47,0.278076801236809,6
820,590,47,0.130160611773253,1
821,587,47,0.210919951046017,1
821,588,47,0.23627993015431,6
821,589,47,0.157133592547442,1
822,587,47,0.257757215413449,1
822,588,47,0.160392949997339,1
823,588,47,0.11757222077533,1
835,587,47,0.331125621972891,3
835,588,47,0.304254054274983,3
836,586,47,0.214226278762823,3
836,587,47,0.338362790241017,3
836,588,47,0.338941204242145,3
836,589,47,0.240965497494372,3
836,590,47,0.209524524545065,3
836,591,47,0.252702356332027,3
836,592,47,0.259229502351161,3
836,593,47,0.164449135368075,3
837,587,47,0.259063102119876,3
837,588,47,0.307670705475846,3
837,589,47,0.29472044081443,3
837,590,47,0.263241059432582,3
837,591,47,0.362953206404834,3
837,592,47,0.508639462839635,3
837,593,47,0.350184744562229,3
837,594,47,0.138073936205071,3
838,588,47,0.253668340392669,3
838,589,47,0.300664968165685,3
838,590,47,0.313503645764435,3
838,591,47,0.422205021675199,3
838,592,47,0.578373098387317,3
838,593,47,0.402616111075336,3
838,594,47,0.162191153072786,3
839,589,47,0.224493900680099,3
839,590,47,0.308111106192712,3
839,591,47,0.354101729320527,3
839,592,47,0.352298733360702,3
839,593,47,0.225508510731344,3
840,590,47,0.256014653368469,3
840,591,47,0.292064376792752,3
840,592,47,0.221324257311431,3
841,591,47,0.255315654753546,3
803,595,48,0.18995463298185,1
803,596,48,0.136273336687434,1
804,594,48,0.136077547360574,1
804,595,48,0.14229039998659,1
804,596,48,0.101311968376309,1
805,593,48,0.228101570109282,1
806,592,48,0.179172113674379,1
806,593,48,0.117289723812895,1
810,589,48,0.113203844344851,1
810,590,48,0.197850016776006,1
810,591,48,0.12720420818775,1
811,589,48,0.175471603896202,1
811,590,48,0.299503782995812,1
811,591,48,0.178593917531632,1
812,589,48,0.174535433754978,1
812,590,48,0.229874109467466,1
812,591,48,0.128655046967868,1
813,588,48,0.128342953944397,1
813,589,48,0.183362488914793,1
813,590,48,0.148924263933577,1
814,588,48,0.159281371180783,1
814,589,48,0.191850828756998,1
814,590,48,0.115803548403405,1
815,588,48,0.13394753507819,1
815,589,48,0.139394397637175,1
816,588,48,0.103148623455974,1
817,588,48,0.118933062258323,1
817,589,48,0.113479881806293,1
818,587,48,0.130728307142043,1
818,588,48,0.19837015366026,6
818,589,48,0.181978674265541,1
818,590,48,0.117027716431179,1
819,587,48,0.178344240934271,6
819,588,48,0.332764483428592,6
819,589,48,0.288935952229739,6
819,590,48,0.14516303702466,1
820,587,48,0.20291838307704,6
820,588,48,0.375397799978484,6
820,589,48,0.300445628347856,6
820,590,48,0.12523492092583,1
821,587,48,0.222499799348602,1
821,588,48,0.246596722708142,6
821,589,48,0.159224847823874,1
822,587,48,0.292366067078539,1
822,588,48,0.164815671200918,1
823,588,48,0.110369169129643,1
834,587,48,0.208036987520695,3
834,588,48,0.198920355001069,3
835,586,48,0.258852846996528,3
835,587,48,0.377565403724482,3
835,588,48,0.312437163632713,3
835,589,48,0.224480545961354,3
835,590,48,0.204906101157979,3
836,586,48,0.30621586899444,3
836,587,48,0.415097130570263,3
836,588,48,0.343835065980127,3
836,589,48,0.293173014521167,3
836,590,48,0.30617857163964,3
836,591,48,0.299907496361345,3
836,592,48,0.242507847687361,3
836,593,48,0.146432541381486,3
837,586,48,0.231914658205759,3
837,587,48,0.301079487306908,3
837,588,48,0.311185763307334,3
837,589,48,0.326532056227058,3
837,590,48,0.30582871286585,3
837,591,48,0.355973829958755,3
837,592,48,0.466781591410501,3
837,593,48,0.334899974849254,3
837,594,48,0.131735444650825,3
838,587,48,0.232303252199662,3
838,588,48,0.253052106176627,3
838,589,48,0.301546357817046,3
838,590,48,0.294992938077184,3
838,591,48,0.351331224291395,3
838,592,48,0.519443582805565,3
838,593,48,0.412353639980355,3
838,594,48,0.168951549167365,3
839,590,48,0.300424910015838,3
839,591,48,0.282646772919997,3
839,592,48,0.278552887156457,3
839,593,48,0.21979238610656,3
840,591,48,0.224566338591728,3
840,592,48,0.153395273447269,3
802,596,49,0.202664164132439,1
803,595,49,0.225984444150125,1
803,596,49,0.205178140918133,1
803,597,49,0.12759011163065,1
804,593,49,0.278577831941063,7
804,594,49,0.201999805000069,1
804,595,49,0.19533412283656,1
804,596,49,0.160825377097467,1
805,593,49,0.248772822930992,1
805,594,49,0.135047480257209,1
805,595,49,0.101530632833158,1
806,592,49,0.144826129931611,1
806,593,49,0.11720371332414,1
810,590,49,0.15191352056291,1
810,591,49,0.10460892818274,1
811,589,49,0.129815883564332,1
811,590,49,0.198604351419662,1
811,591,49,0.130128281589536,1
812,589,49,0.123721436968302,1
812,590,49,0.150561328057636,1
813,589,49,0.12637760991917,1
813,590,49,0.109410211001784,1
814,589,49,0.121393206238111,1
817,588,49,0.116671921016512,1
817,589,49,0.115076761952007,1
818,587,49,0.134352479343575,1
818,588,49,0.228592884329751,6
818,589,49,0.207914529324826,1
818,590,49,0.116985854943301,1
819,587,49,0.17923179597781,6
819,588,49,0.356081146997156,6
819,589,49,0.296899286052879,6
819,590,49,0.13189183428951,1
820,587,49,0.197526562437974,6
820,588,49,0.35917273170797,6
820,589,49,0.26940488302999,6
820,590,49,0.104867940011719,1
821,587,49,0.219311638017563,1
821,588,49,0.232484837160091,6
821,589,49,0.140047798492988,1
822,588,49,0.151597745732803,1
834,587,49,0.201246712149184,3
834,588,49,0.20540318862554,3
835,586,49,0.294329188948281,3
835,587,49,0.353212779983351,3
835,588,49,0.29016129669277,3
835,589,49,0.261189051343457,3
835,590,49,0.252024489980046,3
835,591,49,0.183750026295549,3
836,585,49,0.198343792796178,3
836,586,49,0.401947503704541,3
836,587,49,0.439278277979835,3
836,588,49,0.339449663917186,3
836,589,49,0.370667571670351,3
836,590,49,0.402784559175401,3
836,591,49,0.310923004314204,3
836,592,49,0.203089227619294,3
836,593,49,0.122266927274467,1
837,585,49,0.170047572895529,3
837,586,49,0.297567697351132,3
837,587,49,0.335972600587316,3
837,588,49,0.31465297943839,3
837,589,49,0.358851042022822,3
837,590,49,0.352861526915924,3
837,591,49,0.330124083424497,3
837,592,49,0.367445359074387,3
837,593,49,0.270891744693379,3
837,594,49,0.11316053409874,1
838,586,49,0.225369691371073,3
838,587,49,0.224500196787305,3
838,588,49,0.242356109325107,3
838,589,49,0.276941475856741,3
838,590,49,0.267575700492787,3
838,591,49,0.290705746572325,3
838,592,49,0.417089009746276,3
838,593,49,0.356618690766039,3
838,594,49,0.151232985445764,3
839,591,49,0.2202196717489,3
839,592,49,0.22183990631304,3
839,593,49,0.200677056054966,3
802,597,50,0.234595514511176,1
802,601,50,0.10402029662355,1
802,602,50,0.105947221323316,1
803,593,50,0.196776083887659,7
803,596,50,0.255793178538508,1
803,597,50,0.195336083561988,1
804,592,50,0.251288673298762,7
804,593,50,0.360814861039383,7
804,594,50,0.32122371891953,7
804,595,50,0.242651939220448,1
804,596,50,0.219682607268456,1
804,597,50,0.147923738426654,1
805,593,50,0.297775512460614,7
805,594,50,0.225445658588471,7
805,595,50,0.1415287235155,1
805,596,50,0.119163305888113,1
806,593,50,0.127712711434467,1
811,590,50,0.102877073877177,1
817,589,50,0.104549028020928,1
818,588,50,0.238219327246379,6
818,589,50,0.206009488499415,1
818,590,50,0.103713748095871,1
819,587,50,0.188822510119981,6
819,588,50,0.348914368771879,6
819,589,50,0.266061345101736,6
819,590,50,0.107201530058078,1
820,588,50,0.310994854008205,6
820,589,50,0.207408444306136,1
821,587,50,0.202392625446561,1
821,588,50,0.198587467395147,1
821,589,50,0.110298659264684,1
822,588,50,0.120317530482718,1
834,587,50,0.189876879325728,3
834,588,50,0.204455809670622,3
834,589,50,0.179016127073699,3
835,586,50,0.299547550744522,3
835,587,50,0.300204219476048,3
835,588,50,0.284555495552043,3
835,589,50,0.323027019881088,3
835,590,50,0.287548717203908,3
836,585,50,0.270925164169,3
836,586,50,0.458526414500389,3
836,587,50,0.409481874375808,3
836,588,50,0.367325929110011,3
836,589,50,0.497376881697066,3
836,590,50,0.467935717968835,3
836,591,50,0.277617708270866,3
837,585,50,0.241760353796864,3
837,586,50,0.379488265365445,3
837,587,50,0.353106181877607,3
837,588,50,0.339787889053439,3
837,589,50,0.436072622620815,3
837,590,50,0.400418442872783,3
837,591,50,0.296771621041707,3
837,592,50,0.265275987424649,3
838,586,50,0.226399725795681,3
838,587,50,0.217570971340495,3
838,588,50,0.227768050714056,3
838,589,50,0.259556420637448,3
838,590,50,0.25195542887332,3
838,591,50,0.261032868670234,3
838,592,50,0.322065501917254,3
838,593,50,0.26059164009152,3
802,601,51,0.142841919370603,1
802,602,51,0.117074131159217,1
803,593,51,0.21530805455288,7
803,594,51,0.246569294337994,7
803,597,51,0.244034708149473,1
803,598,51,0.109982906220415,1
804,592,51,0.21383598547355,7
804,593,51,0.42254156930192,7
804,594,51,0.427881583218022,7
804,595,51,0.267884558319303,7
804,596,51,0.250461661099258,1
804,597,51,0.18219561764118,1
805,592,51,0.195742280513063,7
805,593,51,0.359665353078723,7
805,594,51,0.340869207340896,7
805,595,51,0.184382382031773,7
805,596,51,0.136571563024965,1
806,593,51,0.151291197205124,7
806,594,51,0.139749267153724,7
818,589,51,0.178979864546208,1
819,588,51,0.320993202966764,6
819,589,51,0.220515610573432,1
820,589,51,0.157135248271136,1
821,588,51,0.1611465439225,1
822,627,51,0.111715795353286,1
823,627,51,0.170247022243187,1
825,626,51,0.11575130596368,1
826,626,51,0.10061566031239,1
834,588,51,0.203940748886642,3
834,589,51,0.199782747401621,3
834,590,51,0.151942430370048,3
834,623,51,0.101563594806179,1
834,624,51,0.114126213157648,1
835,585,51,0.203623873871711,3
835,586,51,0.272238305559508,3
835,587,51,0.258414385219251,3
835,588,51,0.294878104924643,3
835,589,51,0.377258484837556,3
835,590,51,0.301262553704327,3
835,591,51,0.157357638106297,3
835,623,51,0.113655824234659,1
836,584,51,0.148360021620123,3
836,585,51,0.319764612413859,3
836,586,51,0.444561692288596,3
836,587,51,0.35135163762168,3
836,588,51,0.386817021296877,3
836,589,51,0.572396632997431,3
836,590,51,0.468628943336665,3
836,591,51,0.23465481556244,3
837,584,51,0.162186414653003,3
837,585,51,0.333451216616673,3
837,586,51,0.454474292188456,3
837,587,51,0.346151096640991,3
837,588,51,0.34922873841543,3
837,589,51,0.499848615742715,3
837,590,51,0.433055240474515,3
837,591,51,0.270669594502437,3
838,585,51,0.235569210758499,3
838,586,51,0.262649508571089,3
838,587,51,0.212001400048503,3
838,588,51,0.207299427972364,3
838,589,51,0.258056160683637,3
838,590,51,0.262184664143892,3
802,601,52,0.15398354554013,1
802,602,52,0.107819365533219,1
803,593,52,0.201995992478405,7
803,594,52,0.245397259820755,7
803,597,52,0.252681332998276,1
803,598,52,0.124262542721711,1
804,592,52,0.174401298349896,7
804,593,52,0.418315596002077,7
804,594,52,0.469489135367571,7
804,595,52,0.280056589272685,7
804,596,52,0.24376356160868,1
804,597,52,0.187811407588668,1
805,592,52,0.170202481097224,7
805,593,52,0.408280733978889,7
805,594,52,0.452079767152976,7
805,595,52,0.238595677599279,7
805,596,52,0.144401338767731,1
806,593,52,0.188124709726153,7
806,594,52,0.207554039062051,7
806,595,52,0.12005213540318,1
818,589,52,0.13128615531202,1
819,588,52,0.261369416296954,1
819,589,52,0.166709699285177,1
820,588,52,0.219880226605715,1
820,589,52,0.119761523216059,1
821,588,52,0.128685536248266,1
822,627,52,0.120978665311051,1
824,626,52,0.120520138776898,1
825,626,52,0.160772056258756,1
826,626,52,0.123222552169099,1
831,625,52,0.104601107066867,1
833,623,52,0.110614139985977,1
833,624,52,0.127257550812299,1
834,588,52,0.195892646367518,3
834,589,52,0.207676344757054,3
834,622,52,0.105688144136822,1
834,623,52,0.156240111755944,1
834,624,52,0.183037509568095,1
835,585,52,0.206538339718902,3
835,586,52,0.237500699591343,3
835,587,52,0.238891442137106,3
835,588,52,0.303213998364856,3
835,589,52,0.375592608942631,3
835,590,52,0.275327014539694,3
835,622,52,0.109688862763796,1
835,623,52,0.16775785952707,1
836,584,52,0.166791123855015,3
836,585,52,0.326510640748221,3
836,586,52,0.400977728908073,3
836,587,52,0.317203839647961,3
836,588,52,0.395844506167063,3
836,589,52,0.547217563488586,3
836,590,52,0.416493079931328,3
836,591,52,0.192151255464176,3
837,584,52,0.205740999830869,3
837,585,52,0.413898560902238,3
837,586,52,0.511322824516431,3
837,587,52,0.335785264165632,3
837,588,52,0.341181899474915,3
837,589,52,0.500164336108228,3
837,590,52,0.437181216777553,3
837,591,52,0.241252896270375,3
838,584,52,0.223917120616827,3
838,585,52,0.294849935836001,3
838,586,52,0.322527753829719,3
838,587,52,0.212679963547303,3
838,588,52,0.190463266943595,3
838,589,52,0.263071304182232,3
838,590,52,0.285537296131133,3
839,585,52,0.208702087371559,3
839,586,52,0.157093386783258,3
802,601,53,0.131364105040685,1
803,593,53,0.17080321468947,7
803,594,53,0.22047334604755,7
803,596,53,0.214677202039484,1
803,597,53,0.217334289995552,1
803,598,53,0.12863409988455,1
804,592,53,0.144357974057025,7
804,593,53,0.355288338563444,7
804,594,53,0.434868998638354,7
804,595,53,0.265096145331266,7
804,596,53,0.20011953467256,1
804,597,53,0.15851165573544,1
805,592,53,0.160188435442326,7
805,593,53,0.423786891378473,7
805,594,53,0.519067777098618,7
805,595,53,0.281540901993019,7
805,596,53,0.138731857622286,1
806,593,53,0.238036108348093,7
806,594,53,0.285827701352792,7
806,595,53,0.159514621256229,1
818,588,53,0.126569161900523,1
819,587,53,0.192309442434503,1
819,588,53,0.194974046504709,1
819,589,53,0.119019562928435,1
820,587,53,0.232053608281058,1
820,588,53,0.177016110887161,1
821,587,53,0.171746421656394,1
821,588,53,0.108140314499872,1
823,626,53,0.105049078362468,1
824,626,53,0.150313775579489,1
825,625,53,0.114874654732102,1
825,626,53,0.188712927354419,1
825,627,53,0.175362936135839,1
826,626,53,0.131196408552034,1
830,625,53,0.106877400359066,1
830,626,53,0.119399867410947,1
831,624,53,0.11135725492302,1
831,625,53,0.145647434241537,1
832,623,53,0.108436699934085,1
832,624,53,0.130781769588701,1
832,625,53,0.143300119117184,1
833,622,53,0.114736979128331,1
833,623,53,0.146526362093194,1
833,624,53,0.175355910203057,1
834,588,53,0.207047126181514,3
834,589,53,0.221629171901254,3
834,622,53,0.149051035725388,1
834,623,53,0.211549082478204,1
835,586,53,0.210052417187677,3
835,587,53,0.242520287400907,3
835,588,53,0.323802399644333,3
835,589,53,0.356204825199959,3
835,590,53,0.245519500158244,3
835,622,53,0.148694826379796,1
836,585,53,0.287517127738686,3
836,586,53,0.344400212405862,3
836,587,53,0.31726388141772,3
836,588,53,0.412938807591289,3
836,589,53,0.477143153861595,3
836,590,53,0.354989110077362,3
836,591,53,0.166389556394534,3
837,584,53,0.237483161991685,3
837,585,53,0.434575194825955,3
837,586,53,0.503202545515735,3
837,587,53,0.323912483484171,3
837,588,53,0.327207286492631,3
837,589,53,0.441478734769664,3
837,590,53,0.407700751397419,3
837,591,53,0.217144252129946,3
838,584,53,0.263662397541125,3
838,585,53,0.354994621894397,3
838,586,53,0.367946869067079,3
838,587,53,0.217025780742445,3
838,588,53,0.180296742207948,3
838,589,53,0.261052606639538,3
838,590,53,0.308632920586498,3
839,585,53,0.204894336805413,3
839,586,53,0.179660878951792,3
802,597,54,0.191616325995863,1
802,600,54,0.104163832617766,1
803,594,54,0.185478449331613,7
803,596,54,0.16378450391273,1
803,597,54,0.167235435129818,1
803,598,54,0.125186153327279,1
804,593,54,0.269413139862623,7
804,594,54,0.35808553124423,7
804,595,54,0.233170219626211,7
804,596,54,0.148823972827958,1
804,597,54,0.116315275954159,1
805,592,54,0.148160212806136,7
805,593,54,0.403041109204678,7
805,594,54,0.529683057420037,7
805,595,54,0.299883989442053,7
805,596,54,0.125929867374869,1
806,593,54,0.284739716598881,7
806,594,54,0.354515420599903,7
806,595,54,0.191872048163292,7
807,593,54,0.112406068740056,1
807,594,54,0.124163515194701,7
819,587,54,0.183511035651768,1
819,588,54,0.138485448900638,1
820,586,54,0.217891876735471,1
820,587,54,0.221374582597405,1
820,588,54,0.133582578718608,1
821,586,54,0.20964465165626,1
821,587,54,0.164865680592239,1
822,586,54,0.149230420316171,1
823,586,54,0.106762382026902,1
823,626,54,0.131079723603256,1
824,625,54,0.105747663046467,1
824,626,54,0.190405730545216,1
824,627,54,0.222362592140349,1
825,625,54,0.127634238845689,1
825,626,54,0.193032601543861,1
825,627,54,0.179677447081655,1
826,625,54,0.105321303302246,1
826,626,54,0.134687371246601,1
827,626,54,0.102951363585043,1
830,625,54,0.122826344024786,1
831,622,54,0.100434739820022,1
831,623,54,0.117676204580504,1
831,624,54,0.140217956781343,1
831,625,54,0.17508185525288,1
831,626,54,0.178372736810485,1
832,622,54,0.12043769027267,1
832,623,54,0.142528083480085,1
832,624,54,0.167758763639351,1
832,625,54,0.182450337660058,1
833,622,54,0.143142139112319,1
833,623,54,0.188256426903208,1
833,624,54,0.223776144458586,1
834,588,54,0.241453042764852,3
834,589,54,0.231246268693344,3
834,621,54,0.110099416882487,1
834,622,54,0.205466999345287,1
834,623,54,0.274880099857241,1
835,587,54,0.247755293577445,3
835,588,54,0.361065921037462,3
835,589,54,0.344151330991591,3
835,590,54,0.219746047628956,3
835,621,54,0.106492237634661,1
835,622,54,0.194403976479567,1
836,585,54,0.227747245238685,3
836,586,54,0.277293970716939,3
836,587,54,0.31091725285295,3
836,588,54,0.426252917534544,3
836,589,54,0.419950971723684,3
836,590,54,0.302098084166521,3
836,591,54,0.152575635753957,3
837,584,54,0.250434646660034,3
837,585,54,0.4037321559887,3
837,586,54,0.427953389340347,3
837,587,54,0.289540204234835,3
837,588,54,0.29660763903845,3
837,589,54,0.359831862239199,3
837,590,54,0.351770884289767,3
837,591,54,0.204375703143988,3
838,584,54,0.304210852958062,3
838,585,54,0.418697545315364,3
838,586,54,0.387032134662117,3
838,587,54,0.214464724760652,3
838,588,54,0.167114752479752,3
838,589,54,0.242299858291174,3
838,590,54,0.314216630887407,3
839,585,54,0.241052684418384,3
839,586,54,0.214850748025661,3
802,598,55,0.157172077230417,1
803,596,55,0.129306334597387,1
803,597,55,0.126875492569821,1
803,598,55,0.115758734934467,1
804,593,55,0.197237442580762,7
804,594,55,0.280212968018451,7
804,595,55,0.200361923907082,1
804,596,55,0.117237960661608,1
805,592,55,0.129013587398134,7
805,593,55,0.355776232407334,7
805,594,55,0.499951662756852,7
805,595,55,0.296126237374309,7
805,596,55,0.115956169092102,1
806,593,55,0.307951328856205,7
806,594,55,0.404770730461836,7
806,595,55,0.217956341030362,7
807,593,55,0.132243686467485,1
807,594,55,0.154323818545163,7
818,587,55,0.106499263567443,1
819,586,55,0.153819639787306,1
819,587,55,0.17856915792665,1
819,588,55,0.10678617216209,1
820,586,55,0.229914326124569,1
820,587,55,0.201746566418182,1
820,588,55,0.100452691350603,1
821,585,55,0.174724066434028,1
821,586,55,0.233473217062283,1
821,587,55,0.153329502002094,1
822,585,55,0.155128184365978,1
822,586,55,0.148586725051224,1
823,626,55,0.162150304626378,1
824,625,55,0.122555546057403,1
824,626,55,0.214458472225122,1
824,627,55,0.221702546603921,1
825,625,55,0.123382874151559,1
825,626,55,0.171036551908267,1
825,627,55,0.160244130937388,1
826,625,55,0.117940793584033,1
826,626,55,0.137668850331738,1
827,625,55,0.113215434410712,1
827,626,55,0.132161434035799,1
828,626,55,0.102684922785277,1
830,624,55,0.112779249253515,1
830,625,55,0.138535490970717,1
831,622,55,0.138306706992078,1
831,623,55,0.159875841344579,1
831,624,55,0.174044293821215,1
831,625,55,0.195147875706781,1
832,621,55,0.100726964159161,1
832,622,55,0.150127996845228,1
832,623,55,0.177957814631258,1
832,624,55,0.201027720904765,1
832,625,55,0.21066272565576,1
833,622,55,0.160633367613514,1
833,623,55,0.221054788280171,1
833,624,55,0.253352423954614,1
834,588,55,0.29374489277087,3
834,589,55,0.235053300326833,3
834,621,55,0.117172657611951,1
834,622,55,0.237456234695814,1
834,623,55,0.314826590782081,1
835,587,55,0.267247997916329,3
835,588,55,0.418703340348294,3
835,589,55,0.352982416531452,3
835,590,55,0.201171485650281,3
835,621,55,0.120378639758543,1
835,622,55,0.22155451183414,1
836,585,55,0.174755743042602,3
836,586,55,0.217626459870095,3
836,587,55,0.300656210258775,3
836,588,55,0.427239554569689,3
836,589,55,0.375971333951882,3
836,590,55,0.251447383129203,3
837,584,55,0.231319360180116,3
837,585,55,0.343312096936923,3
837,586,55,0.332773568123073,3
837,587,55,0.253834544551411,3
837,588,55,0.261874128807844,3
837,589,55,0.284192282059508,3
837,590,55,0.286621163361647,3
838,584,55,0.312784560606799,3
838,585,55,0.465474005408704,3
838,586,55,0.388727813583541,3
838,587,55,0.211720232022192,3
838,589,55,0.222433091112389,3
839,584,55,0.226866944879228,3
839,585,55,0.315571056441085,3
839,586,55,0.267419692106268,3
840,585,55,0.136786807105234,3
802,597,56,0.134789633970567,1
802,598,56,0.136055935809195,1
803,595,56,0.127556158401996,1
803,596,56,0.105609726012639,1
803,597,56,0.100636400430246,1
803,598,56,0.101978157519077,1
804,594,56,0.212658373781761,7
804,595,56,0.163984127547093,1
805,593,56,0.284278706479187,7
805,594,56,0.431249281640711,7
805,595,56,0.266293603921548,7
805,596,56,0.10649782570213,1
806,592,56,0.103801588595026,1
806,593,56,0.285488648354692,7
806,594,56,0.412863123589785,7
806,595,56,0.230404812483191,7
807,593,56,0.134722315730888,1
807,594,56,0.176055780251503,7
807,595,56,0.101282361422353,1
818,587,56,0.10479129743334,1
819,586,56,0.14462011215377,1
819,587,56,0.162851525396786,1
820,585,56,0.12974028670618,1
820,586,56,0.21319334682175,1
820,587,56,0.170236782899288,1
821,585,56,0.176846769567735,1
821,586,56,0.223206248720149,1
821,587,56,0.131008712664022,1
822,585,56,0.133904627870084,1
822,586,56,0.132598850092848,1
823,625,56,0.11118545180389,1
823,626,56,0.188160482072287,1
823,627,56,0.173053375868886,1
824,625,56,0.136032428889902,1
824,626,56,0.226705424675674,1
824,627,56,0.204578115365625,1
825,625,56,0.119364454531141,1
825,626,56,0.151992145652555,1
825,627,56,0.136668205002706,1
826,624,56,0.105726966500287,1
826,625,56,0.128097580050057,1
826,626,56,0.137390231248483,1
827,624,56,0.110794483153636,1
827,625,56,0.135197366823227,1
827,626,56,0.149573656195183,1
828,625,56,0.103858798205834,1
828,626,56,0.112598459476175,1
830,622,56,0.103268467351274,1
830,623,56,0.125920248927355,1
830,624,56,0.131047121096563,1
830,625,56,0.143106039978614,1
831,621,56,0.107069812881023,1
831,622,56,0.17697030616259,1
831,623,56,0.206143449617793,1
831,624,56,0.198719358858907,1
831,625,56,0.195711867483098,1
832,621,56,0.109263363560179,1
832,622,56,0.171455809469273,1
832,623,56,0.206514811013772,1
832,624,56,0.216972797584225,1
833,588,56,0.200291207076662,3
833,622,56,0.161746732868793,1
833,623,56,0.233201199087967,1
834,587,56,0.24616638704847,3
834,588,56,0.316882389607032,3
834,589,56,0.219999395140034,3
834,621,56,0.113890795391313,1
834,622,56,0.229074024563834,1
835,587,56,0.276459464189135,3
835,588,56,0.441564222398305,3
835,589,56,0.343080273833872,3
835,590,56,0.176390868227072,3
836,587,56,0.268354457060935,3
836,588,56,0.391906454503338,3
836,589,56,0.327531372619967,3
836,590,56,0.204385005696849,3
837,585,56,0.273499487726186,3
837,586,56,0.252030764301414,3
837,588,56,0.224737226705659,3
837,589,56,0.229619411234427,3
838,584,56,0.283490952359911,3
838,585,56,0.467400788500523,3
838,586,56,0.373063316712764,3
838,587,56,0.203523789731554,3
839,584,56,0.229758448453079,3
839,585,56,0.387898688157743,3
839,586,56,0.324492182849746,3
839,587,56,0.200297851757277,3
840,585,56,0.160268106252199,3
840,586,56,0.169747189760028,3
800,603,57,0.139226472397224,1
800,604,57,0.129335985123019,1
802,598,57,0.112541696475047,1
803,595,57,0.10364247572658,1
804,594,57,0.16486146503257,7
804,595,57,0.133106797800694,1
805,593,57,0.209924055029687,7
805,594,57,0.344547441099633,7
805,595,57,0.225803665265705,7
806,593,57,0.234861345307476,7
806,594,57,0.386594849320097,7
806,595,57,0.236835447239612,7
807,593,57,0.126525405044731,1
807,594,57,0.196188999122973,7
807,595,57,0.126400310762453,1
819,586,57,0.120347594939274,1
819,587,57,0.127157717209279,1
820,585,57,0.119391828436694,1
820,586,57,0.171049351088142,1
820,587,57,0.127385433681851,1
821,585,57,0.153957119318534,1
821,586,57,0.178893178696472,1
821,587,57,0.100700058649127,1
822,585,57,0.111728899534893,1
822,586,57,0.106927333499954,1
823,625,57,0.131757143345557,1
823,626,57,0.203365319545331,1
824,625,57,0.155028427013392,1
824,626,57,0.229857290800466,1
825,625,57,0.127026413963147,1
825,626,57,0.145551424053101,1
826,624,57,0.122764167242895,1
826,625,57,0.14610003502773,1
827,624,57,0.131442436021515,1
827,625,57,0.161659840053595,1
827,626,57,0.159275467218662,1
828,624,57,0.107672757735834,1
828,625,57,0.123037960763014,1
829,624,57,0.10752021329757,1
830,622,57,0.132717201658239,1
830,623,57,0.168998170860864,1
830,624,57,0.155106180669514,1
831,621,57,0.113825220018681,1
831,622,57,0.2019128141486,1
831,623,57,0.239538372599008,1
831,624,57,0.209297102181307,1
832,621,57,0.112077930446836,1
832,622,57,0.181271843641827,1
832,623,57,0.225191592144737,1
833,622,57,0.161203383174061,1
834,588,57,0.288773756665205,3
835,587,57,0.252315831992742,3
835,588,57,0.387595952151729,3
835,589,57,0.293516947546998,3
836,587,57,0.214143013289666,3
836,588,57,0.31459773055301,3
836,589,57,0.268783071639398,3
837,585,57,0.204804426651641,3
837,586,57,0.187397433093397,3
837,588,57,0.185850115729325,3
838,584,57,0.226713812223337,3
838,585,57,0.398773437810742,3
838,586,57,0.325537772362746,3
838,587,57,0.187235237528863,3
839,584,57,0.212368382491026,3
839,585,57,0.395355936962193,3
839,586,57,0.345432468985954,3
839,587,57,0.204232896975347,3
840,585,57,0.178583079077185,3
840,586,57,0.189801347825092,3
799,603,58,0.208703547022711,1
799,604,58,0.205904785761584,1
799,610,58,0.122586427482887,1
799,611,58,0.128349500588741,1
800,602,58,0.123687026237049,1
800,603,58,0.158550042382144,1
800,604,58,0.135307570485174,1
802,597,58,0.110743482506682,1
804,594,58,0.123477097901272,1
804,595,58,0.105526090180235,1
805,593,58,0.14552255781764,1
805,594,58,0.249959301458881,7
805,595,58,0.180481333614033,1
806,593,58,0.177939013452991,1
806,594,58,0.327019361853319,7
806,595,58,0.228443782053905,1
807,593,58,0.113726813388056,1
807,594,58,0.204776301134675,1
807,595,58,0.154456679478718,1
820,586,58,0.11238202806773,1
821,585,58,0.111539929175354,1
821,586,58,0.114642657342347,1
823,625,58,0.157609830967956,1
824,625,58,0.167635597403743,1
825,624,58,0.10346657686989,1
825,625,58,0.134132050233842,1
826,624,58,0.147277962614171,1
827,623,58,0.102078307016749,1
827,624,58,0.161492731782572,1
827,625,58,0.189214437347111,1
828,624,58,0.128119398566899,1
830,622,58,0.147001173541314,1
830,623,58,0.194164702619892,1
831,621,58,0.106571712371991,1
831,622,58,0.193475202630374,1
831,623,58,0.236211326550184,1
832,621,58,0.104442429915183,1
832,622,58,0.173833069228072,1
835,588,58,0.306613983399585,3
836,588,58,0.244008652287124,3
838,585,58,0.295225915829653,3
838,586,58,0.262804384094028,3
839,585,58,0.32571964053907,3
839,586,58,0.309038398604916,3
798,603,59,0.133288350082366,1
798,604,59,0.141316431416291,1
799,602,59,0.152297811853792,1
799,603,59,0.207720156077441,1
799,604,59,0.182503331711197,1
799,605,59,0.104844117197774,1
800,602,59,0.126835722522399,1
800,603,59,0.149252837943559,1
800,604,59,0.117133998642272,1
800,611,59,0.101907985334609,1
801,597,59,0.132071850669598,1
802,597,59,0.101518824908916,1
805,593,59,0.103776665596258,1
805,594,59,0.175543725913179,1
805,595,59,0.146152974614274,1
806,593,59,0.133525565180343,1
806,594,59,0.260453757522287,1
806,595,59,0.21380812138664,1
807,593,59,0.100000700567876,1
807,594,59,0.19706282908852,1
807,595,59,0.174284166791438,1
825,624,59,0.105584988193494,1
827,623,59,0.104383128863919,1
798,603,60,0.140039400052407,1
799,602,60,0.143890112291254,1
799,603,60,0.172638312081712,1
799,604,60,0.13733410003666,1
800,602,60,0.117146536392089,1
800,603,60,0.12077469540199,1
805,594,60,0.123588172996743,1
805,595,60,0.128924080282366,1
806,593,60,0.099702408872831,1
806,594,60,0.197011153080585,1
806,595,60,0.20081197575022,1
806,596,60,0.104967098253758,1
807,594,60,0.170147548106496,1
807,595,60,0.178182905910341,1
831,588,60,0.111091587520505,1
799,602,61,0.115599425993478,1
799,603,61,0.128255102552323,1
799,604,61,0.10157233092725,1
805,595,61,0.12268838520512,1
806,594,61,0.14613858506822,1
806,595,61,0.182317019223903,1
806,596,61,0.112282848039853,1
807,594,61,0.130635390542615,1
807,595,61,0.157091371593235,1
805,595,62,0.110535079179571,1
806,594,62,0.102763188408593,1
806,595,62,0.15050693971286,1
806,596,62,0.109308623638798,1
807,595,62,0.121499259697904,1
