x,y,z,signal,mito.p
85,904,29,0.232732237137372,1
84,904,30,0.228262436737694,1
85,903,30,0.191720919804504,1
85,904,30,0.256422876402485,1
85,905,30,0.201590056957387,1
86,904,30,0.231044858620258,1
83,903,31,0.139262549745091,1
83,904,31,0.146385592900415,1
84,903,31,0.233357556047895,1
84,904,31,0.264253752330075,1
85,903,31,0.218932324790683,1
85,904,31,0.258401226573048,1
85,905,31,0.189035227043032,1
86,903,31,0.186128451596685,1
86,904,31,0.210196465149088,1
86,905,31,0.164048068981869,1
87,904,31,0.191052072789489,1
87,905,31,0.155484557105355,1
89,912,31,0.160349694215823,1
90,918,31,0.175072215019528,1
80,915,32,0.130088620471304,1
80,916,32,0.146566872859111,1
80,917,32,0.144727538121362,1
80,918,32,0.118100309490484,1
80,919,32,0.110747828781379,1
80,920,32,0.112795174701154,1
81,915,32,0.112816601072909,1
81,916,32,0.100141818334065,1
83,902,32,0.141174910612098,1
83,903,32,0.177065728133397,1
83,904,32,0.145202207961534,1
84,902,32,0.210006732285215,1
84,903,32,0.288729879987304,1
84,904,32,0.252430338357712,1
84,905,32,0.150831047626034,1
85,902,32,0.181474549972279,1
85,903,32,0.234549655322009,1
85,904,32,0.232125697619278,1
85,905,32,0.164266232364441,1
85,906,32,0.108857395360404,1
86,902,32,0.1638130324677,1
86,903,32,0.190701364368014,1
86,904,32,0.189148861974478,1
86,905,32,0.147570764278018,1
86,906,32,0.105022597676277,1
87,903,32,0.202822285745252,1
87,904,32,0.195044806906806,1
87,905,32,0.152805781347475,1
87,906,32,0.107832567751098,1
87,916,32,0.115547695520948,1
88,904,32,0.197189208735244,1
88,905,32,0.181133612499184,1
88,906,32,0.124209330812192,1
88,911,32,0.131593814917441,1
88,912,32,0.147562659946251,1
88,913,32,0.103973685822969,1
88,916,32,0.11881075656332,1
89,906,32,0.122855852942471,1
89,910,32,0.102329138263528,1
89,911,32,0.153551837372659,1
89,912,32,0.181709749880233,1
89,913,32,0.126983800863855,1
90,912,32,0.114057010442975,1
90,918,32,0.13227694254932,1
90,919,32,0.11801939688784,1
91,918,32,0.108935225266959,1
79,915,33,0.106422827954526,1
79,916,33,0.153457820588408,1
79,917,33,0.170622849735973,1
79,918,33,0.141688707817469,1
79,919,33,0.132182577191659,1
79,920,33,0.142622198300608,1
80,915,33,0.100681638723027,1
80,916,33,0.111820116838951,1
80,917,33,0.111483394925526,1
80,918,33,0.102186168701103,1
80,919,33,0.100703282953163,1
80,920,33,0.105814338603923,1
80,921,33,0.107719041748843,1
83,901,33,0.107866390264724,1
83,902,33,0.162298056180264,1
83,903,33,0.189163153484261,1
83,904,33,0.125982338565894,1
84,901,33,0.143132161198476,1
84,902,33,0.226643422180487,1
84,903,33,0.281737105250803,1
84,904,33,0.197618999748964,1
84,905,33,0.114930099690026,1
85,901,33,0.136807296685952,1
85,902,33,0.187128377993061,1
85,903,33,0.223005644723072,1
85,904,33,0.187959137356715,1
85,905,33,0.133890260109868,1
86,901,33,0.133210563747487,1
86,902,33,0.19198986597565,1
86,903,33,0.20029599996104,1
86,904,33,0.168459352620454,1
86,905,33,0.126752511513837,1
87,902,33,0.223957446203121,1
87,903,33,0.237882322117059,1
87,904,33,0.194451513178266,1
87,905,33,0.150039611700122,1
87,906,33,0.107071871642722,1
88,903,33,0.197182193695381,1
88,904,33,0.213121693200292,1
88,905,33,0.202396024037302,1
88,906,33,0.150212308038613,1
88,907,33,0.102482020382282,1
88,911,33,0.111602487209411,1
88,912,33,0.133545880474356,1
88,913,33,0.105150948941348,1
89,904,33,0.181308955817003,1
89,905,33,0.189797753161808,1
89,906,33,0.15341618785183,1
89,907,33,0.113072443062448,1
89,911,33,0.136778179913353,1
89,912,33,0.16822971899413,1
89,913,33,0.131141900385148,1
89,925,33,0.136266997008552,1
90,912,33,0.11848352238238,1
90,913,33,0.112218514459991,1
90,924,33,0.146110601159201,1
90,925,33,0.228601359020766,1
90,926,33,0.214464790118166,1
91,923,33,0.11173120883373,1
91,924,33,0.176485440550194,1
91,925,33,0.239995570197037,1
92,923,33,0.139127444870214,1
79,916,34,0.104812048444115,1
79,917,34,0.114255969609276,1
79,918,34,0.119799670218544,1
79,919,34,0.131146693269526,1
79,920,34,0.139241461053826,1
79,921,34,0.142933931857751,1
80,920,34,0.104732148882942,1
80,921,34,0.10756990679424,1
80,922,34,0.103350392995388,1
83,901,34,0.111976822372288,1
83,902,34,0.171657023469816,1
83,903,34,0.177160779744958,1
83,904,34,0.104537601348853,1
84,900,34,0.115006099586182,1
84,901,34,0.135272473500021,1
84,902,34,0.218484996177306,1
84,903,34,0.237474055511366,1
84,904,34,0.147042479490321,1
85,900,34,0.100936576600285,1
85,901,34,0.129224986277981,1
85,902,34,0.192270772571904,1
85,903,34,0.205208771806479,1
85,904,34,0.15288429750793,1
85,905,34,0.107835312766697,1
86,901,34,0.133865021216447,1
86,902,34,0.212742968191041,1
86,903,34,0.210583795564382,1
86,904,34,0.157089792119974,1
86,905,34,0.110177301253638,1
86,925,34,0.106747382477381,1
86,926,34,0.124624612457747,1
87,901,34,0.142632089071098,1
87,902,34,0.253708012403819,1
87,903,34,0.260388291078845,1
87,904,34,0.193110485915011,1
87,905,34,0.142614845580255,1
87,906,34,0.104571521898749,1
87,925,34,0.111204982807732,1
87,926,34,0.137252479394278,1
88,902,34,0.195862974056048,1
88,903,34,0.233266164457133,1
88,904,34,0.217843664675792,1
88,905,34,0.202644513306487,1
88,906,34,0.167319735430284,1
88,907,34,0.115738931607649,1
88,912,34,0.109811745783508,1
88,913,34,0.100529192321035,1
88,925,34,0.104025122186686,1
88,926,34,0.131294586431359,1
89,903,34,0.174051831721192,1
89,904,34,0.180811084059271,1
89,905,34,0.184183008934548,1
89,906,34,0.174518974554306,1
89,907,34,0.137924180354082,1
89,911,34,0.115288531191102,1
89,912,34,0.135138392559533,1
89,913,34,0.123241429597799,1
89,914,34,0.101981458073547,1
89,925,34,0.160504569738762,1
89,926,34,0.186330754889132,1
90,905,34,0.103824539975447,1
90,906,34,0.106733744542741,1
90,912,34,0.117241533539054,1
90,913,34,0.121348207589549,1
90,914,34,0.106945818783568,1
90,924,34,0.154976849041729,1
90,925,34,0.29402902367116,1
90,926,34,0.303480853095546,2
90,927,34,0.177768147124899,1
91,923,34,0.117337151582404,1
91,924,34,0.194056623077157,1
91,925,34,0.29826253487098,3
91,926,34,0.270451801479112,1
92,922,34,0.135211407795872,1
92,923,34,0.185875670517397,1
92,924,34,0.181120639032605,1
92,925,34,0.171040299072418,1
93,923,34,0.197771108470466,1
78,915,35,0.123418962392345,1
78,918,35,0.1503004535395,1
78,919,35,0.20679112079819,1
79,918,35,0.110538227233174,1
79,919,35,0.136220647638028,1
79,920,35,0.139662657554422,1
79,921,35,0.140616626725359,1
79,922,35,0.132367168597744,1
80,919,35,0.106683920331043,1
80,920,35,0.116692486847663,1
80,921,35,0.122705530659692,1
80,922,35,0.118715606915488,1
80,923,35,0.106391979207799,1
81,921,35,0.104007355835728,1
81,922,35,0.11398486664016,1
81,923,35,0.111656221979045,1
81,924,35,0.102826650554932,1
83,901,35,0.110785953998026,1
83,902,35,0.154837038425825,1
83,903,35,0.144132316346152,1
84,899,35,0.12807811440373,1
84,900,35,0.103746524889268,1
84,901,35,0.12567653075671,1
84,902,35,0.19233142434513,1
84,903,35,0.189895528003128,1
84,904,35,0.119037078742254,1
85,901,35,0.13193561293114,1
85,902,35,0.202910256959435,1
85,903,35,0.203917067680645,1
85,904,35,0.139264924401442,1
85,926,35,0.110179697695827,1
86,901,35,0.131411304058893,1
86,902,35,0.213115375307248,1
86,903,35,0.217554893391989,1
86,904,35,0.156905004641346,1
86,905,35,0.103318956031033,1
86,925,35,0.108397245781315,1
86,926,35,0.147415442145399,1
87,901,35,0.131557944535036,1
87,902,35,0.234835224087613,1
87,903,35,0.249468793314421,1
87,904,35,0.187230096071075,1
87,905,35,0.133903560364018,1
87,906,35,0.101177745827874,1
87,925,35,0.113327936478577,1
87,926,35,0.162144367985501,1
87,927,35,0.137395568778813,1
88,901,35,0.122451638502662,1
88,902,35,0.21848869976978,1
88,903,35,0.243227477490949,1
88,904,35,0.202234612762938,1
88,905,35,0.177213643081068,1
88,906,35,0.160877162034592,1
88,907,35,0.12014342895767,1
88,914,35,0.107303400636959,1
88,925,35,0.116084596607607,1
88,926,35,0.164264021101876,1
89,902,35,0.166687771839145,1
89,903,35,0.188592299168948,1
89,904,35,0.168311960532897,1
89,905,35,0.162896534938267,1
89,906,35,0.169786284446469,1
89,907,35,0.142421430909746,1
89,912,35,0.105289735622862,1
89,913,35,0.107830225773504,1
89,914,35,0.108545868768723,1
89,925,35,0.175727097312331,1
89,926,35,0.225943312487823,2
90,906,35,0.106897334400913,1
90,912,35,0.111064453259172,1
90,913,35,0.117815328942508,1
90,914,35,0.113456679888734,1
90,924,35,0.152512761825247,1
90,925,35,0.309067112339511,2
90,926,35,0.338877916382512,2
90,927,35,0.208496189415828,2
91,914,35,0.105126167550528,1
91,915,35,0.115035521360514,1
91,923,35,0.120134039261456,1
91,924,35,0.211989744625128,3
91,925,35,0.328333091461456,3
91,926,35,0.303332164750623,2
91,927,35,0.166865762136291,1
92,921,35,0.102332384353403,1
92,922,35,0.150182025723676,1
92,923,35,0.211800120690445,1
92,924,35,0.226347897286879,1
92,925,35,0.221579195188689,3
92,926,35,0.172152749322497,1
93,921,35,0.139992102997927,1
93,922,35,0.209507901950607,1
93,923,35,0.242971406750111,1
77,915,36,0.181526999377466,1
77,918,36,0.15712803715873,1
78,915,36,0.121234224084694,1
78,916,36,0.113764001813665,1
78,917,36,0.106914501641323,1
78,918,36,0.143891441227377,1
78,919,36,0.206765783868498,1
79,918,36,0.105377183976931,1
79,919,36,0.138273723233219,1
79,920,36,0.142009645891202,1
79,921,36,0.14016113931562,1
79,922,36,0.13375061288775,1
80,919,36,0.112196543442284,1
80,920,36,0.128388322952206,1
80,921,36,0.136071599826777,1
80,922,36,0.131830626977414,1
80,923,36,0.112769282232591,1
81,920,36,0.103090150266557,1
81,921,36,0.117058695892934,1
81,922,36,0.130342087804492,1
81,923,36,0.122865155495333,1
81,924,36,0.104865859464182,1
83,901,36,0.101289921108168,1
83,902,36,0.123798264726305,1
83,903,36,0.106998202831241,1
84,899,36,0.118778981918474,1
84,901,36,0.114000530657742,1
84,902,36,0.165384651934156,1
84,903,36,0.154096407074324,1
85,901,36,0.133858409214589,1
85,902,36,0.222027264520561,1
85,903,36,0.218273455689511,1
85,904,36,0.131877531886808,1
85,926,36,0.113082050617043,1
86,901,36,0.128319664883485,1
86,902,36,0.21841116397204,1
86,903,36,0.233782924536484,1
86,904,36,0.160613727680481,1
86,925,36,0.101177636898684,1
86,926,36,0.155914914550865,1
86,927,36,0.160080388578349,1
87,901,36,0.11969181942711,1
87,902,36,0.21230387462446,1
87,903,36,0.232881448342409,1
87,904,36,0.178942621656003,1
87,905,36,0.12119424707181,1
87,925,36,0.108330058256664,1
87,926,36,0.166520554638932,1
87,927,36,0.159496005257586,1
88,901,36,0.130203540767197,1
88,902,36,0.24668042389806,1
88,903,36,0.249957362519291,1
88,904,36,0.186826578778084,1
88,905,36,0.146607950056819,1
88,906,36,0.139264434220085,1
88,907,36,0.116198362254081,1
88,914,36,0.109640966598768,1
88,925,36,0.128583426025167,1
88,926,36,0.192553400249367,1
89,901,36,0.11150642255638,1
89,902,36,0.20015626559557,1
89,903,36,0.198578164842285,1
89,904,36,0.161850923639429,1
89,905,36,0.14407560780962,1
89,906,36,0.14899370629247,1
89,907,36,0.132407875436204,1
89,914,36,0.102879568355638,1
89,925,36,0.18639877027563,1
89,926,36,0.261066854577644,2
90,902,36,0.104107418190048,1
90,903,36,0.119058657614877,1
90,906,36,0.105793968845314,1
90,913,36,0.102618345264093,1
90,914,36,0.105495590006917,1
90,924,36,0.147555448833845,1
90,925,36,0.287463273146942,2
90,926,36,0.32676568755467,2
90,927,36,0.216011453907096,2
91,914,36,0.110959118732036,1
91,915,36,0.120591694362085,1
91,923,36,0.124743040273571,1
91,924,36,0.233163269943863,3
91,925,36,0.330403160010352,3
91,926,36,0.296553936947573,2
91,927,36,0.181244437057517,1
92,921,36,0.106751739644998,1
92,922,36,0.14877903953691,1
92,923,36,0.214636353593077,1
92,925,36,0.274547234037156,3
92,926,36,0.203545009137848,1
76,915,37,0.162399360327354,1
77,914,37,0.120422440186011,1
77,915,37,0.177601736000695,1
77,916,37,0.15940760921956,1
77,919,37,0.18974429071515,1
78,915,37,0.113965008848746,1
78,916,37,0.103837001474831,1
78,917,37,0.101417989157345,1
78,918,37,0.140138994011207,1
78,919,37,0.191504085358055,1
78,920,37,0.196829110617555,1
78,921,37,0.186389206292712,1
79,918,37,0.112739882244097,1
79,919,37,0.149151413974359,1
79,920,37,0.155884479735062,1
79,921,37,0.148838002907684,1
79,922,37,0.143636939066881,1
80,919,37,0.119526159914319,1
80,920,37,0.137451373203065,1
80,921,37,0.142453434305891,1
80,922,37,0.139955655290812,1
80,923,37,0.125380276037526,1
80,924,37,0.11563795424813,1
81,920,37,0.104467352913951,1
81,921,37,0.121788630092254,1
81,922,37,0.135336643686097,1
81,923,37,0.130122628164553,1
81,924,37,0.12064689967579,1
81,925,37,0.113673721300645,1
84,901,37,0.110741641603363,1
84,902,37,0.142289866233557,1
84,903,37,0.125180761332354,1
85,901,37,0.137009589085481,1
85,902,37,0.225287776619877,1
85,903,37,0.214330872571464,1
85,904,37,0.121703545501617,1
85,926,37,0.110849437930203,1
86,901,37,0.129163517535828,1
86,902,37,0.219864802232351,1
86,903,37,0.234729867774639,1
86,904,37,0.155658397200346,1
86,926,37,0.154499118291305,1
86,927,37,0.195855588656937,1
87,901,37,0.114773350585012,1
87,902,37,0.199453628745687,1
87,903,37,0.220071506264092,1
87,904,37,0.168475942536155,1
87,905,37,0.110350084735481,1
87,925,37,0.1025773334239,1
87,926,37,0.157454421691984,1
88,901,37,0.132981485660035,1
88,902,37,0.260065359600927,1
88,903,37,0.25591901353928,1
88,904,37,0.177070444767343,1
88,905,37,0.1203889117812,1
88,906,37,0.111449724912767,1
88,907,37,0.104543243880916,1
88,925,37,0.134649365852064,1
89,901,37,0.116864682111878,1
89,902,37,0.217955186380943,1
89,903,37,0.20915131135285,1
89,904,37,0.163444808232406,1
89,905,37,0.12961874351551,1
89,906,37,0.120578350536259,1
89,907,37,0.110880221319415,1
89,925,37,0.187859532504995,1
89,926,37,0.283543347300502,1
90,902,37,0.112302891010891,1
90,903,37,0.128482361522296,1
90,924,37,0.14181444478197,1
90,925,37,0.244984396403227,1
90,926,37,0.293885476784026,2
91,914,37,0.108964625255453,1
91,915,37,0.111665622568179,1
91,923,37,0.134896417255935,1
91,924,37,0.242641285945625,1
91,925,37,0.303318308957602,3
91,926,37,0.269882602887494,1
92,921,37,0.111509995433826,1
92,922,37,0.142171993956604,1
92,923,37,0.203739992388699,1
92,924,37,0.307131244553212,1
92,925,37,0.306476536547114,4
92,926,37,0.227446840317346,1
93,925,37,0.221854611753746,1
77,914,38,0.117109576717779,1
77,915,38,0.155320814746317,1
77,916,38,0.136939482258527,1
77,919,38,0.164489352025178,1
78,915,38,0.103072819632361,1
78,918,38,0.129552536353573,1
78,919,38,0.168242147814757,1
78,920,38,0.188524327354126,1
78,921,38,0.1851002036108,1
78,922,38,0.17836199639231,1
79,918,38,0.115576746936033,1
79,919,38,0.158996684741621,1
79,920,38,0.173886912926896,1
79,921,38,0.164981265356194,1
79,922,38,0.160864155889256,1
79,923,38,0.148036142458248,1
79,924,38,0.124852786432919,1
80,919,38,0.119340228679192,1
80,920,38,0.137174649487723,1
80,921,38,0.141135412887652,1
80,922,38,0.142534597445673,1
80,923,38,0.137990834125699,1
80,924,38,0.13224545112037,1
80,925,38,0.115480431745864,1
80,926,38,0.112569440739847,1
81,921,38,0.11712070928104,1
81,922,38,0.12538876162146,1
81,923,38,0.127920188863459,1
81,924,38,0.135536550536355,1
81,925,38,0.118027740863826,1
81,926,38,0.111351296496304,1
81,927,38,0.126052129498196,1
82,926,38,0.100747628026583,1
82,927,38,0.108429074890755,1
84,899,38,0.0999434147066344,1
84,900,38,0.115483699621576,1
84,901,38,0.128731253829485,1
84,902,38,0.131318431031142,1
84,903,38,0.105626206999149,1
85,900,38,0.106506888610773,1
85,901,38,0.146091582122553,1
85,902,38,0.208964279932899,1
85,903,38,0.187485121091685,1
85,904,38,0.105776463924414,1
85,926,38,0.102811672791249,1
85,927,38,0.133071374027969,1
86,901,38,0.132154190244636,1
86,902,38,0.215251977805652,1
86,903,38,0.218431490158972,1
86,904,38,0.138171787296824,1
86,926,38,0.144074289766416,1
86,927,38,0.204082138975807,1
86,928,38,0.154254757438437,1
87,901,38,0.114702328752858,1
87,902,38,0.195338327503311,1
87,903,38,0.214569928572759,1
87,904,38,0.153963328282388,1
87,926,38,0.150891655827584,1
87,927,38,0.185177281905941,1
88,901,38,0.124128341959115,1
88,902,38,0.243320481233729,1
88,903,38,0.259463830825591,1
88,904,38,0.173660274853309,1
88,905,38,0.106661230380678,1
88,925,38,0.126585250741948,1
89,901,38,0.113487724708004,1
89,902,38,0.218005860240327,1
89,903,38,0.235187653590297,1
89,904,38,0.179240619242234,1
89,925,38,0.171688602042119,1
90,902,38,0.121691541504833,1
90,903,38,0.148392515197625,1
90,909,38,0.115044725877104,1
90,910,38,0.106774767275853,1
90,924,38,0.128051176214939,1
91,923,38,0.14390107056781,1
91,924,38,0.229144784965931,1
91,925,38,0.265787932833783,4
91,926,38,0.247918295217989,1
92,921,38,0.117485153673427,1
92,922,38,0.141075708798383,1
92,923,38,0.2019044048151,1
92,924,38,0.312115495733404,4
92,925,38,0.318931587323044,4
92,926,38,0.250782174349149,4
92,927,38,0.192906722971412,1
93,924,38,0.270465112626182,1
93,925,38,0.269268808685317,4
93,926,38,0.212353655264482,1
94,925,38,0.185363093318959,1
77,914,39,0.111220940934129,1
77,915,39,0.132259459414258,1
77,916,39,0.122250424502119,1
77,917,39,0.114367404171075,1
77,918,39,0.125174454332228,1
77,919,39,0.145172034575788,1
77,920,39,0.171004548512122,1
77,921,39,0.172627822200674,1
78,917,39,0.105450591358355,1
78,918,39,0.11993013470991,1
78,919,39,0.149193918144461,1
78,920,39,0.18022349822031,1
78,921,39,0.184341947516289,1
78,922,39,0.172547770138635,1
78,923,39,0.155568160259002,1
78,924,39,0.131914840134527,1
79,918,39,0.110729975287069,1
79,919,39,0.156482849563875,1
79,920,39,0.18146452848676,1
79,921,39,0.179936796591125,1
79,922,39,0.181329467183559,1
79,923,39,0.170812974744931,1
79,924,39,0.139334268724064,1
79,925,39,0.113826004308852,1
79,926,39,0.106159535208363,1
80,919,39,0.110987364071112,1
80,920,39,0.125975040310136,1
80,921,39,0.13180417896998,1
80,922,39,0.142607710718282,1
80,923,39,0.15028033431803,1
80,924,39,0.149234265516592,1
80,925,39,0.123817403585062,1
80,926,39,0.113444719463626,1
80,927,39,0.115943631342285,1
81,921,39,0.100245671424211,1
81,922,39,0.107565767485004,1
81,923,39,0.122975097727223,1
81,924,39,0.149738673025749,1
81,925,39,0.129806515653956,1
81,926,39,0.117877963226999,1
81,927,39,0.130523215262321,1
81,928,39,0.147950872687988,1
82,925,39,0.100646040663598,1
82,926,39,0.110612168367631,1
82,927,39,0.125899290951118,1
82,928,39,0.138565446498082,1
83,900,39,0.104588046456936,1
83,901,39,0.104409119368753,1
84,899,39,0.107830323809776,1
84,900,39,0.142868127733818,1
84,901,39,0.152716176195436,1
84,902,39,0.121977480629684,1
85,899,39,0.105718132342944,1
85,900,39,0.131740477179422,1
85,901,39,0.161320754376738,1
85,902,39,0.175948909822782,1
85,903,39,0.145692356639666,1
85,927,39,0.129027944265431,1
86,900,39,0.10499720628199,1
86,901,39,0.143286426717949,1
86,902,39,0.198762581961665,1
86,903,39,0.182480739797104,1
86,904,39,0.11343194206959,1
86,926,39,0.129037126996184,1
86,927,39,0.191108258465908,1
87,901,39,0.129858039161024,1
87,902,39,0.201316971477005,1
87,903,39,0.206766764231212,1
87,904,39,0.138248212016823,1
87,926,39,0.154165097821803,1
87,927,39,0.20067302567492,1
88,901,39,0.124260418602498,1
88,902,39,0.218156073593915,1
88,903,39,0.251787089702446,1
88,904,39,0.171735942668275,1
88,905,39,0.101488934739065,1
88,925,39,0.116358520842755,1
88,926,39,0.184159741659474,1
89,901,39,0.115878916510257,1
89,902,39,0.219968110676545,1
89,903,39,0.271258443920008,1
89,904,39,0.200429285718438,1
89,905,39,0.138804088568453,1
89,906,39,0.115233097126097,1
89,925,39,0.147869066865983,1
90,902,39,0.151507519684378,1
90,903,39,0.187797225008075,1
90,908,39,0.123116847282716,1
90,909,39,0.155878140056179,1
90,910,39,0.138397967867812,1
90,924,39,0.114700574992893,1
90,925,39,0.166602883321051,1
91,909,39,0.163937440496079,1
91,910,39,0.15504630229354,1
91,911,39,0.104691028113559,1
91,922,39,0.10507486190184,1
91,923,39,0.149948851898664,1
91,924,39,0.197546365764792,1
91,925,39,0.224226218087562,4
91,926,39,0.23104631827141,1
92,920,39,0.122939739312013,1
92,921,39,0.123336742639416,1
92,922,39,0.143283256878507,1
92,923,39,0.205795006923479,1
92,924,39,0.287488827935015,4
92,925,39,0.308855201492469,4
92,926,39,0.276714053492983,4
92,927,39,0.22407922903801,1
93,919,39,0.110280380946532,1
93,920,39,0.155510286180132,1
93,922,39,0.145752496445696,1
93,923,39,0.200051366785196,1
93,924,39,0.281513952911309,1
93,925,39,0.305528177229483,4
93,926,39,0.271600394434573,5
93,927,39,0.188576373721309,1
94,924,39,0.217169806918018,1
94,925,39,0.219778247097644,1
94,926,39,0.184107281361368,1
76,914,40,0.102591004037297,1
77,907,40,0.122421105650587,1
77,908,40,0.118603355384761,1
77,914,40,0.103824921227613,1
77,915,40,0.113381191959773,1
77,916,40,0.108620561514594,1
77,917,40,0.107956409347686,1
77,918,40,0.113640160217077,1
77,919,40,0.129529367114771,1
77,920,40,0.145912981821941,1
77,921,40,0.143963552351435,1
77,922,40,0.125735799129218,1
77,923,40,0.12004417267936,1
78,917,40,0.107608271655105,1
78,918,40,0.110114754112499,1
78,919,40,0.132323880137472,1
78,920,40,0.165327355179995,1
78,921,40,0.172608563519808,1
78,922,40,0.157216237124213,1
78,923,40,0.146150915852575,1
78,924,40,0.129765808815496,1
78,925,40,0.119842871535464,1
78,926,40,0.122608245999728,1
79,903,40,0.117609376522182,1
79,904,40,0.104827647104183,1
79,919,40,0.136081065773425,1
79,920,40,0.166479629942092,1
79,921,40,0.175245379753538,1
79,922,40,0.181388550376442,1
79,923,40,0.176778612573289,1
79,924,40,0.145005525415313,1
79,925,40,0.119174198807155,1
79,926,40,0.112874006756261,1
79,927,40,0.109623930073387,1
80,902,40,0.115238195012209,1
80,903,40,0.104646432503001,1
80,920,40,0.110344060951251,1
80,921,40,0.119103797871386,1
80,922,40,0.136803059340445,1
80,923,40,0.152641842915894,1
80,924,40,0.150823792941952,1
80,925,40,0.1274387763064,1
80,926,40,0.114590164365483,1
80,927,40,0.115314227587122,1
80,928,40,0.117071462394052,1
81,923,40,0.11293530121171,1
81,924,40,0.142510044806152,1
81,925,40,0.132777286999674,1
81,926,40,0.125486307711481,1
81,927,40,0.139342569128373,1
81,928,40,0.146715321559815,1
82,925,40,0.102226494287396,1
82,926,40,0.119397209538701,1
82,927,40,0.147634662141119,1
82,928,40,0.151893880629878,1
83,900,40,0.11640690718914,1
83,901,40,0.108651769727649,1
83,927,40,0.107432514406363,1
83,928,40,0.108990681117802,1
84,899,40,0.112846208026865,1
84,900,40,0.161649361065477,1
84,901,40,0.164582116123739,1
84,902,40,0.108263774844293,1
84,928,40,0.105626751645101,1
85,899,40,0.114040159097217,1
85,900,40,0.157074454889963,1
85,901,40,0.178559953410059,1
85,902,40,0.145990016545406,1
85,903,40,0.108322084639925,1
85,927,40,0.116619667683867,1
85,928,40,0.14362352988354,1
86,900,40,0.127424506582455,1
86,901,40,0.158120251368424,1
86,902,40,0.178282183974489,1
86,903,40,0.146606392369396,1
86,926,40,0.116636943853468,1
86,927,40,0.162410253246396,1
86,928,40,0.162913353605268,1
87,901,40,0.145342639473823,1
87,902,40,0.201367928552283,1
87,903,40,0.188955033373045,1
87,904,40,0.122991654964167,1
87,926,40,0.162359710102041,1
87,927,40,0.211007159755867,1
88,902,40,0.196369037288899,1
88,903,40,0.231671048964304,1
88,904,40,0.165812514901205,1
88,925,40,0.106671164722844,1
88,926,40,0.176937202581621,1
88,927,40,0.205770105710549,1
89,902,40,0.216780232561401,1
89,903,40,0.289175574662824,1
89,904,40,0.209689530482713,1
89,905,40,0.139038449721641,1
89,906,40,0.11741542809864,1
89,925,40,0.12461218363712,1
89,926,40,0.194686865587087,1
90,903,40,0.223902807321206,1
90,905,40,0.169029564253543,1
90,906,40,0.185037700041337,1
90,907,40,0.147010977168452,1
90,908,40,0.135030106051337,1
90,909,40,0.179539531833665,1
90,910,40,0.158534356578723,1
90,924,40,0.100943667890581,1
90,925,40,0.13790407202553,1
91,908,40,0.148421817149848,1
91,909,40,0.236967948706839,1
91,910,40,0.218443690228299,1
91,911,40,0.119616985073291,1
91,922,40,0.103751644561218,1
91,923,40,0.145966945342875,1
91,924,40,0.161318466863739,1
91,925,40,0.185907739271057,1
91,926,40,0.217945339182129,1
91,927,40,0.223078954068225,1
92,909,40,0.154049992346286,1
92,910,40,0.143519774829666,1
92,919,40,0.100490293707136,1
92,920,40,0.1337366263797,1
92,921,40,0.121931861084736,1
92,922,40,0.143993322699177,1
92,923,40,0.208792062882846,1
92,924,40,0.247090956230914,1
92,925,40,0.286170349014176,4
92,926,40,0.304686568518463,5
92,927,40,0.251050249086771,1
92,928,40,0.179641097410812,1
93,919,40,0.122942909151454,1
93,920,40,0.162572535954283,1
93,922,40,0.149587098057281,1
93,923,40,0.215603426945622,1
93,924,40,0.272618294147368,5
93,925,40,0.32177424704791,5
93,926,40,0.332060996931024,5
93,927,40,0.239486761948587,5
93,928,40,0.135354791289221,1
94,924,40,0.227336386118261,1
94,925,40,0.243608185011466,5
94,926,40,0.226494167403774,5
94,927,40,0.151829579728773,1
95,925,40,0.15123825761858,1
95,926,40,0.128022527837858,1
76,915,41,0.101364875284096,1
76,918,41,0.109341999542743,1
76,919,41,0.12079936786362,1
77,906,41,0.113041463600693,1
77,907,41,0.152618837070877,1
77,908,41,0.14725636195571,1
77,915,41,0.102971548164028,1
77,918,41,0.101163486996848,1
77,919,41,0.114320107116595,1
77,920,41,0.124401536368687,1
77,921,41,0.122911483080018,1
77,922,41,0.111729465966684,1
77,923,41,0.11119295702511,1
77,924,41,0.117304026215597,1
77,925,41,0.120535062075986,1
77,926,41,0.12550200440782,1
78,904,41,0.101223419837417,1
78,908,41,0.101875992831383,1
78,919,41,0.115185614891993,1
78,920,41,0.142208910059237,1
78,921,41,0.15004713870718,1
78,922,41,0.138294735674051,1
78,923,41,0.132372941844837,1
78,924,41,0.128090368937652,1
78,925,41,0.123704117227025,1
78,926,41,0.12839862765362,1
78,927,41,0.127870528045547,1
79,902,41,0.143022861648809,1
79,903,41,0.140444747355796,1
79,904,41,0.115636363881949,1
79,919,41,0.108288120518352,1
79,920,41,0.135320042877477,1
79,921,41,0.15117640762426,1
79,922,41,0.160696056362601,1
79,923,41,0.161047570860085,1
79,924,41,0.14381101880609,1
79,925,41,0.123211441391677,1
79,926,41,0.118118576915717,1
79,927,41,0.118731804686103,1
79,928,41,0.102168750923555,1
80,901,41,0.127793024926563,1
80,902,41,0.175310541195247,1
80,903,41,0.154757324044276,1
80,904,41,0.110412446696996,1
80,921,41,0.107003344289029,1
80,922,41,0.128591029282658,1
80,923,41,0.144546715665265,1
80,924,41,0.14292336572628,1
80,925,41,0.122854208111695,1
80,926,41,0.108311779938511,1
80,927,41,0.108501392980275,1
80,928,41,0.103415587115855,1
81,901,41,0.103107666080376,1
81,902,41,0.133668665457797,1
81,903,41,0.117179029969591,1
81,923,41,0.102414146603732,1
81,924,41,0.121697434574034,1
81,925,41,0.120854921750734,1
81,926,41,0.120744260586187,1
81,927,41,0.135045268994644,1
81,928,41,0.131181507038784,1
81,929,41,0.10419538940423,1
82,926,41,0.117343055544525,1
82,927,41,0.152403985135694,1
82,928,41,0.148123264024746,1
82,929,41,0.10366520924862,1
83,900,41,0.12879043505864,1
83,901,41,0.109188550992199,1
83,927,41,0.112135216308078,1
83,928,41,0.11175930167194,1
84,899,41,0.110487727660495,1
84,900,41,0.167015409058089,1
84,901,41,0.16038940979865,1
84,928,41,0.105719907888748,1
84,929,41,0.111132098286422,1
85,899,41,0.113150654221169,1
85,900,41,0.1741088125807,1
85,901,41,0.190804324238799,1
85,902,41,0.129268263845335,1
85,927,41,0.103791207643179,1
85,928,41,0.13448784564851,1
85,929,41,0.159304725599209,1
86,899,41,0.114803807186653,1
86,900,41,0.148539122995011,1
86,901,41,0.17454792793312,1
86,902,41,0.1542979260766,1
86,903,41,0.114269237184669,1
86,926,41,0.104168756217173,1
86,927,41,0.137062452421591,1
86,928,41,0.15251670506194,1
87,900,41,0.122835635684729,1
87,901,41,0.149775153411621,1
87,902,41,0.171982209781976,1
87,903,41,0.148607770170813,1
87,904,41,0.102320783394623,1
87,926,41,0.152561376922931,1
87,927,41,0.198550692900461,1
87,928,41,0.175553562219073,1
88,901,41,0.12468473047794,1
88,902,41,0.163054253513076,1
88,903,41,0.184868838010349,1
88,904,41,0.143049974124305,1
88,926,41,0.166968242718638,1
88,927,41,0.203381266778809,1
89,902,41,0.187592459915925,1
89,903,41,0.252992282265248,1
89,904,41,0.189890517260369,1
89,905,41,0.129756582513067,1
89,906,41,0.110965022694157,1
89,925,41,0.105333067654811,1
89,926,41,0.156957966013728,1
90,904,41,0.162540597915652,1
90,905,41,0.151966579971564,1
90,906,41,0.175475928385061,1
90,907,41,0.151006706838505,1
90,908,41,0.141177056517149,1
90,909,41,0.180805278133422,1
90,910,41,0.155425452126634,1
90,925,41,0.11616358116358,1
91,906,41,0.142603745695751,1
91,907,41,0.139561233585222,1
91,908,41,0.173834278342086,1
91,909,41,0.277155608859268,1
91,910,41,0.242253672314436,1
91,911,41,0.118097902155376,1
91,923,41,0.13211151178783,1
91,924,41,0.134367021390496,1
91,925,41,0.154734361770935,1
91,926,41,0.198348825324775,1
91,927,41,0.218050913353484,1
92,909,41,0.18015322799957,1
92,910,41,0.158985454142089,1
92,919,41,0.100559104276724,1
92,920,41,0.130213976183639,1
92,921,41,0.117087246233743,1
92,922,41,0.138659180066438,1
92,923,41,0.197440159804133,1
92,924,41,0.206710186409708,1
92,925,41,0.249437443493419,5
92,926,41,0.30608397753068,5
92,927,41,0.26474373761442,1
92,928,41,0.192713787589341,1
93,918,41,0.109361421617395,1
93,919,41,0.146981566287039,1
93,920,41,0.161239024805166,1
93,921,41,0.135563085687141,1
93,923,41,0.232907220988862,1
93,924,41,0.259389453974373,5
93,925,41,0.312091509525673,5
93,926,41,0.361258202844391,5
93,927,41,0.281974287670022,5
93,928,41,0.167747140894733,1
94,920,41,0.137680625577222,1
94,923,41,0.22649569241244,1
94,924,41,0.251997279468279,1
94,925,41,0.266354778554888,5
94,926,41,0.262750725574827,5
94,927,41,0.192866506314309,1
95,924,41,0.200187506487382,1
95,925,41,0.190818288961011,1
95,926,41,0.156007046860122,1
76,907,42,0.170769272353735,1
76,908,42,0.13683199093342,1
76,912,42,0.101968408356535,1
76,919,42,0.101375735524381,1
76,920,42,0.10042441333277,1
76,921,42,0.100766973850802,1
76,924,42,0.107024716196189,1
76,925,42,0.110807750729029,1
76,926,42,0.115186813113088,1
77,906,42,0.132256801542011,1
77,907,42,0.164022601337149,1
77,908,42,0.153977129610815,1
77,920,42,0.103477546039365,1
77,921,42,0.102328234151248,1
77,924,42,0.107008082708812,1
77,925,42,0.112562741594637,1
77,926,42,0.115883284570793,1
77,927,42,0.114456028960401,1
78,903,42,0.123007003087097,1
78,904,42,0.102079875597091,1
78,907,42,0.100425611553865,1
78,908,42,0.104241074306692,1
78,920,42,0.114561341701698,1
78,921,42,0.120000001892645,1
78,922,42,0.112524322269176,1
78,923,42,0.111888764014753,1
78,924,42,0.118411356793727,1
78,925,42,0.121779567183611,1
78,926,42,0.127385063322604,1
78,927,42,0.128906205002218,1
78,928,42,0.106104798290177,1
79,902,42,0.15770791081101,1
79,903,42,0.148485889299653,1
79,904,42,0.113388261464232,1
79,920,42,0.104521065897747,1
79,921,42,0.118239052600321,1
79,922,42,0.126110896796428,1
79,923,42,0.132139855163177,1
79,924,42,0.132829006579285,1
79,925,42,0.120665406745242,1
79,926,42,0.115399268606082,1
79,927,42,0.119560156714649,1
80,901,42,0.148860616607615,1
80,902,42,0.233621142902872,1
80,903,42,0.201745172124544,1
80,904,42,0.12492963597676,1
80,922,42,0.109335529148832,1
80,923,42,0.124700732176012,1
80,924,42,0.127707526405003,1
80,925,42,0.110901702155766,1
81,901,42,0.128028050547813,1
81,902,42,0.196824775235777,1
81,903,42,0.167832508701265,1
81,904,42,0.106128120029846,1
81,926,42,0.103657192060205,1
81,927,42,0.116581455323868,1
81,928,42,0.10862856781009,1
82,900,42,0.104437680602481,1
82,902,42,0.103378267975217,1
82,926,42,0.103122240806055,1
82,927,42,0.13530637226408,1
82,928,42,0.12720170281637,1
83,899,42,0.0998976535537391,1
83,900,42,0.137714665949229,1
83,901,42,0.106182105336618,1
83,927,42,0.104441994198421,1
83,928,42,0.102990185948509,1
84,899,42,0.10338994518443,1
84,900,42,0.158114924731013,1
84,901,42,0.142251043870091,1
85,899,42,0.110566788466902,1
85,900,42,0.173857284187102,1
85,901,42,0.183473476866912,1
85,902,42,0.11434006294428,1
85,928,42,0.106525482823577,1
85,929,42,0.12488700109163,1
86,899,42,0.114620032749496,1
86,900,42,0.159474535314154,1
86,901,42,0.178940345035924,1
86,902,42,0.129623906759136,1
86,927,42,0.103088461864105,1
86,928,42,0.127072904941618,1
86,929,42,0.149364730007958,1
87,899,42,0.133069870805141,1
87,900,42,0.133590868229999,1
87,901,42,0.144172489431579,1
87,902,42,0.131027590092721,1
87,903,42,0.103750587948071,1
87,926,42,0.119042655916804,1
87,927,42,0.155310172364413,1
87,928,42,0.160809778437399,1
88,900,42,0.125009611788366,1
88,901,42,0.116514333156731,1
88,902,42,0.126572767456726,1
88,903,42,0.131021337557191,1
88,904,42,0.108476731411564,1
88,926,42,0.140368943532183,1
88,927,42,0.177350534394669,1
88,928,42,0.179376573764797,1
89,901,42,0.10680652013486,1
89,902,42,0.148251669754412,1
89,903,42,0.187128072991328,1
89,904,42,0.149883897422417,1
89,905,42,0.110200993352554,1
89,926,42,0.1248900728948,1
89,927,42,0.153698140168312,1
90,902,42,0.149946183133499,1
90,903,42,0.184934794635148,1
90,904,42,0.139119678218937,1
90,905,42,0.123447697912778,1
90,906,42,0.140240036728241,1
90,907,42,0.136211965981552,1
90,908,42,0.151814111783733,1
90,909,42,0.180549523287235,1
90,910,42,0.13728906870934,1
90,926,42,0.12485766646065,1
91,906,42,0.126618267179564,1
91,907,42,0.137097778158044,1
91,908,42,0.196115580848631,1
91,909,42,0.284605820838017,1
91,910,42,0.221901734521522,1
91,911,42,0.105799404411916,1
91,923,42,0.108210421326826,1
91,924,42,0.110445092775365,1
91,925,42,0.127082425352861,1
91,926,42,0.170440545842886,1
91,927,42,0.200204150867678,1
92,908,42,0.120622216321241,1
92,909,42,0.182019076102267,1
92,910,42,0.151521048689828,1
92,920,42,0.110782816837342,1
92,921,42,0.10388897159158,1
92,922,42,0.124430762070476,1
92,923,42,0.173205059766546,1
92,924,42,0.17470130023323,1
92,925,42,0.207817865561247,1
92,926,42,0.278080526615121,5
92,927,42,0.267356556747501,1
92,928,42,0.200261687266058,1
93,918,42,0.112447450939496,1
93,919,42,0.150814882534176,1
93,920,42,0.145993578529933,1
93,921,42,0.125556392752597,1
93,922,42,0.167506440062663,1
93,923,42,0.249940674567319,1
93,924,42,0.256775088046788,1
93,925,42,0.28374246986059,5
93,926,42,0.347825142225197,5
93,927,42,0.310970889586313,5
93,928,42,0.204643973954153,1
94,923,42,0.287702786650837,1
94,924,42,0.298048271153425,7
94,925,42,0.282225543740644,1
94,926,42,0.278319321186359,5
94,927,42,0.234135985828472,1
94,928,42,0.151120984452174,1
95,924,42,0.236829717564196,1
95,925,42,0.224228549172237,1
95,926,42,0.177518318026672,1
95,927,42,0.128564875384039,1
75,907,43,0.127213717706074,1
76,906,43,0.20016933709842,1
76,907,43,0.182123059907442,1
76,908,43,0.129989484015103,1
76,925,43,0.100304711045418,1
76,926,43,0.105882147024959,1
76,927,43,0.10467634445869,1
77,905,43,0.107959502936694,1
77,906,43,0.145585170316293,1
77,907,43,0.155146669649593,1
77,908,43,0.135630610892283,1
77,925,43,0.104329818918127,1
77,926,43,0.109154870086521,1
77,927,43,0.108805948103769,1
77,928,43,0.102322025187394,1
78,903,43,0.117245433204071,1
78,924,43,0.105099937401475,1
78,925,43,0.114550557711847,1
78,926,43,0.120563220271709,1
78,927,43,0.122350007568,1
78,928,43,0.103078886988268,1
79,902,43,0.154340876856383,1
79,903,43,0.13948587637129,1
79,904,43,0.099958893544593,1
79,923,43,0.100976379326464,1
79,924,43,0.113940772103878,1
79,925,43,0.11194906721457,1
79,926,43,0.106417806318848,1
79,927,43,0.108656726005813,1
80,901,43,0.169015795603874,1
80,902,43,0.262544479045686,1
80,903,43,0.225189827491852,1
80,904,43,0.126689169189608,1
80,924,43,0.10740765676511,1
81,900,43,0.11552288145137,1
81,901,43,0.165588948630788,1
81,902,43,0.248098006596343,1
81,903,43,0.207717803206928,1
81,904,43,0.119891639134015,1
82,900,43,0.125243776869011,1
82,901,43,0.117357848128584,1
82,902,43,0.122900263373405,1
82,903,43,0.101586840295414,1
82,927,43,0.104159475450149,1
83,900,43,0.135501856589207,1
83,901,43,0.102172095049701,1
84,900,43,0.134637666857013,1
84,901,43,0.117227470780571,1
85,900,43,0.150006017937796,1
85,901,43,0.150058892166826,1
86,898,43,0.101259017896846,1
86,899,43,0.102835920429037,1
86,900,43,0.146321760394829,1
86,901,43,0.152295339161169,1
86,902,43,0.100448072752929,1
86,928,43,0.100082996571238,1
86,929,43,0.118602048234476,1
87,898,43,0.138661946867875,1
87,899,43,0.136970832079529,1
87,900,43,0.130484327541342,1
87,901,43,0.124392604175072,1
87,927,43,0.111156966820595,1
87,928,43,0.131801531990653,1
87,929,43,0.150124576468649,1
88,899,43,0.21079189388976,1
88,900,43,0.129052148331543,1
88,901,43,0.103432264174908,1
88,926,43,0.107088570487613,1
88,927,43,0.139773046395993,1
88,928,43,0.154538921017485,1
89,900,43,0.10556525022419,1
89,902,43,0.110335673403589,1
89,903,43,0.12302936624989,1
89,904,43,0.109504347608144,1
89,926,43,0.102700815554159,1
89,927,43,0.134430548894349,1
90,902,43,0.115494853970675,1
90,903,43,0.13180656451925,1
90,904,43,0.10993282057866,1
90,906,43,0.102596820856066,1
90,907,43,0.121890881923301,1
90,908,43,0.179326444551366,1
90,909,43,0.189898817664679,1
90,910,43,0.118553171706734,1
90,926,43,0.103954666786322,1
90,927,43,0.137890608377594,1
91,906,43,0.104680004479488,1
91,907,43,0.134041442933251,1
91,908,43,0.226707058613531,1
91,909,43,0.272263794990066,1
91,910,43,0.178951956887622,1
91,925,43,0.106321534700355,1
91,926,43,0.141197066809429,1
91,927,43,0.173507882915912,1
92,908,43,0.128194102205688,1
92,909,43,0.16346795568537,1
92,910,43,0.13065944210786,1
92,922,43,0.105690398971063,1
92,923,43,0.143911473305495,1
92,924,43,0.151854578977974,1
92,925,43,0.170113300769028,1
92,926,43,0.22807442495503,1
92,927,43,0.255189667251907,6
92,928,43,0.203367410985788,1
93,918,43,0.102738417910692,1
93,919,43,0.139157890578936,1
93,920,43,0.130714734564917,1
93,921,43,0.117830241348677,1
93,922,43,0.165050500749624,1
93,923,43,0.256701582629093,1
93,924,43,0.264373705154565,7
93,925,43,0.25239613459192,1
93,926,43,0.303213758720637,5
93,927,43,0.328553041282751,6
93,928,43,0.24972384012087,6
93,929,43,0.142682370785396,1
94,918,43,0.118969433715004,1
94,919,43,0.149855074758632,1
94,922,43,0.198026678137028,1
94,923,43,0.332952756641313,7
94,924,43,0.345111193231731,7
94,925,43,0.291724844506215,7
94,926,43,0.282002238900284,1
94,927,43,0.280517577606541,6
94,928,43,0.207686758387658,1
95,923,43,0.218275024269853,1
95,924,43,0.260788082993523,7
95,925,43,0.248659689073823,1
95,926,43,0.20274032742238,1
95,927,43,0.161037353302023,1
75,906,44,0.142814316713751,1
75,907,44,0.121892886220404,1
76,905,44,0.156794877229832,1
76,906,44,0.21150080506101,1
76,907,44,0.169935615473615,1
76,908,44,0.109901045933814,1
77,903,44,0.126203007319846,1
77,904,44,0.108266334680268,1
77,905,44,0.122721706644469,1
77,906,44,0.144791054732296,1
77,907,44,0.132396067511963,1
77,908,44,0.105639736004599,1
77,926,44,0.100668545434339,1
77,927,44,0.10135494094193,1
77,929,44,0.102110615414628,1
78,902,44,0.125573244098354,1
78,903,44,0.108459237383582,1
78,925,44,0.101975379824722,1
78,926,44,0.107498776032896,1
78,927,44,0.108708674336724,1
79,901,44,0.121382454927017,1
79,902,44,0.142012456264315,1
79,903,44,0.12464310863428,1
80,900,44,0.128249176804364,1
80,901,44,0.17437077639074,1
80,902,44,0.249445133894262,1
80,903,44,0.212831745481233,1
80,904,44,0.117969136959381,1
81,899,44,0.115669391212485,1
81,900,44,0.160989500708672,1
81,901,44,0.189304521787588,1
81,902,44,0.249380734956886,1
81,903,44,0.207077016351365,1
81,904,44,0.118040801473758,1
82,899,44,0.112121905161008,1
82,900,44,0.150963570879099,1
82,901,44,0.129410863048513,1
82,902,44,0.12434658159212,1
82,903,44,0.102596385139304,1
83,900,44,0.121717063614148,1
84,900,44,0.103692888155906,1
85,900,44,0.114525841678541,1
85,901,44,0.10728212676607,1
86,900,44,0.117623940354941,1
86,901,44,0.109250030627272,1
87,898,44,0.141693010520491,1
87,899,44,0.133481884574984,1
87,900,44,0.117379416108287,1
87,929,44,0.112669503094167,1
88,898,44,0.259805715982642,1
88,899,44,0.21086840575311,1
88,900,44,0.128271463716724,1
88,927,44,0.100313501631085,1
88,928,44,0.117475872906403,1
88,929,44,0.127438863449752,1
89,899,44,0.184463719458259,1
89,900,44,0.106316709137219,1
89,927,44,0.10884788584208,1
89,928,44,0.139283736472628,1
90,907,44,0.107505801965678,1
90,908,44,0.180804482950332,1
90,909,44,0.171659005981082,1
90,927,44,0.111542957406847,1
91,907,44,0.125662783892879,1
91,908,44,0.22566443197451,1
91,909,44,0.227305232369801,1
91,910,44,0.130866974001448,1
92,908,44,0.122680106586648,1
92,909,44,0.133077354240523,1
92,910,44,0.106555231385481,1
92,923,44,0.120075315534901,1
92,924,44,0.134388600263118,1
92,925,44,0.137241608261074,1
92,926,44,0.175964878842098,1
92,927,44,0.22949817304549,6
92,928,44,0.207515478128642,1
93,919,44,0.111892195284251,1
93,920,44,0.112218688746696,1
93,921,44,0.108443486222648,1
93,922,44,0.15255115936487,1
93,923,44,0.245172059612482,1
93,924,44,0.267251549007937,7
93,925,44,0.22199147038859,1
93,926,44,0.249157190472307,6
93,927,44,0.327600869443455,6
93,928,44,0.299943334064993,6
93,929,44,0.183286783127452,1
94,919,44,0.119811412785271,1
94,920,44,0.116115597855201,1
94,921,44,0.11961665828572,1
94,922,44,0.193754758504667,1
94,923,44,0.333680686849211,7
94,924,44,0.36490014139688,7
94,925,44,0.28786489507202,7
94,926,44,0.270579052559361,1
94,927,44,0.307721727908638,6
94,928,44,0.266417848556141,1
95,923,44,0.216413576906449,1
95,924,44,0.267975840980875,7
95,925,44,0.258812543196073,1
95,926,44,0.221819885127841,1
95,927,44,0.188106474979677,1
75,905,45,0.10805574187643,1
75,906,45,0.126179816295206,1
75,907,45,0.107122915861353,1
75,926,45,0.109565260811427,1
75,927,45,0.109668002823831,1
76,904,45,0.108845794401624,1
76,905,45,0.168695031816846,1
76,906,45,0.190721102337319,1
76,907,45,0.142147332387893,1
76,929,45,0.106889001317846,1
77,903,45,0.112757093056183,1
77,904,45,0.110020868043276,1
77,905,45,0.126507606015017,1
77,906,45,0.1307110636512,1
77,907,45,0.10853601067699,1
77,929,45,0.100133942753597,1
77,930,45,0.110221221503215,1
78,902,45,0.110449232084601,1
79,901,45,0.114675619315368,1
79,902,45,0.128376721993427,1
79,903,45,0.111647289785431,1
80,900,45,0.141227556089828,1
80,901,45,0.16345045076447,1
80,902,45,0.211545879960006,1
80,903,45,0.178779511086269,1
80,904,45,0.10475525276423,1
81,899,45,0.139706152980156,1
81,900,45,0.1892163762867,1
81,901,45,0.183229540837886,1
81,902,45,0.210105443917573,1
81,903,45,0.174122047477336,1
81,904,45,0.104461285558045,1
82,899,45,0.129678480283536,1
82,900,45,0.165578251784288,1
82,901,45,0.128106980639191,1
82,902,45,0.114698821232927,1
83,900,45,0.109236109476736,1
87,898,45,0.14233781686318,1
87,899,45,0.124073659505524,1
87,900,45,0.0999887837144442,1
88,898,45,0.220145861329472,1
88,899,45,0.175144042927691,1
88,900,45,0.115657093106886,1
88,929,45,0.101002968941846,1
89,899,45,0.150209051055819,1
89,900,45,0.102804145784191,1
89,928,45,0.115557880400252,1
89,929,45,0.140084344236374,1
90,908,45,0.154303198249417,1
90,909,45,0.13319904993206,1
90,928,45,0.130448620552722,1
91,907,45,0.114340738305261,1
91,908,45,0.189962192667665,1
91,909,45,0.166083879300378,1
92,908,45,0.110330804268777,1
92,909,45,0.106075714196335,1
92,923,45,0.105278548595006,1
92,924,45,0.124110640965671,1
92,925,45,0.119443667838415,1
92,927,45,0.190556292472214,1
92,928,45,0.198729249629397,1
93,921,45,0.102404865836708,1
93,922,45,0.140194144860317,1
93,923,45,0.219955104531209,1
93,924,45,0.257879935039376,7
93,926,45,0.207318294508145,1
93,927,45,0.293150030461989,6
93,928,45,0.319609126887454,1
93,929,45,0.223204614782293,1
94,920,45,0.109577526238268,1
94,921,45,0.127334422141978,1
94,922,45,0.184417402766493,1
94,923,45,0.29850324659597,7
94,924,45,0.347539856675488,7
94,925,45,0.277617272554105,7
94,926,45,0.254487967193062,1
94,927,45,0.298575640935923,1
94,928,45,0.296703453154343,1
95,924,45,0.273103835120744,7
95,927,45,0.204470820113062,1
75,906,46,0.105484446550737,1
75,927,46,0.100414664170228,1
76,904,46,0.107830007915123,1
76,905,46,0.154723839211141,1
76,906,46,0.150302839088771,1
76,907,46,0.10959512919544,1
76,929,46,0.100783236978931,1
77,904,46,0.0997931359955315,1
77,905,46,0.114492661847139,1
77,906,46,0.108661224781377,1
77,930,46,0.106920732391015,1
78,931,46,0.102573433758883,1
79,900,46,0.103226496934205,1
79,901,46,0.103824975692209,1
79,902,46,0.112203514910471,1
80,899,46,0.11283546760869,1
80,900,46,0.140742614226999,1
80,901,46,0.14002912802975,1
80,902,46,0.161477056872071,1
80,903,46,0.133592295202394,1
81,899,46,0.142295465193944,1
81,900,46,0.18198641913098,1
81,901,46,0.154143464484585,1
81,902,46,0.155937626287068,1
81,903,46,0.128764542590078,1
82,899,46,0.133693632028241,1
82,900,46,0.159897670754339,1
82,901,46,0.115138677303841,1
87,897,46,0.128900399076369,1
87,898,46,0.127697189024832,1
87,899,46,0.103381895317258,1
88,897,46,0.167662633628806,1
88,898,46,0.160796489076167,1
88,899,46,0.123367471564034,1
89,898,46,0.128756852189234,1
89,899,46,0.10759889285181,1
90,908,46,0.105459458194455,1
90,928,46,0.101669953267704,1
91,908,46,0.1285473486773,1
91,909,46,0.104896087314524,1
92,924,46,0.107286255182387,1
92,925,46,0.103943338150519,1
92,926,46,0.109183431320249,1
93,922,46,0.121835371607863,1
93,923,46,0.177464169326114,1
93,924,46,0.22187310793028,1
93,925,46,0.189636559745825,1
93,927,46,0.233202898383337,1
93,928,46,0.28507798530681,1
94,920,46,0.101521068850239,1
94,921,46,0.127329607471761,1
94,922,46,0.166118366282065,1
94,923,46,0.241462977107018,1
94,924,46,0.299474764259484,7
94,927,46,0.26269702348395,1
74,920,47,0.113146460447338,1
74,921,47,0.114571973190683,1
74,925,47,0.106848414301495,1
76,905,47,0.123931855485436,1
76,906,47,0.108971803689102,1
76,930,47,0.103295514469255,1
77,930,47,0.101692610539312,1
77,931,47,0.108527339913433,1
78,931,47,0.10197210105609,1
78,932,47,0.103754389576817,1
80,899,47,0.111097622197655,1
80,900,47,0.130507485887225,1
80,901,47,0.111765989924231,1
80,902,47,0.110191560084663,1
81,899,47,0.124904026724093,1
81,900,47,0.149232533542465,1
81,901,47,0.116502252909514,1
81,902,47,0.102849253361944,1
82,899,47,0.120458277889659,1
82,900,47,0.136072231616082,1
87,897,47,0.111726906130709,1
87,898,47,0.10861196700147,1
88,897,47,0.122430353738854,1
88,898,47,0.110233955325575,1
92,927,47,0.112041994706917,1
93,922,47,0.10972861102538,1
93,923,47,0.142845492248049,1
93,924,47,0.182407452237789,1
93,925,47,0.178418922787223,1
93,926,47,0.158845284059857,1
94,920,47,0.0999032198353696,1
94,921,47,0.12856781647218,1
94,922,47,0.154729819423695,1
94,923,47,0.198569341577861,1
94,924,47,0.25510230604119,1
94,925,47,0.243812144027607,1
95,922,47,0.174168070060288,1
73,921,48,0.1666289391834,1
74,921,48,0.102333386501955,1
74,926,48,0.111567412010096,1
80,900,48,0.104466677552971,1
81,900,48,0.103397297904783,1
93,923,48,0.11013816299552,1
93,924,48,0.137824521037767,1
93,925,48,0.150416179911402,1
93,926,48,0.133774163378718,1
93,927,48,0.134498847496742,1
94,921,48,0.12535578875552,1
94,922,48,0.139606689736384,1
94,923,48,0.162152254458887,1
94,924,48,0.209986536813311,1
94,925,48,0.222485355337952,1
95,921,48,0.204587679348544,1
95,923,48,0.199906382032747,1
73,920,49,0.106993453518539,1
73,921,49,0.121768107832779,1
73,922,49,0.10757649701026,1
93,924,49,0.10099552907814,1
93,925,49,0.11700894793167,1
93,926,49,0.108378978356081,1
93,927,49,0.101655433006621,1
93,928,49,0.107832458821908,1
94,921,49,0.116133897959191,1
94,922,49,0.122729375259475,1
94,923,49,0.131855048901906,1
94,924,49,0.168055976935411,1
94,925,49,0.196897714221682,1
94,926,49,0.171109033391573,1
94,927,49,0.150066255780098,1
95,920,49,0.136244459559054,1
95,921,49,0.22005810797367,1
95,922,49,0.196129937715928,1
95,923,49,0.172949729744202,1
95,924,49,0.22401737904369,1
95,925,49,0.259938369950735,1
96,921,49,0.240979876147507,1
94,922,50,0.101621741208025,1
94,923,50,0.100551936735994,1
94,924,50,0.12672951656174,1
94,925,50,0.160630088844882,1
94,926,50,0.145330875121258,1
94,927,50,0.118527987277909,1
95,920,50,0.112992358321651,1
95,921,50,0.196862856880747,1
95,922,50,0.182913330291017,1
95,923,50,0.140802960998491,1
95,924,50,0.182530324364583,1
95,925,50,0.248599124443949,1
95,926,50,0.20886796474273,1
96,921,50,0.220036191420558,1
96,922,50,0.208752325514181,1
96,923,50,0.152551202936546,1
96,924,50,0.198148983832032,1
73,925,51,0.112910617857161,1
94,925,51,0.127156922026189,1
94,926,51,0.121773194825971,1
95,921,51,0.148567379227005,1
95,922,51,0.153266344857488,1
95,923,51,0.114973213863594,1
95,924,51,0.14260659964054,1
95,925,51,0.213626732498754,1
95,926,51,0.191617349930253,1
95,927,51,0.127257888492789,1
96,921,51,0.164651166337546,1
96,925,51,0.229460875690691,1
96,926,51,0.203986651647485,1
73,926,52,0.102918488755375,1
95,922,52,0.10991178635199,1
95,924,52,0.102273203124248,1
95,925,52,0.157463582636899,1
95,926,52,0.157370099605681,1
95,927,52,0.1054452973997,1
96,921,52,0.106287559685863,1
96,922,52,0.127812523251648,1
76,933,53,0.132352735480014,1
77,934,53,0.110858980127283,1
95,925,53,0.108297085390724,1
95,926,53,0.120799672865353,1
96,925,53,0.115948794585911,1
96,926,53,0.126770866082423,1
75,933,54,0.121506862955395,1
76,933,54,0.118788023041279,1
76,934,54,0.130097857666652,1
77,934,54,0.105625466280654,1
75,933,55,0.103674152335154,1
76,934,55,0.105033283629857,1
86,937,56,0.0998877736761681,1
87,937,56,0.125550619505504,1
90,936,56,0.107535517848824,1
87,937,57,0.102563292451254,1
88,937,57,0.108219538700064,1
90,936,57,0.108856632856071,1
91,936,57,0.128002484866821,1
69,922,58,0.110041673518646,1
69,923,58,0.117636739534815,1
69,924,58,0.113570946609484,1
89,937,58,0.100765339912946,1
91,936,58,0.130384134471994,1
68,922,59,0.166653361107892,1
68,923,59,0.165495138811998,1
68,924,59,0.133344797188841,1
69,922,59,0.103438560282114,1
69,923,59,0.108850402106379,1
69,924,59,0.103779410611856,1
69,927,59,0.101424819017584,1
79,937,59,0.10776603380159,1
90,937,59,0.122961862830587,1
91,936,59,0.120984612844848,1
91,937,59,0.170076635203533,1
92,936,59,0.155850439363056,1
96,931,59,0.121030156139362,1
68,920,60,0.113738534168945,1
68,921,60,0.138847006669479,1
68,922,60,0.154240019318973,1
68,923,60,0.149241073590994,1
68,924,60,0.128958022618101,1
68,925,60,0.104022355385249,1
69,928,60,0.103116304165177,1
80,894,60,0.105637176168624,1
89,938,60,0.113352554475612,1
90,937,60,0.109894444824875,1
90,938,60,0.160634881729261,1
91,936,60,0.105905773766361,1
91,937,60,0.159703983760854,1
91,938,60,0.194242521633527,1
92,936,60,0.143252538846809,1
92,937,60,0.212199520460038,1
93,936,60,0.129219387317594,1
67,923,61,0.146277230141786,1
67,924,61,0.124969373345425,1
68,920,61,0.103303509871832,1
68,921,61,0.123935591756667,1
68,922,61,0.136236398798963,1
68,923,61,0.132389444617185,1
68,924,61,0.123130964505795,1
68,925,61,0.102214435826017,1
79,894,61,0.118351031808073,1
80,893,61,0.101277873539708,1
80,894,61,0.155371194496886,1
80,895,61,0.101564226595483,1
89,938,61,0.10491352687791,1
90,937,61,0.102600088731778,1
90,938,61,0.146603527531688,1
91,937,61,0.145994558892647,1
92,936,61,0.120187109563028,1
92,937,61,0.184674029046202,1
93,936,61,0.123177052446261,1
67,922,62,0.143697863163083,1
67,923,62,0.124567838563701,1
67,924,62,0.114878957435124,1
68,921,62,0.104411363310075,1
68,922,62,0.114010976967103,1
68,923,62,0.11227139958194,1
68,924,62,0.109361748404966,1
79,894,62,0.138545240133259,1
80,893,62,0.114096638882449,1
80,894,62,0.175927657737731,1
80,895,62,0.104731658701585,1
90,938,62,0.134813892501273,1
91,937,62,0.128143341202953,1
91,938,62,0.190312487158216,1
92,937,62,0.152485082917961,1
93,936,62,0.11205002278825,1
93,937,62,0.158910260321942,1
94,936,62,0.117694047181895,1
67,922,63,0.114513205892452,1
67,923,63,0.103628336717663,1
67,924,63,0.0999609196275348,1
79,894,63,0.135996580293335,1
80,893,63,0.116546020658225,1
80,894,63,0.162727019332136,1
90,938,63,0.128761830253236,1
91,937,63,0.114818044231841,1
91,938,63,0.182637336401251,1
91,939,63,0.207542514353705,1
92,937,63,0.131740749502398,1
92,938,63,0.200669300296608,1
93,936,63,0.104387170136883,1
93,937,63,0.15769574342044,1
94,936,63,0.119554274538367,1
79,894,64,0.114777762217224,1
80,893,64,0.111574568657907,1
80,894,64,0.128816273062608,1
90,938,64,0.115900212166984,1
90,939,64,0.142806746135017,1
91,938,64,0.162343436080992,1
92,937,64,0.119637202331033,1
92,938,64,0.185642344191519,1
93,936,64,0.100317847905783,1
93,937,64,0.166875445941319,1
94,936,64,0.120985440706695,1
91,938,65,0.131836182366125,1
92,937,65,0.106526332471263,1
92,938,65,0.163213562454064,1
92,939,65,0.21135015599066,1
93,937,65,0.168831476520765,1
93,938,65,0.237229248048817,1
94,936,65,0.120015088585518,1
94,937,65,0.205285610457401,1
95,936,65,0.141733194498836,1
91,938,66,0.101561710331184,1
92,938,66,0.138256490635295,1
93,937,66,0.15174240369768,1
93,938,66,0.221417021409993,1
94,936,66,0.107807786360278,1
94,937,66,0.194219907933596,1
95,936,66,0.13458902997349,1
92,938,67,0.121929268570004,1
93,937,67,0.133385841707791,1
93,938,67,0.197243324757045,1
94,936,67,0.10002783482921,1
94,937,67,0.182445000129727,1
94,938,67,0.243589863121637,1
95,936,67,0.12925911379334,1
95,937,67,0.174139988114998,1
96,935,67,0.118935741916407,1
96,936,67,0.167677339069512,1
85,893,68,0.107539602693465,1
92,938,68,0.107963936354744,1
92,939,68,0.133272402848888,1
93,937,68,0.111321744006943,1
93,938,68,0.167101430439764,1
93,939,68,0.194427526970536,1
94,937,68,0.158973668003686,1
94,938,68,0.212794709556491,1
95,936,68,0.119006807320237,1
95,937,68,0.164125201741605,1
96,935,68,0.106712339956823,1
96,936,68,0.145273109971579,1
97,935,68,0.135754256416328,1
76,936,69,0.115177281808926,1
85,893,69,0.109075449813786,1
93,938,69,0.138032020252597,1
94,937,69,0.127299782659424,1
94,938,69,0.168489155646952,1
95,936,69,0.102082348289714,1
95,937,69,0.142315105126977,1
96,936,69,0.115648422343329,1
100,919,69,0.10327033004043,1
