x,y,z,signal,mito.p
4,683,1,0.278098739575759,2
4,684,1,0.275224468599833,2
4,685,1,0.260724032629556,2
5,680,1,0.288322463029296,2
5,681,1,0.310318686951594,2
5,682,1,0.313734706363153,2
5,683,1,0.365809591207694,2
5,684,1,0.421086144602885,2
5,685,1,0.403611636732419,2
5,686,1,0.32672372803052,2
6,680,1,0.318450643161503,2
6,681,1,0.321034596059123,2
6,682,1,0.303095352690651,2
6,683,1,0.378370564728388,2
6,684,1,0.46051093006313,2
6,685,1,0.432835421368249,2
6,686,1,0.312983312807639,2
7,683,1,0.268432537504628,2
7,684,1,0.332178117596563,2
7,685,1,0.317484223384101,2
8,684,1,0.273477440458045,2
2,678,2,0.301912142038475,1
2,679,2,0.287896114177994,1
4,680,2,0.275885712357356,2
4,681,2,0.290809011444843,2
4,682,2,0.278056910766638,2
4,683,2,0.282040843405369,2
4,684,2,0.277314209760519,2
4,685,2,0.235917893097032,2
4,686,2,0.199877799013181,2
5,679,2,0.241345398938879,2
5,680,2,0.326047277758015,2
5,681,2,0.341681405170503,2
5,682,2,0.326597653385529,2
5,683,2,0.403273694812062,2
5,684,2,0.469117425398183,2
5,685,2,0.414473358454244,2
5,686,2,0.292450770417009,2
5,687,2,0.227291681578513,2
6,679,2,0.271755901746816,2
6,680,2,0.379125836163081,2
6,681,2,0.359874758554386,2
6,682,2,0.309226802532666,2
6,683,2,0.396763214959062,2
6,684,2,0.494127480375173,2
6,685,2,0.444750575504783,2
6,686,2,0.292634577532923,2
6,687,2,0.189632943296703,2
7,680,2,0.254493958298535,2
7,681,2,0.232858181067335,2
7,682,2,0.203180924211789,2
7,683,2,0.261829162838039,2
7,684,2,0.334052636462818,2
7,685,2,0.308368636584702,2
7,686,2,0.225903117616558,2
8,683,2,0.238580667156839,2
8,684,2,0.315325551831717,2
8,685,2,0.275167171845672,2
9,684,2,0.302899149432867,2
1,678,3,0.315017565438725,1
1,679,3,0.290574072966946,2
1,680,3,0.238471694394743,1
1,681,3,0.182416003179237,1
2,677,3,0.230741643325806,1
2,678,3,0.29443652777252,2
2,679,3,0.292488220272675,2
2,680,3,0.255039236039937,1
2,681,3,0.19633389673207,1
2,682,3,0.155040910298614,1
3,678,3,0.247960015097919,1
3,679,3,0.255017428416015,1
3,680,3,0.262456420688151,2
3,681,3,0.231907926381791,2
3,682,3,0.188644650537864,1
3,683,3,0.15814019630319,2
3,691,3,0.266290205330807,1
3,692,3,0.315751290679553,1
4,679,3,0.235444944338068,2
4,680,3,0.289919016387438,2
4,681,3,0.305355676963534,2
4,682,3,0.280727288083937,2
4,683,3,0.297075707769683,2
4,684,3,0.279823459019349,2
4,685,3,0.213147661919288,2
4,692,3,0.208634551273499,1
5,679,3,0.241158563591471,2
5,680,3,0.333291983926118,2
5,681,3,0.350905398300207,2
5,682,3,0.343106569340439,2
5,683,3,0.449599231628741,2
5,684,3,0.500936121208188,2
5,685,3,0.403820519347968,2
5,686,3,0.259532652288099,2
5,687,3,0.200905480567276,1
5,688,3,0.185370151930498,1
6,679,3,0.271508632484563,2
6,680,3,0.371574864683194,2
6,681,3,0.346022865198029,2
6,682,3,0.296892467085559,2
6,683,3,0.392446569001114,2
6,684,3,0.485061216713197,2
6,685,3,0.424469659544023,2
6,686,3,0.273744404117926,2
6,687,3,0.184263431355835,1
7,680,3,0.243849724598302,2
7,681,3,0.215903635794419,2
7,682,3,0.188465483805462,2
7,683,3,0.245259682253255,2
7,684,3,0.318098823662286,2
7,685,3,0.296238783013851,2
7,686,3,0.221522922368919,2
8,683,3,0.231938034410023,2
8,684,3,0.318307292346911,2
8,685,3,0.272872099161046,2
9,684,3,0.30072766780769,2
1,677,4,0.252242544433428,1
1,678,4,0.35484371139399,2
1,679,4,0.367700994098463,2
1,680,4,0.281635474316141,2
1,681,4,0.188759570833756,1
1,682,4,0.133818018270781,1
1,683,4,0.106223563786491,1
2,677,4,0.213280511959924,2
2,678,4,0.295840537893677,2
2,679,4,0.318219168631862,2
2,680,4,0.272774651107296,2
2,681,4,0.202401056565899,1
2,682,4,0.146905686212992,1
2,683,4,0.109897418591773,1
2,691,4,0.126662612252984,1
2,692,4,0.163346151064643,1
2,693,4,0.110293005839701,1
3,678,4,0.236398466899325,2
3,679,4,0.255202629825567,2
3,680,4,0.269533920548961,2
3,681,4,0.234424561039731,2
3,682,4,0.180442413214296,1
3,683,4,0.141096819275486,1
3,684,4,0.104997859857133,1
3,690,4,0.107072252894889,1
3,691,4,0.205495560579015,1
3,692,4,0.274717817149354,1
3,693,4,0.16262749073085,1
4,679,4,0.265329101297897,2
4,680,4,0.320762033438855,2
4,681,4,0.310339122067717,2
4,682,4,0.268433692154046,2
4,683,4,0.272827438192974,2
4,684,4,0.235687660360161,2
4,685,4,0.169134005561318,2
4,686,4,0.121372466120256,1
4,687,4,0.116957914605958,1
4,688,4,0.130432368317511,1
4,689,4,0.118178117611201,1
4,690,4,0.109465274707541,1
4,691,4,0.152897641333756,1
4,692,4,0.184947375956641,1
4,693,4,0.114136223750248,1
5,678,4,0.24311706686354,2
5,679,4,0.277905150618545,2
5,680,4,0.360705256487983,2
5,681,4,0.35600480942051,2
5,682,4,0.339410797982044,2
5,683,4,0.426079371548368,2
5,684,4,0.432183806951159,2
5,685,4,0.324761804381873,2
5,686,4,0.205969663987398,2
5,687,4,0.166493540199708,1
5,688,4,0.157530617660683,1
5,689,4,0.133827593146619,1
5,690,4,0.115745086106907,1
6,679,4,0.284300361602243,2
6,680,4,0.357459580544402,2
6,681,4,0.320333854577154,2
6,682,4,0.277133714091994,2
6,683,4,0.351256433509253,2
6,684,4,0.409883343800019,2
6,685,4,0.3544654221015,2
6,686,4,0.23730573812633,2
6,687,4,0.171090842216772,1
6,688,4,0.134334604063427,1
6,689,4,0.128649099434071,1
6,690,4,0.132386351028177,1
7,680,4,0.243848787807264,2
7,681,4,0.206168764761647,2
7,682,4,0.180232343270572,2
7,683,4,0.218889515618848,2
7,684,4,0.274399090338186,2
7,685,4,0.26870993658095,2
7,686,4,0.21556900532145,1
7,687,4,0.172577311735077,1
7,688,4,0.124744979213161,1
7,690,4,0.105489337471387,1
8,684,4,0.269096591635264,2
1,677,5,0.241239890125039,2
1,678,5,0.381349734514688,2
1,679,5,0.447261349772279,2
1,680,5,0.32672895663166,2
1,681,5,0.192509981074065,1
1,682,5,0.121617055724424,1
2,677,5,0.193960242529474,2
2,678,5,0.289726996010567,2
2,679,5,0.348322948625415,2
2,680,5,0.29445051428057,2
2,681,5,0.210642464826342,2
2,682,5,0.138377739717151,1
2,692,5,0.118197278255795,1
3,678,5,0.222191856527285,2
3,679,5,0.263288247557872,2
3,680,5,0.27577094456233,2
3,681,5,0.241419252929984,2
3,682,5,0.175339254929842,1
3,683,5,0.124119616730962,1
3,691,5,0.132535758305757,1
3,692,5,0.194560420582848,1
3,693,5,0.1292450183561,1
4,678,5,0.260264830734423,2
4,679,5,0.311956110541982,2
4,680,5,0.339028086164424,2
4,681,5,0.296116847678095,2
4,682,5,0.243345099230764,2
4,683,5,0.226289489454976,2
4,684,5,0.178419336718147,2
4,685,5,0.131335739879499,1
4,691,5,0.109809621664295,1
4,692,5,0.143066542254168,1
5,678,5,0.263704662067008,2
5,679,5,0.336754973604586,2
5,680,5,0.380891186194698,2
5,681,5,0.337237181344735,2
5,682,5,0.308345107879572,2
5,683,5,0.352244486623873,2
5,684,5,0.318789478301223,2
5,685,5,0.23418966613351,2
5,686,5,0.156567868796997,1
5,687,5,0.133961369085373,1
5,688,5,0.128195649000192,1
5,689,5,0.107252911957199,1
6,678,5,0.245864326403437,2
6,679,5,0.291979629882606,2
6,680,5,0.32902673076021,2
6,681,5,0.289191456538788,2
6,682,5,0.260157731554402,2
6,683,5,0.303108620266044,2
6,684,5,0.319321662753937,2
6,685,5,0.280371808563921,2
6,686,5,0.207036058975768,1
6,687,5,0.165787711724546,1
6,688,5,0.129891327921616,1
6,689,5,0.106027458564979,1
6,698,5,0.107811653346538,1
7,679,5,0.231629133011831,2
7,680,5,0.244627849377145,2
7,681,5,0.206137523869834,2
7,683,5,0.210167794986169,2
7,684,5,0.243568142641067,2
7,685,5,0.258841474789048,1
7,686,5,0.226228968396779,1
7,687,5,0.188384592988656,1
7,688,5,0.131618432914476,1
8,685,5,0.206863950854905,1
8,686,5,0.177873035042354,1
8,687,5,0.15663992545646,1
8,688,5,0.118882301255587,1
1,677,6,0.229201035999864,2
1,678,6,0.401518932697754,2
1,679,6,0.510053058729548,2
1,680,6,0.357326033356948,2
1,681,6,0.184900166045514,2
1,682,6,0.106534785376439,1
2,677,6,0.184098915599544,2
2,678,6,0.302399665523117,2
2,679,6,0.391619622159125,2
2,680,6,0.313108951735869,2
2,681,6,0.206130312757429,2
2,682,6,0.12387699874514,1
3,677,6,0.154056484526035,1
3,678,6,0.222615634649694,2
3,679,6,0.28103037266336,2
3,680,6,0.273086297521087,2
3,681,6,0.235874778923464,1
3,682,6,0.161227325810115,1
3,683,6,0.102366609905033,1
3,692,6,0.118739702052409,1
4,677,6,0.177500159530629,1
4,678,6,0.28110154699638,2
4,679,6,0.366304979379884,2
4,680,6,0.335942950061684,2
4,681,6,0.262081704273108,2
4,682,6,0.206003889539028,1
4,683,6,0.168891964900205,1
4,684,6,0.124559941197395,1
4,692,6,0.0997037922735493,1
5,677,6,0.19184250656685,2
5,678,6,0.312673017115809,2
5,679,6,0.421381037707189,2
5,680,6,0.397432127331591,2
5,681,6,0.299925818251174,2
5,682,6,0.257620487493635,2
5,683,6,0.258361249560164,2
5,684,6,0.213242757102525,2
5,685,6,0.156741186031874,1
5,686,6,0.11040353628922,1
6,678,6,0.276540028218369,2
6,679,6,0.332443512676102,2
6,680,6,0.328885602101102,2
6,681,6,0.265384241254087,2
6,682,6,0.238897934316855,1
6,683,6,0.253290878962027,2
6,684,6,0.240176349081458,2
6,685,6,0.208330791333095,1
6,686,6,0.161722376301815,1
6,687,6,0.135844275499291,1
6,688,6,0.108048879337434,1
6,699,6,0.132087111649176,1
7,679,6,0.25869239429904,2
7,680,6,0.26342140260024,2
7,682,6,0.19318052738445,1
7,683,6,0.203787202299827,1
7,684,6,0.215972805830335,1
7,685,6,0.231813833347106,1
7,686,6,0.207045971532096,1
7,687,6,0.17374713498975,1
7,688,6,0.121405950953391,1
7,698,6,0.10289864185688,1
8,684,6,0.168619957818808,1
8,685,6,0.174462494769073,1
8,686,6,0.155934881271469,1
8,687,6,0.1376599617098,1
8,688,6,0.106009812036131,1
9,686,6,0.108201826813702,1
1,677,7,0.225827106827483,2
1,678,7,0.425794499929582,2
1,679,7,0.547826956951469,2
1,680,7,0.369359854953526,2
1,681,7,0.17382422417781,2
2,677,7,0.186222413916341,2
2,678,7,0.339413782641862,2
2,679,7,0.444095518925276,2
2,680,7,0.330018313180599,2
2,681,7,0.195953733857505,2
2,682,7,0.110074014595282,1
3,677,7,0.149887230655644,1
3,678,7,0.234849145238149,2
3,679,7,0.305915660145643,2
3,680,7,0.27891930316719,2
3,681,7,0.23055661620296,2
3,682,7,0.145367366400049,1
4,677,7,0.166864945167363,1
4,678,7,0.281781243358761,2
4,679,7,0.3787506404596,2
4,680,7,0.326734860593781,2
4,681,7,0.250341926133149,2
4,682,7,0.181230820908715,1
4,683,7,0.125439773161333,1
5,677,7,0.189397111599444,2
5,678,7,0.329894438905254,2
5,679,7,0.448577345107576,2
5,680,7,0.388741843663267,2
5,681,7,0.280428016026178,2
5,682,7,0.224774763704677,1
5,683,7,0.18978010663296,1
5,684,7,0.143844699711768,1
5,685,7,0.107479266814891,1
6,677,7,0.210345589210772,2
6,678,7,0.310711834185657,2
6,679,7,0.381309256427528,2
6,680,7,0.352431278399605,2
6,681,7,0.269886306479968,2
6,682,7,0.233123380074331,1
6,683,7,0.222506204384998,1
6,684,7,0.186699894129626,1
6,685,7,0.152476488404837,1
6,686,7,0.12052216485984,1
6,687,7,0.105558006433027,1
6,699,7,0.106248671964883,1
6,700,7,0.121661182939463,1
7,678,7,0.278842159514535,2
7,679,7,0.324015247282413,2
7,680,7,0.310978231413747,2
7,681,7,0.234986112802182,2
7,682,7,0.201888065436537,1
7,683,7,0.208957199535522,1
7,684,7,0.198715415622214,1
7,685,7,0.191764643981538,1
7,686,7,0.167153444128189,1
7,687,7,0.144624905038149,1
7,688,7,0.104347367410704,1
7,699,7,0.11757528168558,1
8,679,7,0.240579604944391,2
8,680,7,0.226414954096501,2
8,682,7,0.142766180904505,1
8,683,7,0.158823334827988,1
8,684,7,0.159945087630929,1
8,685,7,0.151098087536348,1
8,686,7,0.130497235650406,1
8,687,7,0.117816461806088,1
9,684,7,0.127185232722779,1
9,685,7,0.111559209642058,1
1,677,8,0.213929533862282,2
1,678,8,0.419842870395112,2
1,679,8,0.530597801189505,2
1,680,8,0.35005943242157,2
1,681,8,0.160168697473022,2
2,677,8,0.188174947868774,2
2,678,8,0.367265408051814,2
2,679,8,0.46682424808147,2
2,680,8,0.326226836635502,2
2,681,8,0.17904487348705,2
3,677,8,0.158500468707584,1
3,678,8,0.265366834369458,2
3,679,8,0.336183574643321,2
3,680,8,0.289956793030676,2
3,681,8,0.220850546048135,2
3,682,8,0.125472909421059,1
4,677,8,0.177193643681707,2
4,678,8,0.286482649003109,2
4,679,8,0.369873565015544,2
4,680,8,0.333369911868944,2
4,681,8,0.266579390545533,2
4,682,8,0.166678436607526,1
5,677,8,0.208561590501756,2
5,678,8,0.334181826482656,2
5,679,8,0.42640703055315,2
5,680,8,0.371974547668682,2
5,681,8,0.284324108165754,2
5,682,8,0.20278182944393,1
5,683,8,0.143390911597399,1
5,684,8,0.100538189872164,1
6,677,8,0.235483483485638,2
6,678,8,0.35451147736321,2
6,679,8,0.429629417435819,2
6,680,8,0.380596467377098,2
6,681,8,0.283679051285927,2
6,682,8,0.221937877226903,2
6,683,8,0.188067521901183,1
6,684,8,0.143036477797612,1
6,685,8,0.10856705549626,1
7,677,8,0.245114632143293,2
7,678,8,0.361703047872227,2
7,679,8,0.429532819029755,2
7,680,8,0.379163699949671,2
7,681,8,0.261978112613019,2
7,682,8,0.199689917945545,1
7,683,8,0.194557806282278,1
7,684,8,0.171568137250434,1
7,685,8,0.14319147314266,1
7,686,8,0.121411223126207,1
7,687,8,0.108494824550092,1
8,678,8,0.256213427355146,2
8,679,8,0.304093100503218,2
8,680,8,0.267216757024517,2
8,682,8,0.147447696078682,1
8,683,8,0.159143564861983,1
8,684,8,0.153960082192514,1
8,685,8,0.128296593680954,1
8,686,8,0.107749748887622,1
9,679,8,0.182207076992012,2
9,683,8,0.137894682329316,1
9,684,8,0.130839937776385,1
9,685,8,0.106425562077205,1
1,676,9,0.169974002120319,1
1,677,9,0.214327866125808,2
1,678,9,0.398686381601759,2
1,679,9,0.491280289195985,2
1,680,9,0.322029816714473,2
1,681,9,0.148739868600035,1
2,676,9,0.131301492542031,1
2,677,9,0.189795661721352,2
2,678,9,0.370472196274414,2
2,679,9,0.458354088521146,2
2,680,9,0.304551910253266,2
2,681,9,0.156292528482374,2
3,677,9,0.165637901408962,2
3,678,9,0.292236942416215,2
3,679,9,0.357452434789511,2
3,680,9,0.285415164722835,2
3,681,9,0.191159106611996,2
3,682,9,0.100622108920463,1
4,677,9,0.194752157743825,2
4,678,9,0.293052952767487,2
4,679,9,0.348126113578327,2
4,680,9,0.326394282587015,2
4,681,9,0.260025970805671,2
4,682,9,0.144476336515335,1
5,677,9,0.253208354207365,2
5,678,9,0.33753900234555,2
5,679,9,0.38301530540788,2
5,680,9,0.351664569399917,2
5,681,9,0.290965651620666,2
5,682,9,0.186381123746782,1
5,683,9,0.114852411391419,1
6,676,9,0.234040280641769,2
6,677,9,0.288242247573471,2
6,678,9,0.398517541356608,2
6,679,9,0.457911182432899,2
6,680,9,0.390297831790897,2
6,681,9,0.299809438304129,2
6,682,9,0.215791504085801,2
6,683,9,0.15818157850263,1
6,684,9,0.111239949077857,1
7,677,9,0.28055112779719,2
7,678,9,0.450051549199039,2
7,679,9,0.536564419380577,2
7,680,9,0.4332785017432,2
7,681,9,0.29114218226666,2
7,682,9,0.207268579225637,2
7,683,9,0.179264583664127,1
7,684,9,0.145489410664995,1
7,685,9,0.108496828847196,1
8,677,9,0.18367531176384,2
8,678,9,0.299288669630571,2
8,679,9,0.366793897158163,2
8,680,9,0.310673207894734,2
8,681,9,0.220495219028986,2
8,682,9,0.173304675511184,1
8,683,9,0.171310171141682,1
8,684,9,0.15173364579077,1
8,685,9,0.116091491825361,1
8,686,9,0.0997043369195015,1
8,699,9,0.105675628172843,1
9,678,9,0.171824414956734,2
9,679,9,0.21319585219313,2
9,680,9,0.197816444799519,2
9,682,9,0.157232119000176,1
9,683,9,0.162925161529509,1
9,684,9,0.140413920394907,1
9,685,9,0.10800127728122,1
10,685,9,0.0998237015263632,1
10,686,9,0.104695319923661,1
10,687,9,0.116096262923901,1
10,688,9,0.106190089846275,1
10,689,9,0.10420232819366,1
10,690,9,0.112318860030206,1
1,676,10,0.191371954250076,1
1,677,10,0.209448230540096,2
1,678,10,0.354339020668938,2
1,679,10,0.435375214372072,2
1,680,10,0.28694858272221,2
1,681,10,0.132055435040602,1
2,676,10,0.139520265316705,1
2,677,10,0.184583247458907,2
2,678,10,0.342944569848447,2
2,679,10,0.428858547341057,2
2,680,10,0.281681486006174,2
2,681,10,0.138634376889779,1
3,676,10,0.109902385762857,1
3,677,10,0.170060840470922,2
3,678,10,0.307758567760838,2
3,679,10,0.377231252539951,2
3,680,10,0.283828523921021,2
3,681,10,0.169120029946187,2
4,677,10,0.207052245853464,2
4,678,10,0.306357019439385,2
4,679,10,0.348573790765113,2
4,680,10,0.319149946778159,2
4,681,10,0.241303330485539,2
4,682,10,0.124706723281486,1
5,676,10,0.271967660092992,2
5,677,10,0.295755529553473,2
5,678,10,0.345432817559364,2
5,679,10,0.361361097357661,2
5,680,10,0.341972180751409,2
5,681,10,0.29408804150653,2
5,682,10,0.174362563129783,1
6,676,10,0.330441655586246,2
6,677,10,0.354227869323033,2
6,678,10,0.440586996845213,2
6,679,10,0.473651842593618,2
6,680,10,0.38490875616743,2
6,681,10,0.313517501557456,2
6,682,10,0.21531306529564,2
6,683,10,0.13726928716836,1
7,676,10,0.217285620433272,2
7,677,10,0.314998960333001,2
7,678,10,0.532267816393666,2
7,679,10,0.625554426495609,2
7,680,10,0.46743037366864,2
7,681,10,0.326946510010766,2
7,682,10,0.232694307993268,2
7,683,10,0.173066774159308,1
7,684,10,0.124312769971414,1
8,677,10,0.190661779500216,2
8,678,10,0.346996648588704,2
8,679,10,0.439926188804451,2
8,680,10,0.376886077721349,2
8,681,10,0.290604050280149,2
8,682,10,0.238263225710118,2
8,683,10,0.208230554692071,1
8,684,10,0.15624970841762,1
8,685,10,0.112925203475758,1
8,698,10,0.109731290683464,1
8,699,10,0.123258063085176,1
9,678,10,0.190990985299502,2
9,679,10,0.262523564641126,2
9,680,10,0.271754529239017,2
9,681,10,0.247262868279234,2
9,682,10,0.247154135161357,2
9,683,10,0.24000134344413,1
9,684,10,0.171978331902797,1
9,685,10,0.122776585170602,1
9,686,10,0.109715604880044,1
10,683,10,0.193976974053123,1
10,684,10,0.143267516610492,1
10,685,10,0.110015279975807,1
10,686,10,0.108227338030098,1
10,687,10,0.112302803867538,1
10,688,10,0.102514296101404,1
1,676,11,0.195128312024182,1
1,677,11,0.213702765073667,1
1,678,11,0.309271768502471,2
1,679,11,0.375416971515998,2
1,680,11,0.25458247415867,2
1,681,11,0.120366581297164,1
2,676,11,0.146152026930317,1
2,677,11,0.195761931339014,2
2,678,11,0.313707016562948,2
2,679,11,0.394943051758827,2
2,680,11,0.27021350798215,2
2,681,11,0.133357215116549,1
3,676,11,0.128819726117944,1
3,677,11,0.206415053661185,2
3,678,11,0.33686987211464,2
3,679,11,0.404963927273965,2
3,680,11,0.291850940937044,2
3,681,11,0.156087055350485,2
4,677,11,0.243062863698387,2
4,678,11,0.354437666943782,2
4,679,11,0.391717702002179,2
4,680,11,0.315019242948257,2
4,681,11,0.205177618058019,2
4,682,11,0.103649577909795,1
5,676,11,0.302764186165937,2
5,677,11,0.328702949634606,2
5,678,11,0.372721496913227,2
5,679,11,0.377530154238462,2
5,680,11,0.33663258076623,2
5,681,11,0.272918786212059,2
5,682,11,0.156434844469657,1
6,675,11,0.21358936978644,2
6,676,11,0.378616396125327,2
6,677,11,0.404780664804003,2
6,678,11,0.476635500262564,2
6,679,11,0.484334441154717,2
6,680,11,0.381076670820144,2
6,681,11,0.318910868991026,2
6,682,11,0.215082396842007,2
6,683,11,0.124375469613419,1
7,676,11,0.221362622172297,2
7,677,11,0.325810443912204,2
7,678,11,0.56020048512129,2
7,679,11,0.644205848911044,2
7,680,11,0.46883320735454,2
7,681,11,0.354779878888404,2
7,682,11,0.262167344402616,2
7,683,11,0.169168568793438,1
7,684,11,0.106210111031474,1
8,677,11,0.196449623103971,2
8,678,11,0.387092568576962,2
8,679,11,0.506477610554891,2
8,680,11,0.448131781147084,2
8,681,11,0.370949001126719,2
8,682,11,0.314140554740818,2
8,683,11,0.2399293630351,2
8,684,11,0.150389328865964,1
8,685,11,0.106945677175621,1
8,698,11,0.120719446516609,1
8,699,11,0.13651716378727,1
9,678,11,0.221515929114894,2
9,679,11,0.328761248537319,2
9,680,11,0.364235433691102,2
9,681,11,0.338382571781997,2
9,682,11,0.346215648079233,2
9,683,11,0.312073862996825,2
9,684,11,0.190162753093066,1
9,685,11,0.135214882637046,1
9,686,11,0.131809560071986,1
9,687,11,0.111336057302564,1
9,698,11,0.113052781343577,1
10,679,11,0.175166896271841,2
10,680,11,0.197765770940135,2
10,681,11,0.201917912034712,2
10,682,11,0.237345257636614,2
10,683,11,0.236171828825738,1
10,684,11,0.159017653610777,1
10,685,11,0.130267950597492,1
10,686,11,0.140783811246815,1
10,687,11,0.133434609306342,1
10,688,11,0.108468779580663,1
11,688,11,0.133036865260444,1
1,676,12,0.169436708888575,1
1,677,12,0.20525685315113,1
1,678,12,0.254020573822809,1
1,679,12,0.296812883419038,2
1,680,12,0.210435390435354,1
1,681,12,0.105148606963754,1
2,676,12,0.14069518645749,1
2,677,12,0.201818830043106,1
2,678,12,0.271362645583563,2
2,679,12,0.335079751585123,2
2,680,12,0.246086258735997,2
2,681,12,0.125192329612376,1
3,676,12,0.144552902843281,1
3,677,12,0.241876646600556,2
3,678,12,0.341433591262298,2
3,679,12,0.399613761157315,2
3,680,12,0.288263053048841,2
3,681,12,0.144476194907388,1
4,676,12,0.186379206593031,1
4,677,12,0.277562502957162,2
4,678,12,0.383583480065109,2
4,679,12,0.423030051363437,2
4,680,12,0.306001322060989,2
4,681,12,0.172452021380256,2
5,676,12,0.293475467311286,2
5,677,12,0.346822340098194,2
5,678,12,0.397437748077817,2
5,679,12,0.399635808425456,2
5,680,12,0.323392695173327,2
5,681,12,0.236947143231469,2
5,682,12,0.134811964454603,1
6,675,12,0.18618115153901,2
6,676,12,0.365769962768219,2
6,677,12,0.44368171871671,2
6,678,12,0.513370606152968,2
6,679,12,0.48726969069144,2
6,680,12,0.372158027997024,2
6,681,12,0.30469046818348,2
6,682,12,0.201880375035693,2
6,683,12,0.112828583283856,1
7,676,12,0.207555324426498,2
7,677,12,0.332282319260119,2
7,678,12,0.553495196304144,2
7,679,12,0.609964567906107,2
7,680,12,0.445812155822937,2
7,681,12,0.361649127922969,2
7,682,12,0.278606197102248,2
7,683,12,0.168766020970242,1
8,677,12,0.210172718585576,2
8,678,12,0.433229657894215,2
8,679,12,0.571045344604437,2
8,680,12,0.508588614693547,2
8,681,12,0.445067646592257,2
8,682,12,0.390553902531735,2
8,683,12,0.274385583118574,2
8,684,12,0.153823278022266,1
8,685,12,0.106080409044442,1
8,698,12,0.111857337943317,1
8,699,12,0.124623032984486,1
9,678,12,0.260823049263647,2
9,679,12,0.398062565914064,2
9,680,12,0.446745417554776,2
9,681,12,0.432056229083339,2
9,682,12,0.448030433428318,2
9,683,12,0.382949642891895,2
9,684,12,0.21714601678283,2
9,685,12,0.153620931158142,1
9,686,12,0.156205091021224,1
9,687,12,0.128443931303916,1
9,696,12,0.100450632588904,1
9,697,12,0.103142948245153,1
9,698,12,0.115937476843026,1
10,679,12,0.183999419677015,2
10,680,12,0.223281409861539,2
10,681,12,0.236422213462836,2
10,682,12,0.283884774954954,2
10,683,12,0.287655663883062,2
10,684,12,0.194366461266387,1
10,685,12,0.171040680324584,1
10,686,12,0.203130729640844,1
10,687,12,0.179287981654229,1
10,688,12,0.119142881664909,1
10,694,12,0.111734345994414,1
10,695,12,0.118796127373046,1
10,696,12,0.114845679567451,1
11,684,12,0.125714884724657,1
11,685,12,0.133852679539173,1
11,686,12,0.171309005599345,1
11,687,12,0.168632778784521,1
11,688,12,0.135023668336184,1
1,676,13,0.135934632262744,1
1,677,13,0.188376619371917,1
1,678,13,0.207117581581878,1
1,679,13,0.222513851214166,1
1,680,13,0.166933548771489,1
2,676,13,0.127781380396107,1
2,677,13,0.199731093179524,1
2,678,13,0.230948935575175,2
2,679,13,0.267132293330265,2
2,680,13,0.210572227284359,1
2,681,13,0.111571213638842,1
3,676,13,0.153747594020762,1
3,677,13,0.264185606228548,2
3,678,13,0.321630656589099,2
3,679,13,0.36401215063658,2
3,680,13,0.265988885404269,2
3,681,13,0.129157896789602,1
4,676,13,0.190716135166235,2
4,677,13,0.292646232956298,2
4,678,13,0.373973224026177,2
4,679,13,0.419262190666823,2
4,680,13,0.286072813817074,2
4,681,13,0.144589437693748,1
5,676,13,0.250763046383311,2
5,677,13,0.334783987047295,2
5,678,13,0.394597571938492,2
5,679,13,0.408742898748002,2
5,680,13,0.308421336527027,2
5,681,13,0.200269551953606,2
5,682,13,0.115558533975395,1
6,676,13,0.297484475449651,2
6,677,13,0.429955812861992,2
6,678,13,0.502482479995385,2
6,679,13,0.46249784206806,2
6,680,13,0.35911974854975,2
6,681,13,0.279540809556048,2
6,682,13,0.187599692814168,2
6,683,13,0.109234344823851,1
7,676,13,0.186167491818531,2
7,677,13,0.328006935679501,2
7,678,13,0.511863461874322,2
7,679,13,0.53994945933038,2
7,680,13,0.412309153298987,2
7,681,13,0.351706877497476,2
7,682,13,0.289539964590616,2
7,683,13,0.178413628828569,2
8,677,13,0.230977823596474,2
8,678,13,0.466887862728675,2
8,679,13,0.595693885384262,2
8,680,13,0.51624559606155,2
8,681,13,0.469487392500524,2
8,682,13,0.432055270506464,2
8,683,13,0.295157334011365,2
8,684,13,0.162296552957436,2
8,685,13,0.107343116219786,1
8,698,13,0.101353938793378,1
8,699,13,0.105634354902593,1
9,677,13,0.14688205947159,2
9,678,13,0.291511474008021,2
9,679,13,0.426008654717947,2
9,680,13,0.456946461950867,2
9,681,13,0.456505690874753,2
9,682,13,0.472693047859545,2
9,683,13,0.401423990015384,2
9,684,13,0.247481510950244,2
9,685,13,0.177140301057159,1
9,686,13,0.167284387907993,1
9,687,13,0.131131258003244,1
9,695,13,0.100233024745203,1
9,696,13,0.107357876125088,1
9,697,13,0.114113413977774,1
9,698,13,0.119894787187618,1
10,678,13,0.128408834318762,2
10,679,13,0.177201290510875,2
10,680,13,0.219090794976906,2
10,681,13,0.245926742829547,2
10,682,13,0.301674480330818,2
10,683,13,0.329988444796586,2
10,684,13,0.257451865106865,2
10,685,13,0.22863427742211,1
10,686,13,0.256518080514912,1
10,687,13,0.208411660364063,1
10,688,13,0.116470587193859,1
10,694,13,0.126627395445721,1
10,695,13,0.135534252130437,1
10,696,13,0.128280199837796,1
11,682,13,0.162613188328148,2
11,683,13,0.183384862970505,2
11,684,13,0.16657265547071,1
11,685,13,0.16978945428591,1
11,686,13,0.207994439778917,1
11,687,13,0.184837281223884,1
11,688,13,0.125302043092967,1
12,688,13,0.113637535023588,1
1,676,14,0.117260236681049,1
1,677,14,0.164101858216098,1
1,678,14,0.168147793350016,1
1,679,14,0.162653121769355,1
1,680,14,0.125850414423377,1
2,676,14,0.125938516352589,1
2,677,14,0.190538754872556,1
2,678,14,0.200723655962628,2
2,679,14,0.210985526418649,2
2,680,14,0.169221290521601,1
3,676,14,0.158336366882217,1
3,677,14,0.261549084103632,2
3,678,14,0.292345000173111,2
3,679,14,0.316834591478276,2
3,680,14,0.229211013913706,2
3,681,14,0.112124824463312,1
4,676,14,0.188587789500465,2
4,677,14,0.295515580332817,2
4,678,14,0.361558389907349,2
4,679,14,0.401350789599422,2
4,680,14,0.261734655872431,2
4,681,14,0.126425691263821,1
5,676,14,0.207642750994729,2
5,677,14,0.314261204712127,2
5,678,14,0.384596739394392,2
5,679,14,0.409493987301783,2
5,680,14,0.288473700317275,2
5,681,14,0.172011293875818,2
5,682,14,0.100887188105349,1
6,676,14,0.23202095130977,2
6,677,14,0.387875508026022,2
6,678,14,0.447628876860755,2
6,679,14,0.420001122722954,2
6,680,14,0.330743062656137,2
6,681,14,0.248589320816812,2
6,682,14,0.170220672272024,2
6,683,14,0.104897078570156,1
7,676,14,0.183620977883659,2
7,677,14,0.338716853681557,2
7,678,14,0.452186822761321,2
7,679,14,0.460772752265223,2
7,680,14,0.374281275776683,2
7,681,14,0.334483712840985,2
7,682,14,0.289290473172879,2
7,683,14,0.184302950866119,2
8,677,14,0.274880949504926,2
8,678,14,0.467661477839035,2
8,679,14,0.560730403846843,2
8,680,14,0.483834151168958,2
8,681,14,0.467037357149607,2
8,682,14,0.442154052178589,2
8,683,14,0.300574339079256,2
8,684,14,0.167630357909684,2
8,685,14,0.10914089447139,1
9,678,14,0.291439602528182,2
9,679,14,0.394638355027385,2
9,680,14,0.409181839813716,2
9,681,14,0.433786678202345,2
9,682,14,0.436713344118863,2
9,683,14,0.372682108117971,2
9,684,14,0.268632357211534,2
9,685,14,0.207623579457215,1
9,686,14,0.171414481734428,1
9,687,14,0.122096790771951,1
9,696,14,0.107357135406593,1
9,697,14,0.115899776450222,1
9,698,14,0.116303446244079,1
10,679,14,0.158595868892553,2
10,680,14,0.192441726043349,2
10,681,14,0.232442376561666,2
10,682,14,0.279198575825588,2
10,683,14,0.334852786723964,2
10,684,14,0.322955170187087,2
10,685,14,0.304660578013629,2
10,686,14,0.28707990775418,1
10,687,14,0.205885984583317,1
10,688,14,0.105863759777616,1
10,694,14,0.12729459762996,1
10,695,14,0.139948618465111,1
10,696,14,0.132432918257082,1
10,697,14,0.119480202688881,1
11,682,14,0.152830432023267,1
11,683,14,0.190071317930627,2
11,684,14,0.198785914594253,2
11,685,14,0.212854598825383,1
11,686,14,0.229638887773674,1
11,687,14,0.185399954956997,1
11,688,14,0.112878636246853,1
12,688,14,0.103255123525447,1
12,689,14,0.100487962622461,1
12,690,14,0.104334873232563,1
1,677,15,0.141358467190874,1
1,678,15,0.144248783436549,1
1,679,15,0.130454600765276,1
1,680,15,0.101212897277623,1
2,676,15,0.132968795409351,1
2,677,15,0.173650906942933,1
2,678,15,0.180361783827547,1
2,679,15,0.178273131958765,1
2,680,15,0.138653167175127,1
3,676,15,0.174541718969266,1
3,677,15,0.245603745994115,1
3,678,15,0.270247341388695,2
3,679,15,0.276042047531447,2
3,680,15,0.194456523921026,1
4,676,15,0.188073077289894,1
4,677,15,0.287253802313766,2
4,678,15,0.35259972649967,2
4,679,15,0.364737379400555,2
4,680,15,0.234876007176506,2
4,681,15,0.114910688508293,1
5,676,15,0.180923716842165,2
5,677,15,0.289515499094448,2
5,678,15,0.370502740019408,2
5,679,15,0.385771126782144,2
5,680,15,0.264855934680552,2
5,681,15,0.152024301549567,1
6,676,15,0.192674377008247,2
6,677,15,0.324360901389452,2
6,678,15,0.365505700552261,2
6,679,15,0.359669644888826,2
6,680,15,0.296220439338184,2
6,681,15,0.220681030442004,2
6,682,15,0.158372062977917,2
6,683,15,0.101839773875568,1
7,676,15,0.195040122951618,2
7,677,15,0.347867886039518,2
7,678,15,0.386013298158285,2
7,679,15,0.380996498935995,2
7,680,15,0.347774468365814,2
7,681,15,0.326867383846846,2
7,682,15,0.292743964225942,2
7,683,15,0.191761702893397,2
7,684,15,0.102290305007144,1
8,676,15,0.160096662599398,2
8,677,15,0.315266446852995,2
8,678,15,0.426838869435649,2
8,679,15,0.466108670443765,2
8,680,15,0.434176993277457,2
8,681,15,0.459156199507719,2
8,682,15,0.451754025301945,2
8,683,15,0.316723135130639,2
8,684,15,0.182276290599605,2
8,685,15,0.11454710465651,1
9,677,15,0.167433392147568,2
9,678,15,0.2603642395136,2
9,679,15,0.32133434740532,2
9,680,15,0.34146836145988,2
9,681,15,0.40132307801338,2
9,682,15,0.413890282283766,2
9,683,15,0.362529253995721,2
9,684,15,0.301629688647717,2
9,685,15,0.245434230387984,2
9,686,15,0.173237008698096,1
9,687,15,0.113535348550055,1
9,697,15,0.106664432898877,1
9,698,15,0.106396205660387,1
10,679,15,0.136723246922625,2
10,680,15,0.163439318201209,2
10,681,15,0.215275245080726,2
10,682,15,0.258902322634816,2
10,683,15,0.326387463619695,2
10,684,15,0.384157014038506,2
10,685,15,0.388022867434822,2
10,686,15,0.300000260459906,2
10,687,15,0.188161985295114,1
10,688,15,0.100428563534925,1
10,694,15,0.120191052799722,1
10,695,15,0.129373925160042,1
10,696,15,0.123420705259392,1
10,697,15,0.111651646953048,1
11,683,15,0.180888772357878,2
11,684,15,0.223818713986202,2
11,685,15,0.257503475757286,2
11,686,15,0.237878422452042,1
11,687,15,0.179092911260025,1
11,688,15,0.110613943913435,1
12,689,15,0.102647418465016,1
12,690,15,0.111149679457756,1
1,677,16,0.122065397379272,1
1,678,16,0.125483562695882,1
1,679,16,0.111582313523346,1
2,676,16,0.142312654220193,1
2,677,16,0.150469914681036,1
2,678,16,0.160784811866954,1
2,679,16,0.156583685315446,1
2,680,16,0.116362355150258,1
3,676,16,0.18615113065413,1
3,677,16,0.215736037342039,1
3,678,16,0.250129034923393,2
3,679,16,0.244952610865463,2
3,680,16,0.166502200070346,1
4,676,16,0.178834280683212,1
4,677,16,0.263034333615003,2
4,678,16,0.342327311698015,2
4,679,16,0.327841145451683,2
4,680,16,0.213489830292234,2
4,681,16,0.111930266036303,1
5,676,16,0.160311917572586,1
5,677,16,0.258656883382963,2
5,678,16,0.350537696925026,2
5,679,16,0.349500582103041,2
5,680,16,0.246640337955986,2
5,681,16,0.145636998825094,1
6,677,16,0.264280222123347,2
6,678,16,0.295047838389155,2
6,679,16,0.303867987438297,2
6,680,16,0.271417306251316,2
6,681,16,0.209926102898466,2
6,682,16,0.152656297819462,2
7,676,16,0.213288420219148,2
7,677,16,0.340745725210637,2
7,678,16,0.32794157816525,2
7,679,16,0.317292137649715,2
7,680,16,0.339180499887659,2
7,681,16,0.337455061511413,2
7,682,16,0.290131254022052,2
7,683,16,0.189486934609864,2
7,684,16,0.101172048831215,1
8,677,16,0.321140584161401,2
8,678,16,0.358415652048715,2
8,679,16,0.35731566329802,2
8,680,16,0.392384000074137,2
8,681,16,0.457196955517156,2
8,682,16,0.446694874410421,2
8,683,16,0.323606065671521,2
8,684,16,0.192419417345151,2
8,685,16,0.118755529463777,1
9,678,16,0.209073797340947,2
9,679,16,0.236097430188681,2
9,680,16,0.27668577547515,2
9,681,16,0.36370549317971,2
9,682,16,0.396911532944738,2
9,683,16,0.364589017843204,2
9,684,16,0.327862343072138,2
9,685,16,0.279009845110267,2
9,686,16,0.180568923576049,1
9,687,16,0.108870989723368,1
10,680,16,0.129538996455204,1
10,681,16,0.181441729607205,2
10,682,16,0.22690330544299,2
10,683,16,0.299998713665402,2
10,684,16,0.41453366165406,2
10,685,16,0.452886148163814,2
10,686,16,0.304190265341073,2
10,687,16,0.164648203463567,1
10,694,16,0.102548499867195,1
10,695,16,0.107541737705597,1
11,683,16,0.167715823752488,2
11,684,16,0.245966327697345,2
11,685,16,0.296040314028906,2
11,686,16,0.229837748903704,1
11,687,16,0.155025442353575,1
1,676,17,0.126822378696572,1
1,677,17,0.116951999750918,1
1,678,17,0.116700983324515,1
1,679,17,0.104039413696469,1
2,676,17,0.153109258071984,1
2,677,17,0.137943439034948,1
2,678,17,0.149117417174029,1
2,679,17,0.141947469109311,1
2,680,17,0.101565370351982,1
3,676,17,0.186794401095234,1
3,677,17,0.194452885686066,1
3,678,17,0.235933469971262,2
3,679,17,0.218251909495646,1
3,680,17,0.144914907221803,1
4,676,17,0.164726294800179,1
4,677,17,0.234107816739829,2
4,678,17,0.317476075480657,2
4,679,17,0.286271674947104,2
4,680,17,0.193618902018375,1
4,681,17,0.113721138177235,1
5,677,17,0.219885564136045,1
5,678,17,0.305605495168842,2
5,679,17,0.29613486456619,2
5,680,17,0.230006480219664,1
5,681,17,0.150325093322373,1
6,678,17,0.241331978862619,2
6,679,17,0.255063614392753,2
6,680,17,0.257607677420841,2
6,681,17,0.219419782917811,2
6,682,17,0.16021613613545,2
6,683,17,0.105467290203246,1
7,677,17,0.289428290384598,2
7,678,17,0.272280853301286,2
7,679,17,0.265921480021237,2
7,680,17,0.337522423322768,2
7,681,17,0.36806612474475,2
7,682,17,0.300737166433095,2
7,683,17,0.201980372032498,2
7,684,17,0.113956534157732,1
8,678,17,0.279886267590545,2
8,679,17,0.266270380218151,2
8,680,17,0.358780172691535,2
8,681,17,0.460132379340584,2
8,682,17,0.44169890244934,2
8,683,17,0.345360728221144,2
8,684,17,0.220529008863854,2
8,685,17,0.130296304865758,1
9,680,17,0.225519599722928,2
9,681,17,0.322537949601942,2
9,682,17,0.372910728702824,2
9,683,17,0.371817602491125,2
9,684,17,0.345601222087753,2
9,685,17,0.292894134007855,2
9,686,17,0.184351173818718,1
9,687,17,0.105600096672206,1
10,681,17,0.15215070298213,2
10,682,17,0.201140331901821,2
10,683,17,0.275249740172011,2
10,684,17,0.405857364493786,2
10,685,17,0.4570857170279,2
10,686,17,0.292435694617055,2
10,687,17,0.143612647857417,1
11,684,17,0.258667013797672,2
11,685,17,0.301118723601297,2
11,686,17,0.205405040421777,1
1,676,18,0.157395251355749,1
1,677,18,0.122364865509573,1
1,678,18,0.115491814846263,1
1,679,18,0.103013638403206,1
2,676,18,0.16968758370703,1
2,677,18,0.138776899842524,1
2,678,18,0.145881207177096,1
2,679,18,0.133537220603718,1
3,676,18,0.17607628072514,1
3,677,18,0.180088850848032,1
3,678,18,0.222268259461446,1
3,679,18,0.197972714616095,1
3,680,18,0.137140162506037,1
4,677,18,0.20879679040971,1
4,678,18,0.288163796770531,2
4,679,18,0.259430629208352,1
4,680,18,0.186370535829474,1
4,681,18,0.126817564026356,1
5,677,18,0.188319714762842,1
5,678,18,0.25944361356785,1
5,679,18,0.256855238145099,1
5,680,18,0.219621432635116,1
5,681,18,0.164714780984751,1
5,682,18,0.112158864835318,1
6,678,18,0.209092620305052,1
6,679,18,0.224922929189486,1
6,680,18,0.243633957657919,2
6,681,18,0.231070587695035,2
6,682,18,0.16900458679018,2
6,683,18,0.115118372902747,1
7,679,18,0.229516778151214,2
7,680,18,0.31525150176807,2
7,681,18,0.377254127669939,2
7,682,18,0.297662531104311,2
7,683,18,0.212693688625295,2
7,684,18,0.129801014729839,1
8,679,18,0.207209191031021,2
8,680,18,0.312537400273737,2
8,681,18,0.43344472768778,2
8,682,18,0.410150394603251,2
8,683,18,0.355224331771154,2
8,684,18,0.245315257926207,2
8,685,18,0.138106702105549,1
9,680,18,0.185458406360576,2
9,681,18,0.275477445751664,2
9,682,18,0.32659137906416,2
9,683,18,0.356377804754345,2
9,684,18,0.338913558013617,2
9,685,18,0.278009003708692,2
9,686,18,0.177850726344156,1
9,687,18,0.102137891283909,1
10,682,18,0.18693805691156,2
10,683,18,0.264049749742257,2
10,684,18,0.379853570298437,2
10,685,18,0.411174067563139,2
10,686,18,0.264445816278623,2
10,687,18,0.125405438680513,1
11,684,18,0.265940912988808,2
11,685,18,0.277547928231483,2
11,686,18,0.175521395429142,1
1,675,19,0.243386819110695,1
1,676,19,0.19184660230441,1
1,677,19,0.136735795565361,1
1,678,19,0.121714285919792,1
1,679,19,0.103617509156135,1
2,676,19,0.183885730280974,1
2,677,19,0.15047237648074,1
2,678,19,0.153454988429457,1
2,679,19,0.135119820132567,1
2,680,19,0.107297747211976,1
3,676,19,0.16250400860059,1
3,677,19,0.171505241535886,1
3,678,19,0.206553764092266,1
3,679,19,0.189753702197202,1
3,680,19,0.15506290310216,1
3,681,19,0.122387991176699,1
4,677,19,0.187412312820809,1
4,678,19,0.242631308031783,1
4,679,19,0.233218497043405,1
4,680,19,0.194734097284053,1
4,681,19,0.154988667858889,1
4,682,19,0.106929675477548,1
5,678,19,0.216182102376807,1
5,679,19,0.226916420517517,1
5,680,19,0.214285732314954,1
5,681,19,0.184698265791071,1
5,682,19,0.136535028174499,1
6,678,19,0.182867536459365,1
6,679,19,0.20900395194405,1
6,680,19,0.234712961964286,1
6,681,19,0.237525622590111,2
6,682,19,0.182037441563772,1
6,683,19,0.129063335359399,1
7,679,19,0.212170371008682,1
7,680,19,0.290807551793691,2
7,681,19,0.356473422797696,2
7,682,19,0.28859040705189,2
7,683,19,0.21761674338631,2
7,684,19,0.141951837169847,1
8,680,19,0.264095129642986,2
8,681,19,0.371848799811261,2
8,682,19,0.363560551998938,2
8,683,19,0.339730788371821,2
8,684,19,0.250897072859203,2
8,685,19,0.137326289813707,1
9,681,19,0.237315672468496,2
9,682,19,0.282821756771487,2
9,683,19,0.324100517052673,2
9,684,19,0.313476348109316,2
9,685,19,0.241175600116853,2
9,686,19,0.159758589964011,1
10,682,19,0.188123729363439,1
10,683,19,0.262510776354171,2
10,684,19,0.348041998457485,2
10,685,19,0.339174247352129,2
10,686,19,0.222305578602084,2
10,687,19,0.110616885001576,1
11,684,19,0.261008621032446,2
11,685,19,0.241172985816283,2
11,686,19,0.150189215050244,1
1,675,20,0.280682801402569,1
1,676,20,0.217783644691871,1
1,677,20,0.157344926069775,1
1,678,20,0.13579095466058,1
1,679,20,0.104163070113433,1
2,676,20,0.18990051696005,1
2,677,20,0.166365385007179,1
2,678,20,0.168815529287288,1
2,679,20,0.137633666203233,1
2,680,20,0.112981824868938,1
3,676,20,0.154001518856549,1
3,677,20,0.167130209531873,1
3,678,20,0.192678908462568,1
3,679,20,0.182747376669413,1
3,680,20,0.173930865855231,1
3,681,20,0.146346367498945,1
4,677,20,0.181988412535164,1
4,678,20,0.20186301172274,1
4,679,20,0.207856513638008,1
4,680,20,0.208161275726964,1
4,681,20,0.182114639681022,1
4,682,20,0.125748260628602,1
5,678,20,0.194250647751133,1
5,679,20,0.206216562890403,1
5,680,20,0.210731067829829,1
5,681,20,0.197339836019757,1
5,682,20,0.155360247113248,1
5,683,20,0.109996805585112,1
6,679,20,0.20066348347784,1
6,680,20,0.222606680670241,1
6,681,20,0.224894019382349,1
6,682,20,0.184444297383608,1
6,683,20,0.136717549925966,1
7,680,20,0.260088038658372,1
7,681,20,0.29986730149008,2
7,682,20,0.261945324926702,2
7,683,20,0.210454017326916,1
7,684,20,0.14665830802155,1
8,680,20,0.217523783215206,1
8,681,20,0.288493176856522,2
8,682,20,0.307150416090726,2
8,683,20,0.300565363313965,2
8,684,20,0.232505729778814,1
8,685,20,0.132030915079838,1
9,681,20,0.202586955122269,1
9,682,20,0.246203401187375,2
9,683,20,0.287620610469585,2
9,684,20,0.28154634845254,2
9,685,20,0.20765455891897,1
9,686,20,0.138216557194087,1
10,683,20,0.258395300825089,1
10,684,20,0.315051660275326,2
10,685,20,0.270884141435888,2
10,686,20,0.173444028624488,1
1,676,21,0.232930640764803,1
1,677,21,0.180391532389451,1
1,678,21,0.153303587747693,1
1,679,21,0.106415028624492,1
2,676,21,0.198166347144984,1
2,677,21,0.183524248762566,1
2,678,21,0.182207349314989,1
2,679,21,0.138860818890824,1
2,680,21,0.116552992126411,1
3,676,21,0.164316307113277,1
3,677,21,0.171384798530039,1
3,678,21,0.182227326928512,1
3,679,21,0.175729003573163,1
3,680,21,0.185039116120813,1
3,681,21,0.157296180257062,1
3,682,21,0.102238215068285,1
4,677,21,0.18230079966745,1
4,678,21,0.168411761457159,1
4,679,21,0.185993858689003,1
4,680,21,0.218585298175845,1
4,681,21,0.195587230703419,1
4,682,21,0.136504887467509,1
5,678,21,0.181069747314841,1
5,679,21,0.189225526338695,1
5,680,21,0.210815531524081,1
5,681,21,0.199799544282784,1
5,682,21,0.163704430064852,1
5,683,21,0.117714471405099,1
6,679,21,0.190289263454819,1
6,680,21,0.206164734381601,1
6,681,21,0.200623724323337,1
6,682,21,0.179785232515575,1
6,683,21,0.141171163447947,1
6,684,21,0.103708127349646,1
7,680,21,0.216486363391487,1
7,681,21,0.229829753501128,1
7,682,21,0.228334155716666,1
7,683,21,0.197131410906808,1
7,684,21,0.145518309579213,1
8,681,21,0.214278739060929,1
8,682,21,0.254661055676639,2
8,683,21,0.252824705598707,1
8,684,21,0.202286354128387,1
8,685,21,0.132161706358775,1
9,682,21,0.219365340108439,1
9,683,21,0.253927265078296,1
9,684,21,0.249949693904286,1
9,685,21,0.187226370692762,1
9,686,21,0.126175535378023,1
10,684,21,0.272287389052711,1
10,685,21,0.212085057666745,1
1,676,22,0.240592262516318,1
1,677,22,0.20451280142305,1
1,678,22,0.166451798533939,1
1,679,22,0.111098047021497,1
2,676,22,0.208049710450136,1
2,677,22,0.200995238220182,1
2,678,22,0.18477263174937,1
2,679,22,0.138054710202962,1
2,680,22,0.119403854219316,1
2,681,22,0.102840277596653,1
3,677,22,0.180688320861668,1
3,678,22,0.171606937828062,1
3,679,22,0.163330356332032,1
3,680,22,0.176817598330541,1
3,681,22,0.156562803589643,1
3,682,22,0.113523159373647,1
4,677,22,0.181737603074223,1
4,678,22,0.149826938348746,1
4,679,22,0.167890077778402,1
4,680,22,0.212257971863617,1
4,681,22,0.199699089783379,1
4,682,22,0.152095650169292,1
4,683,22,0.105111549253174,1
5,678,22,0.166883299735949,1
5,679,22,0.172719486114412,1
5,680,22,0.210751546517628,1
5,681,22,0.201929153527163,1
5,682,22,0.168630295198979,1
5,683,22,0.125072300537453,1
6,679,22,0.176142847353405,1
6,680,22,0.195914345062249,1
6,681,22,0.18767437466712,1
6,682,22,0.176241199519435,1
6,683,22,0.149536609377521,1
6,684,22,0.112938558194503,1
7,680,22,0.17754937373886,1
7,681,22,0.183353763686641,1
7,682,22,0.20245881082266,1
7,683,22,0.189818231849607,1
7,684,22,0.141824019657808,1
7,685,22,0.100067659341227,1
8,681,22,0.170792027661613,1
8,682,22,0.213784418394805,1
8,683,22,0.213268355462273,1
8,684,22,0.172469874874566,1
8,685,22,0.133959898541303,1
8,686,22,0.11139432352652,1
9,683,22,0.21855919874182,1
9,684,22,0.214500627821814,1
9,685,22,0.173389389742574,1
9,686,22,0.123773897266408,1
10,685,22,0.1691041916419,1
1,677,23,0.222970046663643,1
1,678,23,0.169223708749628,1
1,679,23,0.126753241339413,1
1,680,23,0.109685758281869,1
2,677,23,0.215047081998473,1
2,678,23,0.17347141342296,1
2,679,23,0.138995204833044,1
2,680,23,0.130155916925145,1
2,681,23,0.112580235622618,1
3,677,23,0.188339343802956,1
3,678,23,0.159973169576219,1
3,679,23,0.153039554283035,1
3,680,23,0.166697488322931,1
3,681,23,0.156891922245577,1
3,682,23,0.129602687352842,1
4,678,23,0.144837807140824,1
4,679,23,0.163502464452895,1
4,680,23,0.206307475192727,1
4,681,23,0.204952679279802,1
4,682,23,0.170800774675604,1
4,683,23,0.118846964626215,1
5,679,23,0.173660013423252,1
5,680,23,0.22629092732029,1
5,681,23,0.217306774482052,1
5,682,23,0.180411194108322,1
5,683,23,0.134328852602173,1
5,684,23,0.104396908406507,1
6,679,23,0.174080708849572,1
6,680,23,0.210057427930436,1
6,681,23,0.200484730676361,1
6,682,23,0.185145757798234,1
6,683,23,0.160551746971133,1
6,684,23,0.123073798466662,1
7,680,23,0.16136472909091,1
7,681,23,0.170683588652551,1
7,682,23,0.19486886447844,1
7,683,23,0.187310812601176,1
7,684,23,0.139570329172622,1
7,685,23,0.106847325009591,1
8,682,23,0.189113351058401,1
8,683,23,0.186947119820203,1
8,684,23,0.153848712988229,1
8,685,23,0.135271405993955,1
8,686,23,0.122050909796946,1
9,684,23,0.178385361703655,1
9,685,23,0.154856406035882,1
9,686,23,0.119848622996719,1
1,678,24,0.168063296977007,1
1,679,24,0.156664957384418,1
1,680,24,0.14970285710794,1
1,681,24,0.112477362895186,1
2,678,24,0.162081221733814,1
2,679,24,0.143500091324957,1
2,680,24,0.141255431069656,1
2,681,24,0.120867394143037,1
2,682,24,0.107160300359505,1
3,678,24,0.145742551210611,1
3,679,24,0.138997318059339,1
3,680,24,0.148785194036169,1
3,681,24,0.150682903927064,1
3,682,24,0.140130965929873,1
3,683,24,0.110815855060796,1
4,679,24,0.154183474176226,1
4,680,24,0.183872680563962,1
4,681,24,0.193815737065463,1
4,682,24,0.176965404349021,1
4,683,24,0.13305794305879,1
4,684,24,0.103670318027651,1
5,679,24,0.172225405092507,1
5,680,24,0.215910650834282,1
5,681,24,0.211826873699612,1
5,682,24,0.182523919328186,1
5,683,24,0.143662864214201,1
5,684,24,0.117704253847037,1
5,685,24,0.100716147490552,1
5,694,24,0.10070445938842,1
6,679,24,0.177625907388049,1
6,680,24,0.210863721797922,1
6,681,24,0.202653859431025,1
6,682,24,0.183672806392461,1
6,683,24,0.160305142176942,1
6,684,24,0.130826027518769,1
6,685,24,0.108248045469197,1
6,694,24,0.10831122439964,1
7,680,24,0.158953559675134,1
7,681,24,0.168659096076926,1
7,682,24,0.18242927075463,1
7,683,24,0.173979818633405,1
7,684,24,0.140045859553399,1
7,685,24,0.119450290733192,1
7,686,24,0.11049710646379,1
8,684,24,0.146782618013656,1
8,685,24,0.135832663647592,1
8,686,24,0.123917814512791,1
8,690,24,0.101104665234022,1
8,691,24,0.124623621202114,1
9,690,24,0.126857203358749,1
1,679,25,0.179510436846904,1
1,680,25,0.181731677326264,1
1,681,25,0.135321132169381,1
1,682,25,0.116052756605247,1
1,683,25,0.104612130700938,1
1,684,25,0.1093058786232,1
1,685,25,0.103874919726016,1
2,679,25,0.151436105707139,1
2,680,25,0.150594780212014,1
2,681,25,0.132084508241525,1
2,682,25,0.128267672980898,1
2,683,25,0.113533420503385,1
2,684,25,0.1099744315294,1
2,685,25,0.108800861110576,1
2,690,25,0.103624023121723,1
3,679,25,0.139120266436565,1
3,680,25,0.144823831525693,1
3,681,25,0.153751744222917,1
3,682,25,0.15586141942545,1
3,683,25,0.132165039592002,1
3,684,25,0.110319018130373,1
3,685,25,0.106366239240103,1
3,686,25,0.102461563480322,1
3,689,25,0.105146744274598,1
3,690,25,0.115450639612284,1
3,691,25,0.106161800935523,1
4,679,25,0.154991064301078,1
4,680,25,0.173201116529853,1
4,681,25,0.185911660721912,1
4,682,25,0.18339243354924,1
4,683,25,0.153130324977411,1
4,684,25,0.122489382467142,1
4,685,25,0.110942528816335,1
4,686,25,0.105543693137406,1
4,688,25,0.105340409482245,1
4,689,25,0.119992681851048,1
4,690,25,0.125006790522334,1
4,691,25,0.111086968922832,1
4,694,25,0.105626588251316,1
5,678,25,0.168593411775103,1
5,679,25,0.177451871220516,1
5,680,25,0.200148793053107,1
5,681,25,0.199990562511104,1
5,682,25,0.185527968541578,1
5,683,25,0.157594275879564,1
5,684,25,0.131839461134757,1
5,685,25,0.117642055279308,1
5,686,25,0.106388155793215,1
5,688,25,0.108143593268503,1
5,689,25,0.129333806539211,1
5,690,25,0.130504490334488,1
5,691,25,0.102816367639356,1
5,693,25,0.13546053974728,1
5,694,25,0.168796412214369,1
5,695,25,0.115171258024696,1
6,678,25,0.192048970954372,1
6,679,25,0.190744369612392,1
6,680,25,0.2066072701106,1
6,681,25,0.199668001392433,1
6,682,25,0.182761994966767,1
6,683,25,0.157221585547463,1
6,684,25,0.134655226242508,1
6,685,25,0.121468955597129,1
6,686,25,0.108850358534703,1
6,689,25,0.125911033517846,1
6,690,25,0.13293173769877,1
6,693,25,0.152442709462888,1
6,694,25,0.177173557138994,1
7,679,25,0.158935597251634,1
7,680,25,0.17121810418994,1
7,681,25,0.17528696891844,1
7,682,25,0.17363411006177,1
7,684,25,0.136875115999908,1
7,685,25,0.12641455870056,1
7,686,25,0.115473667243139,1
7,689,25,0.103399520060268,1
7,690,25,0.114666676228834,1
7,691,25,0.100485086891834,1
8,690,25,0.125597894774146,1
1,680,26,0.186787843557971,1
1,681,26,0.150207166580825,1
2,680,26,0.154992240736335,1
2,681,26,0.142008033739184,1
2,682,26,0.143177846100938,1
2,683,26,0.132887349053674,1
3,680,26,0.144820846865875,1
3,681,26,0.154581348937153,1
3,682,26,0.163188454275673,1
3,683,26,0.14963451493387,1
4,679,26,0.153802919156576,1
4,680,26,0.162916370943842,1
4,681,26,0.177881945450131,1
4,682,26,0.185214840690798,1
4,683,26,0.169242150461566,1
4,684,26,0.143783895437676,1
5,679,26,0.180037131268421,1
5,680,26,0.182456056442555,1
5,681,26,0.190096611288643,1
5,682,26,0.188253137241658,1
5,683,26,0.168638323280313,1
5,684,26,0.146518965801165,1
5,685,26,0.135482510764988,1
5,694,26,0.219632020552425,1
6,679,26,0.194955354255633,1
6,680,26,0.194380839919522,1
6,681,26,0.19380769809121,1
6,682,26,0.180021554394191,1
6,683,26,0.155790419379134,1
6,684,26,0.143027142565993,1
6,685,26,0.138081419640452,1
7,680,26,0.183150458245642,1
7,681,26,0.182763476403757,1
7,682,26,0.166286269736178,1
7,683,26,0.146319963063187,1
7,684,26,0.142753828334311,1
7,685,26,0.140716035504536,1
2,681,27,0.157164931475525,1
2,682,27,0.160128872961005,1
2,683,27,0.158609387005084,1
3,680,27,0.151290162377815,1
3,681,27,0.164422262536798,1
3,682,27,0.178709186400934,1
3,683,27,0.175548497011719,1
3,684,27,0.16765883200006,1
4,680,27,0.158405275488076,1
4,681,27,0.179029590721634,1
4,682,27,0.196657786786863,1
4,683,27,0.189910778089787,1
4,684,27,0.175467573516156,1
5,679,27,0.174676671343276,1
5,680,27,0.170838605783437,1
5,681,27,0.188646219118206,1
5,682,27,0.19644554915225,1
5,683,27,0.181822382663127,1
5,684,27,0.166965704668501,1
6,679,27,0.190089443747913,1
6,680,27,0.184518685127745,1
6,681,27,0.190726635940192,1
6,682,27,0.180155580870083,1
6,683,27,0.162195847920893,1
6,684,27,0.156191442193664,1
6,685,27,0.154418881049642,1
7,680,27,0.192236111303513,1
7,681,27,0.189924808169513,1
7,682,27,0.16311583118442,1
7,683,27,0.145843648392239,1
7,684,27,0.149420403717181,1
7,685,27,0.151421759732761,1
7,686,27,0.132371591122875,1
8,684,27,0.139199599565948,1
8,685,27,0.13647758981239,1
2,681,28,0.172567115962853,1
2,682,28,0.172391227999083,1
2,683,28,0.181777035441155,1
3,680,28,0.149846153457937,1
3,681,28,0.172636601893422,1
3,682,28,0.186260560918826,1
3,683,28,0.194649546446449,1
3,684,28,0.203409719083347,1
4,680,28,0.147986612355364,1
4,681,28,0.172816345950533,1
4,682,28,0.19652184315722,1
4,683,28,0.201674433508286,1
4,684,28,0.205550526248501,1
4,685,28,0.201221092003598,1
5,680,28,0.155691587924667,1
5,681,28,0.177424170527392,1
5,682,28,0.193043145889493,1
5,683,28,0.187134042310963,1
5,684,28,0.182857460509251,1
5,685,28,0.177330306244008,1
6,680,28,0.168500277317294,1
6,681,28,0.17631789656241,1
6,682,28,0.170519715578483,1
6,683,28,0.162472931102563,1
6,684,28,0.161389662982597,1
6,685,28,0.158223864814351,1
7,681,28,0.183506525983285,1
7,682,28,0.152630808388904,1
7,683,28,0.139081128178447,1
7,684,28,0.143915917616465,1
7,685,28,0.144337299296684,1
7,686,28,0.128815129306109,1
8,684,28,0.130826648415154,1
8,685,28,0.128904679993553,1
2,682,29,0.182136000695264,1
2,683,29,0.19756549373063,1
2,684,29,0.208720278546359,1
3,681,29,0.197922890404397,1
3,682,29,0.204842726154993,1
3,683,29,0.216003741720414,1
3,684,29,0.239535932585143,1
3,685,29,0.227225953705013,1
4,680,29,0.148844712945814,1
4,681,29,0.186622815834485,1
4,682,29,0.212422324226122,1
4,683,29,0.224950226844605,1
4,684,29,0.239545910498985,1
4,685,29,0.226142979693862,1
5,681,29,0.181059834758513,1
5,682,29,0.204547179475546,1
5,683,29,0.209065954439237,1
5,684,29,0.208523770286842,1
5,685,29,0.19711182543837,1
6,681,29,0.172354693148616,1
6,682,29,0.175799589688555,1
6,683,29,0.180011315050291,1
6,684,29,0.18144179496472,1
6,685,29,0.171561797571552,1
7,683,29,0.146918180391134,1
7,684,29,0.157460706906272,1
7,685,29,0.15648177116489,1
8,684,29,0.139513555278575,1
2,683,30,0.199929714665335,1
2,684,30,0.214315295697234,1
3,682,30,0.20865500817546,1
3,683,30,0.224519194038115,1
3,684,30,0.262327601027561,1
3,685,30,0.23968468628758,1
4,681,30,0.188215622028477,1
4,682,30,0.212531710919141,1
4,683,30,0.23373111781352,1
4,684,30,0.255596169204715,1
4,685,30,0.234793656708549,1
5,682,30,0.202105074169691,1
5,683,30,0.222036000641633,1
5,684,30,0.224874455699749,1
5,685,30,0.206889418499625,1
6,683,30,0.191466657288226,1
6,684,30,0.196441671273071,1
7,684,30,0.168931331909623,1
3,683,31,0.223044989946652,1
3,684,31,0.261481068717134,1
4,682,31,0.198184211532213,1
4,683,31,0.223564952544201,1
4,684,31,0.245874369674793,1
4,685,31,0.219180095127212,1
5,683,31,0.211459542683679,1
5,684,31,0.219870292263549,1
4,683,32,0.207980017554106,1
4,684,32,0.224975759846839,1
