x,y,z,signal,mito.p
5,708,32,0.193867260572532,1
7,703,32,0.182217261871317,1
8,702,32,0.204772880758096,1
8,703,32,0.229893063146599,1
8,704,32,0.1818370118534,1
9,702,32,0.186654536014736,1
9,703,32,0.193891704282862,1
14,696,32,0.149907099339976,1
14,697,32,0.14281580904366,1
15,696,32,0.18082314252065,1
15,697,32,0.15354523626372,1
16,697,32,0.144870496790869,1
3,704,33,0.101082258499552,1
3,705,33,0.113479053944446,1
3,706,33,0.111326373497536,1
3,707,33,0.107719575501876,1
4,704,33,0.124834279363467,1
4,705,33,0.125311476360857,1
4,706,33,0.120719468302447,1
4,707,33,0.132683586110075,1
4,708,33,0.128463462307758,1
4,709,33,0.106289792734266,1
4,710,33,0.111785270390936,1
5,704,33,0.104931445729734,1
5,705,33,0.103409639582058,1
5,706,33,0.112036471996962,1
5,707,33,0.14451824157489,1
5,708,33,0.15909789085244,1
5,709,33,0.126978692084824,1
5,710,33,0.114730312661877,1
6,703,33,0.109463215945842,1
6,704,33,0.108230115724454,1
6,705,33,0.105178344632739,1
6,706,33,0.110163271173911,1
6,707,33,0.134514173833834,1
6,708,33,0.153099487123604,1
6,709,33,0.125461210426008,1
7,702,33,0.132405794888667,1
7,703,33,0.164619206513077,1
7,704,33,0.147080637385725,1
7,705,33,0.125600846755207,1
7,706,33,0.114347742452205,1
7,707,33,0.12107008958057,1
7,708,33,0.122865493175823,1
8,696,33,0.117866111731082,1
8,700,33,0.100119945352628,1
8,701,33,0.12771449787319,1
8,702,33,0.163170644353039,1
8,703,33,0.196257907728833,1
8,704,33,0.159353188196027,1
8,705,33,0.122854327933805,1
8,706,33,0.112643665090199,1
8,707,33,0.122475178100711,1
8,708,33,0.112095642333198,1
9,695,33,0.148663454772956,1
9,696,33,0.137658197056915,1
9,700,33,0.118759102341223,1
9,701,33,0.146709777064023,1
9,702,33,0.157350601280595,1
9,703,33,0.156983912946886,1
9,704,33,0.118202964359535,1
9,706,33,0.0998948105018692,1
9,707,33,0.122058393232328,1
9,708,33,0.114123174033235,1
10,695,33,0.144703464770279,1
10,696,33,0.121746398245128,1
10,700,33,0.121969354512079,1
10,701,33,0.138823815644838,1
10,702,33,0.126396498240789,1
10,703,33,0.107218512118865,1
10,707,33,0.116127699888256,1
11,695,33,0.12891073645654,1
11,696,33,0.100635430960451,1
11,699,33,0.112345362502235,1
11,700,33,0.13382212490126,1
11,701,33,0.123789147353067,1
11,707,33,0.117192275759146,1
12,694,33,0.160243575398517,1
12,695,33,0.130092716208864,1
12,696,33,0.109045603215611,1
12,697,33,0.109596447238644,1
12,698,33,0.103259535157659,1
12,699,33,0.10552682000581,1
12,700,33,0.108734359839825,1
12,706,33,0.110093305954905,1
13,694,33,0.168579654018353,1
13,695,33,0.139822739892662,1
13,696,33,0.139507858281916,1
13,697,33,0.145298229042889,1
13,698,33,0.112515346503885,1
13,706,33,0.114742970233804,1
14,695,33,0.173038267390175,1
14,696,33,0.184779701253829,1
14,697,33,0.168740553325522,1
14,698,33,0.116123310041882,1
14,705,33,0.110089918257083,1
15,695,33,0.225077325423987,1
15,696,33,0.22476620187031,1
15,697,33,0.183878192380997,1
15,698,33,0.127288127236049,1
15,703,33,0.102943237467438,1
15,704,33,0.122152115907765,1
16,696,33,0.205890995326077,1
16,697,33,0.171432106477438,1
16,698,33,0.134521559232944,1
16,699,33,0.114176887017031,1
16,702,33,0.106462728716977,1
16,703,33,0.140242193526211,1
17,697,33,0.141023771360391,1
17,698,33,0.129776777984971,1
17,699,33,0.13116768392452,1
17,700,33,0.119925940936078,1
17,702,33,0.136420053414011,1
18,699,33,0.120281660100313,1
18,700,33,0.121053521450707,1
4,704,34,0.105452878871353,1
4,705,34,0.10227613331947,1
4,710,34,0.102726217841365,1
4,711,34,0.115152663811891,1
5,708,34,0.108413138550197,1
5,709,34,0.10971053967269,1
5,710,34,0.120190551725446,1
5,711,34,0.120355056588817,1
6,708,34,0.109767313566736,1
6,709,34,0.114038045870923,1
6,710,34,0.111438537884911,1
7,702,34,0.104477276363198,1
7,703,34,0.132711929485422,1
7,704,34,0.122233997980203,1
8,694,34,0.121566033291631,1
8,695,34,0.144318737762636,1
8,696,34,0.129802398130558,1
8,702,34,0.116178068745906,1
8,703,34,0.142817551910707,1
8,704,34,0.123855452551275,1
8,708,34,0.102688920486565,1
9,694,34,0.165480596765077,1
9,695,34,0.203660931582292,1
9,696,34,0.165839191659939,1
9,701,34,0.108112276126258,1
9,702,34,0.118751553548327,1
9,703,34,0.113743893485113,1
9,707,34,0.108722192449255,1
9,708,34,0.119812578327609,1
10,694,34,0.192249313521391,1
10,695,34,0.2065890789358,1
10,696,34,0.146166601655995,1
10,701,34,0.106030138223063,1
10,707,34,0.117446538275423,1
10,708,34,0.127998389129261,1
11,694,34,0.189543447073854,1
11,695,34,0.16304340416571,1
11,696,34,0.112225387891907,1
11,707,34,0.134558573371849,1
11,708,34,0.125179421503311,1
12,693,34,0.165160704411572,1
12,694,34,0.211984929954911,1
12,695,34,0.16383021060103,1
12,696,34,0.124179658500721,1
12,697,34,0.113632720353371,1
12,706,34,0.123419659539164,1
12,707,34,0.149822864397025,1
13,693,34,0.178577545474312,1
13,694,34,0.205219250794597,1
13,695,34,0.171020092707595,1
13,696,34,0.157087384784866,1
13,697,34,0.148419812852744,1
13,698,34,0.105459251228993,1
13,706,34,0.132849899198008,1
13,707,34,0.130963866516326,1
14,694,34,0.184417130443517,1
14,695,34,0.193097675842217,1
14,696,34,0.201294335991236,1
14,697,34,0.176469308137093,1
14,698,34,0.112734849715499,1
14,705,34,0.108122983865676,1
14,706,34,0.123968673551797,1
15,694,34,0.214712168309609,1
15,695,34,0.254056411526457,1
15,696,34,0.252555977285942,1
15,697,34,0.208628930527274,1
15,698,34,0.130723220148851,1
15,704,34,0.111028855199743,1
15,705,34,0.114061988506977,1
16,695,34,0.234085137682384,1
16,696,34,0.216160229395371,1
16,697,34,0.193889983201653,1
16,698,34,0.142304756853887,1
16,699,34,0.114711794699506,1
16,703,34,0.117428074777647,1
16,704,34,0.141192633391379,1
17,696,34,0.157107449541741,1
17,697,34,0.149132002792627,1
17,698,34,0.136619742405888,1
17,699,34,0.14579485900785,1
17,700,34,0.124985549330203,1
17,702,34,0.104974570796221,1
17,703,34,0.141998611364213,1
18,697,34,0.141463888861362,1
18,698,34,0.124635026088351,1
18,699,34,0.128713934088209,1
18,700,34,0.124206455081564,1
18,701,34,0.113525218135346,1
18,702,34,0.132650351814078,1
19,699,34,0.1248996259848,1
19,700,34,0.130107846473413,1
3,712,35,0.104797081573351,1
4,711,35,0.106163195229161,1
4,712,35,0.107748049592252,1
5,710,35,0.115712941102814,1
5,711,35,0.12216615688041,1
5,712,35,0.100013924571593,1
6,710,35,0.115147162887775,1
6,711,35,0.104262674965153,1
8,693,35,0.110289487426851,1
8,694,35,0.127466248248224,1
8,695,35,0.151903945687072,1
8,696,35,0.128827710627602,1
9,693,35,0.135793263959417,1
9,694,35,0.206110378715582,1
9,695,35,0.249660465117884,1
9,696,35,0.176059995811172,1
9,708,35,0.116494551615751,1
9,709,35,0.103402984008523,1
10,693,35,0.154296509997125,1
10,694,35,0.243092013149743,1
10,695,35,0.252089651421755,1
10,696,35,0.155480417796119,1
10,707,35,0.112809760319751,1
10,708,35,0.132270755371304,1
10,709,35,0.112330036165143,1
11,693,35,0.15917554647229,1
11,694,35,0.220344591744474,1
11,695,35,0.184811693757055,1
11,696,35,0.117866689055791,1
11,707,35,0.137824510144848,1
11,708,35,0.129552296709354,1
12,692,35,0.152756850355139,1
12,693,35,0.180888815929554,1
12,694,35,0.237535034072163,1
12,695,35,0.193758048166217,1
12,696,35,0.136977629261011,1
12,697,35,0.110554250717085,1
12,706,35,0.122883128811752,1
12,707,35,0.16183499819179,1
12,708,35,0.12238172774825,1
13,692,35,0.181596343700087,1
13,693,35,0.186631464812205,1
13,694,35,0.221966307745603,1
13,695,35,0.20509165114094,1
13,696,35,0.170424326286433,1
13,697,35,0.137653175421237,1
13,706,35,0.135813143536669,1
13,707,35,0.14610879293464,1
14,693,35,0.187707510926846,1
14,694,35,0.196601688253797,1
14,695,35,0.204553540940267,1
14,696,35,0.202870911735855,1
14,697,35,0.167579836551168,1
14,698,35,0.106912366629191,1
14,706,35,0.12885468149515,1
14,707,35,0.112997369064411,1
15,693,35,0.2167461377248,1
15,694,35,0.232367258991952,1
15,695,35,0.244721985983506,1
15,696,35,0.251078047816166,1
15,697,35,0.212888846162851,1
15,698,35,0.130899445793112,1
15,705,35,0.108215334033314,1
15,706,35,0.110538935272912,1
16,694,35,0.265798106820168,1
16,695,35,0.225299301328224,1
16,696,35,0.214682953500738,1
16,697,35,0.200673504963358,1
16,698,35,0.14329572927081,1
16,699,35,0.108034576934731,1
16,704,35,0.123079658857107,1
16,705,35,0.119855409285282,1
17,693,35,0.28173839061525,2
17,695,35,0.198750708679909,1
17,696,35,0.157910192317619,1
17,697,35,0.152106946126338,1
17,698,35,0.137328511969191,1
17,699,35,0.14350142026108,1
17,700,35,0.122005845790869,1
17,703,35,0.119876018688109,1
17,704,35,0.143587855573678,1
18,693,35,0.265683752956065,2
18,696,35,0.161858243681025,1
18,697,35,0.139194632394865,1
18,698,35,0.124440903378105,1
18,699,35,0.137511295150715,1
18,700,35,0.131007732301308,1
18,701,35,0.109074229806853,1
18,702,35,0.118788023041279,1
18,703,35,0.155203999082511,1
19,693,35,0.281868865999534,2
19,694,35,0.284828123529826,2
19,697,35,0.157963110118325,1
19,698,35,0.129029218736959,1
19,699,35,0.130535861941329,1
19,700,35,0.129453922757486,1
19,701,35,0.120041286055814,1
20,693,35,0.311718339905134,2
20,694,35,0.301399107337437,2
4,712,36,0.104055175750322,1
5,710,36,0.102880439789161,1
5,711,36,0.112464901395802,1
5,712,36,0.100833191905658,1
6,710,36,0.109754786709838,1
6,711,36,0.101945936264551,1
8,692,36,0.112606443985833,1
8,693,36,0.111190647726273,1
8,694,36,0.132993663943524,1
8,695,36,0.152123209254468,1
8,696,36,0.119617083109563,1
9,692,36,0.119334248466638,1
9,693,36,0.145729087562675,1
9,694,36,0.233547223554254,1
9,695,36,0.26193955167961,1
9,696,36,0.164555112577434,1
9,708,36,0.102359758258955,1
9,709,36,0.107010228613864,1
10,692,36,0.118586449574408,1
10,693,36,0.167967951256633,1
10,694,36,0.269429849600434,1
10,695,36,0.259811707088115,1
10,696,36,0.146226414674455,1
10,708,36,0.121638754419155,1
10,709,36,0.117528246061157,1
11,692,36,0.132729717622218,1
11,693,36,0.16795309331506,1
11,694,36,0.226089626176394,1
11,695,36,0.189297942464486,1
11,696,36,0.116651616615417,1
11,707,36,0.124901205458061,1
11,708,36,0.12484242726691,1
12,692,36,0.179019874237849,1
12,693,36,0.186227446444938,1
12,694,36,0.224608058471659,1
12,695,36,0.203199180744104,1
12,696,36,0.141607272354711,1
12,697,36,0.101089741934934,1
12,706,36,0.108111219513111,1
12,707,36,0.149736930158703,1
12,708,36,0.124418071819793,1
13,692,36,0.206046655139186,1
13,693,36,0.184022240342408,1
13,694,36,0.210630940117995,1
13,695,36,0.226888970361531,1
13,696,36,0.182883320299056,1
13,697,36,0.126191155823929,1
13,706,36,0.12125019310401,1
13,707,36,0.145874758569023,1
14,692,36,0.209938390111146,1
14,693,36,0.191231980240386,1
14,694,36,0.194499899524651,1
14,695,36,0.205931037696475,1
14,696,36,0.199036037801295,1
14,697,36,0.155325237271448,1
14,706,36,0.118869632790741,1
14,707,36,0.117473454678376,1
15,693,36,0.240005744183423,1
15,694,36,0.233558007544105,1
15,695,36,0.214248347816802,1
15,696,36,0.226514123231459,1
15,697,36,0.199338773807309,1
15,698,36,0.12357091861298,1
15,706,36,0.109188692600146,1
16,693,36,0.284861782649665,2
16,694,36,0.273544061550906,1
16,695,36,0.19871192988812,1
16,696,36,0.191148976197287,1
16,697,36,0.185669598274962,1
16,698,36,0.132556236993556,1
16,704,36,0.101092606772642,1
16,705,36,0.114558237219771,1
16,706,36,0.101383120923491,1
17,692,36,0.233446093693868,2
17,693,36,0.32138983593492,2
17,694,36,0.313053615707135,2
17,695,36,0.194818473834952,1
17,696,36,0.145555999079098,1
17,697,36,0.141932567596061,1
17,698,36,0.126546319449292,1
17,699,36,0.124790348220971,1
17,700,36,0.106584871018194,1
17,703,36,0.10022089003339,1
17,704,36,0.126341499892546,1
17,705,36,0.123105006679718,1
18,692,36,0.252515107053696,2
18,693,36,0.288618968285618,2
18,694,36,0.292616037784714,2
18,695,36,0.210975526718969,1
18,696,36,0.152280720863815,1
18,697,36,0.128737288506635,1
18,698,36,0.117759971127937,1
18,699,36,0.133699459739929,1
18,700,36,0.125834597904928,1
18,701,36,0.102527585462635,1
18,702,36,0.105073217071065,1
18,703,36,0.130833500061232,1
18,704,36,0.139842968043323,1
19,692,36,0.267100616721691,2
19,693,36,0.298346628205984,2
19,694,36,0.321423538626435,2
19,695,36,0.264996475122032,2
19,696,36,0.195451831719728,1
19,697,36,0.153903188476358,1
19,698,36,0.126356183547414,1
19,699,36,0.128273228369609,1
19,700,36,0.122132770083546,1
19,701,36,0.10891769856022,1
19,702,36,0.117253156283672,1
20,692,36,0.248008052870894,2
20,693,36,0.316119449557333,2
20,694,36,0.335035853121384,2
20,695,36,0.261488410544568,2
20,697,36,0.171503836349329,1
20,698,36,0.147836388108857,1
20,699,36,0.132496434868015,1
21,693,36,0.233251088657179,2
21,694,36,0.224342815892987,2
5,712,37,0.101737750795821,1
8,691,37,0.119903261878633,1
8,692,37,0.111808908025257,1
8,693,37,0.111291069546921,1
8,694,37,0.134011530977562,1
8,695,37,0.142419568220589,1
8,696,37,0.10410568621592,1
9,691,37,0.116423311925217,1
9,692,37,0.120466142577207,1
9,693,37,0.150791168649422,1
9,694,37,0.227626377408996,1
9,695,37,0.228851329726941,1
9,696,37,0.136354652328083,1
9,709,37,0.103584950221119,1
10,692,37,0.121117637172188,1
10,693,37,0.176917192289341,1
10,694,37,0.264516140963957,1
10,695,37,0.238531104375198,1
10,696,37,0.133165249204273,1
10,708,37,0.105440940232084,1
10,709,37,0.114327307336082,1
11,691,37,0.121693197228527,1
11,692,37,0.139542290799008,1
11,693,37,0.173355850444844,1
11,694,37,0.215776559000875,1
11,695,37,0.186731984669124,1
11,696,37,0.118581253652025,1
11,707,37,0.100768226536492,1
11,708,37,0.114636491950169,1
11,709,37,0.102618094726955,1
12,691,37,0.176250153498888,1
12,692,37,0.192508586780428,1
12,693,37,0.183593876301083,1
12,694,37,0.190003651117539,1
12,695,37,0.184294269209643,1
12,696,37,0.134924989382582,1
12,707,37,0.121502026499341,1
12,708,37,0.121224028312471,1
13,692,37,0.213506801460102,1
13,693,37,0.174888037544367,1
13,694,37,0.182387474624266,1
13,695,37,0.211876087907844,1
13,696,37,0.177848885440838,1
13,697,37,0.111199884921621,1
13,707,37,0.128498297862854,1
13,708,37,0.117945423074626,1
14,692,37,0.208861385419629,1
14,693,37,0.183429970548258,1
14,694,37,0.180822369123398,1
14,695,37,0.190397103353334,1
14,696,37,0.18403938579698,1
14,697,37,0.137252675466821,1
14,706,37,0.102866050243107,1
14,707,37,0.112439913039519,1
15,692,37,0.209946668729618,1
15,693,37,0.238167063020816,1
15,694,37,0.213198858638785,1
15,695,37,0.172947267944499,1
15,696,37,0.181473733003351,1
15,697,37,0.165453821970072,1
15,698,37,0.106090996961751,1
15,706,37,0.103255493884695,1
16,693,37,0.287605011809516,2
16,694,37,0.249156667612193,1
16,695,37,0.16120214138129,1
16,696,37,0.151597397159393,1
16,697,37,0.150980749012428,1
16,698,37,0.110887160108845,1
16,705,37,0.106558640869141,1
16,706,37,0.101423555438975,1
17,692,37,0.233200327654443,2
17,693,37,0.327396888641475,2
17,694,37,0.298735156842373,2
17,695,37,0.175979595175724,1
17,696,37,0.130332360427787,1
17,697,37,0.123206038503832,1
17,698,37,0.108721996376713,1
17,704,37,0.104565389185329,1
17,705,37,0.115403941668351,1
18,692,37,0.240852603281421,2
18,693,37,0.302865664599732,2
18,694,37,0.308156878238527,2
18,695,37,0.204194532114482,2
18,696,37,0.138113325000326,1
18,697,37,0.113202537194566,1
18,698,37,0.106440823056783,1
18,699,37,0.116273697682176,1
18,700,37,0.109169934993556,1
18,703,37,0.105448663311684,1
18,704,37,0.118854393597002,1
19,692,37,0.251090748959769,2
19,693,37,0.310486132903107,2
19,694,37,0.352719156464046,2
19,695,37,0.256324644058565,2
19,696,37,0.169117884041135,1
19,697,37,0.134608005438461,1
19,698,37,0.116787407744194,1
19,699,37,0.116159997393216,1
19,700,37,0.110855363678161,1
19,703,37,0.116736309060969,1
20,693,37,0.296268651397864,2
20,694,37,0.341694759889248,2
20,695,37,0.253855306455105,2
20,696,37,0.182942447063616,1
20,697,37,0.175045255044899,1
20,698,37,0.148267911096704,1
20,699,37,0.120619558448994,1
20,700,37,0.109835862706267,1
21,694,37,0.224187177865716,2
21,698,37,0.160538958684177,1
4,713,38,0.114081998799257,1
5,712,38,0.0999739693445471,1
5,713,38,0.121026801120297,1
8,691,38,0.127796183873085,1
8,692,38,0.108381091582375,1
8,693,38,0.107633042153007,1
8,694,38,0.124218578900458,1
8,695,38,0.123848873228174,1
9,691,38,0.12805014138763,1
9,692,38,0.120304753088682,1
9,693,38,0.148635699615237,1
9,694,38,0.192647972572489,1
9,695,38,0.178356277609813,1
9,696,38,0.107695611079984,1
10,691,38,0.118085211904692,1
10,692,38,0.129875206401434,1
10,693,38,0.186333521690569,1
10,694,38,0.235340481244456,1
10,695,38,0.207878059831873,1
10,696,38,0.120633163704878,1
10,709,38,0.105274529107879,1
11,691,38,0.120045904653488,1
11,692,38,0.14989432194594,1
11,693,38,0.187129423713289,1
11,694,38,0.200130013660679,1
11,695,38,0.180463360297614,1
11,696,38,0.117816472699007,1
11,708,38,0.105944955596155,1
11,709,38,0.100544573122722,1
12,691,38,0.167859032959132,1
12,692,38,0.188984378896944,1
12,693,38,0.179895861001365,1
12,694,38,0.161326614767183,1
12,695,38,0.156172107262365,1
12,696,38,0.118635119136687,1
12,707,38,0.099818451139385,1
12,708,38,0.116823474199142,1
13,691,38,0.241466179625216,1
13,692,38,0.203552655967015,1
13,693,38,0.16207684278036,1
13,694,38,0.155814035227617,1
13,695,38,0.17619600479833,1
13,696,38,0.15271931335612,1
13,707,38,0.11149403730743,1
13,708,38,0.114248595103085,1
14,691,38,0.27495377956164,1
14,692,38,0.198191945504733,1
14,693,38,0.167110079417483,1
14,694,38,0.162022770330235,1
14,695,38,0.16518688009603,1
14,696,38,0.157474530020536,1
14,697,38,0.117045254030837,1
14,707,38,0.106901484603068,1
15,692,38,0.198353596423316,1
15,693,38,0.21532875109906,1
15,694,38,0.183330746948705,1
15,695,38,0.139995991770025,1
15,696,38,0.137850903687686,1
15,697,38,0.127889449045923,1
15,706,38,0.0997551414939132,1
16,692,38,0.211295321036203,1
16,693,38,0.267100202790768,1
16,694,38,0.212455220841629,1
16,695,38,0.131483774649279,1
16,696,38,0.115339967554818,1
16,697,38,0.115061991153786,1
16,705,38,0.100136905627577,1
16,706,38,0.104806209839508,1
17,693,38,0.306332967874141,2
17,694,38,0.261194345302112,2
17,695,38,0.153919658569949,1
17,696,38,0.112481229881446,1
17,697,38,0.102196593224626,1
17,705,38,0.107199656476003,1
18,692,38,0.23016991757697,2
18,693,38,0.310631052298041,2
18,694,38,0.311876526875461,2
18,695,38,0.191848388743133,2
18,696,38,0.120631704053726,1
19,692,38,0.236409817320967,2
19,693,38,0.321963870982593,2
19,694,38,0.368640486579994,2
19,695,38,0.24034198680841,2
19,696,38,0.142345834051594,1
19,697,38,0.112708281885956,1
19,698,38,0.103818320118674,1
19,699,38,0.100663066296061,1
20,693,38,0.271460071851474,2
20,694,38,0.318049500524864,2
20,695,38,0.232352575337084,2
20,696,38,0.168808481568668,1
20,697,38,0.159173117351344,1
20,698,38,0.133081831230249,1
20,699,38,0.105555773384624,1
21,694,38,0.209534633173936,2
21,696,38,0.169127524274488,1
21,697,38,0.184879665571877,1
21,699,38,0.108830675029994,1
3,714,39,0.106124906618728,1
4,713,39,0.112960126174206,1
4,714,39,0.12525823177258,1
5,691,39,0.125027715819814,1
5,713,39,0.130609421823619,1
6,691,39,0.124631409639229,1
6,712,39,0.103375326887076,1
6,713,39,0.106839079069876,1
7,691,39,0.130657448703675,1
7,692,39,0.100432354270752,1
8,691,39,0.142288417475324,1
8,692,39,0.110411705978501,1
8,693,39,0.107090073710441,1
8,694,39,0.108671780019929,1
8,695,39,0.0999083721860764,1
9,690,39,0.19489627106275,1
9,691,39,0.144070749567727,1
9,692,39,0.121426789107518,1
9,693,39,0.137955562853842,1
9,694,39,0.143855549059134,1
9,695,39,0.126332317161793,1
10,691,39,0.12690699489169,1
10,692,39,0.139285207016699,1
10,693,39,0.184543401161051,1
10,694,39,0.186187687290435,1
10,695,39,0.164851487118728,1
10,696,39,0.106479656313168,1
11,691,39,0.118409189102838,1
11,692,39,0.156731807228579,1
11,693,39,0.194261562456013,1
11,694,39,0.175814937811485,1
11,695,39,0.158881317836048,1
11,696,39,0.109758958697831,1
11,708,39,0.100999243563534,1
11,709,39,0.101494141554367,1
12,690,39,0.135581124361075,1
12,691,39,0.15060006327775,1
12,692,39,0.168623585160849,1
12,693,39,0.167704102971598,1
12,694,39,0.14035954294305,1
12,695,39,0.128392353332252,1
12,708,39,0.112400164777935,1
13,691,39,0.209351348918136,1
13,692,39,0.179929117083201,1
13,693,39,0.147371412966632,1
13,694,39,0.134057281237538,1
13,695,39,0.135217355329669,1
13,696,39,0.116717453418107,1
13,707,39,0.100640387238615,1
13,708,39,0.106126344484042,1
14,691,39,0.237119926713312,1
14,692,39,0.183308906646026,1
14,693,39,0.150722325401077,1
14,694,39,0.139583945321424,1
14,695,39,0.1335442465365,1
14,696,39,0.121914802773517,1
14,707,39,0.104837603232187,1
15,691,39,0.221874676510622,1
15,692,39,0.189090214498356,1
15,693,39,0.182338739704473,1
15,694,39,0.149675439630711,1
15,695,39,0.114300488969401,1
15,696,39,0.102541582863604,1
16,692,39,0.207823704165854,1
16,693,39,0.227230376230144,1
16,694,39,0.172473534895364,1
16,695,39,0.110853936705767,1
17,692,39,0.223369555362426,1
17,693,39,0.263823373098727,1
17,694,39,0.213316349663572,1
17,695,39,0.13306011074968,1
17,705,39,0.099755097922237,1
18,688,39,0.280612890648158,1
18,689,39,0.289793442816723,3
18,693,39,0.301455140512989,2
18,694,39,0.287571287332163,2
18,695,39,0.17285390473539,1
18,696,39,0.108712628466336,1
19,688,39,0.243654044200632,1
19,689,39,0.280934493189953,3
19,692,39,0.223743291414756,2
19,693,39,0.311552549677315,2
19,694,39,0.336583736917246,2
19,695,39,0.209734627167547,2
19,696,39,0.123390749732026,1
20,685,39,0.275738701521966,1
20,693,39,0.245793064927064,2
20,694,39,0.267385510126315,2
20,695,39,0.19795275878841,1
20,696,39,0.150141928888683,1
20,697,39,0.129842941575232,1
20,698,39,0.108241825612424,1
21,696,39,0.158457779357858,1
21,698,39,0.122212484465095,1
4,713,40,0.100185183044771,1
4,714,40,0.117989561182584,1
5,691,40,0.122341260554009,1
5,713,40,0.123966701933451,1
5,714,40,0.117032868781886,1
6,691,40,0.128068310776592,1
6,712,40,0.102005520531711,1
6,713,40,0.112107025433597,1
7,691,40,0.134599301996147,1
8,690,40,0.191774033677753,1
8,691,40,0.143735040695773,1
8,692,40,0.108209255784488,1
8,693,40,0.105280291462053,1
9,690,40,0.200582156944272,1
9,691,40,0.144818287029901,1
9,692,40,0.114532388322885,1
9,693,40,0.121655976124161,1
9,694,40,0.107176759560177,1
10,691,40,0.125886524450001,1
10,692,40,0.133342781998819,1
10,693,40,0.162803640124677,1
10,694,40,0.139166637592927,1
10,695,40,0.120118113813817,1
11,691,40,0.112630974839515,1
11,692,40,0.145767060278455,1
11,693,40,0.176569784422336,1
11,694,40,0.144068941343166,1
11,695,40,0.1247790958356,1
12,691,40,0.127299183548877,1
12,692,40,0.138533388637341,1
12,693,40,0.143597920630873,1
12,694,40,0.119338540276741,1
12,695,40,0.103155028492371,1
12,708,40,0.100287336839546,1
13,691,40,0.163098282691843,1
13,692,40,0.146609605780513,1
13,693,40,0.126464110589282,1
13,694,40,0.110353243682003,1
13,695,40,0.0998876429611396,1
14,691,40,0.186926750061594,1
14,692,40,0.159251818691422,1
14,693,40,0.13003477677248,1
14,694,40,0.110678299279134,1
14,707,40,0.100932273897264,1
15,691,40,0.199411603864023,1
15,692,40,0.171041279435132,1
15,693,40,0.145803856558979,1
15,694,40,0.113673688621888,1
15,707,40,0.104667412265076,1
16,692,40,0.189367548217164,1
16,693,40,0.174754675536536,1
16,694,40,0.129854978250773,1
16,706,40,0.107363257227094,1
17,688,40,0.231689414425809,1
17,689,40,0.256698576183437,3
17,692,40,0.205807511994539,1
17,693,40,0.209127238001767,1
17,694,40,0.163551014193065,1
17,695,40,0.110256024379554,1
18,687,40,0.208748447635002,1
18,688,40,0.293965735811527,3
18,689,40,0.327173736301982,3
18,690,40,0.265111940063877,3
18,693,40,0.26226553317486,1
18,694,40,0.233678962517147,1
18,695,40,0.143496322374968,1
19,684,40,0.277575639817526,1
19,685,40,0.269115632457749,1
19,687,40,0.206249895222671,1
19,688,40,0.281474128399292,3
19,689,40,0.329311275591424,3
19,690,40,0.281819717148817,3
19,693,40,0.270728198406883,2
19,694,40,0.267308410045336,2
19,695,40,0.167404547697944,1
19,696,40,0.103935179354156,1
20,684,40,0.265313459066153,1
20,685,40,0.307598071491674,1
20,686,40,0.255737297863822,1
20,688,40,0.242574795567793,1
20,689,40,0.270831550422753,3
20,695,40,0.157538820028722,1
20,696,40,0.123514035789743,1
20,697,40,0.100285212720333,1
21,685,40,0.25677245196038,1
21,697,40,0.114414265508794,1
32,699,40,0.244660876707681,1
4,691,41,0.109185664368653,1
4,714,41,0.105489272113873,1
5,691,41,0.119837882578543,1
5,713,41,0.106404898209783,1
5,714,41,0.107527903698414,1
6,691,41,0.129698479682897,1
6,713,41,0.109507561019262,1
7,691,41,0.135268867943818,1
8,691,41,0.13909338271237,1
8,692,41,0.104405873278878,1
8,693,41,0.102112303817079,1
9,691,41,0.139524655163079,1
9,692,41,0.108966771160504,1
9,693,41,0.108710645955071,1
10,691,41,0.124911412123203,1
10,692,41,0.12274557303009,1
10,693,41,0.134704592951606,1
10,694,41,0.10720776080777,1
11,691,41,0.11104366956964,1
11,692,41,0.128858995091091,1
11,693,41,0.145822483450541,1
11,694,41,0.1149801962247,1
12,691,41,0.109755189747842,1
12,692,41,0.114445604436877,1
12,693,41,0.12006531583522,1
12,694,41,0.100273786048258,1
13,691,41,0.123226484512873,1
13,692,41,0.117960117622414,1
13,693,41,0.10908199645813,1
14,691,41,0.143757044392238,1
14,692,41,0.134455929395717,1
14,693,41,0.111844408048414,1
15,691,41,0.17151553534438,1
15,692,41,0.147786934256406,1
15,693,41,0.116218710226852,1
16,689,41,0.239490618041928,1
16,692,41,0.16105603465818,1
16,693,41,0.130254857308804,1
16,706,41,0.101676848485458,1
17,688,41,0.226574252144571,1
17,689,41,0.264306626559104,3
17,690,41,0.242054397253482,1
17,692,41,0.176585535583271,1
17,693,41,0.161841544836134,1
17,694,41,0.126103032108879,1
18,684,41,0.286486200094717,1
18,685,41,0.259757264278744,1
18,687,41,0.214584220082542,1
18,688,41,0.282489914885793,3
18,689,41,0.333716677053726,3
18,690,41,0.254126474781735,3
18,693,41,0.213580699022882,1
18,694,41,0.176436585808291,1
18,695,41,0.114956820020436,1
19,683,41,0.220225139994259,1
19,684,41,0.283116519160762,1
19,685,41,0.271555537393958,1
19,686,41,0.217640903880745,1
19,687,41,0.221324148382241,3
19,688,41,0.302321650436939,3
19,689,41,0.354164472534209,3
19,690,41,0.266428610760155,3
19,694,41,0.195898027469525,1
19,695,41,0.127558347878723,1
20,683,41,0.197288726443612,1
20,684,41,0.288408800305623,1
20,685,41,0.31190951063432,1
20,686,41,0.24297027388653,1
20,687,41,0.222850856343486,1
20,688,41,0.280300002441597,3
20,689,41,0.304558729220586,3
20,690,41,0.242526757794818,1
20,695,41,0.122785441113784,1
21,684,41,0.240913799700599,1
21,685,41,0.264028312477582,1
21,688,41,0.21664653287308,1
21,689,41,0.217717306814905,1
26,696,41,0.23357125333366,1
30,701,41,0.259189808554172,1
31,699,41,0.197415236805365,1
31,701,41,0.236713402974666,1
32,698,41,0.234473905962991,1
32,699,41,0.238591211502472,1
32,700,41,0.222420128538729,1
33,699,41,0.231959057743774,1
33,700,41,0.227690013842039,1
1,716,42,0.100030155020966,1
5,691,42,0.113193572322195,1
6,690,42,0.166726626881368,1
6,691,42,0.123260590242394,1
7,690,42,0.162348795397161,1
7,691,42,0.126894184818897,1
8,690,42,0.161609166194212,1
8,691,42,0.126151723456997,1
9,690,42,0.167078991026537,1
9,691,42,0.125487898077661,1
10,690,42,0.150047051563827,1
10,691,42,0.117191643969842,1
10,692,42,0.104026658088271,1
10,693,42,0.100889867763433,1
11,690,42,0.124725415530562,1
11,691,42,0.105954072969393,1
11,692,42,0.105336978212747,1
11,693,42,0.108060197080318,1
12,690,42,0.114189533696039,1
13,690,42,0.115482043897882,1
14,691,42,0.117840001404138,1
14,692,42,0.112185432664861,1
15,691,42,0.148597716006537,1
15,692,42,0.123846847145232,1
16,689,42,0.238701491414853,1
16,691,42,0.173239045673957,1
16,692,42,0.131777545782922,1
16,693,42,0.101054536020591,1
17,684,42,0.220086255276474,1
17,685,42,0.232477734976876,1
17,686,42,0.243280351719979,1
17,687,42,0.236241456364254,1
17,688,42,0.232167875001808,1
17,689,42,0.259807132062118,3
17,690,42,0.226714901515241,1
17,692,42,0.142861101801036,1
17,693,42,0.125129542827018,1
18,683,42,0.227787265823246,1
18,684,42,0.280989437073601,1
18,685,42,0.267390499083236,1
18,686,42,0.235087177305054,1
18,687,42,0.231259209481166,1
18,688,42,0.270790636618832,3
18,689,42,0.312508337965733,3
18,690,42,0.231139910231818,3
18,692,42,0.161462166251741,1
18,693,42,0.163734647022275,1
18,694,42,0.128092896094869,1
19,683,42,0.239951562804108,1
19,684,42,0.296391196737086,1
19,685,42,0.273448465293394,1
19,686,42,0.2297368369017,1
19,687,42,0.242284738919544,3
19,688,42,0.314252686449436,3
19,689,42,0.353315783425812,3
19,690,42,0.243191639787301,3
19,693,42,0.173498210003803,1
19,694,42,0.137846960450993,1
20,683,42,0.229208290683946,1
20,684,42,0.312174578926287,1
20,685,42,0.295875308091259,1
20,686,42,0.232015178062678,1
20,687,42,0.242856312167513,3
20,688,42,0.310271172038733,3
20,689,42,0.325459735490729,3
20,690,42,0.230425683316075,3
20,694,42,0.122432989825262,1
21,684,42,0.256241008226161,1
21,685,42,0.252407114654314,1
21,686,42,0.194600702597465,1
21,687,42,0.202108908477194,1
21,688,42,0.242908990324,3
21,689,42,0.251580952102496,3
25,696,42,0.243011035189585,1
26,695,42,0.215613295930274,1
26,696,42,0.283859067666015,1
26,697,42,0.2517932986663,1
27,696,42,0.204920610526143,1
28,700,42,0.263062197701913,1
29,700,42,0.265627131562885,1
29,701,42,0.282094501924569,1
30,700,42,0.243524614536576,1
30,701,42,0.279396674451285,1
30,702,42,0.240885913827851,1
31,699,42,0.197210645999919,1
31,700,42,0.227594417584527,1
31,701,42,0.247563251414735,1
31,702,42,0.210904940603577,1
32,698,42,0.205481312640909,1
32,699,42,0.227439084558988,1
32,700,42,0.226253194248728,1
32,701,42,0.218596779312515,1
33,698,42,0.198712234889853,1
33,699,42,0.242155134968782,1
33,700,42,0.234101346345918,1
33,701,42,0.223906227697785,1
34,699,42,0.205408765800089,1
34,700,42,0.198778049906705,1
5,690,43,0.140751775171913,1
5,691,43,0.100982599183237,1
6,690,43,0.144457143191983,1
6,691,43,0.108954189839011,1
7,689,43,0.152545571297401,1
7,690,43,0.140072165952885,1
7,691,43,0.111671079920619,1
8,689,43,0.149658925965443,1
8,690,43,0.136456294155663,1
8,691,43,0.10837001348371,1
9,689,43,0.153215485818482,1
9,690,43,0.136963904183019,1
9,691,43,0.105878672183785,1
10,689,43,0.149796666926729,1
10,690,43,0.129835643319474,1
10,691,43,0.102502324783377,1
11,689,43,0.139688506451308,1
11,690,43,0.119082099176655,1
12,689,43,0.123865593858903,1
12,690,43,0.107603740200784,1
13,689,43,0.122429885343335,1
13,690,43,0.105209955883799,1
14,690,43,0.120288489960552,1
14,691,43,0.102855418754122,1
15,690,43,0.156424964592086,1
15,691,43,0.126244182553825,1
15,692,43,0.102892084319617,1
16,685,43,0.228918844039163,1
16,686,43,0.241812487307398,1
16,687,43,0.231211106350677,1
16,688,43,0.216734438729749,1
16,690,43,0.196029221786466,1
16,691,43,0.144037809380544,1
16,692,43,0.108654122598162,1
17,684,43,0.230736392938828,1
17,685,43,0.243177457206708,1
17,686,43,0.26153307151264,1
17,687,43,0.249994550944901,1
17,688,43,0.240174911216144,1
17,689,43,0.246273769444386,1
17,691,43,0.143582812152161,1
17,692,43,0.116204211751607,1
18,683,43,0.249592253658843,1
18,684,43,0.270529576921072,1
18,685,43,0.266074220532043,1
18,686,43,0.260395523977088,1
18,687,43,0.24629679707524,1
18,688,43,0.261697946735259,3
18,689,43,0.27668213724019,3
18,690,43,0.20667275833988,1
18,691,43,0.14509310448441,1
18,692,43,0.131909753141334,1
18,693,43,0.123200690080582,1
19,682,43,0.201074712957512,1
19,683,43,0.254789265333762,1
19,684,43,0.297174049042793,1
19,685,43,0.266141974488484,1
19,686,43,0.245445341165407,1
19,687,43,0.260264721805233,3
19,688,43,0.30825746345296,3
19,689,43,0.317894276428516,3
19,690,43,0.216270683594456,3
19,692,43,0.140403212655489,1
19,693,43,0.132471860442657,1
19,694,43,0.0997398478355782,1
20,683,43,0.247177533151459,1
20,684,43,0.309719859620181,1
20,685,43,0.265579834508405,1
20,686,43,0.23114250274655,1
20,687,43,0.263250187698739,3
20,688,43,0.319036725777637,3
20,689,43,0.319269790673459,3
20,690,43,0.220548550760615,3
20,693,43,0.124176771877175,1
21,684,43,0.251364662301998,1
21,685,43,0.223699305807664,1
21,686,43,0.186903330285654,1
21,687,43,0.215207338623418,1
21,688,43,0.270129240360442,3
21,689,43,0.288659337443588,3
21,690,43,0.237037706960383,1
22,688,43,0.209193793737113,1
22,689,43,0.228843290752688,1
25,696,43,0.250651023603883,1
25,697,43,0.220117822955858,1
26,695,43,0.215457440044622,1
26,696,43,0.31369494720865,1
26,697,43,0.29790949536483,1
26,698,43,0.215920280174715,1
27,696,43,0.21147533741629,1
27,697,43,0.214953925754826,1
27,700,43,0.238620164881285,1
28,699,43,0.24065557216179,1
28,700,43,0.295015007131163,5
28,701,43,0.275520102422632,5
29,699,43,0.224070035414338,1
29,700,43,0.294422149119385,5
29,701,43,0.301000448286339,5
29,702,43,0.246012317601541,1
30,699,43,0.208304648327394,1
30,700,43,0.268279274133708,1
30,701,43,0.288813450462194,1
30,702,43,0.248401940823452,1
31,699,43,0.208263124520006,1
31,700,43,0.247515475071817,1
31,701,43,0.251275449295045,1
31,702,43,0.210298923945597,1
32,698,43,0.186222392130503,1
32,699,43,0.222631385810629,1
32,700,43,0.236743968505498,1
32,701,43,0.21625813495172,1
33,698,43,0.18966708170498,1
33,699,43,0.242328746312473,1
33,700,43,0.236526175482173,1
33,701,43,0.20901270985096,1
34,699,43,0.208002064822247,1
34,700,43,0.194131326715947,1
4,689,44,0.120953448203468,1
5,689,44,0.138972808991494,1
5,690,44,0.116818136668812,1
6,689,44,0.137324372659955,1
6,690,44,0.118711641892957,1
7,688,44,0.138731661549743,1
7,689,44,0.129866688138743,1
7,690,44,0.11586239195207,1
8,688,44,0.128545627596091,1
8,689,44,0.126832051608682,1
8,690,44,0.112576542923063,1
9,688,44,0.123733244892544,1
9,689,44,0.124995755995345,1
9,690,44,0.109569607086125,1
10,688,44,0.127686949680933,1
10,689,44,0.129240116542531,1
10,690,44,0.109684080772337,1
11,688,44,0.133274374467235,1
11,689,44,0.133291345635102,1
11,690,44,0.108751222078502,1
12,688,44,0.131805377191074,1
12,689,44,0.115033201168758,1
13,685,44,0.259632845357446,1
13,686,44,0.269051930667192,1
13,688,44,0.141260147703601,1
13,689,44,0.109658950808107,1
14,685,44,0.26071420721658,1
14,688,44,0.146704385069097,1
14,689,44,0.123751795533672,1
14,690,44,0.101860045597905,1
15,684,44,0.291077892258474,1
15,685,44,0.262491365172438,1
15,689,44,0.152879853196961,1
15,690,44,0.124563492289003,1
15,691,44,0.100553657817203,1
16,684,44,0.267125496148783,1
16,685,44,0.246593629119134,1
16,686,44,0.2343651074876,1
16,687,44,0.218165877221053,1
16,688,44,0.216646641802271,1
16,689,44,0.200499305402039,1
16,690,44,0.153071819109237,1
16,691,44,0.113599627665322,1
17,683,44,0.225654323345639,1
17,684,44,0.24764346687056,1
17,685,44,0.258700389701617,1
17,686,44,0.282540218385928,1
17,687,44,0.258908357311966,1
17,688,44,0.244878212228406,1
17,689,44,0.22504079057352,1
17,690,44,0.171383883524839,1
17,691,44,0.122130177568814,1
18,682,44,0.252441209490915,1
18,683,44,0.26420628098889,1
18,684,44,0.260341887243726,1
18,685,44,0.263761849891978,1
18,686,44,0.288336602038213,6
18,687,44,0.263757601653551,1
18,688,44,0.254124884415555,1
18,689,44,0.235460542998136,1
18,690,44,0.175611741299676,1
18,691,44,0.127452425133959,1
18,692,44,0.105455602101114,1
19,682,44,0.217068851344337,1
19,683,44,0.252681899430067,1
19,684,44,0.280524832290623,1
19,685,44,0.253825939145368,1
19,686,44,0.263672288311615,1
19,687,44,0.275387600955406,1
19,688,44,0.292704205071439,3
19,689,44,0.26806435684101,3
19,690,44,0.185257715220147,1
19,691,44,0.1348645336819,1
19,692,44,0.1160887685956,1
20,682,44,0.170500239039236,1
20,683,44,0.242282451406545,1
20,684,44,0.283111029129565,1
20,685,44,0.234212170904251,1
20,686,44,0.230837087082452,1
20,687,44,0.27132970539638,3
20,688,44,0.309172730082542,3
20,689,44,0.295014026768449,3
20,690,44,0.20769253163475,1
20,692,44,0.124684011545283,1
21,683,44,0.224286717359921,1
21,684,44,0.236443716085025,1
21,685,44,0.194116250915993,1
21,686,44,0.17969830702162,1
21,687,44,0.224325060434949,1
21,688,44,0.292333519036441,3
21,689,44,0.323002314740701,4
21,690,44,0.251641364231502,4
22,684,44,0.203090578341255,1
22,688,44,0.223893243338287,1
22,689,44,0.265489510423709,4
25,696,44,0.230947127350614,1
25,697,44,0.228456788199241,1
26,695,44,0.198664218902716,1
26,696,44,0.297999732306174,1
26,697,44,0.310914486051513,1
26,698,44,0.218037275418844,1
27,696,44,0.20848002432397,1
27,697,44,0.219422397218381,1
27,699,44,0.226038189812678,1
27,700,44,0.259859352716005,5
27,701,44,0.232237045037725,5
28,698,44,0.194039956911023,1
28,699,44,0.25338044054239,5
28,700,44,0.329034421161053,5
28,701,44,0.300397873790776,5
28,702,44,0.229258419897377,5
29,696,44,0.222491738588511,1
29,697,44,0.215183069199793,1
29,698,44,0.206855084018804,1
29,699,44,0.237911689426796,5
29,700,44,0.312299803923594,5
29,701,44,0.307874620920311,5
29,702,44,0.254702623055703,5
29,703,44,0.212784056281668,1
30,697,44,0.215871915614168,1
30,698,44,0.211446776182562,1
30,699,44,0.229768600653626,1
30,700,44,0.283924359822752,5
30,701,44,0.285256193462337,5
30,702,44,0.240890053137087,1
30,703,44,0.19359326008695,1
31,698,44,0.197045291488862,1
31,699,44,0.226775139357543,1
31,700,44,0.260176903091916,1
31,701,44,0.241651315677254,1
31,702,44,0.194497285224081,1
32,698,44,0.177082209119908,1
32,699,44,0.223294437792713,1
32,700,44,0.243632040504168,1
32,701,44,0.205720346856365,1
33,699,44,0.230265971337082,1
33,700,44,0.232762563023985,1
33,701,44,0.190029685194049,1
34,700,44,0.185016545992558,1
3,688,45,0.116914016142219,1
4,688,45,0.141573841986172,1
4,689,45,0.10317494074838,1
5,688,45,0.131748679547461,1
5,689,45,0.119814582624712,1
6,688,45,0.123926430811753,1
6,689,45,0.115755085806588,1
7,687,45,0.12979225682293,1
7,688,45,0.117604583637803,1
7,689,45,0.111108340829992,1
8,687,45,0.115293487469266,1
8,688,45,0.111732831878668,1
8,689,45,0.111423788872528,1
9,687,45,0.115313203652732,1
9,688,45,0.108956575388281,1
9,689,45,0.110450049053529,1
10,687,45,0.125007956064672,1
10,688,45,0.114525819892703,1
10,689,45,0.117710658883434,1
10,711,45,0.103605200157618,1
11,687,45,0.134749831244388,1
11,688,45,0.124055119757314,1
11,689,45,0.125385657139533,1
12,685,45,0.227968393281075,1
12,686,45,0.230690250533766,1
12,687,45,0.172639826197458,1
12,688,45,0.126940828298235,1
12,689,45,0.107808690472558,1
13,684,45,0.230584763505764,1
13,685,45,0.265296858257533,1
13,686,45,0.276606910741287,1
13,687,45,0.211758989028143,1
13,688,45,0.139257724181956,1
13,689,45,0.102058579940364,1
14,684,45,0.26525720803222,1
14,685,45,0.277283404585468,1
14,686,45,0.250576603180989,1
14,687,45,0.18814680056597,1
14,688,45,0.13836263123844,1
14,689,45,0.113103084843713,1
15,683,45,0.225857672358315,1
15,684,45,0.314169965622232,7
15,685,45,0.279100082051611,1
15,686,45,0.209770878802118,1
15,688,45,0.151063437160876,1
15,689,45,0.139084221767455,1
15,690,45,0.107576932727022,1
16,683,45,0.221310597590953,1
16,684,45,0.296296820486506,1
16,685,45,0.269863344206628,1
16,686,45,0.232500675464378,1
16,687,45,0.203357019141022,1
16,688,45,0.207686780173496,1
16,689,45,0.18531679841303,1
16,690,45,0.130711706333423,1
17,683,45,0.233662797425289,1
17,684,45,0.26216388045436,1
17,685,45,0.272380588868034,1
17,686,45,0.291668811330663,6
17,687,45,0.260579309307164,1
17,688,45,0.24155164546802,1
17,689,45,0.205689105964553,1
17,690,45,0.147793132327341,1
17,691,45,0.10773295200646,1
18,682,45,0.26755724788793,1
18,683,45,0.269757944321978,1
18,684,45,0.248675614521462,1
18,685,45,0.258260816846597,6
18,686,45,0.306547536593429,6
18,687,45,0.283960284669753,6
18,688,45,0.248594549417952,1
18,689,45,0.204016171458089,1
18,690,45,0.150290039908896,1
18,691,45,0.114650151670647,1
19,682,45,0.228964093224863,1
19,683,45,0.24642847068062,1
19,684,45,0.248111034527517,1
19,685,45,0.235193688267446,1
19,686,45,0.270591710131287,6
19,687,45,0.280499037858331,1
19,688,45,0.265079980239407,1
19,689,45,0.220049655068493,1
19,690,45,0.160939567567784,1
19,691,45,0.126608038728584,1
19,692,45,0.100837233178622,1
20,682,45,0.177371949873505,1
20,683,45,0.227771078945549,1
20,684,45,0.241252830912861,1
20,685,45,0.207078062071593,1
20,686,45,0.223978338821843,1
20,687,45,0.265066342304767,1
20,688,45,0.283667352290876,3
20,689,45,0.263712243538661,4
20,690,45,0.200321729035817,1
20,691,45,0.15756010479253,1
20,692,45,0.117903093191229,1
21,683,45,0.226837751856196,1
21,684,45,0.219151751751865,1
21,687,45,0.227806807720007,1
21,688,45,0.296930221942958,4
21,689,45,0.332604858592951,4
21,690,45,0.255180974702511,4
21,691,45,0.184493152125511,1
21,692,45,0.133344481294189,1
22,688,45,0.234389943343016,1
22,689,45,0.293737747015978,4
22,690,45,0.242736707916433,1
23,689,45,0.185626854460641,1
24,696,45,0.111404432155391,1
24,697,45,0.109461059147871,1
25,696,45,0.197093568906056,1
25,697,45,0.216493879505626,1
25,698,45,0.15280311258231,1
25,699,45,0.11162580894908,1
26,695,45,0.179651282290116,1
26,696,45,0.258123653210021,1
26,697,45,0.292303127792314,1
26,698,45,0.211181969320652,1
26,699,45,0.166142483204824,1
26,700,45,0.172642930679385,1
26,701,45,0.163150132986483,1
27,696,45,0.206587401426267,1
27,697,45,0.22261295499161,1
27,698,45,0.202109932411584,1
27,699,45,0.234508610803059,1
27,700,45,0.291667090249454,5
27,701,45,0.261498410244249,5
27,702,45,0.190148243724902,1
28,696,45,0.193531671522687,1
28,697,45,0.192633986064439,1
28,698,45,0.200660760248079,1
28,699,45,0.276992912220457,5
28,700,45,0.365997341560301,5
28,701,45,0.326422124888086,5
28,702,45,0.246659683780204,5
28,703,45,0.220978189273468,1
29,695,45,0.204431082744397,1
29,696,45,0.250853501183035,1
29,697,45,0.246833970484876,1
29,698,45,0.223734228506113,1
29,699,45,0.259617050624836,5
29,700,45,0.323256141540217,5
29,701,45,0.306437844898677,5
29,702,45,0.261334646099372,5
29,703,45,0.240239506226063,1
30,696,45,0.21932348951348,1
30,697,45,0.236475893767875,1
30,698,45,0.233092749185985,1
30,699,45,0.256628033639722,1
30,700,45,0.288263946268203,5
30,701,45,0.26966149841678,5
30,702,45,0.229977940771774,1
30,703,45,0.204630946022979,1
31,697,45,0.183092083092496,1
31,698,45,0.210966463810326,1
31,699,45,0.249744166307802,1
31,700,45,0.262389973881995,1
31,701,45,0.22312960614177,1
31,702,45,0.178716691622154,1
32,698,45,0.175655988336825,1
32,699,45,0.225302198844689,1
32,700,45,0.241860437937021,1
32,701,45,0.191124445343604,1
33,699,45,0.210931824327773,1
33,700,45,0.220833117377667,1
3,687,46,0.144011241551001,1
3,688,46,0.105695692929718,1
4,687,46,0.180718134781086,1
4,688,46,0.134380452359675,1
5,687,46,0.145126033778674,1
5,688,46,0.1215811744491,1
5,689,46,0.100184714649252,1
6,687,46,0.119361034154562,1
6,688,46,0.104334666267101,1
7,686,46,0.120129050304535,1
7,687,46,0.10870326055596,1
8,686,46,0.115637115493363,1
8,687,46,0.100062114845435,1
9,686,46,0.128609405637082,1
9,687,46,0.103937848119321,1
10,686,46,0.149946586171503,1
10,687,46,0.114799842164122,1
10,688,46,0.101973179455075,1
10,689,46,0.104421569975218,1
10,711,46,0.101762205399071,1
10,712,46,0.104645092673959,1
11,686,46,0.161697289909261,1
11,687,46,0.124009293246905,1
11,688,46,0.110413939026905,1
11,689,46,0.109118171842269,1
12,685,46,0.22074712867475,1
12,686,46,0.208835895989071,1
12,687,46,0.159441061373938,1
12,688,46,0.117809686410444,1
13,684,46,0.249698590334531,1
13,685,46,0.263738931190314,1
13,686,46,0.270847759086288,1
13,687,46,0.204043251254827,1
13,688,46,0.129192340199613,1
14,683,46,0.227285537972173,1
14,684,46,0.277556598995041,7
14,685,46,0.286136036319194,1
14,686,46,0.262553629097682,1
14,687,46,0.186136969859376,1
14,688,46,0.126246927569424,1
15,683,46,0.233315117235308,7
15,684,46,0.312260741915909,7
15,685,46,0.291210023366453,7
15,686,46,0.217721925412579,1
15,687,46,0.155925698540717,1
15,688,46,0.13670931487917,1
15,689,46,0.122925861733153,1
16,683,46,0.223388922972483,1
16,684,46,0.304371545299769,7
16,685,46,0.291350629165447,6
16,686,46,0.231419836465359,1
16,687,46,0.187875719382692,1
16,688,46,0.187113737909869,1
16,689,46,0.164861290745866,1
16,690,46,0.11455665774651,1
17,683,46,0.231388922361118,1
17,684,46,0.266444078705194,1
17,685,46,0.28059365375313,6
17,686,46,0.290108553178768,6
17,687,46,0.260731962674618,6
17,688,46,0.233833467680838,1
17,689,46,0.186916053215095,1
17,690,46,0.127388625307131,1
18,682,46,0.256325798707983,1
18,683,46,0.259321765375446,1
18,684,46,0.232733522501819,1
18,685,46,0.25082400315827,6
18,686,46,0.317382832093658,6
18,687,46,0.305675166279035,6
18,688,46,0.245735768172903,6
18,689,46,0.180864775257229,1
18,690,46,0.128671593311893,1
18,691,46,0.1000095238323,1
19,682,46,0.234498632889217,1
19,683,46,0.237819557117539,1
19,684,46,0.211079837311715,1
19,685,46,0.213414821651711,1
19,686,46,0.27116552732058,6
19,687,46,0.281892460062179,6
19,688,46,0.239504059904026,1
19,689,46,0.184922823317121,1
19,690,46,0.143320565126226,1
19,691,46,0.117446625418776,1
20,683,46,0.208514293447276,1
20,684,46,0.196731815064672,1
20,685,46,0.178470370043858,1
20,686,46,0.208114283674217,1
20,687,46,0.247229274516908,1
20,688,46,0.253090362108302,1
20,689,46,0.232782235635775,1
20,690,46,0.193948042460147,1
20,691,46,0.155317427048494,1
20,692,46,0.10676660847949,1
21,687,46,0.218691961639103,1
21,688,46,0.279982800639095,1
21,689,46,0.310495566170998,4
21,690,46,0.242307701192884,1
21,691,46,0.174277271573684,1
21,692,46,0.12737339700631,1
22,688,46,0.229626578775157,1
22,689,46,0.294272088266663,1
22,690,46,0.235666724169762,1
22,692,46,0.149178624486126,1
22,693,46,0.113308340117221,1
23,689,46,0.193371284182713,1
24,696,46,0.101319408240015,1
24,697,46,0.100827832589489,1
25,696,46,0.161937456988299,1
25,697,46,0.185355947564067,1
25,698,46,0.144644849972914,1
25,699,46,0.104516164084178,1
25,704,46,0.104407027928297,1
25,705,46,0.10238562894168,1
26,696,46,0.215416395525672,1
26,697,46,0.250835549652454,1
26,698,46,0.196025256763935,1
26,699,46,0.156576659382664,1
26,700,46,0.171569139398986,5
26,701,46,0.163362174548554,1
26,702,46,0.128738159940158,1
27,696,46,0.210044857501862,1
27,697,46,0.221520264496672,1
27,698,46,0.19873046963633,1
27,699,46,0.238327123573218,5
27,700,46,0.318484999428162,5
27,701,46,0.279715619120834,5
27,702,46,0.196580142059932,1
27,703,46,0.164204229869254,1
28,695,46,0.184247396979005,1
28,696,46,0.217041226901647,1
28,697,46,0.211468017374694,1
28,698,46,0.209340347069904,1
28,699,46,0.294888518555247,5
28,700,46,0.395064921737068,5
28,701,46,0.341159460061688,5
28,702,46,0.260092395825989,5
28,703,46,0.233853249221818,1
28,704,46,0.182794401400917,1
29,695,46,0.200942995780456,1
29,696,46,0.265944812653825,1
29,697,46,0.26476659095857,1
29,698,46,0.244972435978119,5
29,699,46,0.288079289504603,5
29,700,46,0.33301122983073,5
29,701,46,0.301239504287634,5
29,702,46,0.267944469374034,5
29,703,46,0.258118010677957,1
29,704,46,0.19700232981616,1
30,695,46,0.17010565393986,1
30,696,46,0.22477768300698,1
30,697,46,0.247641767575189,1
30,698,46,0.263671852594853,1
30,699,46,0.293601738028821,5
30,700,46,0.285475620423518,5
30,701,46,0.248421678792756,5
30,702,46,0.222353006371592,1
30,703,46,0.213857880240824,1
31,696,46,0.16099861808191,1
31,697,46,0.185727396103398,1
31,698,46,0.233005758334516,1
31,699,46,0.279036118830996,1
31,700,46,0.25696516948407,1
31,701,46,0.203133888587366,1
31,702,46,0.168102500592639,1
32,698,46,0.175593256016062,1
32,699,46,0.224058576063506,1
32,700,46,0.225400387616933,1
32,701,46,0.17342763478133,1
33,699,46,0.188281262758624,1
33,700,46,0.196055146933786,1
3,686,47,0.101583855635597,1
3,687,47,0.118048535446277,1
4,686,47,0.118539294127875,1
4,687,47,0.155826148153592,1
4,688,47,0.119151487070952,1
5,686,47,0.103559733113537,1
5,687,47,0.129577426673584,1
5,688,47,0.108337302047827,1
6,687,47,0.100080001018502,1
9,685,47,0.117089261423766,1
9,686,47,0.109167451408014,1
10,684,47,0.147241286155756,1
10,685,47,0.145603917029964,1
10,686,47,0.128965331766778,1
11,684,47,0.199642359461008,1
11,685,47,0.187081952372104,1
11,686,47,0.149511174411558,1
11,687,47,0.10859275189228,1
12,684,47,0.239133417440704,1
12,685,47,0.219069531998936,1
12,686,47,0.184705455117639,1
12,687,47,0.134779873915105,1
13,683,47,0.237626447448763,1
13,684,47,0.264369565845329,1
13,685,47,0.252938057314257,1
13,686,47,0.245900360179627,1
13,687,47,0.176370966863982,1
13,688,47,0.109788511187192,1
14,683,47,0.254495417949686,1
14,684,47,0.286765559896467,7
14,685,47,0.285812974126247,1
14,686,47,0.265857211798889,1
14,687,47,0.177687201843498,1
14,688,47,0.112185356414428,1
15,683,47,0.238746174168763,7
15,684,47,0.298180946907356,7
15,685,47,0.296114756237639,6
15,686,47,0.231459660977376,1
15,687,47,0.15380185165051,1
15,688,47,0.120712246297122,1
15,689,47,0.104559670402832,1
16,683,47,0.223152415914244,1
16,684,47,0.298556556541761,6
16,685,47,0.303316086802117,6
16,686,47,0.232945476920538,6
16,687,47,0.173624938223937,1
16,688,47,0.160650404138896,1
16,689,47,0.136999229919472,1
17,683,47,0.226022199007524,1
17,684,47,0.270030441584731,6
17,685,47,0.293408410501664,6
17,686,47,0.293467667981252,6
17,687,47,0.261886524949714,6
17,688,47,0.225992897055302,1
17,689,47,0.166990246415103,1
17,690,47,0.110333407676428,1
18,682,47,0.222225014572849,1
18,683,47,0.237046573796484,1
18,684,47,0.223530182346619,1
18,685,47,0.260574058920186,6
18,686,47,0.342344021435825,6
18,687,47,0.336547550640189,6
18,688,47,0.253902690652937,6
18,689,47,0.166855631721582,1
18,690,47,0.11386377005917,1
19,683,47,0.219679949396209,1
19,684,47,0.180966961730761,1
19,685,47,0.20177456122012,1
19,686,47,0.281581619724398,6
19,687,47,0.295399984675944,6
19,688,47,0.229930818003999,1
19,689,47,0.163639475588605,1
19,690,47,0.132550529103978,1
19,691,47,0.110022905019137,1
20,686,47,0.197773483126817,1
20,687,47,0.234273084107534,1
20,688,47,0.226960471482123,1
20,689,47,0.204554673803847,1
20,690,47,0.186992608650122,1
20,691,47,0.150630116841386,1
21,687,47,0.203597491221792,1
21,688,47,0.252031025731471,1
21,689,47,0.273645452841349,1
21,690,47,0.227260004969939,1
21,691,47,0.165677115917513,1
21,692,47,0.120392484658646,1
22,688,47,0.217614499444987,1
22,689,47,0.276018192038745,1
22,690,47,0.226902935083743,1
22,691,47,0.173505573617075,1
22,692,47,0.15330236774076,1
22,693,47,0.109947885485695,1
23,689,47,0.197606865037151,1
23,692,47,0.15218310941628,1
23,693,47,0.116591651096091,1
24,694,47,0.101250750171293,1
25,695,47,0.122946068097976,1
25,696,47,0.135621961914563,1
25,697,47,0.147812227614422,1
25,698,47,0.124667868239263,1
26,696,47,0.184982658121418,1
26,697,47,0.201304139618374,1
26,698,47,0.168549208309631,1
26,699,47,0.143697383874645,1
26,700,47,0.16496777992242,1
26,701,47,0.156818035575715,1
26,702,47,0.124443365177808,1
26,703,47,0.107485704530045,1
26,704,47,0.105018142472389,1
26,705,47,0.103987443579719,1
27,696,47,0.221169708576064,1
27,697,47,0.214887631449537,1
27,698,47,0.188569402253122,1
27,699,47,0.228977469729446,5
27,700,47,0.315934923508763,5
27,701,47,0.275643018121101,5
27,702,47,0.197846748900293,1
27,703,47,0.159941591003916,1
28,695,47,0.196221307520852,1
28,696,47,0.240763455631981,1
28,697,47,0.228284832579244,1
28,698,47,0.217133642426799,5
28,699,47,0.296419191539024,5
28,700,47,0.391196759041916,5
28,701,47,0.335393620154398,5
28,702,47,0.267420323895573,5
28,703,47,0.234967442338945,1
28,704,47,0.1811313903437,1
29,695,47,0.193150615428761,1
29,696,47,0.254288997133841,1
29,697,47,0.260691942090058,1
29,698,47,0.265409556397941,5
29,699,47,0.313660133439392,5
29,700,47,0.335658579517174,5
29,701,47,0.296127784168813,5
29,702,47,0.275614369744021,5
29,703,47,0.264867764390632,1
29,704,47,0.203449913954611,1
30,695,47,0.165095314218563,1
30,696,47,0.213194915402092,1
30,697,47,0.242546648264988,1
30,698,47,0.290838531255446,5
30,699,47,0.325796631690859,5
30,700,47,0.280059682861693,5
30,701,47,0.235932249964329,5
30,702,47,0.226896508261508,1
30,703,47,0.225614542405298,1
30,704,47,0.183690300420442,1
31,696,47,0.158679286866577,1
31,697,47,0.1819652650822,1
31,698,47,0.242924959343316,1
31,699,47,0.292403974436805,5
31,700,47,0.243762494102614,1
31,701,47,0.190659208771322,1
31,702,47,0.170152449920065,1
31,703,47,0.165171880546509,1
32,698,47,0.171449055859467,1
32,699,47,0.216171209457765,1
32,700,47,0.20308086185747,1
33,699,47,0.167338100891788,1
4,687,48,0.120691963681866,1
5,687,48,0.106205982615158,1
9,684,48,0.11285173073682,1
9,685,48,0.10310216515626,1
10,683,48,0.150528170012073,1
10,684,48,0.156975253076248,1
10,685,48,0.136972792804957,1
10,686,48,0.104343140958116,1
11,683,48,0.189044377095028,1
11,684,48,0.216991010544863,1
11,685,48,0.191522951893835,1
11,686,48,0.131193805144383,1
12,684,48,0.244147689505776,1
12,685,48,0.214160115172562,1
12,686,48,0.156726578627439,1
12,687,48,0.104748270403124,1
13,683,48,0.249102900163802,1
13,684,48,0.263426892631438,1
13,685,48,0.23377784843621,1
13,686,48,0.207463083188051,1
13,687,48,0.139592812157524,1
14,683,48,0.270012054337388,1
14,684,48,0.285403879658707,1
14,685,48,0.273887994576737,1
14,686,48,0.255979120666554,1
14,687,48,0.163257733240779,1
15,683,48,0.237148858306288,1
15,684,48,0.282229813764909,7
15,685,48,0.289115598250579,1
15,686,48,0.242448633779449,1
15,687,48,0.152427840628395,1
15,688,48,0.101656043010088,1
16,683,48,0.2181312377385,1
16,684,48,0.283839438625901,1
16,685,48,0.292647387605716,6
16,686,48,0.225770354719274,1
16,687,48,0.157942064998736,1
16,688,48,0.131733135351988,1
16,689,48,0.106451933834206,1
17,683,48,0.213307068896548,1
17,684,48,0.268013465123246,6
17,685,48,0.300927814302167,6
17,686,48,0.287393449535884,6
17,687,48,0.24254538468638,6
17,688,48,0.199710854135944,1
17,689,48,0.137954745884913,1
18,683,48,0.205204719640595,1
18,684,48,0.214460106162978,1
18,685,48,0.27352286393045,6
18,686,48,0.351095414379975,6
18,687,48,0.332427064368348,6
18,688,48,0.239731329766918,6
18,689,48,0.14603738985032,1
19,685,48,0.193970874018459,1
19,686,48,0.281999450313009,6
19,687,48,0.290800079251228,6
19,688,48,0.212034231306495,1
19,689,48,0.142284899062474,1
19,690,48,0.117022640330906,1
20,686,48,0.187782693854073,1
20,687,48,0.218898600313329,1
20,688,48,0.200485754610751,1
20,689,48,0.177691036151001,1
20,690,48,0.169017298826702,1
20,691,48,0.134183660884263,1
21,688,48,0.218588783909938,1
21,689,48,0.236741746350013,1
21,690,48,0.210281734919348,1
21,691,48,0.15575363399153,1
21,692,48,0.109640127844002,1
22,689,48,0.24228160175886,1
22,690,48,0.211985714245082,1
22,691,48,0.169744172421453,1
22,692,48,0.144990373364925,1
22,693,48,0.100173527621396,1
23,691,48,0.164454941293924,1
23,692,48,0.149573634409345,1
23,693,48,0.110202812470034,1
24,692,48,0.144149712337862,1
24,693,48,0.116368760186655,1
25,694,48,0.12455283901418,1
25,695,48,0.113455176665906,1
25,696,48,0.112932588874868,1
25,697,48,0.112357551678643,1
26,695,48,0.158575793242759,1
26,696,48,0.160501846509001,1
26,697,48,0.156206104062695,1
26,698,48,0.135506344471852,1
26,699,48,0.125942187266306,1
26,700,48,0.145845772511453,1
26,701,48,0.139620414814377,1
26,702,48,0.114109971815357,1
27,696,48,0.222859810322939,1
27,697,48,0.196859806863416,1
27,698,48,0.170822211940279,1
27,699,48,0.204990412351364,1
27,700,48,0.278875448275127,5
27,701,48,0.250762305664816,5
27,702,48,0.188368994328588,1
27,703,48,0.148347854229553,1
27,704,48,0.125495839015642,1
28,695,48,0.20034170664934,1
28,696,48,0.249163421221999,1
28,697,48,0.229424362626062,1
28,698,48,0.222622649689557,1
28,699,48,0.284323824949859,5
28,700,48,0.35924355746758,5
28,701,48,0.319261315982444,5
28,702,48,0.264339239958716,5
28,703,48,0.222933228597281,1
28,704,48,0.170590889911504,1
29,695,48,0.178347465238308,1
29,696,48,0.225577266836336,1
29,697,48,0.24491568386991,1
29,698,48,0.292969926938549,5
29,699,48,0.337836531536262,5
29,700,48,0.331881459839374,5
29,701,48,0.291253420755917,5
29,702,48,0.276834442034235,5
29,703,48,0.257691443968274,1
29,704,48,0.197393864898205,1
30,696,48,0.190581607616067,1
30,697,48,0.228583429276023,5
30,698,48,0.313856031695442,5
30,699,48,0.349594217635126,5
30,700,48,0.278037020296467,5
30,701,48,0.230727112171804,5
30,702,48,0.231042266105526,1
30,703,48,0.226636385354786,1
30,704,48,0.182200704634373,1
31,697,48,0.172774048745893,1
31,698,48,0.23946933327812,5
31,699,48,0.287148228142411,5
31,700,48,0.230420149713202,1
31,701,48,0.183247285403005,1
31,702,48,0.173356144553658,1
31,703,48,0.168287200927915,1
32,698,48,0.161281311116887,1
32,699,48,0.199577001946756,1
32,700,48,0.180486562215173,1
9,683,49,0.132924591943879,1
9,684,49,0.118825113430617,1
10,682,49,0.161279045389726,1
10,683,49,0.178153843602337,1
10,684,49,0.168807414062601,1
10,685,49,0.13227558093444,1
11,682,49,0.161582260684178,1
11,683,49,0.202141739735186,1
11,684,49,0.223460228020531,1
11,685,49,0.186528679228125,1
11,686,49,0.11653129343168,1
12,683,49,0.217178041964814,1
12,684,49,0.240434925193676,1
12,685,49,0.205916789758368,1
12,686,49,0.135559654417643,1
13,683,49,0.248714044739842,1
13,684,49,0.25192837086242,1
13,685,49,0.216430940219402,1
13,686,49,0.174026178896848,1
13,687,49,0.112882699305656,1
14,683,49,0.260899060052722,1
14,684,49,0.27238324674028,1
14,685,49,0.259154232280581,1
14,686,49,0.241249454107958,1
14,687,49,0.152578870950912,1
15,683,49,0.227698357818025,1
15,684,49,0.266928748245047,1
15,685,49,0.275390520257709,1
15,686,49,0.249075232149435,1
15,687,49,0.157803910106527,1
16,683,49,0.213185830707611,1
16,684,49,0.270025735843705,1
16,685,49,0.27419404203014,1
16,686,49,0.220309167971749,1
16,687,49,0.153251181914182,1
16,688,49,0.116127275064413,1
17,683,49,0.197473230706344,1
17,684,49,0.260317203889177,1
17,685,49,0.302951675088488,6
17,686,49,0.2774888450386,6
17,687,49,0.219285930728624,1
17,688,49,0.173592466432273,1
17,689,49,0.116250267013316,1
18,684,49,0.212266729770527,1
18,685,49,0.294293743389718,6
18,686,49,0.34817212526836,6
18,687,49,0.307145492491319,6
18,688,49,0.220328187008396,1
18,689,49,0.133096384170089,1
19,685,49,0.202380098589662,1
19,686,49,0.27856262542608,6
19,687,49,0.27936523748693,1
19,688,49,0.203270202576257,1
19,689,49,0.132905224333822,1
19,690,49,0.102587932234127,1
20,686,49,0.183029895417685,1
20,687,49,0.208006748777435,1
20,688,49,0.182286497264747,1
20,689,49,0.156787905761645,1
20,690,49,0.143920710500843,1
20,691,49,0.110638420302522,1
21,688,49,0.183013784790422,1
21,689,49,0.200380637941996,1
21,690,49,0.188673996061763,1
21,691,49,0.142148345429364,1
22,689,49,0.202087449426681,1
22,690,49,0.194425261243375,1
22,691,49,0.162695745761567,1
22,692,49,0.12677624718443,1
23,690,49,0.184791378463042,1
23,691,49,0.17065267454831,1
23,692,49,0.142319135507023,1
23,693,49,0.100786025566206,1
24,691,49,0.188057827203235,1
24,692,49,0.151982973814722,1
24,693,49,0.117480132037749,1
25,692,49,0.172322635287876,1
25,693,49,0.1396774610314,1
25,694,49,0.124187991583788,1
25,695,49,0.113098651425663,1
25,696,49,0.10347738264558,1
26,694,49,0.160842206657387,1
26,695,49,0.159522987018053,1
26,696,49,0.155422413002221,1
26,697,49,0.134200773660078,1
26,698,49,0.114691043688731,1
26,699,49,0.110493871266835,1
26,700,49,0.121306378780428,1
26,701,49,0.117879934845346,1
26,702,49,0.101747804960097,1
27,695,49,0.203728358751162,1
27,696,49,0.22291516813751,1
27,697,49,0.185125714827196,1
27,698,49,0.160773003942713,1
27,699,49,0.177597781871083,1
27,700,49,0.218611702611602,1
27,701,49,0.211316562228335,1
27,702,49,0.169387516466181,1
27,703,49,0.13492831172289,1
27,704,49,0.115118710583237,1
27,705,49,0.109643994830262,1
28,695,49,0.199195553707745,1
28,696,49,0.241353960773246,1
28,697,49,0.221320379432252,1
28,698,49,0.229143390672294,5
28,699,49,0.263678976563907,5
28,700,49,0.30008947346686,5
28,701,49,0.289511904431164,5
28,702,49,0.245507343660593,1
28,703,49,0.200433882530273,1
28,704,49,0.155372479861333,1
29,696,49,0.193967780429451,1
29,697,49,0.226635971423863,5
29,698,49,0.311283451005303,5
29,699,49,0.346556160728485,5
29,700,49,0.311539238530246,5
29,701,49,0.281655168713769,5
29,702,49,0.265842942074944,1
29,703,49,0.238525026126373,1
29,704,49,0.18488837990711,1
30,696,49,0.164533936742817,1
30,697,49,0.209139067711847,5
30,698,49,0.311259813370982,5
30,699,49,0.346020272683297,5
30,700,49,0.275641928829197,5
30,701,49,0.235433702845617,1
30,702,49,0.23536851961807,1
30,703,49,0.222053037167015,1
30,704,49,0.17922407289821,1
31,697,49,0.161602053118078,1
31,698,49,0.220333328466184,5
31,699,49,0.258639432926658,5
31,700,49,0.217835473200672,1
31,701,49,0.184076835652646,1
31,702,49,0.18085907826057,1
31,703,49,0.171667262813716,1
32,698,49,0.154920815866177,1
32,699,49,0.182289743354622,1
32,700,49,0.166411483840565,1
9,682,50,0.149940627744787,1
9,683,50,0.151452837230788,1
9,684,50,0.118210175471941,1
10,682,50,0.196727958971332,1
10,683,50,0.206616790521843,1
10,684,50,0.168831095268599,1
10,685,50,0.11817255132957,1
11,682,50,0.171793174064922,1
11,683,50,0.205191495636878,1
11,684,50,0.207024556053259,1
11,685,50,0.159650967923877,1
12,682,50,0.175043533963691,1
12,683,50,0.216640519981769,1
12,684,50,0.225146844033312,1
12,685,50,0.182826361225386,1
12,686,50,0.111512609734396,1
13,682,50,0.19152210224615,1
13,683,50,0.236837211892497,1
13,684,50,0.232506056566385,1
13,685,50,0.195864978353151,1
13,686,50,0.142054208823003,1
14,683,50,0.232784588506288,1
14,684,50,0.245508585453364,1
14,685,50,0.23174682010916,1
14,686,50,0.205468916499039,1
14,687,50,0.130971393523384,1
15,683,50,0.210940625806358,1
15,684,50,0.246863621010508,1
15,685,50,0.249332087180445,1
15,686,50,0.229854458641515,1
15,687,50,0.150498225377626,1
16,683,50,0.205569893858558,1
16,684,50,0.256643806586494,1
16,685,50,0.253149815660433,1
16,686,50,0.208845416400313,1
16,687,50,0.147150221352565,1
16,688,50,0.100449586868676,1
17,683,50,0.184076149398746,1
17,684,50,0.248764261096625,1
17,685,50,0.288375097614107,1
17,686,50,0.253798118630134,1
17,687,50,0.190536162357824,1
17,688,50,0.140496706579626,1
18,684,50,0.211940181843487,1
18,685,50,0.293929026674355,1
18,686,50,0.314070927202302,6
18,687,50,0.260462994717634,1
18,688,50,0.187887832308666,1
18,689,50,0.117085699439239,1
19,685,50,0.207273415681692,1
19,686,50,0.255550920019014,1
19,687,50,0.250924980517789,1
19,688,50,0.191667392000332,1
19,689,50,0.12663957372921,1
20,686,50,0.171085493793523,1
20,687,50,0.189896704438385,1
20,688,50,0.168573760949151,1
20,689,50,0.142516874666391,1
20,690,50,0.11822281125803,1
21,688,50,0.149896958032348,1
21,689,50,0.167314572186658,1
21,690,50,0.161352463664069,1
21,691,50,0.123052818704587,1
22,689,50,0.167263201180456,1
22,690,50,0.175874086361883,1
22,691,50,0.152066762147993,1
22,692,50,0.106268649578406,1
23,690,50,0.184373384480644,1
23,691,50,0.180163412878874,1
23,692,50,0.137094956892012,1
24,691,50,0.204887757482312,1
24,692,50,0.165804465034033,1
24,693,50,0.119820203370938,1
25,692,50,0.16330900621071,1
25,693,50,0.141327629337066,1
25,694,50,0.127263531024853,1
25,695,50,0.11596791165883,1
26,693,50,0.155727098840744,1
26,694,50,0.157471240358985,1
26,695,50,0.166704601399065,1
26,696,50,0.156434299823705,1
26,697,50,0.122227734551754,1
27,694,50,0.16852204136954,1
27,695,50,0.206646201403256,1
27,696,50,0.217243508408256,1
27,697,50,0.17710492085611,1
27,698,50,0.15223904455556,1
27,699,50,0.150318808108086,1
27,700,50,0.163344092302944,1
27,701,50,0.168613400281545,1
27,702,50,0.143555786820018,1
27,703,50,0.115981299056332,1
27,704,50,0.0997414382017584,1
28,695,50,0.201909807702945,1
28,696,50,0.223520030146072,1
28,697,50,0.210204765553398,1
28,698,50,0.231323978777789,1
28,699,50,0.241190588773455,5
28,700,50,0.242113850805613,1
28,701,50,0.248812255297924,1
28,702,50,0.21436196096241,1
28,703,50,0.170568592106225,1
29,696,50,0.171724330816577,1
29,697,50,0.211777833778085,1
29,698,50,0.313838995170061,5
29,699,50,0.337769322225773,5
29,700,50,0.281885161806421,5
29,701,50,0.258690738575345,1
29,702,50,0.239875159869948,1
29,703,50,0.207244026586117,1
29,704,50,0.165332442173187,1
30,697,50,0.189228402069322,1
30,698,50,0.289321517992149,5
30,699,50,0.319553790858721,5
30,700,50,0.262538422582699,5
30,701,50,0.229459089251968,1
30,702,50,0.222850159196667,1
30,703,50,0.200554815717477,1
31,698,50,0.199857908543011,1
31,699,50,0.223477896335217,5
31,700,50,0.201993399963673,1
31,701,50,0.180183096383583,1
31,702,50,0.177057144513192,1
32,699,50,0.160388015505013,1
9,681,51,0.124359968989623,1
9,682,51,0.162225258802306,1
9,683,51,0.160282996872529,1
9,684,51,0.116940082897487,1
10,681,51,0.158282414254202,1
10,682,51,0.219019097783772,1
10,683,51,0.219774957436093,1
10,684,51,0.162983612933088,1
10,685,51,0.105048838718249,1
11,681,51,0.132190910274726,1
11,682,51,0.181426403270113,1
11,683,51,0.202808059592983,1
11,684,51,0.183616239463876,1
11,685,51,0.129904944070419,1
12,681,51,0.128869332471261,1
12,682,51,0.18451533010868,1
12,683,51,0.211410088831229,1
12,684,51,0.204075102150106,1
12,685,51,0.15389713201337,1
13,682,51,0.196562626246113,1
13,683,51,0.214836892232639,1
13,684,51,0.209468491369514,1
13,685,51,0.173601496662159,1
13,686,51,0.117404208392026,1
14,682,51,0.169177283128671,1
14,683,51,0.197485496133186,1
14,684,51,0.211850424190581,1
14,685,51,0.197260622712483,1
14,686,51,0.160674967671335,1
14,687,51,0.104465283259333,1
15,683,51,0.191130697879134,1
15,684,51,0.220484347895782,1
15,685,51,0.215969668669651,1
15,686,51,0.190662912363796,1
15,687,51,0.129803607244571,1
16,683,51,0.197588521361485,1
16,684,51,0.240183865195597,1
16,685,51,0.234664183472816,1
16,686,51,0.197634772695737,1
16,687,51,0.140647159577434,1
17,684,51,0.236182089955475,1
17,685,51,0.263232715456596,1
17,686,51,0.231643598808319,1
17,687,51,0.171635444597194,1
17,688,51,0.115525833432431,1
18,684,51,0.215078758607047,1
18,685,51,0.273679024817836,1
18,686,51,0.268261976178269,1
18,687,51,0.218811239102613,1
18,688,51,0.158925270764382,1
18,689,51,0.102584272213329,1
19,685,51,0.209730901789234,1
19,686,51,0.226528872243842,1
19,687,51,0.223730786343696,1
19,688,51,0.190030251625839,1
19,689,51,0.132332518222272,1
20,686,51,0.161599384352912,1
20,687,51,0.180640936663836,1
20,688,51,0.178253764348709,1
20,689,51,0.151972320539899,1
20,690,51,0.108623709568197,1
21,687,51,0.130272220621756,1
21,688,51,0.139899371578122,1
21,689,51,0.15402379487599,1
21,690,51,0.141807429742107,1
21,691,51,0.105984050282597,1
22,688,51,0.116135368503262,1
22,689,51,0.150416288840593,1
22,690,51,0.16790226695481,1
22,691,51,0.1476341937456,1
23,689,51,0.155491583038137,1
23,690,51,0.195538473997788,1
23,691,51,0.205938619168128,1
23,692,51,0.140227215762528,1
24,690,51,0.198347561746166,1
24,691,51,0.23693052063701,1
24,692,51,0.189127773283213,1
24,693,51,0.12490508333724,1
25,691,51,0.170419522509135,1
25,692,51,0.168039190947167,1
25,693,51,0.152143077938801,1
25,694,51,0.139015966736738,1
25,695,51,0.122370551613313,1
26,693,51,0.155129437051668,1
26,694,51,0.174054936203119,1
26,695,51,0.188594978827032,1
26,696,51,0.163011324519131,1
26,697,51,0.121338545570359,1
27,694,51,0.17759940491602,1
27,695,51,0.221773241648503,1
27,696,51,0.216448477819059,1
27,697,51,0.182140041968228,1
27,698,51,0.153373520287942,1
27,699,51,0.13732761874983,1
27,700,51,0.131859395176603,1
27,701,51,0.13837149807454,1
27,702,51,0.124733171288919,1
27,703,51,0.101129119837271,1
28,696,51,0.209752469768938,1
28,697,51,0.209683169017993,1
28,698,51,0.229772739962862,1
28,699,51,0.2246664880894,1
28,700,51,0.203773825795243,1
28,701,51,0.210721089915987,1
28,702,51,0.186302999731413,1
28,703,51,0.145212392840839,1
28,704,51,0.119733876987531,1
29,697,51,0.201006915429395,1
29,698,51,0.292208729755897,1
29,699,51,0.312201005147883,5
29,700,51,0.258384582192752,1
29,701,51,0.237093740135935,1
29,702,51,0.215268099325834,1
29,703,51,0.178659612726374,1
30,697,51,0.176335303447039,1
30,698,51,0.258559217470833,1
30,699,51,0.283758112092334,5
30,700,51,0.249064666017965,1
30,701,51,0.223126556124438,1
30,702,51,0.20700385950708,1
31,698,51,0.185367494058252,1
31,699,51,0.196382936653597,1
31,700,51,0.19044843078786,1
31,701,51,0.178720297178357,1
9,681,52,0.12349257673923,1
9,682,52,0.159618027736694,1
9,683,52,0.151714452467418,1
9,684,52,0.107521999736293,1
10,681,52,0.156400292130456,1
10,682,52,0.218269185665247,1
10,683,52,0.210760217281185,1
10,684,52,0.146540762532168,1
11,681,52,0.13513911149219,1
11,682,52,0.187565140474967,1
11,683,52,0.197568848749695,1
11,684,52,0.158003108917047,1
11,685,52,0.102045203435781,1
12,681,52,0.137851393869043,1
12,682,52,0.189264980491465,1
12,683,52,0.202840694778433,1
12,684,52,0.176056248647022,1
12,685,52,0.121318437241807,1
13,681,52,0.153408541022662,1
13,682,52,0.194544734779428,1
13,683,52,0.19581530664232,1
13,684,52,0.182815337591316,1
13,685,52,0.143617571456824,1
14,682,52,0.164624827259303,1
14,683,52,0.171894303925308,1
14,684,52,0.178860162258856,1
14,685,52,0.158192656601296,1
14,686,52,0.115200265868105,1
15,682,52,0.14555029118952,1
15,683,52,0.172210307506715,1
15,684,52,0.190970789827598,1
15,685,52,0.177722266149895,1
15,686,52,0.144105018691033,1
16,683,52,0.184640108496306,1
16,684,52,0.216523333958716,1
16,685,52,0.207393368506182,1
16,686,52,0.176218792784966,1
16,687,52,0.124676637039092,1
17,684,52,0.223597631301327,1
17,685,52,0.229565970573607,1
17,686,52,0.203232774506429,1
17,687,52,0.149921597815221,1
18,684,52,0.217649531072626,1
18,685,52,0.237403186180079,1
18,686,52,0.213994063514687,1
18,687,52,0.17334418412855,1
18,688,52,0.128145007819566,1
19,685,52,0.198091992079604,1
19,686,52,0.190011406875897,1
19,687,52,0.184668887588415,1
19,688,52,0.174464313886553,1
19,689,52,0.129813813909714,1
20,686,52,0.151572495946464,1
20,687,52,0.16361656777986,1
20,688,52,0.178002203276354,1
20,689,52,0.155088043959309,1
21,687,52,0.124050708125102,1
21,688,52,0.131902999531528,1
21,689,52,0.139085343738117,1
21,690,52,0.12049692596642,1
22,688,52,0.105295432619521,1
22,689,52,0.136117557052215,1
22,690,52,0.159927604495866,1
22,691,52,0.137924779464629,1
23,689,52,0.148241713626408,1
23,690,52,0.202685143894513,1
23,691,52,0.217259237783352,1
23,692,52,0.137939310618631,1
24,690,52,0.18741730177773,1
24,691,52,0.240651737854287,1
24,692,52,0.19080147029401,1
24,693,52,0.124509833769802,1
25,691,52,0.159219564758139,1
25,692,52,0.164819668902206,1
25,693,52,0.159118718113648,1
25,694,52,0.150506013814741,1
25,695,52,0.127444135622568,1
26,692,52,0.121532287028439,1
26,693,52,0.154571142272011,1
26,694,52,0.194522469652906,1
26,695,52,0.209764168763989,1
26,696,52,0.161173994078486,1
26,697,52,0.116033138458053,1
27,694,52,0.191376986778673,1
27,695,52,0.239965876099729,1
27,696,52,0.212198039023048,1
27,697,52,0.183908507374691,1
27,698,52,0.153016700938885,1
27,699,52,0.126236895190986,1
27,700,52,0.110981776003643,1
27,701,52,0.110832564798607,1
27,702,52,0.103074224818918,1
28,695,52,0.215123332431767,1
28,696,52,0.200875481468234,1
28,697,52,0.214645220429177,1
28,698,52,0.225835755805202,1
28,699,52,0.207124444120874,1
28,700,52,0.178947654184601,1
28,701,52,0.172810224130032,1
28,702,52,0.154677675020241,1
28,703,52,0.12036242020209,1
28,704,52,0.102102761619998,1
28,705,52,0.10295264894949,1
29,697,52,0.192503162106745,1
29,698,52,0.257192090773552,1
29,699,52,0.270819698926835,1
29,700,52,0.235852230581047,1
29,701,52,0.212147735522912,1
29,702,52,0.187262753042363,1
29,703,52,0.150451472969098,1
29,704,52,0.131176202187211,1
30,697,52,0.16661949502259,1
30,698,52,0.226063766386589,1
30,699,52,0.242787076774083,1
30,700,52,0.22929828798107,1
30,701,52,0.210184918654903,1
31,698,52,0.171366149852639,1
31,699,52,0.173556269262297,1
31,700,52,0.177077198377149,1
9,681,53,0.116355329217476,1
9,682,53,0.139998736785623,1
9,683,53,0.129139400613069,1
10,680,53,0.102822816247429,1
10,681,53,0.142143454508714,1
10,682,53,0.18996668055031,1
10,683,53,0.182501577951231,1
10,684,53,0.127792251529311,1
11,681,53,0.136640929133424,1
11,682,53,0.183313350956995,1
11,683,53,0.18697751106433,1
11,684,53,0.139747578751273,1
12,681,53,0.149184506662409,1
12,682,53,0.189061413620409,1
12,683,53,0.190917479881807,1
12,684,53,0.152847196225673,1
12,685,53,0.100423552792166,1
13,681,53,0.163036138588709,1
13,682,53,0.190266584397374,1
13,683,53,0.181888001607435,1
13,684,53,0.160814288105882,1
13,685,53,0.119834418630288,1
14,682,53,0.165289033890805,1
14,683,53,0.162848170377721,1
14,684,53,0.161900780529884,1
14,685,53,0.136013900034612,1
15,682,53,0.147410714618535,1
15,683,53,0.164891856276697,1
15,684,53,0.178947185789082,1
15,685,53,0.160706001597686,1
15,686,53,0.122626458960366,1
16,683,53,0.17955198244013,1
16,684,53,0.203029360136239,1
16,685,53,0.1888227497642,1
16,686,53,0.162198255256001,1
16,687,53,0.114030834758517,1
17,684,53,0.225511647892028,1
17,685,53,0.209572889105612,1
17,686,53,0.185128198412738,1
17,687,53,0.139022894633249,1
18,684,53,0.234761827599108,1
18,685,53,0.218567107001045,1
18,686,53,0.180389680593214,1
18,687,53,0.1469463059081,1
18,688,53,0.114263605545524,1
19,685,53,0.189501465763866,1
19,686,53,0.165618729871448,1
19,687,53,0.156646417636209,1
19,688,53,0.161586247492548,1
19,689,53,0.129497331039868,1
20,686,53,0.148092240991314,1
20,687,53,0.150830317800459,1
20,688,53,0.174027823727623,1
20,689,53,0.157610495436018,1
21,687,53,0.123488502787509,1
21,688,53,0.130488488636416,1
21,689,53,0.13179531213388,1
21,690,53,0.10999296038469,1
22,688,53,0.103433331680974,1
22,689,53,0.128269056381616,1
22,690,53,0.155947658665505,1
22,691,53,0.131735531794177,1
23,689,53,0.140429791377952,1
23,690,53,0.200723242031704,1
23,691,53,0.20742772477284,1
23,692,53,0.135398678860041,1
24,690,53,0.171238016445948,1
24,691,53,0.215050633090081,1
24,692,53,0.17692140784901,1
24,693,53,0.127508294915725,1
25,691,53,0.143613715363483,1
25,692,53,0.155689812378863,1
25,693,53,0.163446082703934,1
25,694,53,0.161107220484758,1
25,695,53,0.132966845576842,1
26,693,53,0.159869795774511,1
26,694,53,0.208976828575636,1
26,695,53,0.217449754937396,1
26,696,53,0.154343425799438,1
26,697,53,0.111743343545543,1
27,694,53,0.202186901777534,1
27,695,53,0.246144426923682,1
27,696,53,0.206046720496701,1
27,697,53,0.18547814432988,1
27,698,53,0.156379813442657,1
27,699,53,0.118277885856706,1
28,695,53,0.213347111266946,1
28,696,53,0.199559398989585,1
28,697,53,0.227422483750368,1
28,698,53,0.229096986837175,1
28,699,53,0.19017214278928,1
28,700,53,0.160903588256188,1
28,701,53,0.143753591336901,1
28,702,53,0.127780922893508,1
28,703,53,0.102461116870641,1
29,697,53,0.195856155088727,1
29,698,53,0.227491414142066,1
29,699,53,0.225644040430064,1
29,700,53,0.211424881415288,1
29,701,53,0.18798647858351,1
29,702,53,0.160138894446523,1
30,698,53,0.198621736518453,1
30,699,53,0.204555980954132,1
30,700,53,0.204257057469783,1
9,681,54,0.10608145476467,1
9,682,54,0.115736731238002,1
9,683,54,0.105087933404691,1
10,680,54,0.101221927507508,1
10,681,54,0.126734189624009,1
10,682,54,0.155851899014207,1
10,683,54,0.1492555502804,1
10,684,54,0.105516602447749,1
11,680,54,0.1145035656591,1
11,681,54,0.138221480793494,1
11,682,54,0.169530420671093,1
11,683,54,0.166002988483572,1
11,684,54,0.118068393237691,1
12,680,54,0.134235478500145,1
12,681,54,0.159851800672253,1
12,682,54,0.180283398382121,1
12,683,54,0.168608149894567,1
12,684,54,0.124441883740818,1
13,681,54,0.166583286959695,1
13,682,54,0.178966956437143,1
13,683,54,0.1614671769945,1
13,684,54,0.129407671423234,1
14,681,54,0.143229772646011,1
14,682,54,0.156711186932832,1
14,683,54,0.149354893702063,1
14,684,54,0.138010768167546,1
14,685,54,0.11307924024393,1
15,682,54,0.141435839594829,1
15,683,54,0.152269751694339,1
15,684,54,0.161154561110915,1
15,685,54,0.146652001021424,1
15,686,54,0.109596872062487,1
16,683,54,0.171903802550712,1
16,684,54,0.186381820893601,1
16,685,54,0.171221796889495,1
16,686,54,0.14568014567742,1
16,687,54,0.103707190558608,1
17,683,54,0.195584442116145,1
17,684,54,0.224787748064175,1
17,685,54,0.192776421873832,1
17,686,54,0.163849000886377,1
17,687,54,0.124046329171648,1
18,684,54,0.249819588879249,1
18,685,54,0.207589506406452,1
18,686,54,0.156203064938282,1
18,687,54,0.124781612099899,1
18,688,54,0.10167477883084,1
19,685,54,0.183483127993183,1
19,686,54,0.148037101035124,1
19,687,54,0.133474215959979,1
19,688,54,0.141980692512389,1
19,689,54,0.119481793055061,1
20,686,54,0.143424135000477,1
20,687,54,0.140103025592531,1
20,688,54,0.161649317493801,1
20,689,54,0.146495959956148,1
21,687,54,0.124092112110381,1
21,688,54,0.130040756985034,1
21,689,54,0.123945155739586,1
21,690,54,0.100944288786967,1
22,688,54,0.103037907826832,1
22,689,54,0.120436012763137,1
22,690,54,0.146292719872663,1
22,691,54,0.122770256384639,1
23,689,54,0.13256596437026,1
23,690,54,0.186637956991954,1
23,691,54,0.179826919716749,1
23,692,54,0.130854153035735,1
24,690,54,0.151440571803946,1
24,691,54,0.17278705489123,1
24,692,54,0.156264446537083,1
24,693,54,0.135525973511966,1
24,694,54,0.111338780532325,1
25,691,54,0.122495820182296,1
25,692,54,0.140344031426334,1
25,693,54,0.163600664118058,1
25,694,54,0.172925983180691,1
25,695,54,0.147885177493246,1
26,693,54,0.161532240399938,1
26,694,54,0.214130791434501,1
26,695,54,0.213385214697755,1
26,696,54,0.147634727498633,1
26,697,54,0.106663888252924,1
27,694,54,0.213066988960863,1
27,695,54,0.237516821111525,1
27,696,54,0.193442175299838,1
27,697,54,0.176663147631445,1
27,698,54,0.156519079412608,1
27,699,54,0.111240058007047,1
28,695,54,0.205640981048226,1
28,696,54,0.198652018833389,1
28,697,54,0.231399488492588,1
28,698,54,0.231148842425433,1
28,699,54,0.174071722191362,1
28,700,54,0.143552965553986,1
28,701,54,0.121275551819539,1
28,702,54,0.102188162105287,1
29,698,54,0.212008698304261,1
29,699,54,0.191203048647411,1
29,700,54,0.185908392846199,1
29,701,54,0.163933878511552,1
10,680,55,0.099990831583224,1
10,681,55,0.112346026970297,1
10,682,55,0.125709111477565,1
10,683,55,0.12124348306588,1
11,680,55,0.126003144041264,1
11,681,55,0.143538554222094,1
11,682,55,0.15249657494755,1
11,683,55,0.140207161898572,1
11,684,55,0.101016933664058,1
12,680,55,0.153410022459652,1
12,681,55,0.179063260734393,1
12,682,55,0.17639543236015,1
12,683,55,0.149576357639105,1
12,684,55,0.106469253575483,1
13,680,55,0.145893766712751,1
13,681,55,0.177069889228471,1
13,682,55,0.177634599937445,1
13,683,55,0.150375701824242,1
13,684,55,0.110942049527897,1
14,681,55,0.145276944279081,1
14,682,55,0.155149371093515,1
14,683,55,0.144157446310382,1
14,684,55,0.122603845260435,1
15,682,55,0.138588419664341,1
15,683,55,0.144975689710057,1
15,684,55,0.145116905512517,1
15,685,55,0.134438903763254,1
15,686,55,0.0997557188186224,1
16,682,55,0.141362562928434,1
16,683,55,0.164992027560207,1
16,684,55,0.170052463816179,1
16,685,55,0.15616033201688,1
16,686,55,0.127203020859575,1
17,683,55,0.194174549818706,1
17,684,55,0.217020552141305,1
17,685,55,0.177047972675359,1
17,686,55,0.14191212158702,1
17,687,55,0.106767207590037,1
18,683,55,0.19746418958354,1
18,684,55,0.262490384809724,1
18,685,55,0.205189839913184,1
18,686,55,0.143585132343917,1
18,687,55,0.111534635216699,1
19,684,55,0.213009888279245,1
19,685,55,0.194509267435027,1
19,686,55,0.143930655735928,1
19,687,55,0.120208176468456,1
19,688,55,0.121897526603916,1
19,689,55,0.101964987979956,1
20,686,55,0.142652044898783,1
20,687,55,0.131279467059728,1
20,688,55,0.144757068824885,1
20,689,55,0.127750008789267,1
21,687,55,0.121895282662594,1
21,688,55,0.127013298888621,1
21,689,55,0.116030774694621,1
22,688,55,0.103840127742596,1
22,689,55,0.11365024706011,1
22,690,55,0.132930234475942,1
22,691,55,0.114713755424933,1
23,689,55,0.12485857057293,1
23,690,55,0.165315122431911,1
23,691,55,0.154624877041645,1
23,692,55,0.135639553978816,1
23,693,55,0.116576161365214,1
24,690,55,0.133084140529086,1
24,691,55,0.141062463008828,1
24,692,55,0.152886900915581,1
24,693,55,0.160241244313842,1
24,694,55,0.132754531691796,1
24,695,55,0.10253434996536,1
25,691,55,0.10809144886505,1
25,692,55,0.131639336426118,1
25,693,55,0.167596208608488,1
25,694,55,0.18372977635905,1
25,695,55,0.168615491722001,1
25,696,55,0.107935070119283,1
26,693,55,0.155422587288926,1
26,694,55,0.202385828265078,1
26,695,55,0.200929946063444,1
26,696,55,0.145549191004697,1
26,697,55,0.10896442918291,1
27,695,55,0.217695433833469,1
27,696,55,0.181906116531802,1
27,697,55,0.16725792900764,1
27,698,55,0.150725418990085,1
27,699,55,0.105211513571222,1
28,696,55,0.202883547521944,1
28,697,55,0.226291798753813,1
28,698,55,0.21825607059072,1
28,699,55,0.157140923481957,1
28,700,55,0.126880710278042,1
28,701,55,0.106534284302163,1
29,698,55,0.204112900579181,1
29,699,55,0.17042105841072,1
29,700,55,0.162362171901745,1
10,679,56,0.104960551609414,1
10,680,56,0.100521763350248,1
10,681,56,0.102011620566374,1
10,682,56,0.10263360624367,1
11,679,56,0.123837119768528,1
11,680,56,0.135277135669371,1
11,681,56,0.14806499780079,1
11,682,56,0.134345769305445,1
11,683,56,0.111514733853609,1
12,679,56,0.133547111374208,1
12,680,56,0.165748704181457,1
12,681,56,0.193783363310071,1
12,682,56,0.168720728212866,1
12,683,56,0.127276493598513,1
13,680,56,0.147943127822549,1
13,681,56,0.183370985391646,1
13,682,56,0.171827279794442,1
13,683,56,0.135179295470536,1
14,680,56,0.117070405780905,1
14,681,56,0.146079044372736,1
14,682,56,0.151505896639441,1
14,683,56,0.134491603705579,1
14,684,56,0.104229930850513,1
15,681,56,0.117991325835469,1
15,682,56,0.135229969329919,1
15,683,56,0.134477464696663,1
15,684,56,0.123177956558542,1
15,685,56,0.114490461477492,1
16,682,56,0.132354097094894,1
16,683,56,0.151732502034271,1
16,684,56,0.150192406675523,1
16,685,56,0.138890055485532,1
16,686,56,0.108276138307406,1
17,683,56,0.181783375120037,1
17,684,56,0.198898351304604,1
17,685,56,0.158488595425828,1
17,686,56,0.118918356817616,1
18,683,56,0.190737812075129,1
18,684,56,0.256506468663213,1
18,685,56,0.195728729721774,1
18,686,56,0.129309199435095,1
19,684,56,0.229309355186817,1
19,685,56,0.203548102726856,1
19,686,56,0.138894369081473,1
19,687,56,0.10608532175093,1
20,686,56,0.137346125819282,1
20,687,56,0.118849491783433,1
20,688,56,0.122343842175822,1
20,689,56,0.10774010865427,1
21,687,56,0.116935921802412,1
21,688,56,0.120193220490611,1
21,689,56,0.108561162427058,1
22,688,56,0.105193235253069,1
22,689,56,0.108249657621215,1
22,690,56,0.119199916989013,1
22,691,56,0.107757951255661,1
23,689,56,0.116662531320297,1
23,690,56,0.142455122708342,1
23,691,56,0.136006035347064,1
23,692,56,0.141678065435565,1
23,693,56,0.140785151075857,1
24,690,56,0.116764630650478,1
24,691,56,0.122150307683204,1
24,692,56,0.160546954086754,1
24,693,56,0.198790598549441,1
24,694,56,0.159464699008259,1
24,695,56,0.114879131721828,1
25,692,56,0.129075720608349,1
25,693,56,0.179080449760641,1
25,694,56,0.191516568643277,1
25,695,56,0.178588013569511,1
25,696,56,0.118175481524792,1
26,693,56,0.145522045850445,1
26,694,56,0.184565960396387,1
26,695,56,0.183794229761021,1
26,696,56,0.142497354555468,1
26,697,56,0.113041877531616,1
27,695,56,0.19436426089674,1
27,696,56,0.172626231834494,1
27,697,56,0.156067371845776,1
27,698,56,0.135688942473752,1
28,696,56,0.214132534301548,1
28,697,56,0.212148519813083,1
28,698,56,0.185364400469244,1
28,699,56,0.134776878362369,1
28,700,56,0.10755751065237,1
29,699,56,0.148907565088686,1
9,679,57,0.100746146589594,1
10,679,57,0.109878976879835,1
10,680,57,0.107124800336347,1
10,681,57,0.102779582251752,1
11,679,57,0.12935155110433,1
11,680,57,0.146147168688425,1
11,681,57,0.155884033125381,1
11,682,57,0.127885865275558,1
12,679,57,0.140257912008388,1
12,680,57,0.177738866958514,1
12,681,57,0.205230753717105,1
12,682,57,0.16574287646977,1
12,683,57,0.114952234101519,1
13,679,57,0.122121790021152,1
13,680,57,0.156963695689144,1
13,681,57,0.19106616822673,1
13,682,57,0.169239960984839,1
13,683,57,0.126725104929528,1
14,680,57,0.12192261299647,1
14,681,57,0.152676253647147,1
14,682,57,0.153318216937966,1
14,683,57,0.13188069083333,1
15,681,57,0.122184511448996,1
15,682,57,0.137689143839913,1
15,683,57,0.133683338219746,1
15,684,57,0.115357374439447,1
15,685,57,0.102279836911945,1
16,682,57,0.125121362244818,1
16,683,57,0.144460204102234,1
16,684,57,0.142277045267844,1
16,685,57,0.131185265095854,1
16,686,57,0.103010544814198,1
17,683,57,0.166420993358889,1
17,684,57,0.185364487612596,1
17,685,57,0.154519422692399,1
17,686,57,0.116040719929706,1
18,684,57,0.235647617989763,1
18,685,57,0.193223031554552,1
18,686,57,0.133206413545332,1
19,685,57,0.207549093676806,1
19,686,57,0.144732080468603,1
19,687,57,0.104939473811068,1
20,686,57,0.137426787884788,1
20,687,57,0.113170490226745,1
20,688,57,0.108300516660222,1
20,689,57,0.101192614662366,1
21,687,57,0.115313574011979,1
21,688,57,0.116341723961593,1
21,689,57,0.107955679522111,1
21,690,57,0.101383600211929,1
22,688,57,0.111763397409499,1
22,689,57,0.109198616049394,1
22,690,57,0.113078423275002,1
22,691,57,0.105283602909441,1
23,690,57,0.126943507956319,1
23,691,57,0.126874207205374,1
23,692,57,0.142929106294615,1
23,693,57,0.156049300493086,1
23,694,57,0.110402414318559,1
24,691,57,0.115684063974434,1
24,692,57,0.166052529479375,1
24,693,57,0.228455568192308,1
24,694,57,0.185793537907821,1
24,695,57,0.12327052458456,1
25,692,57,0.130519533455685,1
25,693,57,0.191382150022299,1
25,694,57,0.199090153823095,1
25,695,57,0.176544338563454,1
25,696,57,0.123911812514398,1
26,694,57,0.175101255541694,1
26,695,57,0.176717470618707,1
26,696,57,0.15024736145209,1
26,697,57,0.123681274775794,1
27,695,57,0.183219138100201,1
27,696,57,0.178610757984471,1
27,697,57,0.155014222646961,1
27,698,57,0.123646842258703,1
28,697,57,0.19820255520788,1
28,699,57,0.116180661260638,1
9,679,58,0.102536670157116,1
10,679,58,0.115474702070448,1
10,680,58,0.116703074764972,1
10,681,58,0.10333355254255,1
11,678,58,0.128801545836063,1
11,679,58,0.136607760194942,1
11,680,58,0.155160612585966,1
11,681,58,0.157458266892406,1
11,682,58,0.118913705541185,1
12,679,58,0.148443788167555,1
12,680,58,0.183394655704724,1
12,681,58,0.204783272602862,1
12,682,58,0.159034341562749,1
12,683,58,0.101855928074508,1
13,679,58,0.132048594287443,1
13,680,58,0.166114237865748,1
13,681,58,0.194021308233623,1
13,682,58,0.166113551611848,1
13,683,58,0.117141198861758,1
14,680,58,0.130401465106189,1
14,681,58,0.161434868596622,1
14,682,58,0.157188601788603,1
14,683,58,0.126492061819544,1
15,681,58,0.131242191490767,1
15,682,58,0.143220077948064,1
15,683,58,0.130887027865404,1
15,684,58,0.107271691349628,1
16,682,58,0.122400670534464,1
16,683,58,0.136860770025529,1
16,684,58,0.133522711235554,1
16,685,58,0.119780259036811,1
17,683,58,0.150298362099044,1
17,684,58,0.172427686599116,1
17,685,58,0.157646452961775,1
17,686,58,0.120366254509593,1
18,684,58,0.210075902321131,1
18,685,58,0.203132450722052,1
18,686,58,0.153822254087876,1
18,687,58,0.102616918291698,1
19,685,58,0.206527512157375,1
19,686,58,0.158230563959562,1
19,687,58,0.108865194690438,1
20,686,58,0.137463279163578,1
20,687,58,0.108497558672772,1
20,690,58,0.10421177235447,1
21,688,58,0.110740911777788,1
21,689,58,0.107992225265496,1
21,690,58,0.110163554389807,1
22,689,58,0.11194587558929,1
22,690,58,0.109402531493859,1
22,691,58,0.101941078022659,1
23,690,58,0.111870866948767,1
23,691,58,0.115473852422762,1
23,692,58,0.134529358562978,1
23,693,58,0.159270325760874,1
23,694,58,0.128818713076473,1
24,692,58,0.158273307773883,1
24,693,58,0.23376965696109,1
24,694,58,0.208957874896503,1
24,695,58,0.134059034997504,1
25,693,58,0.197628193372635,1
25,694,58,0.205872019861106,1
25,695,58,0.167275706251516,1
25,696,58,0.125373130282635,1
26,694,58,0.168593531597213,1
26,695,58,0.170041015358265,1
26,696,58,0.15699466425798,1
26,697,58,0.129964604588011,1
27,696,58,0.184071715980696,1
27,697,58,0.153271039705596,1
27,698,58,0.111984697952756,1
9,679,59,0.105586959811841,1
9,680,59,0.10680355726088,1
10,679,59,0.124545965582264,1
10,680,59,0.130472367116233,1
10,681,59,0.108802037545833,1
11,678,59,0.142076931452125,1
11,679,59,0.15176094344589,1
11,680,59,0.165945059940107,1
11,681,59,0.158454544160903,1
11,682,59,0.115778777905504,1
12,679,59,0.168176931908453,1
12,680,59,0.19007560974073,1
12,681,59,0.200350725986307,1
12,682,59,0.155360922474229,1
13,679,59,0.149311550777195,1
13,680,59,0.177067884931368,1
13,681,59,0.197299052930864,1
13,682,59,0.168766914189603,1
13,683,59,0.114679518980385,1
14,680,59,0.14418270698964,1
14,681,59,0.176301056109571,1
14,682,59,0.166730896905632,1
14,683,59,0.125502995663453,1
15,681,59,0.15095866906553,1
15,682,59,0.156548784402836,1
15,683,59,0.131548565731741,1
15,684,59,0.106794004170881,1
16,682,59,0.131799407871439,1
16,683,59,0.137378107429589,1
16,684,59,0.132957074628462,1
16,685,59,0.115192847790237,1
17,683,59,0.148132969615612,1
17,684,59,0.171445112622774,1
17,685,59,0.17018173008645,1
17,686,59,0.136469300300999,1
18,684,59,0.196722055009211,1
18,685,59,0.227300657343803,1
18,686,59,0.19577016638581,1
18,687,59,0.119952911803626,1
19,685,59,0.206095368273142,1
19,686,59,0.181927564689396,1
19,687,59,0.119346699073103,1
20,687,59,0.109232089989609,1
20,690,59,0.112977456808402,1
21,688,59,0.108440762992887,1
21,689,59,0.108822178553141,1
21,690,59,0.120306354347781,1
21,691,59,0.100614113517886,1
22,689,59,0.115704847663966,1
22,690,59,0.110255926343282,1
22,691,59,0.100477734171481,1
23,691,59,0.106116845858637,1
23,692,59,0.123686111231849,1
23,693,59,0.153548732890732,1
23,694,59,0.149243796820754,1
23,695,59,0.102991503991713,1
24,692,59,0.141524442598316,1
24,693,59,0.210648325216786,1
24,694,59,0.216268112865563,1
24,695,59,0.145442331468895,1
25,693,59,0.189983499217311,1
25,694,59,0.200026901289028,1
25,695,59,0.154123421513548,1
25,696,59,0.121899149648853,1
26,695,59,0.160398745030269,1
26,696,59,0.157337867458235,1
26,697,59,0.128415707750678,1
27,696,59,0.186849649980615,1
27,697,59,0.151359779023412,1
9,679,60,0.105933311065699,1
9,680,60,0.10993418219354,1
10,679,60,0.130687371552284,1
10,680,60,0.135649346713035,1
10,681,60,0.108503342812783,1
11,678,60,0.155116180369194,1
11,679,60,0.16498062267397,1
11,680,60,0.168239849408839,1
11,681,60,0.148298509306293,1
11,682,60,0.105323470993135,1
12,679,60,0.186523537770337,1
12,680,60,0.190919397035558,1
12,681,60,0.184717121433932,1
12,682,60,0.141206020788882,1
13,679,60,0.162667729173791,1
13,680,60,0.181649871504259,1
13,681,60,0.191042900951656,1
13,682,60,0.161096131493174,1
13,683,60,0.108656736898732,1
14,680,60,0.157360742588224,1
14,681,60,0.188295772126788,1
14,682,60,0.170100185694501,1
14,683,60,0.121677260887969,1
15,681,60,0.17798553711022,1
15,682,60,0.17189040426029,1
15,683,60,0.131178914524052,1
15,684,60,0.103419813568443,1
16,682,60,0.147482477169183,1
16,683,60,0.140331275818136,1
16,684,60,0.129448726835103,1
16,685,60,0.109537004579432,1
17,683,60,0.148968609006997,1
17,684,60,0.16618561916423,1
17,685,60,0.171390092488693,1
17,686,60,0.146666935213431,1
17,687,60,0.100660713425548,1
18,685,60,0.235818636818721,1
18,686,60,0.227676593765779,1
18,687,60,0.133443105783195,1
19,686,60,0.198533569231727,1
19,687,60,0.125760340875819,1
20,687,60,0.108448366250378,1
20,690,60,0.112465184611697,1
21,688,60,0.105369297503545,1
21,689,60,0.106338168187732,1
21,690,60,0.12363880328445,1
21,691,60,0.106656284995433,1
22,689,60,0.11889431614529,1
22,690,60,0.109087442917651,1
22,691,60,0.101275880135523,1
23,691,60,0.10061850336426,1
23,692,60,0.117056277664907,1
23,693,60,0.149131458146674,1
23,694,60,0.165359293218626,1
23,695,60,0.117640040089285,1
24,692,60,0.126880557777175,1
24,693,60,0.183010669415576,1
24,694,60,0.20746491319845,1
24,695,60,0.151401814797995,1
24,696,60,0.101848542675397,1
25,693,60,0.177968881837004,1
25,694,60,0.183083150898881,1
25,695,60,0.142337097930523,1
25,696,60,0.113913387305406,1
26,695,60,0.147428197753597,1
26,696,60,0.146843269786882,1
26,697,60,0.116539768122694,1
9,679,61,0.108102951787558,1
9,680,61,0.11142604370677,1
10,679,61,0.138245728431281,1
10,680,61,0.137273415584677,1
10,681,61,0.10787120493494,1
11,678,61,0.167683972857209,1
11,679,61,0.178204452104206,1
11,680,61,0.17093623901681,1
11,681,61,0.139123109488435,1
12,679,61,0.199755820105749,1
12,680,61,0.194036384033577,1
12,681,61,0.173264959928357,1
12,682,61,0.130062608180632,1
13,680,61,0.18839023552072,1
13,681,61,0.191005494667666,1
13,682,61,0.156909481631072,1
13,683,61,0.109193234947387,1
14,681,61,0.199856470677697,1
14,682,61,0.171813031856335,1
14,683,61,0.122736531907285,1
15,682,61,0.181579296281786,1
15,683,61,0.132642966414968,1
15,684,61,0.103064606371404,1
16,683,61,0.143517803211319,1
16,684,61,0.128115183007229,1
16,685,61,0.111740010312316,1
17,684,61,0.161163384375339,1
17,685,61,0.16761096851379,1
17,686,61,0.154086657911781,1
17,687,61,0.112979515570101,1
17,688,61,0.105117322500266,1
18,685,61,0.223836295157536,1
18,686,61,0.2331548823962,1
18,687,61,0.143841475407732,1
18,688,61,0.104755557765963,1
19,686,61,0.202116250304628,1
19,687,61,0.130809361352635,1
20,687,61,0.110534447390266,1
20,690,61,0.106215078202558,1
21,689,61,0.101612057402996,1
21,690,61,0.118094961067234,1
21,691,61,0.107308095485066,1
22,690,61,0.107368616543263,1
22,691,61,0.104373728274785,1
23,691,61,0.101758883058763,1
23,692,61,0.117337140689485,1
23,693,61,0.145841448022593,1
23,694,61,0.166768771585141,1
23,695,61,0.121119194859611,1
24,693,61,0.160100322620196,1
24,694,61,0.184484143681463,1
24,695,61,0.148429289692311,1
24,696,61,0.102111345240204,1
25,694,61,0.160681579673194,1
25,695,61,0.134310606962778,1
25,696,61,0.107032820527957,1
26,696,61,0.131084211485901,1
9,679,62,0.107761110202183,1
9,680,62,0.107988674173889,1
10,679,62,0.146367488868967,1
10,680,62,0.137220759214028,1
10,681,62,0.107416828602943,1
11,679,62,0.189511509035223,1
11,680,62,0.174336986555872,1
11,681,62,0.129638590414005,1
12,680,62,0.194284611872706,1
12,681,62,0.1579472500282,1
12,682,62,0.114725127632413,1
13,680,62,0.191394459020816,1
13,681,62,0.184464242318373,1
13,682,62,0.145861850459959,1
13,683,62,0.107263053264827,1
14,681,62,0.206761709916777,1
14,682,62,0.170306094543152,1
14,683,62,0.123462544961432,1
15,682,62,0.186457134535857,1
15,683,62,0.137601466734545,1
15,684,62,0.104716081827355,1
16,683,62,0.14904464158191,1
16,684,62,0.130230881993992,1
16,685,62,0.121422791406229,1
16,686,62,0.102208422934705,1
17,685,62,0.164832794869652,1
17,686,62,0.154682663977162,1
17,687,62,0.126860591056571,1
17,688,62,0.11876470130161,1
18,686,62,0.20922237675668,1
18,687,62,0.14743236974159,1
18,688,62,0.109375288303335,1
19,687,62,0.131664858535433,1
21,690,62,0.103774672192073,1
21,691,62,0.102952779664519,1
22,690,62,0.102394931494542,1
22,691,62,0.102243149560611,1
23,691,62,0.100336354975235,1
23,692,62,0.114319693185671,1
23,693,62,0.138780657899594,1
23,694,62,0.15362130151739,1
23,695,62,0.122323156522562,1
24,693,62,0.142304604353021,1
24,694,62,0.158353109298784,1
24,695,62,0.142797018758312,1
24,696,62,0.100428519963249,1
25,694,62,0.142728567655053,1
25,695,62,0.132149931113291,1
25,696,62,0.102908663342399,1
9,680,63,0.104596041859513,1
10,680,63,0.140283662869004,1
10,681,63,0.10864402486221,1
11,680,63,0.17978233499911,1
11,681,63,0.125474205678425,1
12,680,63,0.191549792046355,1
12,681,63,0.145571009521538,1
12,682,63,0.106251155550425,1
13,681,63,0.177366503413984,1
13,682,63,0.137902438087674,1
13,683,63,0.105871156069646,1
14,682,63,0.16979900737591,1
14,683,63,0.125070481419973,1
15,683,63,0.144472687387456,1
15,684,63,0.108777136332903,1
16,684,63,0.133635365804286,1
16,685,63,0.131314618509477,1
16,686,63,0.109320562278068,1
16,687,63,0.105605750097188,1
16,688,63,0.105611403522171,1
17,685,63,0.161521391052572,1
17,686,63,0.145344937879741,1
17,687,63,0.133103442781629,1
17,688,63,0.122077608341518,1
18,686,63,0.170006844271231,1
18,687,63,0.13917899016312,1
18,688,63,0.107559002982279,1
19,687,63,0.126700966220931,1
21,691,63,0.102218847458229,1
22,693,63,0.105522364801922,1
23,692,63,0.114586177557114,1
23,693,63,0.133893026911304,1
23,694,63,0.137024229168673,1
23,695,63,0.120587718446635,1
24,693,63,0.130532942639026,1
24,694,63,0.137864378228541,1
24,695,63,0.13325339470516,1
25,695,63,0.132829878012809,1
10,681,64,0.108842755277212,1
11,681,64,0.12192852785151,1
12,681,64,0.134305193182014,1
12,682,64,0.100212437128214,1
13,682,64,0.130204564701587,1
13,683,64,0.1042732846683,1
14,683,64,0.12698431283105,1
15,684,64,0.115040248887378,1
15,685,64,0.102981526077871,1
16,685,64,0.135485637032753,1
16,686,64,0.118135460940232,1
16,687,64,0.120020415222929,1
16,688,64,0.11913695591695,1
17,686,64,0.136117241157563,1
17,687,64,0.137971314014776,1
17,688,64,0.124240201344756,1
18,687,64,0.129906185863189,1
18,688,64,0.106872117293331,1
20,691,64,0.115594949003752,1
21,691,64,0.1087926369567,1
22,692,64,0.105033621310347,1
22,693,64,0.117308372490295,1
22,694,64,0.106357383296922,1
23,693,64,0.133873920731305,1
23,694,64,0.127183380926542,1
23,695,64,0.120689000807887,1
24,694,64,0.121339950756915,1
24,695,64,0.123846509464742,1
15,685,65,0.103658085279567,1
15,687,65,0.100331932450104,1
15,688,65,0.110481398874532,1
16,686,65,0.12289826996922,1
16,687,65,0.128756732367125,1
16,688,65,0.126828859983402,1
17,686,65,0.130313766214983,1
17,687,65,0.138873520034427,1
17,688,65,0.125097953361797,1
18,687,65,0.125567416386667,1
18,688,65,0.108834008263221,1
20,691,65,0.125699089992046,1
20,692,65,0.119562052082563,1
21,691,65,0.117243592300753,1
21,692,65,0.123388516683623,1
21,693,65,0.108379468537438,1
22,692,65,0.116782985219063,1
22,693,65,0.12760579743407,1
22,694,65,0.120925736617426,1
22,695,65,0.113570892144889,1
23,694,65,0.12344220788158,1
23,695,65,0.121509640649751,1
15,688,66,0.112386428807023,1
16,686,66,0.115429572706857,1
16,687,66,0.125556872041034,1
16,688,66,0.126919489069831,1
17,687,66,0.125520260940134,1
17,688,66,0.117259920786397,1
18,688,66,0.10284486351557,1
20,691,66,0.117941697696314,1
20,692,66,0.141953699859003,1
20,693,66,0.100874247317527,1
21,691,66,0.121370570752342,1
21,692,66,0.157894822408851,1
21,693,66,0.140203904915778,1
21,694,66,0.116421013519299,1
22,692,66,0.128289578641091,1
22,693,66,0.135377513918343,1
22,694,66,0.13934943166737,1
22,695,66,0.13397015967104,1
23,695,66,0.118075157740416,1
23,696,66,0.10218620137986,1
15,688,67,0.114524338455713,1
16,687,67,0.122410419697007,1
16,688,67,0.136463690447693,1
16,689,67,0.114194010685765,1
17,687,67,0.115242258071011,1
17,688,67,0.117673579387015,1
18,688,67,0.101559204959805,1
20,691,67,0.106113044229892,1
20,692,67,0.147735127533443,1
20,693,67,0.112777310313925,1
21,691,67,0.124539473402515,1
21,692,67,0.181249219048977,1
21,693,67,0.161041950113859,1
21,694,67,0.131322210874049,1
21,695,67,0.106720193751452,1
22,692,67,0.137447419073453,1
22,693,67,0.138870698768395,1
22,694,67,0.150765897077244,1
22,695,67,0.146062084097788,1
22,696,67,0.103002930663788,1
23,694,67,0.111757438982783,1
23,696,67,0.10941604960639,1
15,688,68,0.113468836386385,1
15,689,68,0.106652777475502,1
16,688,68,0.139421902257756,1
16,689,68,0.12678545170102,1
17,688,68,0.117534117344521,1
17,689,68,0.106357753656169,1
20,692,68,0.135645447048018,1
20,693,68,0.116793475100101,1
21,692,68,0.179760875948597,1
21,693,68,0.166233548008015,1
21,694,68,0.143517214993691,1
21,695,68,0.1159152661811,1
22,694,68,0.157042059348732,1
22,695,68,0.147693135330536,1
22,696,68,0.105911971837296,1
15,688,69,0.104877286136257,1
15,689,69,0.106962005661265,1
16,689,69,0.127906834144714,1
20,693,69,0.119549067723065,1
21,695,69,0.119047296300316,1
