x,y,z,signal,mito.p
224,182,45,0.132000131690626,1
225,182,45,0.2191106418754,1
225,183,45,0.144914787399693,1
226,182,45,0.209016304514244,1
226,183,45,0.129546621498533,1
231,183,45,0.147670902882771,1
232,183,45,0.136793233927469,1
240,192,45,0.111973412888628,1
241,185,45,0.105124490040995,1
242,185,45,0.127517129073069,1
242,186,45,0.121281292387874,1
242,192,45,0.106291677209261,1
243,185,45,0.107491619385085,1
243,186,45,0.10993361576175,1
243,193,45,0.114919718738179,1
224,181,46,0.191956729715924,1
224,182,46,0.154560488997188,1
224,183,46,0.113875632448007,1
225,181,46,0.228412432232902,1
225,182,46,0.253592198888565,1
225,183,46,0.199671203910631,1
225,184,46,0.100943820391448,1
226,181,46,0.188733144612161,1
226,182,46,0.214439583903503,1
226,183,46,0.168310936598507,1
227,182,46,0.118212157983207,1
230,182,46,0.101257002706823,1
231,182,46,0.126971611687447,1
231,183,46,0.129185292480992,1
232,183,46,0.109511264611736,1
240,194,46,0.103882958700269,1
241,195,46,0.126922266764187,1
242,185,46,0.108791242663062,1
242,186,46,0.106235251888623,1
243,185,46,0.108967773309056,1
243,186,46,0.10765097189775,1
243,193,46,0.107477393232816,1
244,185,46,0.101336357622044,1
244,186,46,0.104033651342295,1
222,196,47,0.10946290005119,1
223,181,47,0.12166008275464,1
224,180,47,0.214146477237922,1
224,181,47,0.188047827503555,1
224,182,47,0.159584096293878,1
224,183,47,0.122321086867944,1
225,180,47,0.171027216676648,1
225,181,47,0.202193350385607,1
225,182,47,0.251620733042837,1
225,183,47,0.224261641860287,1
225,184,47,0.10726473077436,1
226,180,47,0.113564454429735,1
226,181,47,0.147599434440937,1
226,182,47,0.199237665732761,1
226,183,47,0.188373787212966,1
227,181,47,0.101908802303537,1
227,182,47,0.105709483365225,1
231,182,47,0.101092922667294,1
231,183,47,0.101293592021885,1
241,194,47,0.118949793781971,1
241,195,47,0.104600377241292,1
242,193,47,0.107589154582187,1
242,195,47,0.129244887641071,1
243,185,47,0.114925361270243,1
243,186,47,0.101508585565017,1
243,194,47,0.132602858687055,1
243,195,47,0.117851950936327,1
244,185,47,0.11953218369855,1
244,186,47,0.109294876774967,1
245,186,47,0.102303986513461,1
220,194,48,0.101177375468627,1
220,195,48,0.11000842832973,1
221,195,48,0.103459670759217,1
222,196,48,0.128416579184201,1
223,181,48,0.127751555583771,1
224,180,48,0.190397909429344,1
224,181,48,0.177054660927651,1
224,182,48,0.155638016548818,1
224,183,48,0.11828579411593,1
225,180,48,0.163303744930813,1
225,181,48,0.186278033160969,1
225,182,48,0.228444087055638,1
225,183,48,0.208094850706646,1
225,184,48,0.101005180204411,1
226,181,48,0.129522580826208,1
226,182,48,0.174868419397172,1
226,183,48,0.177433734510311,1
242,194,48,0.10057290560515,1
243,185,48,0.115090018634481,1
243,194,48,0.10234481317403,1
244,185,48,0.131647320935775,1
244,186,48,0.107483362552451,1
245,185,48,0.106279215709877,1
245,186,48,0.100139312962685,1
220,194,49,0.103167751421812,1
220,195,49,0.127735793529917,1
221,195,49,0.114068448007969,1
221,196,49,0.155905818963465,1
222,181,49,0.102194545355846,1
222,196,49,0.135053907079444,1
223,181,49,0.137249690807003,1
224,180,49,0.161202282989238,1
224,181,49,0.16202066799686,1
224,182,49,0.138520284455734,1
225,180,49,0.149493876456119,1
225,181,49,0.17150087347535,1
225,182,49,0.185627595179136,1
225,183,49,0.154135076936923,1
226,180,49,0.109241610400852,1
226,181,49,0.122477639900415,1
226,182,49,0.142249682255211,1
226,183,49,0.134188965735836,1
243,185,49,0.106579609738297,1
244,185,49,0.130908846382245,1
244,186,49,0.101045015609348,1
245,185,49,0.113961697401357,1
220,195,50,0.138508541889007,1
221,195,50,0.129753521602816,1
221,196,50,0.187050798623644,1
222,181,50,0.108159159249814,1
222,196,50,0.14254462982411,1
222,197,50,0.192351859461252,1
223,180,50,0.158333349543642,1
223,181,50,0.142871722397102,1
223,197,50,0.136938251358675,1
224,180,50,0.145788366828101,1
224,181,50,0.15050681989075,1
224,182,50,0.115205712327626,1
225,180,50,0.137516839646508,1
225,181,50,0.156734345278716,1
225,182,50,0.138621218243577,1
226,180,50,0.103741797362404,1
226,181,50,0.114120025979632,1
226,182,50,0.106668016669241,1
229,199,50,0.107620929227032,1
230,199,50,0.11417587397556,1
231,199,50,0.100103148471466,1
244,185,50,0.107339096732659,1
245,185,50,0.104272064661367,1
219,196,51,0.105211960180902,1
220,195,51,0.139976635052887,1
220,196,51,0.187693371917929,1
221,195,51,0.14514620746474,1
221,196,51,0.218086293554532,1
221,197,51,0.181272137750641,1
222,180,51,0.13671397704852,1
222,181,51,0.107949067520252,1
222,196,51,0.147087238494665,1
222,197,51,0.175015582733429,1
222,198,51,0.180198346470242,1
223,179,51,0.119455976836932,1
223,180,51,0.151676490644557,1
223,181,51,0.139704257612243,1
223,196,51,0.0999078275401243,1
223,197,51,0.155438599879917,1
223,198,51,0.186011439860336,1
224,179,51,0.106849754130537,1
224,180,51,0.142237395042532,1
224,181,51,0.142922320006052,1
224,197,51,0.10688507986699,1
224,198,51,0.126728503520269,1
225,179,51,0.103808265954398,1
225,180,51,0.131945786917525,1
225,181,51,0.142846069572758,1
225,182,51,0.105102627952478,1
226,181,51,0.104949321009882,1
229,199,51,0.125552580230932,1
229,200,51,0.121775721983189,1
230,198,51,0.0998954967557688,1
230,199,51,0.142478509805525,1
230,200,51,0.142957449669962,1
231,199,51,0.109367107721135,1
231,200,51,0.119918272321073,1
219,196,52,0.111929176744399,1
220,180,52,0.123639239001211,1
220,195,52,0.13236756074283,1
220,196,52,0.19401941286571,1
220,197,52,0.14531527646119,1
221,179,52,0.151885787191029,1
221,180,52,0.140786022509381,1
221,195,52,0.14627024778068,1
221,196,52,0.232179443281831,1
221,197,52,0.177808516282869,1
221,198,52,0.125514585729313,1
222,179,52,0.142553562017725,1
222,180,52,0.131673823407805,1
222,181,52,0.103515660363093,1
222,196,52,0.147800430583099,1
222,197,52,0.169089301021569,1
222,198,52,0.174493299944124,1
223,178,52,0.121235095518217,1
223,179,52,0.119064616041592,1
223,180,52,0.136452481633999,1
223,181,52,0.124563372466893,1
223,196,52,0.101506668411265,1
223,197,52,0.176017164853499,1
223,198,52,0.211202949082727,1
223,199,52,0.163311664082956,1
224,179,52,0.103039204084198,1
224,180,52,0.133814129498683,1
224,181,52,0.127776031972858,1
224,197,52,0.116729522772405,1
224,198,52,0.137516044463418,1
224,199,52,0.125214159022136,1
225,180,52,0.121469489350162,1
225,181,52,0.121079718921003,1
229,199,52,0.135744921184709,1
229,200,52,0.119382046595394,1
230,198,52,0.115769823926052,1
230,199,52,0.174264690252191,1
230,200,52,0.147597070677505,1
231,199,52,0.120761874436278,1
231,200,52,0.118416607180705,1
219,196,53,0.12174808664758,1
219,197,53,0.109705779467068,1
220,179,53,0.104174376963399,1
220,180,53,0.109161743518436,1
220,195,53,0.121500196488942,1
220,196,53,0.191680855648268,1
220,197,53,0.156321623469135,1
221,178,53,0.122627733431894,1
221,179,53,0.131128164414236,1
221,180,53,0.128234471363658,1
221,195,53,0.134732958112792,1
221,196,53,0.227440173850893,1
221,197,53,0.181230025725625,1
221,198,53,0.129855326824183,1
222,178,53,0.154498094356915,1
222,179,53,0.14385195439585,1
222,180,53,0.127760640278252,1
222,196,53,0.148750554553615,1
222,197,53,0.169749564416379,1
222,198,53,0.174393215803967,1
222,199,53,0.131896169671289,1
223,177,53,0.104427953225776,1
223,178,53,0.130942930325927,1
223,179,53,0.130916003030055,1
223,180,53,0.129913015723429,1
223,181,53,0.107811675132376,1
223,196,53,0.105947319359587,1
223,197,53,0.18965673343189,1
223,198,53,0.232618188275003,1
223,199,53,0.172652342161438,1
224,176,53,0.104873713258811,1
224,179,53,0.106953487398574,1
224,180,53,0.121125055250056,1
224,181,53,0.105624583954212,1
224,197,53,0.126059874363635,1
224,198,53,0.154786974569908,1
224,199,53,0.132608849792528,1
225,180,53,0.102169916465892,1
229,199,53,0.141100849655532,1
229,200,53,0.119696906420302,1
230,198,53,0.12310918956063,1
230,199,53,0.200486647830113,1
230,200,53,0.157312323563082,1
230,201,53,0.106834514936798,1
231,199,53,0.134869707818445,1
231,200,53,0.121539105995759,1
231,201,53,0.101113913322288,1
248,188,53,0.100739000834702,1
218,196,54,0.103014629658839,1
219,196,54,0.133851405067645,1
219,197,54,0.130519054167247,1
220,195,54,0.107641407914831,1
220,196,54,0.179389895804785,1
220,197,54,0.174931565648858,1
220,198,54,0.122522954443629,1
221,177,54,0.107764029504486,1
221,178,54,0.119669314656369,1
221,179,54,0.115425727506435,1
221,180,54,0.109255792981445,1
221,195,54,0.114960588970424,1
221,196,54,0.197235612570363,1
221,197,54,0.181725217825272,1
221,198,54,0.131629685299847,1
222,177,54,0.123865201713818,1
222,178,54,0.144544809404433,1
222,179,54,0.140718573554673,1
222,180,54,0.123962421016267,1
222,196,54,0.141265125767603,1
222,197,54,0.162297892786478,1
222,198,54,0.168508523257009,1
222,199,54,0.12199890700144,1
223,176,54,0.125504030490762,1
223,177,54,0.110409756145993,1
223,178,54,0.13049537296125,1
223,179,54,0.141204060063454,1
223,180,54,0.127801630332606,1
223,196,54,0.10244486463543,1
223,197,54,0.180089852996584,1
223,198,54,0.241977645745913,1
223,199,54,0.168147096203197,1
224,175,54,0.16148003063897,1
224,176,54,0.111595602884577,1
224,179,54,0.105804839978518,1
224,180,54,0.102064015506966,1
224,197,54,0.130462258487363,1
224,198,54,0.182259264967143,1
224,199,54,0.138755146683198,1
225,175,54,0.104125511328576,1
225,198,54,0.108105359122666,1
225,199,54,0.100259527217232,1
229,199,54,0.13166227691362,1
229,200,54,0.115616713055998,1
230,198,54,0.112869682267401,1
230,199,54,0.195329133879639,1
230,200,54,0.157177534582857,1
230,201,54,0.105136090999775,1
231,199,54,0.140302736370246,1
231,200,54,0.125217710113744,1
218,196,55,0.113354351807254,1
218,197,55,0.103436588663768,1
219,195,55,0.103368998101112,1
219,196,55,0.153622423488051,1
219,197,55,0.160433504334932,1
220,178,55,0.105042204930553,1
220,195,55,0.100267664227756,1
220,196,55,0.172571985097665,1
220,197,55,0.198104257506445,1
220,198,55,0.1353761740893,1
221,177,55,0.107273456002513,1
221,178,55,0.120843048468978,1
221,179,55,0.108858179650575,1
221,195,55,0.101768316326653,1
221,196,55,0.173689304482556,1
221,197,55,0.192450157162687,1
221,198,55,0.14437349646666,1
222,176,55,0.126899358955442,1
222,177,55,0.115574938711472,1
222,178,55,0.125607687508365,1
222,179,55,0.134070385419145,1
222,180,55,0.120002409227753,1
222,196,55,0.138835089816047,1
222,197,55,0.16422372819434,1
222,198,55,0.169006242513874,1
222,199,55,0.116361069785811,1
223,176,55,0.128103647405964,1
223,177,55,0.111813635552121,1
223,178,55,0.121815927747373,1
223,179,55,0.143680793958944,1
223,180,55,0.126470940449521,1
223,196,55,0.099886194202907,1
223,197,55,0.1668108509314,1
223,198,55,0.241013426338156,1
223,199,55,0.161960038009473,1
224,175,55,0.140274850497499,1
224,176,55,0.115182858983475,1
224,177,55,0.100830686534278,1
224,178,55,0.100641944926038,1
224,179,55,0.105753207542259,1
224,197,55,0.136592215999469,1
224,198,55,0.217839111435632,1
224,199,55,0.155943933287193,1
225,198,55,0.131338310608393,1
225,199,55,0.11162262821672,1
229,199,55,0.119146944723712,1
229,200,55,0.11813639773127,1
230,199,55,0.169158111591157,1
230,200,55,0.158049109714161,1
230,201,55,0.112516871512551,1
231,199,55,0.140860813291523,1
231,200,55,0.138936786108222,1
231,201,55,0.105314233797787,1
232,200,55,0.103455161090734,1
245,198,55,0.101450243090628,1
247,197,55,0.102646187565164,1
213,183,56,0.121221010973896,1
214,181,56,0.116183340918722,1
214,182,56,0.144259414925534,1
214,183,56,0.115821696006529,1
218,196,56,0.11031314684701,1
218,197,56,0.103272018442882,1
219,196,56,0.150172592455786,1
219,197,56,0.163773480278659,1
219,198,56,0.107951115389032,1
220,178,56,0.121889106377497,1
220,196,56,0.147189642826578,1
220,197,56,0.187953647325518,1
220,198,56,0.134019831381872,1
221,177,56,0.104913058482391,1
221,178,56,0.122332938363861,1
221,179,56,0.108582349154595,1
221,196,56,0.140027962487413,1
221,197,56,0.180378112313191,1
221,198,56,0.145308577315979,1
222,176,56,0.121239692330053,1
222,177,56,0.106477532193955,1
222,178,56,0.114021619349007,1
222,179,56,0.128296789753497,1
222,180,56,0.116131174729431,1
222,196,56,0.124959471682016,1
222,197,56,0.15622765025656,1
222,198,56,0.156876922696056,1
222,199,56,0.107264905061065,1
223,175,56,0.128570267378964,1
223,176,56,0.128492339436138,1
223,177,56,0.113510425551287,1
223,178,56,0.115129069749246,1
223,179,56,0.135253399998779,1
223,180,56,0.116988077098785,1
223,197,56,0.144447110813546,1
223,198,56,0.208887550211168,1
223,199,56,0.143103610857667,1
224,175,56,0.121557351635155,1
224,176,56,0.119210700978864,1
224,177,56,0.112880477150171,1
224,178,56,0.104086155212078,1
224,179,56,0.0999509308207734,1
224,197,56,0.134499838752375,1
224,198,56,0.228368620912515,1
224,199,56,0.160577007650391,1
225,198,56,0.146654560857399,1
225,199,56,0.115423156777541,1
229,199,56,0.105312785039555,1
229,200,56,0.121822082246632,1
229,201,56,0.102248203875047,1
230,199,56,0.136881651751333,1
230,200,56,0.157414760573753,1
230,201,56,0.119655600471295,1
231,199,56,0.138021878944969,1
231,200,56,0.160432643794328,1
231,201,56,0.118397239570649,1
232,199,56,0.103743474871937,1
232,200,56,0.120759870139174,1
234,201,56,0.0998248997474579,1
235,201,56,0.102118480102176,1
245,198,56,0.10102463495782,1
245,199,56,0.106744299781292,1
246,197,56,0.104766319969977,1
246,198,56,0.116186510758164,1
247,196,56,0.10529498600984,1
247,197,56,0.109482899450551,1
247,198,56,0.102471367107459,1
248,196,56,0.101312001055066,1
248,197,56,0.0998561515321893,1
249,188,56,0.0998811398884715,1
252,194,56,0.110856006360385,1
253,193,56,0.112814161059044,1
213,181,57,0.119521987926326,1
213,182,57,0.167828772430034,1
213,183,57,0.126688374006518,1
214,181,57,0.111941943245516,1
214,182,57,0.142022815430324,1
214,183,57,0.10906823870138,1
218,196,57,0.102710423108754,1
219,196,57,0.131062904936255,1
219,197,57,0.143609488910895,1
219,198,57,0.102771325419118,1
220,177,57,0.0999236549514923,1
220,178,57,0.124583175793712,1
220,179,57,0.10118688498695,1
220,196,57,0.11875855769527,1
220,197,57,0.153803529160043,1
220,198,57,0.123315359839337,1
221,177,57,0.104291867988185,1
221,178,57,0.121438183100836,1
221,179,57,0.10889030286883,1
221,196,57,0.110628344352408,1
221,197,57,0.153774172743225,1
221,198,57,0.138510916545358,1
222,176,57,0.113421103615143,1
222,177,57,0.102876605481658,1
222,178,57,0.107483907198403,1
222,179,57,0.114622396512929,1
222,180,57,0.101239279927542,1
222,196,57,0.107358409878121,1
222,197,57,0.143769876250869,1
222,198,57,0.142215249738119,1
222,199,57,0.101403163894529,1
223,175,57,0.124213982088622,1
223,176,57,0.134599868427937,1
223,177,57,0.119568141224307,1
223,178,57,0.107161269829299,1
223,179,57,0.1121099447359,1
223,197,57,0.126502290270524,1
223,198,57,0.166169878896214,1
223,199,57,0.124813081743011,1
224,175,57,0.118776607262123,1
224,176,57,0.132816403471954,1
224,177,57,0.127859395482286,1
224,178,57,0.102281307456015,1
224,197,57,0.122840025531103,1
224,198,57,0.201888152579889,1
224,199,57,0.152286603040097,1
225,198,57,0.148370783824136,1
225,199,57,0.120213219889972,1
229,200,57,0.124547871843097,1
229,201,57,0.108444172476547,1
230,199,57,0.108390274313128,1
230,200,57,0.149888592270524,1
230,201,57,0.123803700292907,1
231,199,57,0.125427878093739,1
231,200,57,0.17492244827562,1
231,201,57,0.132432635041187,1
232,199,57,0.110203662117719,1
232,200,57,0.146657305872998,1
232,201,57,0.112370949969065,1
233,200,57,0.100749566966173,1
234,201,57,0.106304977463411,1
235,201,57,0.117980018985503,1
236,201,57,0.110092140412567,1
245,198,57,0.101566394286372,1
246,197,57,0.116415850275673,1
246,198,57,0.126051301636349,1
246,199,57,0.110131267777766,1
247,196,57,0.109128520115358,1
247,197,57,0.119845562086468,1
247,198,57,0.110006315103436,1
248,196,57,0.108635778922495,1
248,197,57,0.110156898816272,1
251,194,57,0.101298559192969,1
251,195,57,0.103593000088291,1
252,193,57,0.100744839439309,1
252,194,57,0.120909549739729,1
253,193,57,0.120816622247382,1
254,194,57,0.173613794767757,1
254,195,57,0.164984729304449,1
255,194,57,0.173686537681119,1
212,182,58,0.107604981993555,1
213,180,58,0.102051510435906,1
213,181,58,0.133779435551535,1
213,182,58,0.16799765624686,1
213,183,58,0.118107564174566,1
214,181,58,0.11172928078706,1
214,182,58,0.130647895613676,1
219,197,58,0.106506038963087,1
220,178,58,0.118983017185049,1
220,179,58,0.114512519638552,1
220,197,58,0.109673797856761,1
220,198,58,0.101671445597613,1
221,178,58,0.111811282681608,1
221,179,58,0.107102763961125,1
221,197,58,0.115343224537611,1
221,198,58,0.116041199218144,1
222,175,58,0.100668000788387,1
222,176,58,0.103440477435865,1
222,177,58,0.100078944405354,1
222,197,58,0.118559206383884,1
222,198,58,0.1175475483137,1
223,174,58,0.106152128023414,1
223,175,58,0.123593913565078,1
223,176,58,0.136099627307472,1
223,177,58,0.121424327307814,1
223,197,58,0.10727939264339,1
223,198,58,0.123323191848128,1
223,199,58,0.101877474268373,1
224,174,58,0.110422882113439,1
224,175,58,0.125484129127672,1
224,176,58,0.147262919492974,1
224,177,58,0.134188170552746,1
224,197,58,0.100396255137047,1
224,198,58,0.148590940610893,1
224,199,58,0.124595070861305,1
225,176,58,0.102630218545848,1
225,198,58,0.128174244414275,1
225,199,58,0.111310273763192,1
229,200,58,0.114730258197282,1
229,201,58,0.106108894027737,1
230,200,58,0.129261575593043,1
230,201,58,0.116102504566512,1
231,199,58,0.106327852593399,1
231,200,58,0.166233177648767,1
231,201,58,0.131336404347561,1
232,199,58,0.108538875514698,1
232,200,58,0.160086270754632,1
232,201,58,0.122223540777923,1
233,200,58,0.108925388961064,1
234,201,58,0.101656805514421,1
235,200,58,0.104420044966552,1
235,201,58,0.120982739262772,1
236,200,58,0.101506374302451,1
236,201,58,0.115790836366883,1
246,197,58,0.128195855965654,1
246,198,58,0.13521381513098,1
246,199,58,0.0999611157000776,1
247,196,58,0.109538202800527,1
247,197,58,0.130448598766884,1
247,198,58,0.120507786206705,1
248,196,58,0.111123732524598,1
248,197,58,0.120188079032823,1
248,198,58,0.101287807881874,1
249,196,58,0.103179984169896,1
249,197,58,0.103425695744726,1
250,195,58,0.103220026540294,1
250,196,58,0.103240919159017,1
251,194,58,0.110575807803869,1
251,195,58,0.117077322784496,1
251,196,58,0.106290250236866,1
252,193,58,0.105508966511501,1
252,194,58,0.132226159760746,1
252,195,58,0.132034324563498,1
253,193,58,0.130856843586738,1
253,194,58,0.162007433100224,1
253,195,58,0.157983153089362,1
254,192,58,0.108364218450779,1
254,193,58,0.162734644375465,1
254,194,58,0.194749652372445,1
254,195,58,0.184057729472646,1
254,196,58,0.171811800956484,1
255,193,58,0.172070180996159,1
255,194,58,0.197586517064381,1
255,195,58,0.181998858844525,1
256,194,58,0.171343340080165,1
211,185,59,0.120606040336463,1
212,181,59,0.110925557648468,1
212,182,59,0.106309574275247,1
213,180,59,0.126143869662368,1
213,181,59,0.150702761718477,1
213,182,59,0.149917360469714,1
213,183,59,0.106350390042897,1
214,181,59,0.114412969251428,1
214,182,59,0.114856191234326,1
219,179,59,0.102319498030176,1
220,178,59,0.120179440948023,1
220,179,59,0.142922744829895,1
220,180,59,0.102250240850908,1
221,178,59,0.102272854550839,1
221,179,59,0.107540833593317,1
222,176,59,0.103004150670721,1
222,177,59,0.102573411973044,1
222,198,59,0.100914071829544,1
223,174,59,0.11166549185315,1
223,175,59,0.130113129539149,1
223,176,59,0.139918880796126,1
223,177,59,0.125703174836687,1
223,198,59,0.101182026745058,1
224,174,59,0.102884284989583,1
224,175,59,0.135143610267755,1
224,176,59,0.156867739965303,1
224,177,59,0.134493292108031,1
224,198,59,0.106439842694069,1
225,176,59,0.109506373691086,1
225,198,59,0.10051582670937,1
229,200,59,0.103617323976512,1
229,201,59,0.102330347377542,1
230,200,59,0.113145795979276,1
230,201,59,0.108001712997982,1
231,200,59,0.141241607955392,1
231,201,59,0.120855041572843,1
232,200,59,0.150166644921989,1
232,201,59,0.123300327611059,1
233,200,59,0.112055284068148,1
233,201,59,0.100783051799308,1
235,200,59,0.100569844694899,1
235,201,59,0.110506267408705,1
236,200,59,0.101482714882292,1
236,201,59,0.108555247572018,1
246,197,59,0.134042782762293,1
246,198,59,0.137063193140086,1
247,196,59,0.107154396397384,1
247,197,59,0.135677439551244,1
247,198,59,0.129020221185831,1
248,196,59,0.108797941808273,1
248,197,59,0.125666236948216,1
248,198,59,0.110259662614514,1
249,196,59,0.108648251314798,1
249,197,59,0.113288144645317,1
250,195,59,0.110935546455229,1
250,196,59,0.119572857858252,1
250,197,59,0.109902353084099,1
251,194,59,0.117888954182313,1
251,195,59,0.133199975830179,1
251,196,59,0.126565632594753,1
252,193,59,0.110838588582837,1
252,194,59,0.144230276367096,1
252,195,59,0.148187423317903,1
253,193,59,0.145311605547473,1
253,194,59,0.177436000237472,1
253,195,59,0.174405873375893,1
253,196,59,0.16559824029073,1
254,192,59,0.119985100379395,1
254,193,59,0.193971440450249,1
254,194,59,0.216058947034119,1
254,195,59,0.203378674264077,1
254,196,59,0.206091120034716,1
254,197,59,0.177250940435868,1
255,192,59,0.126952048004848,1
255,193,59,0.210347571722038,1
255,194,59,0.220929606854541,1
255,195,59,0.196699593810146,1
255,196,59,0.176132706045777,1
256,194,59,0.183280367198136,1
256,195,59,0.187312882255794,1
210,185,60,0.14069121054204,1
211,184,60,0.107756589640781,1
211,185,60,0.130236785956113,1
211,186,60,0.0996996529643134,1
212,181,60,0.136080532020392,1
212,182,60,0.114295739656698,1
213,180,60,0.139592539834548,1
213,181,60,0.158731986808902,1
213,182,60,0.131990175562621,1
214,180,60,0.105759165968975,1
214,181,60,0.121414077070996,1
214,182,60,0.107523579209554,1
219,178,60,0.100499269472427,1
219,179,60,0.129137777568131,1
220,178,60,0.125584060766963,1
220,179,60,0.167765059746557,1
220,180,60,0.103822818894238,1
221,179,60,0.103859876604819,1
222,176,60,0.101980445032076,1
222,177,60,0.100735264563471,1
223,174,60,0.109825274788958,1
223,175,60,0.131682450599686,1
223,176,60,0.141742322764994,1
223,177,60,0.125060764936187,1
224,175,60,0.13811214856507,1
224,176,60,0.158243907785389,1
224,177,60,0.128397135323711,1
225,176,60,0.112368597098552,1
231,200,60,0.102929087565603,1
232,200,60,0.117075296701554,1
232,201,60,0.105442432561992,1
233,200,60,0.102544066449145,1
246,197,60,0.130456082202266,1
246,198,60,0.126278713107188,1
247,196,60,0.105231894222749,1
247,197,60,0.13771681185428,1
247,198,60,0.131877357600104,1
248,196,60,0.102830060038592,1
248,197,60,0.124715688153857,1
248,198,60,0.113868257941816,1
249,196,60,0.108897089157393,1
249,197,60,0.118251274455486,1
250,195,60,0.113999234400376,1
250,196,60,0.132067101356896,1
250,197,60,0.124680983313789,1
251,194,60,0.118005083592219,1
251,195,60,0.14473767942899,1
251,196,60,0.146732063976383,1
252,193,60,0.110278736115756,1
252,194,60,0.150058445557145,1
252,195,60,0.162180674084667,1
252,196,60,0.150439828438642,1
253,193,60,0.158311585491396,1
253,194,60,0.192763611801038,1
253,195,60,0.188480123888654,1
253,196,60,0.181136597159002,1
253,197,60,0.15012103626996,1
254,192,60,0.129685789432213,1
254,193,60,0.226315087814725,1
254,194,60,0.245128967224752,1
254,195,60,0.223348052740237,1
254,196,60,0.225740704193642,1
254,197,60,0.182211031121625,1
255,192,60,0.136441697644147,1
255,193,60,0.239790587246506,1
255,194,60,0.245321161888328,1
255,195,60,0.211797048887275,1
255,196,60,0.192641131819331,1
255,197,60,0.150122779137007,1
256,193,60,0.162795317934529,1
256,194,60,0.190275320518445,1
256,195,60,0.192057184215329,1
256,196,60,0.155190524541656,1
257,194,60,0.143771706261268,1
257,195,60,0.164251668531682,1
210,185,61,0.131496541150397,1
211,181,61,0.120118800067716,1
211,182,61,0.104901522881126,1
211,184,61,0.104897536072756,1
211,185,61,0.122304921776085,1
211,188,61,0.103793342655311,1
211,189,61,0.101026998721252,1
212,180,61,0.135196898427708,1
212,181,61,0.160813928639554,1
212,182,61,0.124639274326778,1
213,179,61,0.103557456493457,1
213,180,61,0.13130594774592,1
213,181,61,0.147860624853725,1
213,182,61,0.117227242029271,1
214,180,61,0.10195834329934,1
214,181,61,0.118376902490797,1
214,182,61,0.101602166632506,1
215,181,61,0.10332956573418,1
219,178,61,0.112151947831726,1
219,179,61,0.153093092980126,1
220,178,61,0.130068740894053,1
220,179,61,0.170997337399716,1
221,179,61,0.0997041190611206,1
222,176,61,0.105872986080045,1
222,177,61,0.10191900896868,1
223,175,61,0.128744205510226,1
223,176,61,0.142896863254251,1
223,177,61,0.122702208319384,1
224,175,61,0.131410726734184,1
224,176,61,0.15062394055629,1
224,177,61,0.122277297333395,1
225,176,61,0.107069268235071,1
246,197,61,0.11980232809079,1
246,198,61,0.111842904825587,1
247,196,61,0.100379893972646,1
247,197,61,0.135872150479119,1
247,198,61,0.130544009844772,1
248,197,61,0.122518706205203,1
248,198,61,0.115014944636444,1
249,196,61,0.1112667456587,1
249,197,61,0.124233556664141,1
249,198,61,0.102263508426301,1
250,195,61,0.114383220689524,1
250,196,61,0.142420330724922,1
250,197,61,0.140742047795208,1
250,198,61,0.102355063410848,1
251,194,61,0.113347870520424,1
251,195,61,0.149199255674792,1
251,196,61,0.164101890894855,1
251,197,61,0.142127158701827,1
252,193,61,0.10895897183047,1
252,194,61,0.15089226583105,1
252,195,61,0.174279678908792,1
252,196,61,0.173509996142206,1
253,193,61,0.167348416486121,1
253,194,61,0.206408583267274,1
253,195,61,0.202230059522778,1
253,196,61,0.192952538588902,1
253,197,61,0.152211496363303,1
254,192,61,0.129951391477214,1
254,193,61,0.242079276680574,1
254,194,61,0.273211653233422,1
254,195,61,0.237866178811039,1
254,196,61,0.221259553372322,1
254,197,61,0.170268437722023,1
255,192,61,0.130690900858053,1
255,193,61,0.238103557302801,1
255,194,61,0.260668217312385,1
255,195,61,0.223149148038531,1
255,196,61,0.196755191268937,1
255,197,61,0.152339390125775,1
256,193,61,0.15935280694386,1
256,194,61,0.187397934167673,1
256,195,61,0.185791446467365,1
256,196,61,0.163956045601802,1
257,195,61,0.153156217445974,1
210,185,62,0.109249736518457,1
211,181,62,0.14479464939558,1
211,182,62,0.120506958344858,1
211,185,62,0.105740223182761,1
211,188,62,0.12350270715394,1
211,189,62,0.1168960428258,1
212,180,62,0.138375898813833,1
212,181,62,0.176724213335594,1
212,182,62,0.135891180408685,1
212,188,62,0.110704311569807,1
212,189,62,0.106106824373119,1
213,179,62,0.101639267914763,1
213,180,62,0.11105515070631,1
213,181,62,0.127078133542758,1
213,182,62,0.103525649169855,1
214,181,62,0.104525085384874,1
215,181,62,0.100993611924389,1
218,179,62,0.108035666226636,1
219,178,62,0.118042566126642,1
219,179,62,0.165821011378057,1
219,180,62,0.114883848355774,1
220,178,62,0.121685692007307,1
220,179,62,0.147251569071332,1
222,176,62,0.105753163970583,1
222,177,62,0.102128675874399,1
223,175,62,0.113608908432345,1
223,176,62,0.133111819436372,1
223,177,62,0.115874439520531,1
224,175,62,0.113526786715688,1
224,176,62,0.13505725120559,1
224,177,62,0.114754865301398,1
225,176,62,0.103871030953918,1
246,197,62,0.103724739051184,1
247,197,62,0.128234547614091,1
247,198,62,0.126047336613818,1
248,197,62,0.116542120993208,1
248,198,62,0.111562183408956,1
249,196,62,0.108120075456292,1
249,197,62,0.124910486225084,1
249,198,62,0.102402109928191,1
250,195,62,0.107178578677657,1
250,196,62,0.14220364877934,1
250,197,62,0.148680828978828,1
250,198,62,0.106073851507179,1
251,194,62,0.102501093883525,1
251,195,62,0.144743125888511,1
251,196,62,0.173044530818624,1
251,197,62,0.151889436318908,1
252,193,62,0.100738336366641,1
252,194,62,0.14383876307089,1
252,195,62,0.182809019698271,1
252,196,62,0.196777761397191,1
252,197,62,0.15444096099654,1
253,193,62,0.1592031818079,1
253,194,62,0.20898042323892,1
253,195,62,0.211680472867688,1
253,196,62,0.200271795894929,1
253,197,62,0.153676114686009,1
254,192,62,0.118933182080432,1
254,193,62,0.227709294308743,1
254,194,62,0.286928125820249,1
254,195,62,0.244824793353424,1
254,196,62,0.20299330457421,1
254,197,62,0.157262608280575,1
255,192,62,0.115784616510111,1
255,193,62,0.20945705380452,1
255,194,62,0.260777190074481,1
255,195,62,0.225909827654688,1
255,196,62,0.190384380423893,1
255,197,62,0.159057380086523,1
256,193,62,0.150220499513733,1
256,194,62,0.176371576867448,1
256,195,62,0.171887408707554,1
256,196,62,0.16452093059748,1
211,181,63,0.162812572318292,1
211,182,63,0.136551618090199,1
211,188,63,0.132110683925982,1
211,189,63,0.119048320234706,1
212,180,63,0.134148977830033,1
212,181,63,0.182262805165831,1
212,182,63,0.155988147645584,1
212,183,63,0.106466802668698,1
212,188,63,0.111163862038349,1
212,189,63,0.100653371598113,1
213,180,63,0.102922312169958,1
213,181,63,0.1232857637783,1
213,182,63,0.113251304793117,1
214,181,63,0.105906394662746,1
215,181,63,0.105806158021722,1
218,179,63,0.121922514960198,1
218,180,63,0.107904591731804,1
219,178,63,0.110420801565902,1
219,179,63,0.158952219846092,1
219,180,63,0.13123101535583,1
220,178,63,0.106249380004621,1
220,179,63,0.117589998019206,1
221,177,63,0.101616229390989,1
222,176,63,0.102699345010089,1
222,177,63,0.104707563564664,1
223,176,63,0.119296373787129,1
223,177,63,0.113036300357067,1
223,178,63,0.100419740270501,1
224,176,63,0.120221847081853,1
224,177,63,0.112429346908049,1
225,176,63,0.105149979471554,1
225,177,63,0.101601153591035,1
247,197,63,0.121733675315687,1
247,198,63,0.127122859868345,1
248,197,63,0.112377442148814,1
248,198,63,0.109738218579975,1
249,196,63,0.10546122284734,1
249,197,63,0.125072115357829,1
249,198,63,0.102339410286185,1
250,196,63,0.137708380734941,1
250,197,63,0.150881155053627,1
250,198,63,0.10864914453416,1
251,195,63,0.1382277769007,1
251,196,63,0.17644398210032,1
251,197,63,0.156241320869957,1
251,198,63,0.101901068331018,1
252,194,63,0.141275354218584,1
252,195,63,0.196135514890477,1
252,196,63,0.218818994860971,1
252,197,63,0.166603079393594,1
253,193,63,0.146830307213222,1
253,194,63,0.215714600077364,1
253,195,63,0.228850741509312,1
253,196,63,0.209450387338066,1
253,197,63,0.158972622283458,1
254,192,63,0.10496776272182,1
254,193,63,0.2027466888871,1
254,194,63,0.301921509948851,1
254,195,63,0.261104348004987,1
254,196,63,0.192390877897261,1
254,197,63,0.150636587235297,1
255,192,63,0.105616948017964,1
255,193,63,0.184230763491628,1
255,194,63,0.268211890536514,1
255,195,63,0.238242812379834,1
255,196,63,0.191732357369498,1
255,197,63,0.169688596748501,1
256,192,63,0.108409511208156,1
256,194,63,0.177020620555645,1
256,195,63,0.170774174167304,1
256,196,63,0.172442740613232,1
210,182,64,0.100163963638477,1
211,180,64,0.129077147580744,1
211,181,64,0.170039032847,1
211,182,64,0.15205450761407,1
211,183,64,0.103794333910944,1
211,187,64,0.0999660392994846,1
211,188,64,0.123022852284303,1
211,189,64,0.10661038223459,1
212,179,64,0.113771169354395,1
212,180,64,0.124500106393098,1
212,181,64,0.170269657728956,1
212,182,64,0.16628430901075,1
212,183,64,0.115001382952236,1
213,181,64,0.115613717503261,1
213,182,64,0.118941112125495,1
214,181,64,0.101110972234147,1
215,181,64,0.103865410207692,1
215,182,64,0.100684590704088,1
218,179,64,0.120334665044371,1
218,180,64,0.11447979730975,1
219,179,64,0.135365597064911,1
219,180,64,0.134802803509689,1
221,177,64,0.107289228949285,1
222,177,64,0.104016124635557,1
223,177,64,0.105627525042353,1
223,178,64,0.104968274689015,1
224,176,64,0.101043436136087,1
224,177,64,0.105227297410914,1
225,176,64,0.104077626056468,1
225,177,64,0.104335722880248,1
247,197,64,0.111102589368738,1
247,198,64,0.124510759667921,1
248,197,64,0.107262955228556,1
248,198,64,0.1085083862343,1
249,196,64,0.0999243738841491,1
249,197,64,0.120348727802854,1
249,198,64,0.101447792183843,1
250,196,64,0.13002022383264,1
250,197,64,0.146497430500219,1
250,198,64,0.108308588313232,1
251,195,64,0.134703699732245,1
251,196,64,0.176423448947926,1
251,197,64,0.159719615099679,1
251,198,64,0.103465738115124,1
252,194,64,0.139401772143367,1
252,195,64,0.208983778257984,1
252,196,64,0.23167303147557,1
252,197,64,0.181410488715393,1
253,193,64,0.130604400187941,1
253,194,64,0.215871174895673,1
253,195,64,0.249960913610899,1
253,196,64,0.221469830281508,1
253,197,64,0.178515673694154,1
254,193,64,0.174949843967011,1
254,194,64,0.295752980610417,1
254,195,64,0.279581570859103,1
254,196,64,0.196286294675856,1
254,197,64,0.158381441781212,1
255,192,64,0.101674931331706,1
255,193,64,0.168137826329092,1
255,194,64,0.260038061945807,1
255,195,64,0.246812816436096,1
255,196,64,0.19519188309971,1
255,197,64,0.179289060053214,1
256,192,64,0.121805633938878,1
256,193,64,0.159343558855594,1
256,194,64,0.174246902115395,1
256,195,64,0.169018856514125,1
256,196,64,0.174484128106291,1
210,181,65,0.120677977173816,1
210,182,65,0.115146923243556,1
211,180,65,0.127823056704362,1
211,181,65,0.167274998211778,1
211,182,65,0.170669362500282,1
211,183,65,0.117908724830374,1
212,179,65,0.119335065435566,1
212,180,65,0.119112751850839,1
212,181,65,0.153776079004057,1
212,182,65,0.166714786278369,1
212,183,65,0.123728931296603,1
213,181,65,0.112269068497265,1
213,182,65,0.12055093305903,1
214,181,65,0.101284616256595,1
214,182,65,0.101573888614673,1
215,181,65,0.104332879828378,1
215,182,65,0.102783362094659,1
218,179,65,0.106211734076412,1
218,180,65,0.103415358364555,1
219,179,65,0.110074994957995,1
219,180,65,0.116988349421761,1
221,177,65,0.109931034139937,1
222,177,65,0.108090098143088,1
223,177,65,0.104784827039429,1
223,178,65,0.104305593066178,1
225,177,65,0.105110808534679,1
226,177,65,0.104196849055382,1
247,198,65,0.111775728193855,1
248,198,65,0.1032088177266,1
249,197,65,0.11011167141641,1
250,196,65,0.119689009053997,1
250,197,65,0.132824191909069,1
250,198,65,0.101760179316129,1
251,195,65,0.128926803512127,1
251,196,65,0.164397709897278,1
251,197,65,0.151677089755104,1
251,198,65,0.10160929060156,1
252,194,65,0.140440738761589,1
252,195,65,0.210898121636257,1
252,196,65,0.221961057358624,1
252,197,65,0.182808736482376,1
252,198,65,0.118267112759773,1
253,193,65,0.121614332494663,1
253,194,65,0.216073587117311,1
253,195,65,0.271136225368357,1
253,196,65,0.23207905413994,1
253,197,65,0.196628245190421,1
253,198,65,0.147237114167763,1
254,193,65,0.157861272218202,1
254,194,65,0.276664425353828,1
254,195,65,0.29665084035537,1
254,196,65,0.213596776971388,1
254,197,65,0.170099619262711,1
255,192,65,0.116121327530617,1
255,193,65,0.170388488582785,1
255,194,65,0.248353772335448,1
255,195,65,0.253559149772192,1
255,196,65,0.20231611358321,1
255,197,65,0.174740100810858,1
256,192,65,0.140709445288516,1
256,193,65,0.172131420987013,1
256,194,65,0.17745023728266,1
256,195,65,0.171065298321619,1
256,196,65,0.172439821310929,1
257,192,65,0.141165455558369,1
210,181,66,0.117408663595915,1
210,182,66,0.127772535345845,1
211,180,66,0.128962521393665,1
211,181,66,0.152321090021784,1
211,182,66,0.181863786648405,1
211,183,66,0.135500494974326,1
212,179,66,0.128938317327554,1
212,180,66,0.11674573143594,1
212,181,66,0.12660751586847,1
212,182,66,0.147530743693458,1
212,183,66,0.123023789075341,1
213,182,66,0.106477303442655,1
222,177,66,0.104799064084617,1
226,177,66,0.104578961762455,1
250,196,66,0.0999986309132581,1
250,197,66,0.108575748045655,1
251,195,66,0.111627715209913,1
251,196,66,0.136443277117408,1
251,197,66,0.130195142326616,1
252,194,66,0.130063457828317,1
252,195,66,0.184568280588143,1
252,196,66,0.187307544725463,1
252,197,66,0.163817182669856,1
252,198,66,0.115591757378473,1
253,193,66,0.111177663366775,1
253,194,66,0.19581802987208,1
253,195,66,0.256732366018306,1
253,196,66,0.224005592905286,1
253,197,66,0.192790909456158,1
254,193,66,0.143195612451896,1
254,194,66,0.23125711804071,1
254,195,66,0.27893533754402,1
254,196,66,0.223923133508139,1
254,197,66,0.173733987236466,1
255,192,66,0.126738013038592,1
255,193,66,0.168133044337633,1
255,194,66,0.213000651083898,1
255,195,66,0.234733745653818,1
255,196,66,0.201386599015521,1
255,197,66,0.160047078031919,1
256,192,66,0.144105911910394,1
256,193,66,0.167304245699406,1
256,194,66,0.16576209157896,1
256,195,66,0.1641532292223,1
256,196,66,0.160623749166,1
257,191,66,0.100827963304518,1
257,192,66,0.131356033387674,1
210,181,67,0.114306948470392,1
210,182,67,0.136479920897065,1
210,183,67,0.108845522078648,1
211,180,67,0.152756534460487,1
211,181,67,0.1489537946371,1
211,182,67,0.196464350330516,1
211,183,67,0.1578176242916,1
212,179,67,0.14347913334872,1
212,180,67,0.12571769509777,1
212,181,67,0.113178115270074,1
212,182,67,0.137082778608523,1
212,183,67,0.122019167830858,1
219,177,67,0.106254183781918,1
219,178,67,0.10792623596194,1
222,177,67,0.113316172126012,1
223,177,67,0.105084229812216,1
251,195,67,0.100109074219425,1
251,196,67,0.118493424045789,1
251,197,67,0.116429041600633,1
252,194,67,0.119301972747517,1
252,195,67,0.15686983140576,1
252,196,67,0.15958317039576,1
252,197,67,0.143933378965689,1
252,198,67,0.113110197919847,1
253,193,67,0.105696956508327,1
253,194,67,0.171637274607593,1
253,195,67,0.225075778629483,1
253,196,67,0.21889973317691,1
253,197,67,0.183268646417247,1
253,198,67,0.138125437926301,1
254,193,67,0.138061529170282,1
254,194,67,0.190920159539891,1
254,195,67,0.243034934253963,1
254,196,67,0.242111171147529,1
254,197,67,0.185960482785058,1
255,192,67,0.127758635981148,1
255,193,67,0.163102138785184,1
255,194,67,0.1794072373319,1
255,195,67,0.20634553505186,1
255,196,67,0.209666960354458,1
255,197,67,0.158981086081553,1
256,192,67,0.136852262655758,1
256,193,67,0.153099661410308,1
256,194,67,0.150707336744475,1
256,195,67,0.157704196325617,1
256,196,67,0.157381057882237,1
257,191,67,0.101655367649107,1
257,192,67,0.121505359732567,1
257,193,67,0.122140504056066,1
210,180,68,0.129864760092073,1
210,181,68,0.113484718262348,1
210,182,68,0.131473121374456,1
210,183,68,0.119659772459288,1
211,179,68,0.180691185699376,1
211,180,68,0.170494683650525,1
211,181,68,0.140674282945848,1
211,182,68,0.175246654225066,1
211,183,68,0.154644048579159,1
212,179,68,0.141145053121004,1
212,180,68,0.125624081351523,1
212,181,68,0.103556715774962,1
212,182,68,0.120277477219401,1
212,183,68,0.113304516702637,1
219,177,68,0.112808540312818,1
219,178,68,0.103253565838024,1
222,177,68,0.105709407114792,1
251,196,68,0.101095428038674,1
251,197,68,0.101348721085157,1
252,194,68,0.102910972641236,1
252,195,68,0.130494338133941,1
252,196,68,0.14125936341343,1
252,197,68,0.129101253610584,1
252,198,68,0.107157108734225,1
253,194,68,0.137618132900679,1
253,195,68,0.183187929887146,1
253,196,68,0.211500630774306,1
253,197,68,0.175558398675128,1
253,198,68,0.127306122338307,1
254,193,68,0.123910570721628,1
254,194,68,0.149645669282969,1
254,195,68,0.199144204487381,1
254,196,68,0.247824790400932,1
254,197,68,0.197866421512083,1
254,198,68,0.126176047345218,1
255,192,68,0.114798175547509,1
255,193,68,0.143049832516357,1
255,194,68,0.144467731109292,1
255,195,68,0.173296832609474,1
255,196,68,0.208058969431322,1
255,197,68,0.16492036304583,1
256,192,68,0.12279798975652,1
256,193,68,0.131470136714639,1
256,194,68,0.129504640188546,1
256,195,68,0.145206053161956,1
256,196,68,0.151384745593856,1
257,191,68,0.0999964632223688,1
257,192,68,0.113424927029727,1
257,193,68,0.106592408918171,1
257,194,68,0.102849819793734,1
210,180,69,0.147220448001629,1
210,181,69,0.116383890451204,1
210,182,69,0.127654532353864,1
210,183,69,0.131982038552097,1
210,184,69,0.0999675425223123,1
211,179,69,0.164469821021336,1
211,180,69,0.17814187228431,1
211,181,69,0.134153541963112,1
211,182,69,0.15165337587035,1
211,183,69,0.148835715394685,1
211,184,69,0.103292301058138,1
212,179,69,0.122257167219006,1
212,180,69,0.120570409598277,1
212,181,69,0.101618767441126,1
212,182,69,0.115524918427231,1
212,183,69,0.112695134132672,1
219,177,69,0.1108460611253,1
252,195,69,0.109655922576613,1
252,196,69,0.131710456294543,1
252,197,69,0.11913764217085,1
253,194,69,0.107939732288633,1
253,195,69,0.146861962035958,1
253,196,69,0.196480994710812,1
253,197,69,0.163183018709071,1
253,198,69,0.109598985288781,1
254,193,69,0.106658016969561,1
254,194,69,0.121083749301048,1
254,195,69,0.160614196076,1
254,196,69,0.227151446138766,1
254,197,69,0.189777666619094,1
255,193,69,0.120102711226291,1
255,194,69,0.120650930055835,1
255,195,69,0.144756720251475,1
255,196,69,0.188822096189057,1
256,192,69,0.108291704288717,1
256,193,69,0.11229516793129,1
256,194,69,0.111026622151339,1
256,195,69,0.130043512893551,1
257,192,69,0.107562227286315,1
209,184,70,0.103894232871477,1
210,182,70,0.133763150637567,1
210,183,70,0.144492479821356,1
210,184,70,0.122371651798137,1
211,180,70,0.163633724127351,1
211,181,70,0.135178946897127,1
211,182,70,0.137972316163328,1
211,183,70,0.143804504840503,1
211,184,70,0.120482405705337,1
212,179,70,0.104810665043397,1
212,180,70,0.112832951344391,1
212,181,70,0.106404887316864,1
212,182,70,0.115375108111647,1
212,183,70,0.115033266526272,1
219,176,70,0.101263832567063,1
219,177,70,0.0997987894205143,1
252,196,70,0.115403168271099,1
252,197,70,0.106611711170713,1
253,195,70,0.11409754299473,1
253,196,70,0.162378315207765,1
253,197,70,0.143832946252122,1
254,195,70,0.125461787750717,1
254,196,70,0.182235409474441,1
255,195,70,0.119447480360079,1
