x,y,z,signal,mito.p
455,677,13,0.143761314416502,1
455,678,13,0.151580763672016,1
455,679,13,0.156499940553852,1
455,680,13,0.154550184295774,1
456,676,13,0.140537642169386,1
456,677,13,0.18699478723393,1
456,678,13,0.188610512129586,1
456,679,13,0.179899477450487,1
456,680,13,0.182132700140794,1
457,677,13,0.173304893369565,1
457,678,13,0.175040505732197,1
457,679,13,0.156117806060941,1
473,668,13,0.232650845246291,1
473,669,13,0.16627726129213,1
474,668,13,0.213921995962305,1
474,669,13,0.164413700702431,1
475,668,13,0.187740102540619,1
475,669,13,0.175021791697283,1
475,670,13,0.15455591397119,1
476,668,13,0.188942985804585,1
476,669,13,0.203204038985996,1
476,670,13,0.207276574628214,1
476,671,13,0.174323065405336,1
477,668,13,0.185205211350365,1
477,669,13,0.223699894025293,1
477,670,13,0.27254971232908,1
477,671,13,0.237752042805317,1
477,672,13,0.177674413556543,1
478,666,13,0.165590092387287,1
478,667,13,0.185180331923273,1
478,668,13,0.176794538020929,1
478,669,13,0.207547350809759,1
478,670,13,0.259372613521534,1
478,671,13,0.239590593252895,1
478,672,13,0.228967513601442,1
478,673,13,0.204483325184122,1
479,666,13,0.244096057069517,1
479,667,13,0.23800499817131,1
479,668,13,0.185747286573569,1
479,669,13,0.195234779414898,1
479,670,13,0.236478311995903,1
479,671,13,0.223435065377544,1
479,672,13,0.244835446628247,1
479,673,13,0.233281501687144,1
480,666,13,0.265148779916076,1
480,667,13,0.243224427473617,1
480,668,13,0.173270210315336,1
480,669,13,0.165180594881743,1
480,670,13,0.198286909972941,1
480,671,13,0.178393084783256,1
480,672,13,0.177639251213876,1
480,673,13,0.176942213324381,1
481,666,13,0.175928550957093,1
481,667,13,0.169598316235481,1
481,670,13,0.161537272928535,1
486,691,13,0.17268130643317,1
486,692,13,0.176828447677906,1
486,693,13,0.129287075916521,1
487,689,13,0.129740689744185,1
487,690,13,0.156848982358713,1
487,691,13,0.19556710058903,1
487,692,13,0.197389115585502,1
488,686,13,0.118109579364589,1
488,687,13,0.120188928680508,1
488,688,13,0.12446891996588,1
488,689,13,0.118647384563528,1
488,690,13,0.11276417345356,1
488,691,13,0.125511709998686,1
489,687,13,0.163768937931419,1
489,688,13,0.150592231268958,1
489,689,13,0.12507005659613,1
490,686,13,0.171059470609932,1
490,687,13,0.221726380310784,1
490,688,13,0.18192388288276,1
490,689,13,0.138855012964974,1
491,687,13,0.200820167225339,1
491,688,13,0.165533100634859,1
494,686,13,0.160782774891094,1
454,677,14,0.153973142802445,1
454,678,14,0.148949764257055,1
454,679,14,0.151664399504421,1
454,680,14,0.136696417663024,1
455,676,14,0.123952366851992,1
455,677,14,0.153014761999295,1
455,678,14,0.193188326714485,1
455,679,14,0.239948207785043,1
455,680,14,0.212969540907114,1
455,681,14,0.14530777123997,1
456,676,14,0.117710800491381,1
456,677,14,0.168187606969114,1
456,678,14,0.23258524808782,1
456,679,14,0.271079756476043,2
456,680,14,0.231896096671711,1
456,681,14,0.173886597032244,1
457,676,14,0.118445048592324,1
457,677,14,0.161010654757451,1
457,678,14,0.191933113867441,1
457,679,14,0.188812553991977,1
457,680,14,0.159743056661457,1
458,677,14,0.163835591703036,1
458,678,14,0.142471679945286,1
458,679,14,0.136589874021875,1
472,668,14,0.166971673988136,1
472,669,14,0.141025187439866,1
473,667,14,0.201330696554998,1
473,668,14,0.206671669047976,1
473,669,14,0.162183223027723,1
473,670,14,0.158600182488494,1
474,667,14,0.190594788048108,1
474,668,14,0.209742339354229,1
474,669,14,0.181691417097485,1
474,670,14,0.159567288519796,1
475,667,14,0.180099111977769,1
475,668,14,0.232922885006445,1
475,669,14,0.226737210213439,1
475,670,14,0.178233351018424,1
475,671,14,0.135050018307346,1
476,667,14,0.177906367374623,1
476,668,14,0.246492499258748,1
476,669,14,0.261435667030567,1
476,670,14,0.221109340018734,1
476,671,14,0.164923358598567,1
476,672,14,0.126150067733302,1
477,666,14,0.150961250687343,1
477,667,14,0.180128958575944,1
477,668,14,0.220809370814156,1
477,669,14,0.258485494194757,1
477,670,14,0.267001534730086,1
477,671,14,0.21753681114638,1
477,672,14,0.174497406574603,1
477,673,14,0.15691200878829,1
478,665,14,0.167414318646325,1
478,666,14,0.21499902243966,1
478,667,14,0.222675872491996,1
478,668,14,0.225134317176414,1
478,669,14,0.264814999090793,3
478,670,14,0.294452932508597,3
478,671,14,0.253430308325764,1
478,672,14,0.224715702297632,1
478,673,14,0.21182325725049,1
478,674,14,0.156162031312251,1
479,665,14,0.206483069047683,1
479,666,14,0.300609871781171,3
479,667,14,0.29049000141778,3
479,668,14,0.2473198818175,3
479,669,14,0.274471615393167,3
479,670,14,0.299983245720363,3
479,671,14,0.253861537204797,1
479,672,14,0.2320920167136,1
479,673,14,0.215962566486436,1
479,674,14,0.154332347700773,1
480,665,14,0.209908499941295,1
480,666,14,0.315214269770785,3
480,667,14,0.294940347064049,3
480,668,14,0.228844619688811,3
480,669,14,0.233699746206679,3
480,670,14,0.24867097413795,1
480,671,14,0.204447639981341,1
480,672,14,0.184849143612721,1
480,673,14,0.175675900592834,1
480,674,14,0.136315045674446,1
481,665,14,0.156040793123314,1
481,666,14,0.219612086510578,1
481,667,14,0.210486805013232,1
481,668,14,0.174500336769825,1
481,669,14,0.176392632879957,1
481,670,14,0.190218699125265,1
481,671,14,0.168503120369164,1
481,672,14,0.156106771533951,1
481,673,14,0.1451762174567,1
481,674,14,0.123025542835306,1
481,675,14,0.102241243299779,1
482,666,14,0.146635759679133,1
482,667,14,0.13850828045895,1
482,670,14,0.166936849325959,1
482,671,14,0.162741768344519,1
482,674,14,0.112998392998801,1
482,675,14,0.102524132407299,1
485,692,14,0.109096462254618,1
485,693,14,0.109180795233841,1
486,689,14,0.109964388258043,1
486,690,14,0.150375244321643,1
486,691,14,0.194376765967801,1
486,692,14,0.20133021726656,1
486,693,14,0.14081093461523,1
486,694,14,0.119480605726886,1
487,686,14,0.114367425956913,1
487,687,14,0.115572662091392,1
487,688,14,0.127813133255115,1
487,689,14,0.142670639111588,1
487,690,14,0.174634853427074,1
487,691,14,0.23582752544066,1
487,692,14,0.242922497543612,1
487,693,14,0.141882176952573,1
488,685,14,0.109701749087023,1
488,686,14,0.129679645825874,1
488,687,14,0.146103063259224,1
488,688,14,0.15297400069624,1
488,689,14,0.136694772832249,1
488,690,14,0.128453059570073,1
488,691,14,0.14688024035411,1
488,692,14,0.149340242725952,1
489,686,14,0.132106359437123,1
489,687,14,0.175254170339205,1
489,688,14,0.182464302382269,1
489,689,14,0.144515790668105,1
489,690,14,0.104823856368356,1
490,686,14,0.14411005121963,1
490,687,14,0.214522479017412,1
490,688,14,0.221225044604797,1
490,689,14,0.163629018386325,1
490,690,14,0.104771581249874,1
491,686,14,0.13019646036982,1
491,687,14,0.187084087384236,1
491,688,14,0.185881748766223,1
491,689,14,0.137918352642394,1
492,687,14,0.135389398093017,1
492,688,14,0.117522407456551,1
493,686,14,0.183481243518189,1
494,685,14,0.172221886679656,1
494,686,14,0.228682968770228,1
494,687,14,0.203224060171195,1
495,686,14,0.170293818223391,1
451,678,15,0.191066015725863,1
451,679,15,0.215350428007954,1
452,678,15,0.215118430618198,1
453,677,15,0.206304468747071,1
453,678,15,0.201253008256391,1
453,679,15,0.150027651275014,1
454,676,15,0.173415500069517,1
454,677,15,0.201380041478258,1
454,678,15,0.183179956270407,1
454,679,15,0.185188414469202,1
454,680,15,0.16295607563375,1
455,676,15,0.143542094420783,1
455,677,15,0.167593735915865,1
455,678,15,0.221991187172694,1
455,679,15,0.321131020178483,2
455,680,15,0.287979858939588,1
455,681,15,0.161370938054764,1
456,677,15,0.146756322507089,1
456,678,15,0.248114803477506,2
456,679,15,0.350367092026991,2
456,680,15,0.29436432950511,2
456,681,15,0.171136374618368,1
457,677,15,0.132807307884554,1
457,678,15,0.180405224788687,1
457,679,15,0.208719298183646,2
457,680,15,0.170222578532857,1
458,678,15,0.125671966623632,1
458,679,15,0.120594014553841,1
470,669,15,0.124234090417174,1
471,668,15,0.142137681261622,1
471,669,15,0.131047513241649,1
471,670,15,0.120211477022925,1
472,667,15,0.15558842108842,1
472,668,15,0.160729323337355,1
472,669,15,0.140342125165502,1
472,670,15,0.135056303521633,1
472,671,15,0.141533821401611,1
473,667,15,0.177807525027236,1
473,668,15,0.182889616406263,1
473,669,15,0.163035190904752,1
473,670,15,0.155266099613969,1
473,671,15,0.152738964182072,1
474,666,15,0.128212336952165,1
474,667,15,0.180836257595177,1
474,668,15,0.211038858150279,1
474,669,15,0.204959541818799,1
474,670,15,0.170246837063563,1
474,671,15,0.135672243628861,1
475,666,15,0.12970163862942,1
475,667,15,0.196182920874148,1
475,668,15,0.274422553685802,3
475,669,15,0.282898377564028,3
475,670,15,0.202978446632637,1
475,671,15,0.134950838279469,1
476,666,15,0.141102734130526,1
476,667,15,0.192182060639226,1
476,668,15,0.282467344757538,3
476,669,15,0.304496748511237,3
476,670,15,0.224729427375624,1
476,671,15,0.153076568421939,1
476,672,15,0.118972363910226,1
477,665,15,0.183244976104169,1
477,666,15,0.191477288777211,1
477,667,15,0.19588761383892,1
477,668,15,0.24324235721836,3
477,669,15,0.278839349141422,3
477,670,15,0.251063102731241,3
477,671,15,0.195431135173548,1
477,672,15,0.160750281313591,1
477,673,15,0.148873023642404,1
478,664,15,0.174530891407738,1
478,665,15,0.256187698280369,3
478,666,15,0.288029007790306,3
478,667,15,0.258218530534876,3
478,668,15,0.271186877441902,3
478,669,15,0.325051272812494,3
478,670,15,0.324653768410815,3
478,671,15,0.253829294164433,3
478,672,15,0.19738891951296,1
478,673,15,0.187324145534083,1
478,674,15,0.148101772295476,1
479,664,15,0.159882671204818,1
479,665,15,0.274759210241713,3
479,666,15,0.368734427113812,3
479,667,15,0.332690803724192,3
479,668,15,0.308626254120045,3
479,669,15,0.360940565325127,3
479,670,15,0.354405946763531,3
479,671,15,0.266914086376017,3
479,672,15,0.200659540241147,1
479,673,15,0.177138187830865,1
479,674,15,0.138838924123549,1
480,664,15,0.130859163778494,1
480,665,15,0.244907427037276,3
480,666,15,0.362238521986491,3
480,667,15,0.334686212205975,3
480,668,15,0.288392221282841,3
480,669,15,0.305998206686143,3
480,670,15,0.285696093104927,3
480,671,15,0.223007975807747,1
480,672,15,0.187813390099934,1
480,673,15,0.164575253584743,1
480,674,15,0.124675667569297,1
481,665,15,0.187330376283775,1
481,666,15,0.262129524187702,3
481,667,15,0.247143634387401,3
481,668,15,0.221220317077933,3
481,669,15,0.221168989643407,3
481,670,15,0.208025288525644,1
481,671,15,0.188830527308396,1
481,672,15,0.179932330494318,1
481,673,15,0.157578677219496,1
481,674,15,0.122593605916536,1
481,675,15,0.106299814219785,1
482,666,15,0.202962935115921,1
482,667,15,0.177923959438875,1
482,668,15,0.162218526978338,1
482,669,15,0.16674251965025,1
482,670,15,0.177678476615346,1
482,671,15,0.179133912207299,1
482,672,15,0.167263636897218,1
482,673,15,0.142271152198643,1
482,674,15,0.118539773416313,1
482,675,15,0.114282352259196,1
482,676,15,0.104763738348164,1
483,666,15,0.208615314378471,1
483,667,15,0.172430268220929,1
483,668,15,0.150456320318072,1
483,669,15,0.165348868695103,1
483,670,15,0.188260108709844,1
483,671,15,0.180762871999591,1
483,672,15,0.158447594478554,1
483,673,15,0.13341336811421,1
483,674,15,0.112726059129833,1
483,675,15,0.104060033992215,1
484,667,15,0.164754180672926,1
484,668,15,0.156467969836463,1
484,669,15,0.175713753486504,1
484,670,15,0.181603543919574,1
484,671,15,0.161428213023087,1
484,672,15,0.144156030230906,1
486,689,15,0.104455490525114,1
486,690,15,0.139098012202962,1
486,691,15,0.180761684671416,1
486,692,15,0.190828964021672,1
486,693,15,0.139636612584992,1
487,687,15,0.129617588866092,1
487,688,15,0.140560473727698,1
487,689,15,0.147827739131137,1
487,690,15,0.176238138609184,1
487,691,15,0.235312878587603,1
487,692,15,0.247554754937882,1
487,693,15,0.152715914765379,1
488,686,15,0.140730577551457,1
488,687,15,0.175540784825037,1
488,688,15,0.17814232978691,1
488,689,15,0.154915042619084,1
488,690,15,0.148022166843117,1
488,691,15,0.164723288354523,1
488,692,15,0.165464257386514,1
488,693,15,0.107825541818316,1
489,686,15,0.128792842393749,1
489,687,15,0.181659446380097,1
489,688,15,0.206058768065161,1
489,689,15,0.160266189098448,1
489,690,15,0.121173877313202,1
489,691,15,0.106675478318785,1
490,686,15,0.118555219575514,1
490,687,15,0.198978436045401,1
490,688,15,0.255254872265292,1
490,689,15,0.183254834195902,1
490,690,15,0.116098071148462,1
491,686,15,0.108819444430462,1
491,687,15,0.160087240224426,1
491,688,15,0.192643724334063,1
491,689,15,0.141681104559978,1
492,686,15,0.1382091282233,1
492,687,15,0.132190093305798,1
492,688,15,0.116553754630744,1
493,685,15,0.194154441490154,1
493,686,15,0.231044618976039,1
493,687,15,0.186190846236957,1
494,684,15,0.124742996701895,1
494,685,15,0.211761363684494,1
494,686,15,0.277362356462685,1
494,687,15,0.217194032769967,1
495,685,15,0.146183725324729,1
495,686,15,0.189193457585036,1
450,678,16,0.133150413048538,1
450,679,16,0.15764424169921,1
451,677,16,0.147359507006119,1
451,678,16,0.211413509207808,1
451,679,16,0.237060473161181,1
451,680,16,0.164803187915696,1
452,677,16,0.192553574536071,1
452,678,16,0.239620679495289,1
452,679,16,0.206496728768162,1
453,676,16,0.174123071411726,1
453,677,16,0.251689227717773,1
453,678,16,0.233780223092561,1
453,679,16,0.150377782371779,1
454,676,16,0.205596842940268,1
454,677,16,0.240821297032094,1
454,678,16,0.198339283127695,1
454,679,16,0.176335281661201,1
454,680,16,0.157637716840703,1
455,677,16,0.167428337833132,1
455,678,16,0.203322858946906,1
455,679,16,0.313408746653741,1
455,680,16,0.301372397899946,1
455,681,16,0.158928560425933,1
456,677,16,0.115830421234682,1
456,678,16,0.208043937203044,1
456,679,16,0.338573590010317,2
456,680,16,0.301318935453288,1
456,681,16,0.153689839764002,1
457,678,16,0.14439339782975,1
457,679,16,0.189725315250179,1
457,680,16,0.158169705220875,1
465,671,16,0.102203041832699,1
466,670,16,0.102008646799476,1
466,671,16,0.103139767512793,1
467,670,16,0.110320848140772,1
468,669,16,0.126566667422062,1
469,668,16,0.146281020877612,1
469,669,16,0.136344914058459,1
470,668,16,0.150779273581828,1
470,669,16,0.135116835472749,1
470,670,16,0.116960354619824,1
471,667,16,0.142190315846432,1
471,668,16,0.147110690949362,1
471,669,16,0.137672259815398,1
471,670,16,0.130792324827253,1
471,671,16,0.120766198925137,1
472,667,16,0.154794654077833,1
472,668,16,0.156733190629297,1
472,669,16,0.151130145397089,1
472,670,16,0.148280318131493,1
472,671,16,0.133709829798857,1
472,672,16,0.105743698023936,1
473,666,16,0.133661367202039,1
473,667,16,0.172288300807055,1
473,668,16,0.184020388546171,1
473,669,16,0.18149636848912,1
473,670,16,0.165897969851089,1
473,671,16,0.137170553750164,1
474,666,16,0.139297178334726,1
474,667,16,0.197968466377668,1
474,668,16,0.247344608743725,3
474,669,16,0.247927597770851,3
474,670,16,0.191599049826262,1
474,671,16,0.133966663044028,1
475,666,16,0.152165887711274,1
475,667,16,0.234236810687124,3
475,668,16,0.340089252551654,3
475,669,16,0.344592821000362,3
475,670,16,0.228113966251152,3
475,671,16,0.138317011693492,1
476,665,16,0.160034507603344,1
476,666,16,0.179412977900235,1
476,667,16,0.231082047045868,3
476,668,16,0.334004947263252,3
476,669,16,0.343653589948888,3
476,670,16,0.231734554682319,3
476,671,16,0.149561717555913,1
476,672,16,0.117901317645425,1
477,664,16,0.20646354893676,1
477,665,16,0.276105662178652,3
477,666,16,0.266049428248304,3
477,667,16,0.239191520270874,3
477,668,16,0.285716353934345,3
477,669,16,0.316880102094034,3
477,670,16,0.266709539142247,3
477,671,16,0.192794656620308,1
477,672,16,0.153504126387255,1
478,663,16,0.148215167582703,1
478,664,16,0.256743977870004,3
478,665,16,0.388157024625742,3
478,666,16,0.400045382181434,3
478,667,16,0.315824469309677,3
478,668,16,0.338434574577504,3
478,669,16,0.408881413106539,3
478,670,16,0.385773043935895,3
478,671,16,0.26823467852315,3
478,672,16,0.182417735153365,1
478,673,16,0.160384834772653,1
479,664,16,0.205003026351614,3
479,665,16,0.369237854260256,3
479,666,16,0.468177366484862,3
479,667,16,0.396326016760394,3
479,668,16,0.398147051394153,3
479,669,16,0.456492052940113,3
479,670,16,0.41669385821511,3
479,671,16,0.298083651354473,3
479,672,16,0.20414747470422,3
479,673,16,0.158734198071467,1
479,674,16,0.121428423045374,1
480,664,16,0.144398876968028,1
480,665,16,0.289890651226253,3
480,666,16,0.430243516639728,3
480,667,16,0.400587980264752,3
480,668,16,0.386326491366579,3
480,669,16,0.386101705089229,3
480,670,16,0.327805111675492,3
480,671,16,0.270945642856799,3
480,672,16,0.227216716509666,1
480,673,16,0.169991746685439,1
480,674,16,0.116186543436921,1
481,664,16,0.11240954358123,1
481,665,16,0.216762912820125,3
481,666,16,0.315441474276162,3
481,667,16,0.302231674925652,3
481,668,16,0.286644866353482,3
481,669,16,0.262950392780866,3
481,670,16,0.226429027747904,3
481,671,16,0.223632902573185,1
481,672,16,0.221110494668152,1
481,673,16,0.178461361599811,1
481,674,16,0.12727412983508,1
481,675,16,0.106806084418098,1
482,665,16,0.201760095423632,1
482,666,16,0.271821956407886,3
482,667,16,0.237952646802394,3
482,668,16,0.204148999712886,1
482,669,16,0.186609787903311,1
482,670,16,0.189990862830584,1
482,671,16,0.198962902742847,1
482,672,16,0.199233090706764,1
482,673,16,0.174949876645768,1
482,674,16,0.138531024873909,1
482,675,16,0.124163025013344,1
482,676,16,0.107830432738966,1
483,665,16,0.202293173095707,1
483,666,16,0.285177546586854,3
483,667,16,0.252148647471286,3
483,668,16,0.20040139984569,1
483,669,16,0.188087172727134,1
483,670,16,0.214455160777733,1
483,671,16,0.214039334486225,1
483,672,16,0.202720916240647,1
483,673,16,0.182326234633413,1
483,674,16,0.146077944187913,1
483,675,16,0.120142927883394,1
483,676,16,0.10246305581023,1
484,666,16,0.234282364874558,1
484,667,16,0.253192123757992,1
484,668,16,0.22133519380215,1
484,669,16,0.208864805796208,1
484,670,16,0.222035913498281,1
484,671,16,0.211828050134869,1
484,672,16,0.19372913835908,1
484,673,16,0.171627656160079,1
484,674,16,0.140222684308207,1
484,675,16,0.114687960992642,1
485,667,16,0.166499302553881,1
485,668,16,0.17518953175761,1
485,669,16,0.180576613976893,1
485,670,16,0.191579333642797,1
485,671,16,0.193274838277516,1
485,672,16,0.177097361170295,1
485,673,16,0.158352150721909,1
486,670,16,0.145922327946479,1
486,671,16,0.161230092611552,1
486,672,16,0.158304472415262,1
486,673,16,0.159756041020956,1
486,690,16,0.10896772973738,1
486,691,16,0.138163563142948,1
486,692,16,0.148321373543362,1
486,693,16,0.118679910819788,1
487,687,16,0.135048558656194,1
487,688,16,0.136263282523159,1
487,689,16,0.134869936569744,1
487,690,16,0.149723477403686,1
487,691,16,0.18912803471327,1
487,692,16,0.203150707254367,1
487,693,16,0.137161403698168,1
488,686,16,0.160787665811743,1
488,687,16,0.207702814550326,1
488,688,16,0.193524743626176,1
488,689,16,0.161061121651373,1
488,690,16,0.148360805910294,1
488,691,16,0.155145264463036,1
488,692,16,0.153937773494316,1
488,693,16,0.105581023170963,1
489,686,16,0.145897165303493,1
489,687,16,0.202021547266477,1
489,688,16,0.224064610740656,1
489,689,16,0.169431360465325,1
489,690,16,0.129429871192242,1
489,691,16,0.115780738630932,1
489,692,16,0.106477564872712,1
490,686,16,0.114460462378451,1
490,687,16,0.192143434348303,1
490,688,16,0.269647359407864,1
490,689,16,0.191174727057902,1
490,690,16,0.127011556021574,1
491,686,16,0.105046790849469,1
491,687,16,0.142900218273316,1
491,688,16,0.19027765160312,1
491,689,16,0.145884823626218,1
491,690,16,0.124310035848734,1
491,692,16,0.143539087975127,1
492,685,16,0.161189418451849,1
492,686,16,0.164326796994315,1
492,687,16,0.140585821550309,1
492,688,16,0.122804950331788,1
492,689,16,0.10305077236422,1
493,684,16,0.173225985064025,1
493,685,16,0.254505853366129,1
493,686,16,0.278637263707356,1
493,687,16,0.2001807093059,1
494,684,16,0.150624125735913,1
494,685,16,0.248093584071212,1
494,686,16,0.305338880082371,1
494,687,16,0.214011143611744,1
495,685,16,0.163422924358051,1
495,686,16,0.210031502783116,1
450,677,17,0.156277681433719,1
450,678,17,0.178327182623052,1
450,679,17,0.166155097205074,1
451,676,17,0.131508850148914,1
451,677,17,0.220813597266744,1
451,678,17,0.262754407381463,1
451,679,17,0.235321549351161,1
451,680,17,0.140971278383527,1
452,676,17,0.146120230499634,1
452,677,17,0.23328415955939,1
452,678,17,0.255193152986,1
452,679,17,0.196803272613588,1
453,676,17,0.187005353365401,1
453,677,17,0.267212661286957,1
453,678,17,0.23183607668779,1
453,679,17,0.137261117479078,1
454,676,17,0.203005635358566,1
454,677,17,0.242406086037671,1
454,678,17,0.191955771139049,1
454,679,17,0.147417740551317,1
454,680,17,0.138367500373251,1
455,677,17,0.148637910877802,1
455,678,17,0.165442634942216,1
455,679,17,0.244427288951745,1
455,680,17,0.262246601281565,1
455,681,17,0.155541930109949,1
456,678,17,0.152180277257329,1
456,679,17,0.265567089793126,1
456,680,17,0.261239463772783,1
456,681,17,0.135990251507372,1
457,679,17,0.160019344660038,1
457,680,17,0.139435104475635,1
464,671,17,0.11272006802436,1
465,669,17,0.107383735914893,1
465,670,17,0.112730056831121,1
465,671,17,0.117747574986067,1
465,672,17,0.122133467230365,1
466,669,17,0.123157227333605,1
466,670,17,0.120153341513998,1
466,671,17,0.115137849441994,1
466,672,17,0.1075178277483,1
467,668,17,0.137800284292898,1
467,669,17,0.13792522607431,1
467,670,17,0.126114633067659,1
467,671,17,0.110545950312775,1
468,668,17,0.146114511717137,1
468,669,17,0.144789616866982,1
468,670,17,0.126234978037235,1
469,667,17,0.149938982914012,1
469,668,17,0.167730256870218,1
469,669,17,0.14874015181593,1
469,670,17,0.120093964212301,1
470,667,17,0.166433062713187,1
470,668,17,0.164215395111272,1
470,669,17,0.136498504216951,1
470,670,17,0.116489377479206,1
470,671,17,0.102361490233083,1
471,667,17,0.150728022397736,1
471,668,17,0.143664824939628,1
471,669,17,0.135657712474859,1
471,670,17,0.135531234791863,1
471,671,17,0.118274912089807,1
472,667,17,0.148940418132516,1
472,668,17,0.147302025072334,1
472,669,17,0.151073861684399,1
472,670,17,0.154524956295273,1
472,671,17,0.127225754381615,1
473,666,17,0.135347100888377,1
473,667,17,0.170052006313579,1
473,668,17,0.189760194376951,1
473,669,17,0.188875536849877,1
473,670,17,0.164686535645675,1
473,671,17,0.124320307871391,1
474,666,17,0.149917796186475,1
474,667,17,0.21082304763822,1
474,668,17,0.275930024752019,3
474,669,17,0.270707828648275,3
474,670,17,0.198602913554348,1
474,671,17,0.130463304207591,1
475,665,17,0.129158201791335,1
475,666,17,0.178303381594945,1
475,667,17,0.26042393270995,3
475,668,17,0.365388231313312,3
475,669,17,0.349543064487305,3
475,670,17,0.225690378907668,3
475,671,17,0.135123218723308,1
476,664,17,0.155944172931412,1
476,665,17,0.209418122511864,3
476,666,17,0.230889329522177,3
476,667,17,0.26930845891063,3
476,668,17,0.349174905609525,3
476,669,17,0.327274887948205,3
476,670,17,0.212521558718594,3
476,671,17,0.137026919719676,1
477,663,17,0.16145659997011,1
477,664,17,0.270654649417512,3
477,665,17,0.375580888161742,3
477,666,17,0.348615837432615,3
477,667,17,0.283932289867815,3
477,668,17,0.314471655908018,3
477,669,17,0.333428820775123,3
477,670,17,0.267578532651738,3
477,671,17,0.177700763527706,1
477,672,17,0.134426257084246,1
478,663,17,0.185436054090702,3
478,664,17,0.324218748795955,3
478,665,17,0.490952368761146,3
478,666,17,0.476432499823298,3
478,667,17,0.353811411242221,3
478,668,17,0.391019030174827,3
478,669,17,0.467993581154786,3
478,670,17,0.416799432386464,3
478,671,17,0.265589507420514,3
478,672,17,0.166202416045393,1
478,673,17,0.128896172623781,1
479,663,17,0.136615820955033,1
479,664,17,0.235222075214469,3
479,665,17,0.413575215493396,3
479,666,17,0.495690788544399,3
479,667,17,0.418845253297573,3
479,668,17,0.469764726219333,3
479,669,17,0.523180420468748,3
479,670,17,0.455261763091838,3
479,671,17,0.334229254252164,3
479,672,17,0.225641251842789,3
479,673,17,0.1485412906859,1
480,664,17,0.151055518008732,3
480,665,17,0.30264636835358,3
480,666,17,0.444759725556779,3
480,667,17,0.425683087153621,3
480,668,17,0.456266438800916,3
480,669,17,0.438501351422087,3
480,670,17,0.364411223618601,3
480,671,17,0.335430961080874,3
480,672,17,0.276166422881068,3
480,673,17,0.175519173273658,1
480,674,17,0.106798089015521,1
481,664,17,0.11512061684407,1
481,665,17,0.235447820068695,3
481,666,17,0.360767411484036,3
481,667,17,0.350118188826882,3
481,668,17,0.331118149430428,3
481,669,17,0.284511662445819,3
481,670,17,0.241085515676376,3
481,671,17,0.256048159987442,3
481,672,17,0.252013923848576,1
481,673,17,0.194606541202072,1
481,674,17,0.132206574292309,1
482,664,17,0.103980188895638,1
482,665,17,0.217407403268161,3
482,666,17,0.332491877236648,3
482,667,17,0.312824494048007,3
482,668,17,0.252698500238687,3
482,669,17,0.203727574460991,3
482,670,17,0.194082722511182,1
482,671,17,0.208663504652313,1
482,672,17,0.229562811627085,1
482,673,17,0.217588857513562,1
482,674,17,0.164419103590276,1
482,675,17,0.121325648354213,1
483,665,17,0.190525944799763,3
483,666,17,0.31594882287346,3
483,667,17,0.323324069783362,3
483,668,17,0.255210276654734,3
483,669,17,0.209443394084041,1
483,670,17,0.225778241192661,1
483,671,17,0.234782676646155,1
483,672,17,0.247699587189464,1
483,673,17,0.242336676357536,1
483,674,17,0.188329104459056,1
483,675,17,0.132817187762125,1
484,665,17,0.129890467381012,1
484,666,17,0.242570068040929,3
484,667,17,0.307408752558725,3
484,668,17,0.270563889616054,3
484,669,17,0.232957851276569,1
484,670,17,0.255375282592382,1
484,671,17,0.257023206956726,1
484,672,17,0.240596249324687,1
484,673,17,0.21625870138351,1
484,674,17,0.173412711482243,1
485,666,17,0.1399048507164,1
485,667,17,0.193801837700766,1
485,668,17,0.206913143277298,1
485,669,17,0.216613614471735,1
485,670,17,0.254608900380266,1
485,671,17,0.270609356660135,4
485,672,17,0.238716392928102,4
485,673,17,0.194754467042661,1
485,674,17,0.167537909705775,1
485,675,17,0.167103129735134,1
485,676,17,0.167266774057902,1
486,669,17,0.180127041422193,1
486,670,17,0.220171982549335,1
486,671,17,0.253785809631617,4
486,672,17,0.240077811735804,4
486,673,17,0.205296590519795,1
486,674,17,0.190678532809703,1
486,675,17,0.194202457477291,1
486,676,17,0.196052619776568,1
486,691,17,0.107705392921283,1
486,692,17,0.111485257614682,1
487,670,17,0.154438727948137,1
487,671,17,0.179016236002889,1
487,672,17,0.187349024961175,1
487,673,17,0.189048516404264,1
487,674,17,0.199989451433361,1
487,675,17,0.196113162620603,1
487,676,17,0.180118261729445,1
487,687,17,0.139233476544168,1
487,688,17,0.134362969224612,1
487,689,17,0.132120803447772,1
487,690,17,0.136798375385257,1
487,691,17,0.15376331250294,1
487,692,17,0.158580030588266,1
487,693,17,0.115057753808279,1
488,686,17,0.17786148854817,1
488,687,17,0.233231481402903,1
488,688,17,0.204042292677951,1
488,689,17,0.169332017043662,1
488,690,17,0.15229077502809,1
488,691,17,0.15081939220266,1
488,692,17,0.142922603221947,1
488,693,17,0.10163236180409,1
489,686,17,0.174097124478568,1
489,687,17,0.231640025930873,1
489,688,17,0.229652089991553,1
489,689,17,0.172951668683792,1
489,690,17,0.136880170314343,1
489,691,17,0.127109461577923,1
489,692,17,0.11868761211355,1
490,686,17,0.121280497204784,1
490,687,17,0.183700888337751,1
490,688,17,0.244597262060476,1
490,689,17,0.178699720454287,1
490,690,17,0.131286089954506,1
490,691,17,0.146106657922508,1
490,692,17,0.165571029778964,1
490,693,17,0.139532694137332,1
491,680,17,0.103939100805011,1
491,686,17,0.121344351496208,1
491,687,17,0.149111447854394,1
491,688,17,0.191362891341433,1
491,689,17,0.15254751023699,1
491,690,17,0.13737343436732,1
491,691,17,0.1913518894932,1
491,692,17,0.235121751430093,1
491,693,17,0.189266200498398,1
492,685,17,0.196939020170689,1
492,686,17,0.205755901344118,1
492,687,17,0.175228354121076,1
492,688,17,0.153351865164887,1
492,689,17,0.12600922229009,1
492,692,17,0.196894075986722,1
493,684,17,0.21263565115264,1
493,685,17,0.298472376063405,1
493,686,17,0.317200266770515,1
493,687,17,0.220269212744703,1
493,688,17,0.138706324620052,1
494,684,17,0.170186011003633,1
494,685,17,0.254501997272788,1
494,686,17,0.294996402025439,1
494,687,17,0.19456551846896,1
495,685,17,0.174739654201177,1
495,686,17,0.215199168934137,1
495,687,17,0.140883775564863,1
496,686,17,0.197300730440396,1
449,678,18,0.12526266519063,1
450,677,18,0.20833880852151,1
450,678,18,0.217842292167992,1
450,679,18,0.160666057263559,1
451,676,18,0.191356115945789,1
451,677,18,0.314706746886781,5
451,678,18,0.312239500723777,1
451,679,18,0.206281462902055,1
451,680,18,0.104120958088417,1
452,675,18,0.110216363261322,1
452,676,18,0.203726245524868,1
452,677,18,0.291790332735495,5
452,678,18,0.260523515775831,1
452,679,18,0.166109129086717,1
453,675,18,0.121866231247509,1
453,676,18,0.208952472008658,1
453,677,18,0.260322388918641,1
453,678,18,0.200029406660407,1
453,679,18,0.112248557130709,1
454,675,18,0.131375030638484,1
454,676,18,0.192807335978073,1
454,677,18,0.212039960981911,1
454,678,18,0.164523621148484,1
455,675,18,0.114722851012333,1
455,676,18,0.127102773325631,1
455,677,18,0.120449716055292,1
455,679,18,0.156608804386757,1
455,680,18,0.180672297377757,1
456,679,18,0.170255028538683,1
456,680,18,0.179850731637775,1
459,673,18,0.103224547101697,1
459,674,18,0.114989411634209,1
460,673,18,0.109976991365375,1
460,674,18,0.13864506284336,1
460,675,18,0.135202366673067,1
461,671,18,0.10084533751039,1
461,672,18,0.104233819622611,1
461,673,18,0.114022240245393,1
461,674,18,0.13665234491258,1
461,675,18,0.126374723295624,1
462,671,18,0.117877233401424,1
462,672,18,0.135595829801782,1
462,673,18,0.141068258041758,1
462,674,18,0.134493194071759,1
463,670,18,0.103574776234734,1
463,671,18,0.131663398884281,1
463,672,18,0.167859152781242,1
463,673,18,0.174772616174198,1
463,674,18,0.137078443226745,1
464,668,18,0.102617865975655,1
464,669,18,0.10767188630231,1
464,670,18,0.111729117393274,1
464,671,18,0.125635094092675,1
464,672,18,0.151182496766004,1
464,673,18,0.15599956342474,1
464,674,18,0.116406852724544,1
465,667,18,0.105141515673458,1
465,668,18,0.127608400841721,1
465,669,18,0.126285205286937,1
465,670,18,0.129067136988144,1
465,671,18,0.130417815377671,1
465,672,18,0.12553907301132,1
465,673,18,0.113902265635065,1
466,667,18,0.124193252863686,1
466,668,18,0.153697486593169,1
466,669,18,0.14243809707588,1
466,670,18,0.137928221627046,1
466,671,18,0.128669185976784,1
466,672,18,0.106529338916918,1
467,667,18,0.136562685295946,1
467,668,18,0.170555705782998,1
467,669,18,0.153421220380427,1
467,670,18,0.133138735839325,1
467,671,18,0.112666986829868,1
468,667,18,0.130589487781773,1
468,668,18,0.156402939109783,1
468,669,18,0.14599394888918,1
468,670,18,0.122239139437991,1
469,667,18,0.154036888164679,1
469,668,18,0.162192558259342,1
469,669,18,0.140858024704248,1
469,670,18,0.113964485988632,1
470,666,18,0.1352399690296,1
470,667,18,0.17031941658314,1
470,668,18,0.155571428134715,1
470,669,18,0.125662424426551,1
470,670,18,0.109664212088004,1
471,667,18,0.144035086150784,1
471,668,18,0.131622833653769,1
471,669,18,0.128137764028403,1
471,670,18,0.134893454381956,1
471,671,18,0.110167421376066,1
472,667,18,0.134930446735022,1
472,668,18,0.136548982003791,1
472,669,18,0.146656042294389,1
472,670,18,0.157606759164786,1
472,671,18,0.120670755168492,1
473,666,18,0.127293813339789,1
473,667,18,0.162311922866204,1
473,668,18,0.196765125611103,1
473,669,18,0.191194791814777,1
473,670,18,0.159362534320565,1
473,671,18,0.111266919945405,1
474,666,18,0.148904406142164,1
474,667,18,0.21118040074031,1
474,668,18,0.296735521908002,3
474,669,18,0.277923320007507,3
474,670,18,0.18996964342429,1
474,671,18,0.114789951393632,1
475,665,18,0.144217085042137,1
475,666,18,0.199234790002134,3
475,667,18,0.270084535820694,3
475,668,18,0.361410050135836,3
475,669,18,0.316452685736665,3
475,670,18,0.198470194228741,3
475,671,18,0.115249904900179,1
476,664,18,0.175791583393059,3
476,665,18,0.256365536076648,3
476,666,18,0.287427740445028,3
476,667,18,0.302133181151675,3
476,668,18,0.342939036245574,3
476,669,18,0.28405866951454,3
476,670,18,0.178545030110972,3
476,671,18,0.11345627685073,1
477,663,18,0.180650511539673,3
477,664,18,0.314413618435362,3
477,665,18,0.455460667793544,3
477,666,18,0.423956428770442,3
477,667,18,0.331808673354336,3
477,668,18,0.343510653065219,3
477,669,18,0.337808318875943,3
477,670,18,0.250350880112601,3
477,671,18,0.153615571841974,1
477,672,18,0.108214658672333,1
478,663,18,0.211686877904085,3
478,664,18,0.371943655350279,3
478,665,18,0.545991325806194,3
478,666,18,0.510891900639131,3
478,667,18,0.389287317477212,3
478,668,18,0.452752208831274,3
478,669,18,0.516177406388348,3
478,670,18,0.426199803661296,3
478,671,18,0.267133382622169,3
478,672,18,0.155533716848992,1
478,673,18,0.10145635401821,1
479,663,18,0.15544322937051,1
479,664,18,0.262811725921462,3
479,665,18,0.415439298943209,3
479,666,18,0.470948002229023,3
479,667,18,0.427890253981579,3
479,668,18,0.545388468094736,3
479,669,18,0.587155100433974,3
479,670,18,0.495184790669062,3
479,671,18,0.386660903981167,3
479,672,18,0.245534663101551,3
479,673,18,0.132293401749992,1
480,664,18,0.164553772748392,3
480,665,18,0.301801731411066,3
480,666,18,0.433563242646956,3
480,667,18,0.425206935876459,3
480,668,18,0.495679329193567,3
480,669,18,0.473818199253227,3
480,670,18,0.405056386370793,3
480,671,18,0.393059709628148,3
480,672,18,0.295498739879978,3
480,673,18,0.164188337100372,1
481,664,18,0.124023454041659,1
481,665,18,0.254168020374961,3
481,666,18,0.405379688207958,3
481,667,18,0.39015169238903,3
481,668,18,0.347268426918801,3
481,669,18,0.285986825114157,3
481,670,18,0.24611089851887,3
481,671,18,0.260278250810683,3
481,672,18,0.248149726175954,1
481,673,18,0.197544601111907,1
481,674,18,0.136926345398162,1
482,664,18,0.105537309886848,1
482,665,18,0.220410384975487,3
482,666,18,0.376610879014673,3
482,667,18,0.395937226693949,3
482,668,18,0.301251813286152,3
482,669,18,0.214617966345734,3
482,670,18,0.184807478197386,1
482,671,18,0.197515429874713,1
482,672,18,0.242695293038235,1
482,673,18,0.256567512581524,1
482,674,18,0.197874199056279,1
482,675,18,0.120681953089267,1
483,665,18,0.167164304368474,3
483,666,18,0.312899655189396,3
483,667,18,0.390002590113184,3
483,668,18,0.316312864227842,3
483,669,18,0.232800492168089,3
483,670,18,0.219528712108231,1
483,671,18,0.231574276271536,1
483,672,18,0.27368410091811,1
483,673,18,0.288515768770615,4
483,674,18,0.226532510478802,1
483,675,18,0.141898875797465,1
484,665,18,0.111617541223527,1
484,666,18,0.220422214685567,3
484,667,18,0.329826793878004,3
484,668,18,0.304105235215031,3
484,669,18,0.252128735215278,3
484,670,18,0.269174214576357,1
484,671,18,0.277090490989235,4
484,672,18,0.272874953105835,4
484,673,18,0.249610510191157,1
484,674,18,0.199205444478235,1
484,675,18,0.157735894720029,1
484,676,18,0.13435355774256,1
484,677,18,0.102666666252963,1
485,666,18,0.134029700366524,1
485,667,18,0.201868458182261,3
485,668,18,0.222557052531086,3
485,669,18,0.238923554462442,1
485,670,18,0.299851288899089,4
485,671,18,0.329195244217789,4
485,672,18,0.295378111694507,4
485,673,18,0.232284494593071,4
485,674,18,0.194783986853265,1
485,675,18,0.213990098492155,1
485,676,18,0.228800895511776,1
485,677,18,0.167940751637785,1
485,678,18,0.132396938945486,1
486,668,18,0.158324330206675,1
486,669,18,0.213267876173835,1
486,670,18,0.29050409685502,4
486,671,18,0.342005578441192,4
486,672,18,0.318199321733367,4
486,673,18,0.245694179008001,4
486,674,18,0.216044655524336,1
486,675,18,0.250440768480536,1
486,676,18,0.274663003980734,1
486,677,18,0.207042202582107,1
486,678,18,0.135565863381497,1
487,669,18,0.168849025013342,1
487,670,18,0.217007938141054,1
487,671,18,0.249319429608518,4
487,672,18,0.248892906470511,4
487,673,18,0.221724528514547,1
487,674,18,0.21897772647725,1
487,675,18,0.229066857023105,1
487,676,18,0.220631794447934,1
487,677,18,0.169998347794378,1
487,686,18,0.107365860634746,1
487,687,18,0.135016827583025,1
487,688,18,0.131848153684152,1
487,689,18,0.133511197420126,1
487,690,18,0.136796076979339,1
487,691,18,0.140742962800408,1
487,692,18,0.1311053764276,1
487,693,18,0.100706463685524,1
488,670,18,0.159409896732559,1
488,671,18,0.161198688325954,1
488,672,18,0.166720341667081,1
488,673,18,0.177649348949828,1
488,674,18,0.195128725955105,1
488,675,18,0.182316202254975,1
488,676,18,0.148138067501724,1
488,686,18,0.171709135194513,1
488,687,18,0.237399678660148,1
488,688,18,0.207380057359113,1
488,689,18,0.175016672025333,1
488,690,18,0.156496051781754,1
488,691,18,0.151092760898937,1
488,692,18,0.135198630401836,1
488,693,18,0.101321695753014,1
489,686,18,0.180931330992575,1
489,687,18,0.247840149416782,1
489,688,18,0.223911783086497,1
489,689,18,0.172881115247157,1
489,690,18,0.140987802941714,1
489,691,18,0.132924134441279,1
489,692,18,0.124588132071876,1
489,693,18,0.104898222326656,1
490,680,18,0.11618268734358,1
490,686,18,0.126217723653472,1
490,687,18,0.175994398652702,1
490,688,18,0.204532343319811,1
490,689,18,0.162329329750833,1
490,690,18,0.126769591610895,1
490,691,18,0.149281922037401,1
490,692,18,0.188054711828389,1
490,693,18,0.163120275495389,1
490,694,18,0.118473413753509,1
491,679,18,0.104462952174658,1
491,680,18,0.122354604379836,1
491,681,18,0.114593454027034,1
491,685,18,0.122142911391174,1
491,686,18,0.145073791338949,1
491,687,18,0.17304218884103,1
491,688,18,0.201931332110972,1
491,689,18,0.16572195117229,1
491,690,18,0.134526264973971,1
491,691,18,0.200723350960894,1
491,692,18,0.292914111621378,1
491,693,18,0.243297780390446,1
491,694,18,0.142328546989075,1
492,680,18,0.110322591007819,1
492,681,18,0.115299816255229,1
492,683,18,0.168785279651108,1
492,684,18,0.179971828218764,1
492,685,18,0.211687836480961,1
492,686,18,0.241160720389442,1
492,687,18,0.217585611423688,1
492,688,18,0.195335538916036,1
492,689,18,0.15533726305407,1
492,691,18,0.171392118571635,1
492,692,18,0.23652700334402,1
492,693,18,0.195424555850447,1
493,680,18,0.114337143641977,1
493,681,18,0.118498837826553,1
493,682,18,0.13649897261247,1
493,683,18,0.17330699570294,1
493,684,18,0.219354686833616,1
493,685,18,0.293825914302704,1
493,686,18,0.324088447698375,1
493,687,18,0.230677941535249,1
493,688,18,0.161833505861881,1
493,692,18,0.113262208605078,1
494,680,18,0.106445147545643,1
494,684,18,0.167085036596606,1
494,685,18,0.226358659490892,1
494,686,18,0.25835288379834,1
494,687,18,0.17141742282257,1
495,685,18,0.176117270779495,1
495,686,18,0.206983772964366,1
449,677,19,0.128286964340521,1
449,678,19,0.138351400638907,1
450,676,19,0.149358346757399,1
450,677,19,0.239735185860258,5
450,678,19,0.23210077462051,1
450,679,19,0.141231978614959,1
451,675,19,0.117730309709386,1
451,676,19,0.245407978453093,5
451,677,19,0.376041658637217,5
451,678,19,0.3196756826228,5
451,679,19,0.163778719772718,1
452,675,19,0.144928959087367,1
452,676,19,0.278640270153011,5
452,677,19,0.347345243783885,5
452,678,19,0.249959214315529,5
452,679,19,0.129392998661285,1
453,675,19,0.143886561199646,1
453,676,19,0.235317823972848,1
453,677,19,0.244604865317967,5
453,678,19,0.160711960024402,1
454,674,19,0.104393901960851,1
454,675,19,0.138557941276862,1
454,676,19,0.168969653198812,1
454,677,19,0.159080592897002,1
454,678,19,0.121495044138235,1
455,674,19,0.125916174975633,1
455,675,19,0.125458607018357,1
455,676,19,0.107476162332964,1
455,680,19,0.113312261568076,1
456,674,19,0.122640096895007,1
456,675,19,0.107938479602943,1
456,679,19,0.102231810031889,1
456,680,19,0.112360024371266,1
459,672,19,0.103145584331562,1
459,673,19,0.113854859651394,1
459,674,19,0.107770151324988,1
460,671,19,0.109686183105712,1
460,672,19,0.109813216327579,1
460,673,19,0.115081064655028,1
460,674,19,0.125545521619393,1
460,675,19,0.114790986220941,1
461,670,19,0.10798888113935,1
461,671,19,0.125375210830172,1
461,672,19,0.119671384310987,1
461,673,19,0.129241042440649,1
461,674,19,0.140267584920498,1
461,675,19,0.111037210068648,1
462,670,19,0.109238124666759,1
462,671,19,0.133434838057642,1
462,672,19,0.154310834185665,1
462,673,19,0.173814878053272,1
462,674,19,0.154856275320853,1
463,668,19,0.107520681693089,1
463,669,19,0.112173755455648,1
463,670,19,0.116886860095048,1
463,671,19,0.147503380680825,1
463,672,19,0.195310572345592,1
463,673,19,0.203274690458902,1
463,674,19,0.144835704807449,1
464,667,19,0.10351763198144,1
464,668,19,0.128492589973276,1
464,669,19,0.126922996589763,1
464,670,19,0.120083114864935,1
464,671,19,0.138352566181245,1
464,672,19,0.172166899224333,1
464,673,19,0.166095698117539,1
464,674,19,0.109000920461701,1
465,667,19,0.122027838594415,1
465,668,19,0.148980918005514,1
465,669,19,0.140959394208853,1
465,670,19,0.137624309185776,1
465,671,19,0.139835713359241,1
465,672,19,0.130345834968642,1
465,673,19,0.109454577861041,1
466,667,19,0.136143558449969,1
466,668,19,0.169154364427007,1
466,669,19,0.152133786278858,1
466,670,19,0.150568092560361,1
466,671,19,0.142445613190019,1
466,672,19,0.10633455173861,1
467,667,19,0.146195522356052,1
467,668,19,0.182053018438002,1
467,669,19,0.157299829384941,1
467,670,19,0.138321107431052,1
467,671,19,0.119428232572132,1
468,666,19,0.0997177569957611,1
468,667,19,0.133738924785618,1
468,668,19,0.154782813474834,1
468,669,19,0.141998241004965,1
468,670,19,0.11947090013602,1
469,666,19,0.123550102244691,1
469,667,19,0.149769271235338,1
469,668,19,0.146575151477583,1
469,669,19,0.129781864978164,1
469,670,19,0.110779745034172,1
470,666,19,0.136230843410252,1
470,667,19,0.16110698084054,1
470,668,19,0.138150840213507,1
470,669,19,0.112006418433325,1
470,670,19,0.10303314762121,1
471,666,19,0.117838552645906,1
471,667,19,0.131491007547523,1
471,668,19,0.115772470905379,1
471,669,19,0.110518685336413,1
471,670,19,0.119672909319653,1
472,666,19,0.11028471632831,1
472,667,19,0.119840812773765,1
472,668,19,0.12084768885249,1
472,669,19,0.126905753098919,1
472,670,19,0.140373169984771,1
472,671,19,0.105756584347162,1
473,666,19,0.121825774946187,1
473,667,19,0.156073188664545,1
473,668,19,0.194334283583537,1
473,669,19,0.179062672516765,1
473,670,19,0.143422490169702,1
474,666,19,0.153073790727584,1
474,667,19,0.215197948927204,1
474,668,19,0.300095878503257,3
474,669,19,0.264679817965482,1
474,670,19,0.166747693786795,1
475,664,19,0.106983769713511,1
475,665,19,0.161233175307641,3
475,666,19,0.220735669323918,3
475,667,19,0.273540575816813,3
475,668,19,0.33376347303393,3
475,669,19,0.271807795613132,3
475,670,19,0.163526417981868,1
476,663,19,0.116792396701116,1
476,664,19,0.194100499755058,3
476,665,19,0.295533117932474,3
476,666,19,0.338428343827812,3
476,667,19,0.329813352015906,3
476,668,19,0.32410215099053,3
476,669,19,0.240277892872767,3
476,670,19,0.144553393024638,1
477,663,19,0.192936482426234,3
477,664,19,0.356075635180121,3
477,665,19,0.505986514192803,3
477,666,19,0.472366434574991,3
477,667,19,0.389324353401955,3
477,668,19,0.381758611123847,3
477,669,19,0.325320153626126,3
477,670,19,0.211173712488018,3
477,671,19,0.123155408216125,1
478,662,19,0.105808216783421,1
478,663,19,0.236893397568916,3
478,664,19,0.440797317326075,3
478,665,19,0.587896211073913,3
478,666,19,0.515889310465526,3
478,667,19,0.438496384251003,3
478,668,19,0.514198729430214,3
478,669,19,0.515742386773488,3
478,670,19,0.382607779520682,3
478,671,19,0.247526999780163,3
478,672,19,0.138692686685411,1
479,663,19,0.183380974198407,3
479,664,19,0.32433785197276,3
479,665,19,0.430978135099918,3
479,666,19,0.429046864125455,3
479,667,19,0.437664862383016,3
479,668,19,0.588694400609632,3
479,669,19,0.606706887965742,3
479,670,19,0.498562946294031,3
479,671,19,0.406551112721731,3
479,672,19,0.239181607714546,3
479,673,19,0.110937278429357,1
480,663,19,0.116274307685642,1
480,664,19,0.200442030433717,3
480,665,19,0.311630869765227,3
480,666,19,0.39679781086994,3
480,667,19,0.40359616878738,3
480,668,19,0.483416124507803,3
480,669,19,0.477932890492137,3
480,670,19,0.425336823043115,3
480,671,19,0.403913632019939,3
480,672,19,0.272013148922911,3
480,673,19,0.144031698452962,1
481,664,19,0.149383934224229,1
481,665,19,0.280461021570875,3
481,666,19,0.422705137374254,3
481,667,19,0.406910666193468,3
481,668,19,0.337198968984736,3
481,669,19,0.27845040657411,3
481,670,19,0.243264665916558,3
481,671,19,0.242476693938901,3
481,672,19,0.222979240287315,1
481,673,19,0.19687703946134,1
481,674,19,0.145409118958737,1
482,664,19,0.120018029673659,1
482,665,19,0.227735873031206,3
482,666,19,0.39550970140739,3
482,667,19,0.45581738910633,3
482,668,19,0.340423599808728,3
482,669,19,0.223910301649507,3
482,670,19,0.174069184141225,1
482,671,19,0.182286061547986,1
482,672,19,0.239943632759045,1
482,673,19,0.284256070993418,4
482,674,19,0.23310041780099,1
482,675,19,0.13699220398669,1
483,665,19,0.150696280431647,3
483,666,19,0.290780515568629,3
483,667,19,0.427650130474218,3
483,668,19,0.374593815409835,3
483,669,19,0.258831496875206,3
483,670,19,0.208115089750226,1
483,671,19,0.222600253848007,4
483,672,19,0.284923763359014,4
483,673,19,0.31428323019443,4
483,674,19,0.250459983589726,4
483,675,19,0.153264220738275,1
484,665,19,0.102786346754477,1
484,666,19,0.191205074730353,3
484,667,19,0.325102033815229,3
484,668,19,0.34010635443455,3
484,669,19,0.279603356697187,3
484,670,19,0.268652051609162,4
484,671,19,0.290502201487107,4
484,672,19,0.314029882683352,4
484,673,19,0.285413835786712,4
484,674,19,0.214050292762781,1
484,675,19,0.166234179797319,1
484,676,19,0.137084913620656,1
485,666,19,0.131189938158123,1
485,667,19,0.208597776778814,3
485,668,19,0.249407379036863,3
485,669,19,0.26235023651333,4
485,670,19,0.31673550948667,4
485,671,19,0.364706835655562,4
485,672,19,0.354333051349303,4
485,673,19,0.277876306168922,4
485,674,19,0.214905757266823,1
485,675,19,0.239933436986822,1
485,676,19,0.255232106064494,1
485,677,19,0.166138834076945,1
485,678,19,0.108197044822242,1
485,679,19,0.106360335277982,1
486,667,19,0.145595453231868,1
486,668,19,0.175570293742722,1
486,669,19,0.236108889539513,4
486,670,19,0.335814261116122,4
486,671,19,0.394686153156141,4
486,672,19,0.372359154854215,4
486,673,19,0.28574983876748,4
486,674,19,0.240789685781034,4
486,675,19,0.29668813771017,1
486,676,19,0.330620713389458,1
486,677,19,0.220859260383368,1
486,678,19,0.117814326793956,1
487,669,19,0.200124349342777,1
487,670,19,0.275312548743206,4
487,671,19,0.3027446006975,4
487,672,19,0.299597527457087,4
487,673,19,0.26863399114939,4
487,674,19,0.25381419657864,4
487,675,19,0.268606388492538,1
487,676,19,0.26306768773311,1
487,677,19,0.188984008537697,1
487,678,19,0.110588508947472,1
487,684,19,0.100786232531668,1
487,687,19,0.116598949351849,1
487,688,19,0.121851721879345,1
487,689,19,0.122420288681659,1
487,690,19,0.127087196451401,1
487,691,19,0.122538422388669,1
487,692,19,0.104864541420978,1
488,670,19,0.208915370726401,1
488,671,19,0.19689738743411,4
488,672,19,0.211506011876312,4
488,673,19,0.235627095730288,4
488,674,19,0.250329769635498,1
488,675,19,0.21821707394055,1
488,676,19,0.167101659191064,1
488,686,19,0.141253927846828,1
488,687,19,0.211246215757162,1
488,688,19,0.198469584225275,1
488,689,19,0.168954424897992,1
488,690,19,0.154566382066389,1
488,691,19,0.143398340568186,1
488,692,19,0.120476632458245,1
488,693,19,0.0998651926549941,1
489,672,19,0.144780848067153,1
489,673,19,0.177176225904159,1
489,674,19,0.197252997669154,1
489,675,19,0.155211874662978,1
489,686,19,0.162185859114131,1
489,687,19,0.234299967831729,1
489,688,19,0.210420292849562,1
489,689,19,0.166283437577227,1
489,690,19,0.142339145799303,1
489,691,19,0.133093628261572,1
489,692,19,0.124071578957987,1
489,693,19,0.110399091978251,1
490,680,19,0.118210371544484,1
490,686,19,0.136661810859228,1
490,687,19,0.177954187289217,1
490,688,19,0.180359648815415,1
490,689,19,0.150015472991525,1
490,690,19,0.123938336772266,1
490,691,19,0.140932031196219,1
490,692,19,0.189463166260515,1
490,693,19,0.17141115939412,1
490,694,19,0.123276788013009,1
491,679,19,0.103078614665292,1
491,680,19,0.129980519142732,1
491,681,19,0.133381299360551,1
491,683,19,0.149321321725576,1
491,685,19,0.138338721281143,1
491,686,19,0.181815040835692,1
491,687,19,0.21816056147656,1
491,688,19,0.22813161278,1
491,689,19,0.1822122184498,1
491,690,19,0.133181632154512,1
491,691,19,0.183445634565841,1
491,692,19,0.307619051253749,1
491,693,19,0.269487560285518,1
491,694,19,0.149893363369064,1
492,680,19,0.123363114396417,1
492,681,19,0.142731345349408,1
492,682,19,0.182202077142172,1
492,683,19,0.211179529306787,1
492,684,19,0.192000628179663,1
492,685,19,0.207997271937868,1
492,686,19,0.26749709718898,1
492,687,19,0.277733805002015,1
492,688,19,0.268561378951056,1
492,689,19,0.212004188635777,1
492,690,19,0.141147307955246,1
492,691,19,0.158403881194439,1
492,692,19,0.250316589203457,1
492,693,19,0.22082069944996,1
492,694,19,0.122383296328592,1
493,680,19,0.121793292261604,1
493,681,19,0.139451345817927,1
493,682,19,0.169822830189855,1
493,683,19,0.206816610228748,1
493,684,19,0.211906893082895,1
493,685,19,0.256136588704225,1
493,686,19,0.305471446907112,1
493,687,19,0.254232441098175,1
493,688,19,0.226103176967682,1
493,689,19,0.193739878777255,1
493,692,19,0.116041678506582,1
493,693,19,0.105533562722697,1
494,680,19,0.110688647552224,1
494,681,19,0.126057140240955,1
494,682,19,0.138711291791135,1
494,683,19,0.155804928747298,1
494,684,19,0.158598984267399,1
494,685,19,0.19535686725152,1
494,686,19,0.223649743026023,1
494,687,19,0.16520109535538,1
494,688,19,0.134628538590855,1
495,685,19,0.171280346329345,1
495,686,19,0.189589371620535,1
449,677,20,0.143188434018247,1
449,678,20,0.149696136176891,1
450,676,20,0.155476648846131,1
450,677,20,0.242410007488526,5
450,678,20,0.22684646619143,1
450,679,20,0.122791682756395,1
451,675,20,0.141250354969382,1
451,676,20,0.278535240627609,5
451,677,20,0.386657636105455,5
451,678,20,0.292732526660948,5
451,679,20,0.130366063119303,1
452,674,20,0.0998482105942077,1
452,675,20,0.191733512018916,5
452,676,20,0.362950722819293,5
452,677,20,0.40263414974927,5
452,678,20,0.242714486361587,5
452,679,20,0.103334718084887,1
453,674,20,0.117116068897528,1
453,675,20,0.180043884878227,1
453,676,20,0.280188524308121,5
453,677,20,0.255774268431051,5
453,678,20,0.141338151896861,1
454,673,20,0.105910120041059,1
454,674,20,0.143007971028479,1
454,675,20,0.155923302098527,1
454,676,20,0.159189162621093,1
454,677,20,0.126184042747794,1
455,673,20,0.132044291584422,1
455,674,20,0.184087674107093,1
455,675,20,0.155055201808397,1
455,676,20,0.100282957886091,1
456,673,20,0.13728906870934,1
456,674,20,0.183121788082723,1
456,675,20,0.143600774575662,1
457,673,20,0.109675159471641,1
457,674,20,0.122368002670257,1
458,673,20,0.103088995617139,1
459,672,20,0.111027319298158,1
459,673,20,0.110211810021162,1
460,670,20,0.110634084920743,1
460,671,20,0.122323439738457,1
460,672,20,0.115373060242867,1
460,673,20,0.107397057954882,1
460,674,20,0.103577041961895,1
461,668,20,0.105575979749447,1
461,669,20,0.109519085727608,1
461,670,20,0.133619876073408,1
461,671,20,0.141986792547052,1
461,672,20,0.120083474331263,1
461,673,20,0.124993686340727,1
461,674,20,0.127138534778846,1
462,668,20,0.120244373638432,1
462,669,20,0.118271567963662,1
462,670,20,0.129373631051228,1
462,671,20,0.136470759952151,1
462,672,20,0.142483945372127,1
462,673,20,0.169481816466327,1
462,674,20,0.148105900711793,1
463,667,20,0.115487381428213,1
463,668,20,0.146668285935392,1
463,669,20,0.135569381794348,1
463,670,20,0.1233319279692,1
463,671,20,0.137368902912999,1
463,672,20,0.176039364622507,1
463,673,20,0.187580673777521,1
463,674,20,0.129196838975177,1
464,667,20,0.123966734612208,1
464,668,20,0.154041343368567,1
464,669,20,0.138908584340823,1
464,670,20,0.115559459873513,1
464,671,20,0.126474491541129,1
464,672,20,0.158158300334638,1
464,673,20,0.146016214015702,1
465,667,20,0.127200471916519,1
465,668,20,0.15302880297194,1
465,669,20,0.14126323039969,1
465,670,20,0.125875990997288,1
465,671,20,0.122982101874167,1
465,672,20,0.114145548088948,1
466,667,20,0.128491130322124,1
466,668,20,0.153894201818148,1
466,669,20,0.140752483211651,1
466,670,20,0.13581301282164,1
466,671,20,0.125924715024162,1
467,667,20,0.132576672109678,1
467,668,20,0.157783660170028,1
467,669,20,0.13844869619179,1
467,670,20,0.122755082548414,1
467,671,20,0.106292810072841,1
468,666,20,0.101131363778594,1
468,667,20,0.126309801498134,1
468,668,20,0.136584296847325,1
468,669,20,0.122915110422059,1
468,670,20,0.102769506301638,1
469,666,20,0.125470992267308,1
469,667,20,0.138636108863907,1
469,668,20,0.123353833629393,1
469,669,20,0.105366606952541,1
470,666,20,0.132717659160839,1
470,667,20,0.144152086994213,1
470,668,20,0.112463082278322,1
471,666,20,0.11309755124084,1
471,667,20,0.116826774753612,1
472,666,20,0.103734967502165,1
472,667,20,0.10398437177655,1
473,666,20,0.118336555118666,1
473,667,20,0.146251729818308,1
473,668,20,0.167949171864204,1
473,669,20,0.141523985095717,1
473,670,20,0.10852839652658,1
474,665,20,0.115661243309041,1
474,666,20,0.160722395440844,1
474,667,20,0.221662743877741,1
474,668,20,0.276117535460407,1
474,669,20,0.21830121084723,1
474,670,20,0.126807270217861,1
475,664,20,0.108421221096126,1
475,665,20,0.171764874261251,3
475,666,20,0.239501489175132,3
475,667,20,0.279243825011288,3
475,668,20,0.29764832673788,3
475,669,20,0.218846706447014,1
475,670,20,0.12387256532709,1
476,663,20,0.112294285604847,1
476,664,20,0.197539481439958,3
476,665,20,0.310720287090833,3
476,666,20,0.371608545588872,3
476,667,20,0.357657243453338,3
476,668,20,0.312072359773997,3
476,669,20,0.205019779661101,3
476,670,20,0.115705523024947,1
477,663,20,0.187117092928933,3
477,664,20,0.377834981684933,3
477,665,20,0.517774961895042,3
477,666,20,0.490625189044802,3
477,667,20,0.458951979061521,3
477,668,20,0.434227579993487,3
477,669,20,0.307337752512409,3
477,670,20,0.169787330166697,3
478,663,20,0.244059696505755,3
478,664,20,0.503799956767672,3
478,665,20,0.613038331801367,3
478,666,20,0.498647606060825,3
478,667,20,0.499929092628597,3
478,668,20,0.58589182682684,3
478,669,20,0.4974126540432,3
478,670,20,0.317141750009421,3
478,671,20,0.201334966579262,3
478,672,20,0.109596218487344,1
479,663,20,0.206406862186066,3
479,664,20,0.398385301319439,3
479,665,20,0.46456832454788,3
479,666,20,0.392664950242067,3
479,667,20,0.452945492786755,3
479,668,20,0.622428507303975,3
479,669,20,0.604764070497094,3
479,670,20,0.459645770861141,3
479,671,20,0.356218441348761,3
479,672,20,0.192873826355905,3
480,663,20,0.134743197456691,1
480,664,20,0.239144528218127,3
480,665,20,0.316846682618413,3
480,666,20,0.3424764357597,3
480,667,20,0.374300098740788,3
480,668,20,0.46275230065688,3
480,669,20,0.471704755100706,3
480,670,20,0.404931335660191,3
480,671,20,0.343090622106961,3
480,672,20,0.207849150024736,3
480,673,20,0.11280351867714,1
481,664,20,0.173207151207002,1
481,665,20,0.284435194154144,3
481,666,20,0.391042689594986,3
481,667,20,0.395680240947911,3
481,668,20,0.3257534085881,3
481,669,20,0.271478437312979,3
481,670,20,0.226301449880084,3
481,671,20,0.202257400749574,3
481,672,20,0.181198675904622,1
481,673,20,0.173946660587841,1
481,674,20,0.132246366125569,1
482,664,20,0.140679881906236,1
482,665,20,0.235430064610657,3
482,666,20,0.383037657677754,3
482,667,20,0.465761709186441,3
482,668,20,0.35122804656223,3
482,669,20,0.221499698665521,3
482,670,20,0.160169710514493,1
482,671,20,0.162282915022795,1
482,672,20,0.218427067633841,1
482,673,20,0.2713836035598,4
482,674,20,0.224554356380782,1
482,675,20,0.127272909828148,1
483,665,20,0.15662503483613,1
483,666,20,0.279326284408436,3
483,667,20,0.433302074020006,3
483,668,20,0.404426339933406,3
483,669,20,0.270229694859847,3
483,670,20,0.195760232043644,1
483,671,20,0.214925843809536,4
483,672,20,0.288143840942846,4
483,673,20,0.311582439847166,4
483,674,20,0.235719968758039,4
483,675,20,0.137541174427647,1
484,666,20,0.178619603034733,3
484,667,20,0.308244130520053,3
484,668,20,0.364727858989313,3
484,669,20,0.29810722363128,3
484,670,20,0.26090363507872,3
484,671,20,0.313798146723653,4
484,672,20,0.376243395497874,4
484,673,20,0.322537252455123,4
484,674,20,0.208025767814082,4
484,675,20,0.14598690117056,1
484,676,20,0.116147819109727,1
485,666,20,0.136040260898694,1
485,667,20,0.209818437286656,3
485,668,20,0.275210155304212,3
485,669,20,0.281876665329568,3
485,670,20,0.317965951835812,4
485,671,20,0.403082676583742,4
485,672,20,0.43410623287536,4
485,673,20,0.330429891233681,4
485,674,20,0.219199375593916,4
485,675,20,0.224643460458545,1
485,676,20,0.228649048220331,1
485,677,20,0.137470479383065,1
486,667,20,0.160178980388598,1
486,668,20,0.193768962871097,1
486,669,20,0.253817551597705,4
486,670,20,0.359586967633297,4
486,671,20,0.42859689942567,4
486,672,20,0.424348966001038,4
486,673,20,0.334635799776648,4
486,674,20,0.255556475407726,4
486,675,20,0.29868960265494,1
486,676,20,0.322282053147808,1
486,677,20,0.193908936880786,1
487,668,20,0.148295971256156,1
487,669,20,0.232770493069048,4
487,670,20,0.335014546571737,4
487,671,20,0.354939612653235,4
487,672,20,0.365092096416238,4
487,673,20,0.35362847555983,4
487,674,20,0.301943252215259,4
487,675,20,0.286151700336776,4
487,676,20,0.270118151368857,1
487,677,20,0.180681959396948,1
487,678,20,0.103401611500724,1
487,684,20,0.114113675407831,1
487,687,20,0.100882384328051,1
487,688,20,0.113371399225555,1
487,689,20,0.110849688467341,1
487,690,20,0.119754039780677,1
487,691,20,0.114511364989134,1
487,695,20,0.102860756284452,1
488,669,20,0.212955249397331,1
488,670,20,0.264029989987115,4
488,671,20,0.243942597626054,4
488,672,20,0.275983356483649,4
488,673,20,0.325027090532221,4
488,674,20,0.315867714198274,4
488,675,20,0.24610601849114,1
488,676,20,0.173676537981439,1
488,677,20,0.128414705602126,1
488,678,20,0.100948264702417,1
488,686,20,0.115942705444167,1
488,687,20,0.177523742700355,1
488,688,20,0.182142765197989,1
488,689,20,0.156713528910426,1
488,690,20,0.156967747855028,1
488,691,20,0.146621130488859,1
488,692,20,0.116593404856057,1
488,693,20,0.106253846101428,1
488,694,20,0.105307654474686,1
488,695,20,0.103417787485501,1
489,670,20,0.185277213545232,1
489,671,20,0.161389227265836,1
489,672,20,0.175023087954649,1
489,673,20,0.207579201705038,4
489,674,20,0.223377420049974,1
489,675,20,0.177628706868243,1
489,686,20,0.13964789764912,1
489,687,20,0.199157580991965,1
489,688,20,0.185632039490105,1
489,689,20,0.151831017594086,1
489,690,20,0.143212311296787,1
489,691,20,0.135901517788856,1
489,692,20,0.123785792334002,1
489,693,20,0.116538101506081,1
489,694,20,0.105892931014811,1
489,697,20,0.103039737837231,1
489,698,20,0.100923091166511,1
490,673,20,0.113820830172307,1
490,674,20,0.124797766298838,1
490,686,20,0.150947166143022,1
490,687,20,0.177191377954546,1
490,688,20,0.160204295532451,1
490,689,20,0.134095068773695,1
490,690,20,0.118714343336879,1
490,691,20,0.128728606850158,1
490,692,20,0.170987893238907,1
490,693,20,0.165159560655073,1
490,694,20,0.1250180973723,1
490,697,20,0.105234966025919,1
490,698,20,0.0998877845690871,1
491,680,20,0.118435408358972,1
491,681,20,0.142281282613352,1
491,682,20,0.162617501924088,1
491,683,20,0.166073432991017,1
491,684,20,0.14346139967652,1
491,685,20,0.1533362556119,1
491,686,20,0.215608829833467,1
491,687,20,0.242686796561382,1
491,688,20,0.221871713636642,1
491,689,20,0.17130303627971,1
491,690,20,0.123800203665895,1
491,691,20,0.149871065563785,1
491,692,20,0.259059943173354,1
491,693,20,0.243315797278541,1
491,694,20,0.14091303394541,1
492,680,20,0.121545554603832,1
492,681,20,0.162707226898237,1
492,682,20,0.210484364999367,1
492,683,20,0.23746934977034,1
492,684,20,0.197511203422125,1
492,685,20,0.198085935616617,1
492,686,20,0.276803310071613,1
492,687,20,0.308157466456155,6
492,688,20,0.305999905981514,1
492,689,20,0.245062062915996,1
492,690,20,0.14986942073301,1
492,691,20,0.136009695367862,1
492,692,20,0.217797500484892,1
492,693,20,0.205469461144991,1
492,694,20,0.116528515737324,1
493,680,20,0.113438499606853,1
493,681,20,0.155505264544454,1
493,682,20,0.204514587861773,1
493,683,20,0.237117377770256,1
493,684,20,0.203539933037574,1
493,685,20,0.215444216040905,1
493,686,20,0.275880353041188,1
493,687,20,0.271214785100487,1
493,688,20,0.288024803123556,7
493,689,20,0.259508165006092,1
493,690,20,0.161984002431365,1
493,692,20,0.108304819363243,1
493,693,20,0.102702471277854,1
494,680,20,0.106487314035254,1
494,681,20,0.146259572720019,1
494,682,20,0.177698127441298,1
494,683,20,0.183741660533725,1
494,684,20,0.157738530806437,1
494,685,20,0.177244165040224,1
494,686,20,0.202159473407386,1
494,687,20,0.167737097623376,1
494,688,20,0.163118597985856,1
494,689,20,0.157577141317911,1
495,681,20,0.109897974130645,1
495,682,20,0.124933404926749,1
495,686,20,0.166841340211799,1
449,677,21,0.170591902952975,1
449,678,21,0.167867137290899,1
450,676,21,0.157853865033253,1
450,677,21,0.241061376967779,5
450,678,21,0.215657717254127,1
450,679,21,0.107841794053527,1
451,675,21,0.158300082568888,1
451,676,21,0.277320963370325,5
451,677,21,0.352023752512407,5
451,678,21,0.245905632352444,5
451,679,21,0.105412193818732,1
452,674,21,0.135435311746779,1
452,675,21,0.235879724308709,5
452,676,21,0.392839934093557,5
452,677,21,0.403686057155314,5
452,678,21,0.222943119367771,5
453,673,21,0.127037448490137,1
453,674,21,0.158309624765969,1
453,675,21,0.211132254038145,1
453,676,21,0.290455536221931,5
453,677,21,0.252184354459906,5
453,678,21,0.130138281289217,1
454,673,21,0.138942210781905,1
454,674,21,0.174392910802233,1
454,675,21,0.163185284436231,1
454,676,21,0.14227288417277,1
454,677,21,0.104451166036255,1
455,673,21,0.172763613329451,1
455,674,21,0.239542773338301,1
455,675,21,0.182225453346436,1
456,673,21,0.171842105057258,1
456,674,21,0.238215623653905,1
456,675,21,0.17385696829245,1
457,673,21,0.118083632431431,1
457,674,21,0.136308640638049,1
457,675,21,0.10076505669705,1
458,669,21,0.100714568017291,1
458,670,21,0.10162884339124,1
459,668,21,0.105275727328974,1
459,669,21,0.10365611366122,1
459,672,21,0.106902105499453,1
460,667,21,0.101735071137737,1
460,668,21,0.123870332278687,1
460,669,21,0.115176802520488,1
460,670,21,0.116496141981931,1
460,671,21,0.123785313045564,1
460,672,21,0.113166666812161,1
461,667,21,0.106080953690394,1
461,668,21,0.137141066618317,1
461,669,21,0.13894874653333,1
461,670,21,0.149523058586233,1
461,671,21,0.142239399339635,1
461,672,21,0.112234962767745,1
461,673,21,0.113456483816191,1
461,674,21,0.108157209417306,1
462,667,21,0.11524693113328,1
462,668,21,0.154500338298238,1
462,669,21,0.153473637106857,1
462,670,21,0.146936001206686,1
462,671,21,0.128223861660511,1
462,672,21,0.116495510192627,1
462,673,21,0.14203377370688,1
462,674,21,0.12410747112623,1
463,667,21,0.138624714870589,1
463,668,21,0.175334679903844,1
463,669,21,0.14820030964113,1
463,670,21,0.120911564929752,1
463,671,21,0.116219418266589,1
463,672,21,0.135654215847847,1
463,673,21,0.146847735883689,1
463,674,21,0.102977953200425,1
464,667,21,0.135683441549636,1
464,668,21,0.156782535552557,1
464,669,21,0.128330557802527,1
464,670,21,0.102419800028715,1
464,671,21,0.10804585110594,1
464,672,21,0.128634383100445,1
464,673,21,0.113962590620719,1
465,667,21,0.123217160174174,1
465,668,21,0.134779568913372,1
465,669,21,0.122062162182316,1
465,670,21,0.104432735217236,1
466,667,21,0.116149670905964,1
466,668,21,0.119457327558893,1
466,669,21,0.1115239383702,1
466,670,21,0.103218109386543,1
467,667,21,0.114267200208808,1
467,668,21,0.118092542839207,1
467,669,21,0.109023185588223,1
468,666,21,0.101874064784712,1
468,667,21,0.114053317743419,1
468,668,21,0.111195560432761,1
469,666,21,0.119821368913276,1
469,667,21,0.12266973652772,1
469,668,21,0.102502825857653,1
470,665,21,0.104384490478799,1
470,666,21,0.127213358239745,1
470,667,21,0.120822362815718,1
471,665,21,0.109584192704722,1
471,666,21,0.118515907030692,1
471,667,21,0.102982473761827,1
472,665,21,0.102808884203975,1
472,666,21,0.104417049413815,1
473,665,21,0.100522939785505,1
473,666,21,0.114586863811014,1
473,667,21,0.132195692266186,1
473,668,21,0.13419494594839,1
473,669,21,0.106792598984324,1
474,665,21,0.122001619338281,1
474,666,21,0.168463971218127,1
474,667,21,0.221136180171253,1
474,668,21,0.228489837315614,1
474,669,21,0.161490988915526,1
475,664,21,0.11357815772189,1
475,665,21,0.18050683393751,3
475,666,21,0.253779012450135,3
475,667,21,0.289748193631022,3
475,668,21,0.261107746595728,3
475,669,21,0.171037074768381,1
476,663,21,0.104276639687364,1
476,664,21,0.19286842346806,3
476,665,21,0.299643277717063,3
476,666,21,0.36511150759797,3
476,667,21,0.374931016611698,3
476,668,21,0.308788515042094,3
476,669,21,0.184178531944822,3
477,663,21,0.166554780190562,3
477,664,21,0.36804111460263,3
477,665,21,0.486473026164387,3
477,666,21,0.462568036038366,3
477,667,21,0.506377047126295,3
477,668,21,0.477996461567666,3
477,669,21,0.289550051433649,3
477,670,21,0.139339519111042,3
478,663,21,0.228542559043777,3
478,664,21,0.520466907192043,3
478,665,21,0.599321445283616,3
478,666,21,0.453528394670528,3
478,667,21,0.531976670453512,3
478,668,21,0.621497206297564,3
478,669,21,0.45023903812159,3
478,670,21,0.247501183562034,3
478,671,21,0.148875267583727,1
479,663,21,0.218936376956567,3
479,664,21,0.458304983242104,3
479,665,21,0.500291216829228,3
479,666,21,0.361331054686944,3
479,667,21,0.44667692287984,3
479,668,21,0.615554683243412,3
479,669,21,0.554922386557022,3
479,670,21,0.380086853052639,3
479,671,21,0.261496035587898,3
479,672,21,0.137069816034864,1
480,663,21,0.154957350716643,1
480,664,21,0.27857774479771,3
480,665,21,0.326105445945699,3
480,666,21,0.292599328046903,3
480,667,21,0.346444660809172,3
480,668,21,0.4456345140992,3
480,669,21,0.444786739996003,3
480,670,21,0.34664297729325,3
480,671,21,0.25095328032146,3
480,672,21,0.14566478666157,1
481,664,21,0.190856327034305,1
481,665,21,0.262382348838666,3
481,666,21,0.321415216436287,3
481,667,21,0.37100106927974,3
481,668,21,0.348109120624621,3
481,669,21,0.286274942822817,3
481,670,21,0.208230990408833,3
481,671,21,0.161188394517459,1
481,672,21,0.141062582830937,1
481,673,21,0.135202758818152,1
481,674,21,0.103156760466499,1
482,664,21,0.162961042804834,1
482,665,21,0.234217508434582,3
482,666,21,0.333777503113656,3
482,667,21,0.430127790267827,3
482,668,21,0.367257979081027,3
482,669,21,0.242298551140889,3
482,670,21,0.156315174861062,1
482,671,21,0.140110160454503,1
482,672,21,0.180383624130226,1
482,673,21,0.218042569377498,1
482,674,21,0.176479591052669,1
482,675,21,0.0997066462183383,1
483,665,21,0.176680739695697,1
483,666,21,0.266745507560923,3
483,667,21,0.399514025590567,3
483,668,21,0.400418181442726,3
483,669,21,0.272166935153945,3
483,670,21,0.180614673836025,1
483,671,21,0.196673886521207,4
483,672,21,0.272798506599998,4
483,673,21,0.280651930870004,4
483,674,21,0.196060135890707,1
483,675,21,0.109476962809673,1
484,665,21,0.12771938879384,1
484,666,21,0.1865482864824,3
484,667,21,0.289727344583976,3
484,668,21,0.355641552356299,3
484,669,21,0.283881332792536,3
484,670,21,0.227654742570181,4
484,671,21,0.314210944783668,4
484,672,21,0.425289373487769,4
484,673,21,0.351312967759081,4
484,674,21,0.198647160591497,4
484,675,21,0.124028856929504,1
485,666,21,0.157980015928678,1
485,667,21,0.219415839681118,3
485,668,21,0.287754244800391,3
485,669,21,0.279292756003625,4
485,670,21,0.283040181584116,4
485,671,21,0.40545811722506,4
485,672,21,0.493992146748995,4
485,673,21,0.371047952403296,4
485,674,21,0.215510575703708,4
485,675,21,0.191373479258742,1
485,676,21,0.180905133522279,1
485,677,21,0.109930968782423,1
486,667,21,0.177721677932266,1
486,668,21,0.221924892867405,1
486,669,21,0.274514272064135,4
486,670,21,0.341807893746418,4
486,671,21,0.408132154563157,4
486,672,21,0.438892407215693,4
486,673,21,0.35807995406968,4
486,674,21,0.250279509707038,4
486,675,21,0.267326710149326,1
486,676,21,0.273323523511983,1
486,677,21,0.159463533465922,1
487,668,21,0.163933704224847,1
487,669,21,0.267389584078036,4
487,670,21,0.370895015819947,4
487,671,21,0.370693801819404,4
487,672,21,0.399331721697481,4
487,673,21,0.411692004077746,4
487,674,21,0.316884611762517,4
487,675,21,0.265535042825304,4
487,676,21,0.240265387801707,1
487,677,21,0.159361118241089,1
487,678,21,0.10104374113782,1
487,683,21,0.110444624379846,1
487,684,21,0.115320403872218,1
487,688,21,0.0997858922043686,1
487,690,21,0.103314130467898,1
487,691,21,0.101972231771119,1
488,668,21,0.132522163942792,1
488,669,21,0.241855492551776,4
488,670,21,0.32509281840572,4
488,671,21,0.293110162378295,4
488,672,21,0.319841037133857,4
488,673,21,0.379572663702182,4
488,674,21,0.332037686084274,4
488,675,21,0.233861222838557,4
488,676,21,0.165703422317,1
488,677,21,0.130830036112976,1
488,678,21,0.105972122536246,1
488,687,21,0.134036944157687,1
488,688,21,0.150040319739859,1
488,689,21,0.133676312286964,1
488,690,21,0.149056493077828,1
488,691,21,0.147353374292698,1
488,692,21,0.112351756645713,1
488,693,21,0.106147226209845,1
488,694,21,0.107494767438688,1
488,695,21,0.103303139512584,1
489,669,21,0.165469976169011,1
489,670,21,0.207821394867017,4
489,671,21,0.190378933964372,4
489,672,21,0.191972960165297,4
489,673,21,0.212912374867982,4
489,674,21,0.214528426551209,4
489,675,21,0.172143174446659,1
489,676,21,0.126978223689306,1
489,686,21,0.119112359705753,1
489,687,21,0.152611320956738,1
489,688,21,0.150441582198608,1
489,689,21,0.130865645065324,1
489,690,21,0.140592694982224,1
489,691,21,0.144101859744511,1
489,692,21,0.1280716331169,1
489,693,21,0.123282681082211,1
489,694,21,0.112352083433284,1
489,695,21,0.104811133438915,1
489,696,21,0.10942150695883,1
489,697,21,0.115053865036181,1
489,698,21,0.109301379847635,1
490,673,21,0.10863344783782,1
490,674,21,0.111296243683466,1
490,682,21,0.126643821967636,1
490,683,21,0.125439032442838,1
490,686,21,0.164247507436608,1
490,687,21,0.168645164033471,1
490,688,21,0.138971436483695,1
490,689,21,0.115571583692407,1
490,690,21,0.112589777819699,1
490,691,21,0.126902496116126,1
490,692,21,0.159569271031062,1
490,693,21,0.162565422878149,1
490,694,21,0.130356902174389,1
490,695,21,0.113425754891574,1
490,696,21,0.114497716161574,1
490,697,21,0.118390780069657,1
490,698,21,0.108767703065013,1
491,681,21,0.146839675123598,1
491,682,21,0.175327610399386,1
491,683,21,0.184476355244348,1
491,684,21,0.168517248485162,1
491,685,21,0.176373080090276,1
491,686,21,0.238196495688067,1
491,687,21,0.241837148876109,6
491,688,21,0.192924086284365,1
491,689,21,0.144048734978343,1
491,691,21,0.125695538900439,1
491,692,21,0.199420536057638,1
491,693,21,0.200105874952082,1
491,694,21,0.130574379303061,1
492,680,21,0.124653304406504,1
492,681,21,0.173215462504231,1
492,682,21,0.220338143136401,1
492,683,21,0.245065178290842,1
492,684,21,0.209704519139315,1
492,685,21,0.197820540537078,1
492,686,21,0.26852665232515,6
492,687,21,0.309693476970262,6
492,688,21,0.306664918689025,6
492,689,21,0.24210888363453,1
492,690,21,0.14217590451454,1
492,692,21,0.167471691650919,1
492,693,21,0.168007448981079,1
493,680,21,0.1108549279614,1
493,681,21,0.164938151182626,1
493,682,21,0.228448444223255,1
493,683,21,0.248556729203038,1
493,684,21,0.202101915223169,1
493,685,21,0.1925075410602,1
493,686,21,0.242520766689345,1
493,687,21,0.285867395149781,6
493,688,21,0.333684978659314,7
493,689,21,0.291368188550943,7
493,690,21,0.167123346992876,1
494,680,21,0.103408299753016,1
494,681,21,0.156075421712948,1
494,682,21,0.207463235688917,1
494,683,21,0.199481884977682,1
494,684,21,0.16612149254983,1
494,685,21,0.178856349737191,1
494,686,21,0.188202724812331,1
494,687,21,0.175427955969601,1
494,688,21,0.186361037204069,7
494,689,21,0.175002184443007,1
495,681,21,0.133612033171698,1
495,682,21,0.14906885654094,1
495,683,21,0.129766527748152,1
449,677,22,0.184680913371037,1
450,676,22,0.151838294064006,1
450,677,22,0.227847089734624,1
450,678,22,0.187850338881324,1
451,675,22,0.166030798105887,1
451,676,22,0.244215683106436,5
451,677,22,0.286424262957044,5
451,678,22,0.187164803914337,1
452,673,22,0.106178957283014,1
452,674,22,0.158257567505867,1
452,675,22,0.270074143975928,5
452,676,22,0.355778345633628,5
452,677,22,0.332667688949985,5
452,678,22,0.175274834206628,1
453,673,22,0.137915008516248,1
453,674,22,0.170756462280941,1
453,675,22,0.228800372651662,1
453,676,22,0.255825879081472,5
453,677,22,0.208928093655842,1
453,678,22,0.106104068464601,1
454,672,22,0.100046897437533,1
454,673,22,0.143320467089955,1
454,674,22,0.1648593082346,1
454,675,22,0.148196856585793,1
454,676,22,0.11567410784643,1
455,672,22,0.104674547127048,1
455,673,22,0.181503405314821,1
455,674,22,0.235932249964329,1
455,675,22,0.164198304121296,1
456,673,22,0.170107788951993,1
456,674,22,0.229438959137578,1
456,675,22,0.15489644840628,1
457,668,22,0.109941883487303,1
457,669,22,0.121476395460835,1
457,670,22,0.102306709743221,1
457,673,22,0.105215979668029,1
457,674,22,0.119219262813231,1
458,668,22,0.13619107336283,1
458,669,22,0.139868435688043,1
458,670,22,0.107524548679349,1
459,667,22,0.122155046102987,1
459,668,22,0.149947468497946,1
459,669,22,0.124285624817161,1
460,667,22,0.141988132376095,1
460,668,22,0.155337306625746,1
460,669,22,0.121468933811291,1
460,670,22,0.104675374988895,1
460,671,22,0.106328081344699,1
461,667,22,0.121448683874792,1
461,668,22,0.151881364665898,1
461,669,22,0.156838307298052,1
461,670,22,0.143367175926807,1
461,671,22,0.119838394545738,1
462,667,22,0.114795245352286,1
462,668,22,0.169337681361564,1
462,669,22,0.192449830375116,1
462,670,22,0.155434395213167,1
462,671,22,0.107636887353429,1
462,673,22,0.100545553485436,1
463,667,22,0.130966960105334,1
463,668,22,0.164194208383736,1
463,669,22,0.145920171148509,1
463,670,22,0.109487398226115,1
464,667,22,0.122912844694898,1
464,668,22,0.130343416740615,1
464,669,22,0.102468850843161,1
465,667,22,0.104951292628228,1
465,668,22,0.105146896775465,1
469,665,22,0.101329767406024,1
469,666,22,0.116585736241052,1
469,667,22,0.106181157652661,1
470,665,22,0.147686893687925,1
470,666,22,0.147656447979202,1
470,667,22,0.108800229321272,1
471,664,22,0.11852207242287,1
471,665,22,0.174491546184158,1
471,666,22,0.156292103658531,1
471,667,22,0.101706194009357,1
472,664,22,0.101805766182319,1
472,665,22,0.136472557283793,1
472,666,22,0.12129429853321,1
473,665,22,0.106463153540819,1
473,666,22,0.112181369606058,1
473,667,22,0.114930655228897,1
473,668,22,0.102166626804341,1
474,665,22,0.12308598764307,1
474,666,22,0.16530217075117,1
474,667,22,0.198650319538019,1
474,668,22,0.169557576718264,1
474,669,22,0.11051985087875,1
475,664,22,0.117053227647575,1
475,665,22,0.174085567091464,1
475,666,22,0.238832097514166,1
475,667,22,0.271335151855901,3
475,668,22,0.213492096019395,1
475,669,22,0.127309030747691,1
476,664,22,0.180642842924668,1
476,665,22,0.267417774952517,3
476,666,22,0.31278795919754,3
476,667,22,0.349360477378324,3
476,668,22,0.287017186326336,3
476,669,22,0.162605007745947,1
477,663,22,0.144754933812753,1
477,664,22,0.322289852477842,3
477,665,22,0.423304683638323,3
477,666,22,0.393276914433845,3
477,667,22,0.484224335529041,3
477,668,22,0.467454730235618,3
477,669,22,0.261458455017203,3
477,670,22,0.11550150954421,1
478,663,22,0.198783365651197,3
478,664,22,0.460814537502668,3
478,665,22,0.531421349440753,3
478,666,22,0.387754465909628,3
478,667,22,0.497586679317814,3
478,668,22,0.587061029185128,3
478,669,22,0.389654016703841,3
478,670,22,0.194197228876151,3
478,671,22,0.102869557763038,1
479,663,22,0.210423168580189,3
479,664,22,0.442657610040061,3
479,665,22,0.483490893504107,3
479,666,22,0.321536106051815,3
479,667,22,0.3998351924156,3
479,668,22,0.560842034481185,3
479,669,22,0.480012000163838,3
479,670,22,0.296670425823807,3
479,671,22,0.169665830547703,1
480,663,22,0.171088750776316,1
480,664,22,0.283112249136498,3
480,665,22,0.313362974607927,3
480,666,22,0.249730811589057,3
480,667,22,0.30797856115381,3
480,668,22,0.421626564102395,3
480,669,22,0.398717317491838,3
480,670,22,0.276249557639196,3
480,671,22,0.171300160549083,1
481,663,22,0.148281864925997,1
481,664,22,0.194505062768277,1
481,665,22,0.222972682750051,1
481,666,22,0.246204032976679,3
481,667,22,0.327996325976354,3
481,668,22,0.375519190668288,3
481,669,22,0.303220403401253,3
481,670,22,0.19070278044749,1
481,671,22,0.129115556013286,1
481,672,22,0.107317692146742,1
482,664,22,0.178596401117174,1
482,665,22,0.21406462784424,1
482,666,22,0.260640048223742,3
482,667,22,0.364132604535346,3
482,668,22,0.394044080936132,3
482,669,22,0.29065145626382,3
482,670,22,0.167413327390692,1
482,671,22,0.125565368517887,1
482,672,22,0.146031191779385,1
482,673,22,0.160416674775012,1
482,674,22,0.123888153094239,1
483,665,22,0.190606073112235,1
483,666,22,0.239136946746474,1
483,667,22,0.337944785365701,3
483,668,22,0.376888212733482,3
483,669,22,0.281541773426542,3
483,670,22,0.178632086319955,1
483,671,22,0.186132503762569,1
483,672,22,0.258755398942778,4
483,673,22,0.24980638666137,4
483,674,22,0.161053507500963,1
484,665,22,0.139973770215179,1
484,666,22,0.196350780756585,1
484,667,22,0.268811894303183,3
484,668,22,0.312124144711123,3
484,669,22,0.24786348204937,1
484,670,22,0.200769362650928,1
484,671,22,0.310279690301424,4
484,672,22,0.456015770947922,4
484,673,22,0.369797924585717,4
484,674,22,0.194507175994571,4
484,675,22,0.106274716934312,1
485,666,22,0.188756673317291,1
485,667,22,0.240520282107289,1
485,668,22,0.284999360217165,1
485,669,22,0.259866934187658,1
485,670,22,0.247837142971126,4
485,671,22,0.38933441845915,4
485,672,22,0.526503022206603,4
485,673,22,0.396326234618775,4
485,674,22,0.213920165951906,4
485,675,22,0.155395997673544,1
485,676,22,0.133632795075392,1
486,667,22,0.190719076254377,1
486,668,22,0.250435191305986,1
486,669,22,0.298422508280031,1
486,670,22,0.312981417439725,4
486,671,22,0.365252483756211,4
486,672,22,0.432315088411452,4
486,673,22,0.365384288076619,4
486,674,22,0.242661895348452,4
486,675,22,0.21966413287776,1
486,676,22,0.204005823184999,1
486,677,22,0.127729246885573,1
487,668,22,0.183696324204672,1
487,669,22,0.309872556559312,4
487,670,22,0.394555350984286,4
487,671,22,0.375902839276946,4
487,672,22,0.420914297912079,4
487,673,22,0.447849698115573,4
487,674,22,0.320410954658133,4
487,675,22,0.228771027127763,1
487,676,22,0.190293751337464,1
487,677,22,0.134465602307826,1
487,678,22,0.104097331347015,1
487,682,22,0.119789452660483,1
487,683,22,0.130507703745606,1
487,684,22,0.111328966012268,1
488,668,22,0.132544777642724,1
488,669,22,0.268781154485647,1
488,670,22,0.389172462538834,4
488,671,22,0.35401460775403,4
488,672,22,0.358196922234353,4
488,673,22,0.412347583517367,4
488,674,22,0.325848373056308,4
488,675,22,0.211016484094567,1
488,676,22,0.1608613781949,1
488,677,22,0.135204991866556,1
488,678,22,0.113773140972741,1
488,679,22,0.103438680104224,1
488,680,22,0.10059565002011,1
488,681,22,0.110228802974868,1
488,682,22,0.130585500973403,1
488,683,22,0.131494155601126,1
488,684,22,0.108572077131938,1
488,687,22,0.105049655687177,1
488,688,22,0.118797543452522,1
488,689,22,0.110315042214923,1
488,690,22,0.127125147381344,1
488,691,22,0.132206018753438,1
488,692,22,0.105791212936797,1
488,693,22,0.103100759969704,1
488,694,22,0.106062718943918,1
488,695,22,0.100006582744159,1
489,669,22,0.162846318581484,1
489,670,22,0.236173070618509,1
489,671,22,0.233796235683553,4
489,672,22,0.210384324430886,4
489,673,22,0.211965823774912,4
489,674,22,0.194511859949759,1
489,675,22,0.162395395304823,1
489,676,22,0.150549138881228,1
489,677,22,0.135786194454959,1
489,678,22,0.110314475783133,1
489,681,22,0.10731702767868,1
489,682,22,0.120789291913506,1
489,683,22,0.112783748029079,1
489,687,22,0.120048475382381,1
489,689,22,0.111981985615914,1
489,690,22,0.130401312605323,1
489,691,22,0.143781520781325,1
489,692,22,0.132265733735626,1
489,693,22,0.129795971308323,1
489,694,22,0.120104290699552,1
489,695,22,0.110995174294065,1
489,696,22,0.112708968139856,1
489,697,22,0.111964339087066,1
489,698,22,0.103561203657608,1
490,670,22,0.121834587317692,1
490,671,22,0.14872821317666,1
490,672,22,0.134978419150483,1
490,673,22,0.103962629510142,1
490,675,22,0.105663863820277,1
490,676,22,0.113994550445188,1
490,681,22,0.123901954422665,1
490,682,22,0.15078061341087,1
490,683,22,0.147920176442127,1
490,684,22,0.139008374372166,1
490,685,22,0.143457445546907,1
490,686,22,0.169181302615798,1
490,687,22,0.155622886284269,1
490,688,22,0.121564366675018,1
490,690,22,0.107379803571119,1
490,691,22,0.128876750549129,1
490,692,22,0.154962143601022,1
490,693,22,0.161047995683927,1
490,694,22,0.134893345452766,1
490,695,22,0.117031518059925,1
490,696,22,0.118305771729453,1
490,697,22,0.117836929600968,1
490,698,22,0.1053993619601,1
491,680,22,0.11852445797214,1
491,681,22,0.163209695467804,1
491,682,22,0.200148117692126,1
491,683,22,0.212779089110584,1
491,684,22,0.20662182305044,1
491,685,22,0.201293224913494,1
491,686,22,0.239814965599322,1
491,687,22,0.228632883128473,1
491,688,22,0.176697645506051,1
491,689,22,0.130201024502898,1
491,692,22,0.155063948822388,1
491,693,22,0.162550880831228,1
492,680,22,0.138339135212066,1
492,681,22,0.195930357653241,1
492,682,22,0.239207293217647,1
492,683,22,0.252565497697184,1
492,684,22,0.233047303927742,1
492,685,22,0.211182470394928,1
492,686,22,0.25676404262688,1
492,687,22,0.305158929059798,6
492,688,22,0.306031582590088,1
492,689,22,0.230557269778102,1
492,690,22,0.131004812999004,1
493,680,22,0.125179269002445,1
493,681,22,0.189159275605082,1
493,682,22,0.255103264618066,1
493,683,22,0.254856779645985,1
493,684,22,0.221374125094805,1
493,685,22,0.201827784022559,1
493,686,22,0.227701908909633,1
493,687,22,0.302203810838743,1
493,688,22,0.359493833175488,7
493,689,22,0.29018517397131,1
493,690,22,0.156823187926422,1
494,680,22,0.112148571026823,1
494,681,22,0.16726406172106,1
494,682,22,0.228978885808922,1
494,683,22,0.216765527120695,1
494,684,22,0.201499449656796,1
494,685,22,0.202502360712989,1
494,686,22,0.183184030222129,1
494,687,22,0.188316947961405,1
494,688,22,0.206021775712094,1
494,689,22,0.181043135913622,1
495,681,22,0.166800589801663,1
495,682,22,0.184024397140378,1
495,683,22,0.157431579240753,1
495,684,22,0.15425483368887,1
495,685,22,0.166786287398961,1
495,686,22,0.142735114299397,1
495,687,22,0.117878507872951,1
495,688,22,0.10642119401667,1
496,682,22,0.174284460900252,1
450,676,23,0.132578109974992,1
450,677,23,0.194589809678423,1
451,674,23,0.109362641624327,1
451,675,23,0.154679679317345,1
451,676,23,0.187972470289622,1
451,677,23,0.209021925260469,1
451,678,23,0.128251137529792,1
452,673,23,0.118133946824485,1
452,674,23,0.176213313646688,1
452,675,23,0.264998000130698,1
452,676,23,0.266471507075342,5
452,677,23,0.22673799450361,1
452,678,23,0.120965615594038,1
453,672,23,0.110188292208951,1
453,673,23,0.136689860125761,1
453,674,23,0.166894486763805,1
453,675,23,0.217849503280398,1
453,676,23,0.193317364233456,1
453,677,23,0.149070544943392,1
454,672,23,0.112812233012374,1
454,673,23,0.142374983502951,1
454,674,23,0.144816217375283,1
454,675,23,0.126988375889853,1
455,672,23,0.115996363963367,1
455,673,23,0.181294598949706,1
455,674,23,0.200270706603025,1
455,675,23,0.127946778478841,1
456,669,23,0.106914915572246,1
456,672,23,0.104131251896911,1
456,673,23,0.159475003709673,1
456,674,23,0.18158471006255,1
456,675,23,0.114390780375339,1
457,667,23,0.105917766870226,1
457,669,23,0.142874521877296,1
458,667,23,0.111577106708044,1
458,669,23,0.149572305473222,1
459,667,23,0.138521940179428,1
459,668,23,0.165475509771885,1
459,669,23,0.123249980539247,1
460,667,23,0.171483891414564,1
460,668,23,0.16939628526601,1
460,669,23,0.117758816478518,1
461,667,23,0.137768139288806,1
461,668,23,0.156442338797958,1
461,669,23,0.165913383331533,1
461,670,23,0.126069656204935,1
462,667,23,0.11508081411789,1
462,668,23,0.169288739476309,1
462,669,23,0.217634520630186,1
462,670,23,0.146607852020547,1
463,667,23,0.116204146394093,1
463,668,23,0.13516765094008,1
463,669,23,0.136408310847283,1
464,667,23,0.10619298736274,1
464,668,23,0.100256651486605,1
469,665,23,0.115916584224304,1
469,666,23,0.119245776178179,1
470,664,23,0.122180927678631,1
470,665,23,0.206688574858329,1
470,666,23,0.17835926226963,1
470,667,23,0.10268215598384,1
471,664,23,0.144095803281523,1
471,665,23,0.244395786629876,1
471,666,23,0.195862124408362,1
471,667,23,0.102324585023369,1
472,664,23,0.105881384520626,1
472,665,23,0.158843366906106,1
472,666,23,0.132953632466045,1
473,665,23,0.102095049433317,1
473,666,23,0.106638867217885,1
473,667,23,0.100893636713422,1
474,665,23,0.12041994570755,1
474,666,23,0.153384326063632,1
474,667,23,0.16578369223742,1
474,668,23,0.12341196913832,1
475,664,23,0.130854708574606,1
475,665,23,0.170611673601036,1
475,669,23,0.103472110472763,1
479,662,23,0.103721547425905,1
479,671,23,0.109754939210705,1
480,662,23,0.124744282066342,1
480,671,23,0.123540941299777,1
481,671,23,0.119202923434668,1
482,672,23,0.126890666406046,1
482,673,23,0.115860954086757,1
483,674,23,0.130882028015564,1
485,675,23,0.138190196330005,1
485,676,23,0.105004755074886,1
486,667,23,0.193553217716552,1
486,676,23,0.147825582333167,1
486,677,23,0.10764949046076,1
487,677,23,0.117071887217894,1
487,678,23,0.106604608987498,1
487,679,23,0.102738080230202,1
487,680,23,0.104869933415904,1
487,681,23,0.128809159986474,1
487,682,23,0.157416666834585,1
487,683,23,0.142734275544631,1
487,684,23,0.100350090946147,1
488,668,23,0.121993264469376,1
488,678,23,0.118155776234246,1
488,679,23,0.123997006034226,1
488,680,23,0.13758139108475,1
488,683,23,0.15675066287144,1
488,684,23,0.109099468700274,1
488,690,23,0.10441301903377,1
488,691,23,0.109419252124588,1
488,692,23,0.100803802810083,1
488,693,23,0.101814938020153,1
488,694,23,0.103203305909565,1
488,695,23,0.099798985493057,1
489,669,23,0.145272249430974,1
489,679,23,0.117572972386743,1
489,680,23,0.1268236531681,1
489,681,23,0.137396037174332,1
489,682,23,0.143632200647098,1
489,683,23,0.125507483546098,1
489,684,23,0.10806335602684,1
489,690,23,0.120954352315749,1
489,691,23,0.140746884251263,1
489,692,23,0.144952618507526,1
489,693,23,0.14430800823738,1
489,694,23,0.131786881014541,1
489,695,23,0.122598148263776,1
489,696,23,0.123428123337259,1
489,697,23,0.115560385771632,1
489,698,23,0.102038787506465,1
490,670,23,0.116625538967231,1
490,671,23,0.153014860035567,1
490,672,23,0.135329160250715,1
490,681,23,0.133103813140876,1
490,687,23,0.14150631678103,1
490,688,23,0.11119659526007,1
490,691,23,0.139466040365714,1
490,692,23,0.164859264662924,1
490,693,23,0.16809953771866,1
490,694,23,0.143806236814631,1
490,695,23,0.124453974880955,1
490,696,23,0.123380564852722,1
490,697,23,0.116494529829913,1
490,698,23,0.101012423995574,1
491,680,23,0.115406436146812,1
491,689,23,0.130455744521775,1
491,692,23,0.136150627954427,1
491,693,23,0.140792863262539,1
492,690,23,0.127209698218947,1
494,680,23,0.111204133160047,1
494,690,23,0.124355295927354,1
495,681,23,0.162807300145475,1
495,685,23,0.168593139452127,1
495,686,23,0.131513915356269,1
495,687,23,0.134869511745902,1
495,689,23,0.12015684903393,1
496,681,23,0.196536722884631,1
497,682,23,0.154539912273117,1
451,674,24,0.114477237473775,1
451,675,24,0.131242278634119,1
451,676,24,0.134119163910615,1
451,677,24,0.136818331212942,1
452,671,24,0.100781450540209,1
452,672,24,0.10188603610274,1
452,673,24,0.122178934274446,1
452,674,24,0.177729760478195,1
452,675,24,0.219923623995178,1
452,676,24,0.174898886891732,1
452,677,24,0.130434579580077,1
453,670,24,0.104568047057575,1
453,671,24,0.114378002981303,1
453,672,24,0.116250996838892,1
453,673,24,0.120094465286577,1
453,674,24,0.144870736435088,1
453,675,24,0.173012015455284,1
453,676,24,0.130764351811153,1
454,668,24,0.100163876495125,1
454,672,24,0.114109318240214,1
454,673,24,0.126886690490596,1
454,674,24,0.115168295150716,1
455,667,24,0.100368837659818,1
455,672,24,0.117441734498126,1
455,673,24,0.159635151405428,1
455,674,24,0.142101603913755,1
456,672,24,0.111625209838533,1
456,673,24,0.137182394353162,1
456,674,24,0.119286341408692,1
459,667,24,0.147626677631461,1
459,669,24,0.110022022692694,1
460,666,24,0.107867675629171,1
460,667,24,0.184534131286947,1
460,668,24,0.161482176544021,1
460,669,24,0.104873451828754,1
461,667,24,0.152300339011009,1
461,668,24,0.149462788065174,1
461,669,24,0.146806233862139,1
462,667,24,0.116806590174627,1
462,668,24,0.147423600941762,1
462,669,24,0.186762092697356,1
462,670,24,0.114482498753673,1
463,667,24,0.100701529193198,1
463,668,24,0.102302919007394,1
463,669,24,0.109514227485715,1
469,665,24,0.12270417993773,1
469,666,24,0.114709115041422,1
470,664,24,0.129340211575607,1
470,665,24,0.242693506599512,1
470,666,24,0.194043943719392,1
471,664,24,0.143918433880763,1
471,665,24,0.271234218068058,1
471,666,24,0.207373957324449,1
472,665,24,0.154192406369841,1
472,666,24,0.126970391680514,1
474,665,24,0.109449948370449,1
474,666,24,0.126839012183949,1
474,667,24,0.123126030013469,1
475,664,24,0.133633089184206,1
483,674,24,0.103890365885218,1
486,676,24,0.119772797387267,1
487,678,24,0.109172810724183,1
487,679,24,0.11054759514355,1
487,680,24,0.125784784586149,1
487,683,24,0.143507977798343,1
487,695,24,0.0998644083648231,1
488,679,24,0.139692003078321,1
488,684,24,0.108848811740199,1
488,691,24,0.10121667712053,1
488,692,24,0.1086727930614,1
488,693,24,0.107609099516952,1
488,694,24,0.105246458055508,1
488,695,24,0.108123593869142,1
488,696,24,0.117913964324433,1
488,697,24,0.113101494477533,1
489,679,24,0.129805567969999,1
489,680,24,0.160022307534017,1
489,690,24,0.120445598531894,1
489,691,24,0.145317150043265,1
489,692,24,0.165369456312092,1
489,693,24,0.156165604189697,1
489,694,24,0.136802721659955,1
489,695,24,0.133927622822181,1
489,696,24,0.140821261102482,1
489,697,24,0.129681900660115,1
489,698,24,0.107753822839344,1
490,691,24,0.160664880828302,1
490,692,24,0.18097345391051,1
490,693,24,0.171436844897221,1
490,694,24,0.146727336449518,1
490,695,24,0.130721161387152,1
490,696,24,0.128007136143252,1
490,697,24,0.117286608438049,1
491,692,24,0.128080630668028,1
491,693,24,0.125923996091506,1
451,672,25,0.100247457862934,1
451,674,25,0.106846094109739,1
452,671,25,0.119733397699093,1
452,672,25,0.114497258658974,1
452,673,25,0.116664034543125,1
452,674,25,0.15392238179971,1
452,675,25,0.146426430453903,1
453,669,25,0.101672012029403,1
453,670,25,0.102262767707806,1
453,671,25,0.124580310956004,1
453,672,25,0.113760058576972,1
453,673,25,0.100293905269729,1
453,674,25,0.114534752086317,1
453,675,25,0.113036736073828,1
454,668,25,0.124567838563701,1
454,672,25,0.103830008220806,1
454,673,25,0.101468358014995,1
455,669,25,0.102807272051956,1
455,672,25,0.108410099425784,1
455,673,25,0.122052075339284,1
456,672,25,0.103218022243191,1
456,673,25,0.103599209052145,1
459,666,25,0.11281171015226,1
460,666,25,0.129150740141791,1
460,667,25,0.167243888034995,1
460,668,25,0.133656214851332,1
461,667,25,0.149845292917332,1
461,668,25,0.125573559993007,1
461,669,25,0.109999615958225,1
462,666,25,0.11165696269754,1
462,667,25,0.11197953470913,1
462,668,25,0.108979701055407,1
462,669,25,0.122653277327047,1
463,666,25,0.100132363280336,1
464,665,25,0.105791605081882,1
464,666,25,0.104285964026064,1
465,665,25,0.122839862137317,1
465,666,25,0.116120466990012,1
469,665,25,0.1340852324678,1
469,666,25,0.110720051837822,1
470,664,25,0.131476650680226,1
470,665,25,0.246532410914118,1
470,666,25,0.185920309699631,1
471,664,25,0.128630537900023,1
471,665,25,0.244760285486858,1
471,666,25,0.186175639721975,1
472,665,25,0.129912133396986,1
472,666,25,0.111702745636274,1
474,665,25,0.0998246056386437,1
474,666,25,0.104423084090965,1
475,664,25,0.130850089976932,1
475,665,25,0.140674903842234,1
475,666,25,0.13538004107556,1
475,667,25,0.133320309906835,1
475,668,25,0.103277878833326,1
476,664,25,0.150239464085785,1
476,669,25,0.100434816070455,1
480,694,25,0.106292624893217,1
482,672,25,0.101812715864668,1
484,675,25,0.103021873450002,1
486,676,25,0.111931344435288,1
487,675,25,0.128771230842369,1
487,678,25,0.104460926091716,1
487,679,25,0.1085993421083,1
487,683,25,0.131573053013747,1
488,684,25,0.110516256215466,1
488,695,25,0.107922249153571,1
488,696,25,0.131752677248749,1
488,697,25,0.132319032788498,1
489,679,25,0.132042766575756,1
489,691,25,0.138628309533873,1
489,692,25,0.165750218297204,1
489,693,25,0.151038546840865,1
489,694,25,0.125691824415045,1
489,695,25,0.127166758332084,1
489,696,25,0.143234892317961,1
489,697,25,0.135719823899236,1
489,698,25,0.110992353028033,1
490,692,25,0.178808126784592,1
490,693,25,0.161668478138395,1
490,696,25,0.122543117236776,1
490,697,25,0.111089300007507,1
450,671,26,0.112141044019765,1
451,671,26,0.0999252017459962,1
451,672,26,0.106867215479762,1
452,671,26,0.120213394176677,1
452,672,26,0.118056628885126,1
452,673,26,0.101132485749255,1
452,674,26,0.110008482794325,1
453,668,26,0.138358448357528,1
453,671,26,0.114367491314428,1
453,672,26,0.103270155753725,1
454,667,26,0.112216303197426,1
454,668,26,0.121092910245963,1
459,666,26,0.120943296002921,1
459,668,26,0.103311211165595,1
460,667,26,0.138654681290874,1
460,668,26,0.101326205421497,1
462,667,26,0.110084755013457,1
463,665,26,0.107481619685404,1
463,666,26,0.111978902919825,1
464,665,26,0.127989456935647,1
464,666,26,0.113481918782154,1
465,665,26,0.138784426849582,1
465,666,26,0.118003569476472,1
469,665,26,0.126460330746375,1
470,664,26,0.117872691054183,1
470,665,26,0.203107418794094,1
470,666,26,0.146220260175196,1
471,664,26,0.103332964324921,1
471,665,26,0.178535280948429,1
471,666,26,0.13775388045778,1
475,664,26,0.118675488294657,1
475,665,26,0.119964621691596,1
475,666,26,0.105957079415049,1
476,663,26,0.103148405597593,1
476,664,26,0.132155573645354,1
476,665,26,0.139935819285237,1
476,666,26,0.128676658519247,1
476,667,26,0.132041742641366,1
476,668,26,0.120298435195637,1
477,664,26,0.126664485835059,1
478,669,26,0.111146662119182,1
479,694,26,0.100990834230033,1
483,692,26,0.100198614013949,1
484,675,26,0.110187300953318,1
485,670,26,0.130916079280489,1
485,676,26,0.109992633597119,1
486,675,26,0.170162721942721,1
486,676,26,0.125041571612835,1
486,677,26,0.101901667441565,1
486,682,26,0.113381856427835,1
487,674,26,0.13893419359349,1
487,675,26,0.125631139963062,1
487,676,26,0.116894234601239,1
487,677,26,0.113144347221044,1
487,678,26,0.105857104204082,1
487,679,26,0.109281358662436,1
487,683,26,0.127410650789433,1
488,678,26,0.119393898091312,1
489,696,26,0.122984509209275,1
489,697,26,0.119170375392571,1
450,671,27,0.101293123626367,1
454,668,27,0.101550697590033,1
455,667,27,0.103346613152481,1
455,668,27,0.100079990125583,1
464,666,27,0.107952814684403,1
465,666,27,0.103506423167746,1
469,665,27,0.110461911442366,1
470,665,27,0.14442875624496,1
470,666,27,0.100035721302596,1
471,665,27,0.11627706359416,1
471,702,27,0.10187533925624,1
471,703,27,0.101248353729104,1
472,703,27,0.104184245948051,1
472,704,27,0.101604421466748,1
473,703,27,0.109222133861605,1
473,704,27,0.110274117518082,1
474,702,27,0.103651734707765,1
474,703,27,0.112509083075436,1
475,664,27,0.107072209323212,1
475,665,27,0.106110713145217,1
476,663,27,0.108473071390766,1
476,664,27,0.118772718490025,1
476,667,27,0.10806278959505,1
477,664,27,0.11721212265764,1
477,665,27,0.137259069610299,1
477,668,27,0.11415677868848,1
483,673,27,0.110284106324844,1
484,690,27,0.10230001059801,1
485,670,27,0.124149474222056,1
485,671,27,0.128202119394103,1
485,675,27,0.17580442614461,1
486,672,27,0.141356571822961,1
486,674,27,0.177377483476378,1
486,675,27,0.172203575682747,1
486,676,27,0.14782418803953,1
486,677,27,0.117016736368785,1
486,680,27,0.106075441873359,1
486,682,27,0.118417511292986,1
487,674,27,0.124415315911275,1
487,675,27,0.144010152259097,1
487,676,27,0.152004661616534,1
487,677,27,0.135159590179989,1
487,678,27,0.113508127145369,1
487,679,27,0.116634765269659,1
487,683,27,0.118564838023028,1
488,677,27,0.121542602622772,1
488,678,27,0.123082327622272,1
470,702,28,0.115463373434644,1
471,699,28,0.102256645887304,1
471,701,28,0.116475390971156,1
471,702,28,0.123223891998141,1
471,703,28,0.11673458797976,1
472,698,28,0.107821337151566,1
472,701,28,0.102087653141287,1
472,702,28,0.108193188728901,1
472,703,28,0.120268207345296,1
472,704,28,0.122230337959405,1
473,698,28,0.110671131738405,1
473,703,28,0.123975666805822,1
473,704,28,0.134541133808463,1
474,703,28,0.1208284737433,1
476,663,28,0.110013036034485,1
477,664,28,0.116605833676684,1
478,693,28,0.102931375078601,1
481,692,28,0.101614268665562,1
485,671,28,0.121662402946395,1
485,672,28,0.132083506092973,1
486,672,28,0.121508453321575,1
486,673,28,0.130513607707726,1
486,674,28,0.146932678866378,1
486,675,28,0.164295632352936,1
487,674,28,0.117705560997322,1
487,675,28,0.158171622374626,1
487,676,28,0.182526969345518,1
487,677,28,0.15410953304177,1
487,678,28,0.119284565862888,1
471,702,29,0.136875148678665,1
472,702,29,0.116428943564362,1
472,703,29,0.13157621196027,1
473,703,29,0.129694340373661,1
478,693,29,0.112268545637151,1
479,692,29,0.110669127441301,1
