x,y,z,signal,mito.p
38,915,5,0.241683057643342,2
38,916,5,0.268206073717746,2
38,922,5,0.178850935956427,2
38,923,5,0.187306825792806,2
39,916,5,0.299451758414468,2
39,917,5,0.275276406037825,2
39,921,5,0.21289124260504,2
39,922,5,0.37048862279633,2
39,923,5,0.410904141029279,2
39,924,5,0.252509442735794,2
40,916,5,0.245316042216379,2
40,917,5,0.282440177817447,2
40,918,5,0.24512694114181,2
40,921,5,0.289602577089269,2
40,922,5,0.495927644176047,2
40,923,5,0.562731040929766,2
40,924,5,0.340532812215042,2
41,916,5,0.266963670943496,2
41,917,5,0.363424869799351,2
41,918,5,0.353535842176298,2
41,919,5,0.301185823982595,2
41,920,5,0.274124153061567,2
41,921,5,0.290862669964043,2
41,922,5,0.390305936122664,2
41,923,5,0.427561026396455,2
41,924,5,0.280529821247544,2
42,915,5,0.244196119423836,2
42,916,5,0.386504525235401,2
42,917,5,0.500105993633839,2
42,918,5,0.442052268743061,2
42,919,5,0.319007685255471,2
42,920,5,0.246401717671453,2
42,922,5,0.214582433643819,2
42,923,5,0.232322205878795,2
43,915,5,0.266148880599157,2
43,916,5,0.402326054427087,2
43,917,5,0.454353860075528,2
43,918,5,0.363581139615927,2
43,919,5,0.246100506674104,2
44,916,5,0.259923947725924,2
44,917,5,0.265927035409948,2
44,918,5,0.230263618466569,2
44,923,5,0.274362337629338,2
44,924,5,0.284663727595644,2
45,917,5,0.172449766546014,1
45,918,5,0.181533840130624,1
45,919,5,0.200718492719002,1
45,920,5,0.247397177971021,1
45,921,5,0.309191727333351,2
45,922,5,0.339966075423127,2
45,923,5,0.297863810462369,2
46,916,5,0.140156411788755,1
46,917,5,0.156967399281618,1
46,918,5,0.175650661699413,1
46,919,5,0.205612332671145,1
46,920,5,0.265273852412516,1
46,921,5,0.345016642694447,2
46,922,5,0.369876092172762,2
46,923,5,0.275883577345224,2
47,915,5,0.129783891061105,1
47,916,5,0.149004773498216,1
47,917,5,0.16748702888093,1
47,918,5,0.182753389560724,1
47,919,5,0.204690661005167,1
47,920,5,0.237635619286597,1
47,921,5,0.26466482930888,2
47,922,5,0.266178160765542,2
48,915,5,0.13584690069278,1
48,916,5,0.154465513636061,1
48,917,5,0.168614337072583,1
48,918,5,0.17818291680326,1
48,919,5,0.194145552868216,1
48,920,5,0.211883320806088,1
48,921,5,0.214558839581174,1
49,915,5,0.139196723835321,1
49,916,5,0.163958845081996,1
49,917,5,0.180702470763504,1
49,918,5,0.191392236865332,1
49,919,5,0.197115027956569,1
49,920,5,0.198669774291428,1
49,921,5,0.191749938540832,1
50,915,5,0.129336889235299,1
50,916,5,0.155242483765486,1
50,917,5,0.171625390432919,1
50,918,5,0.180644378826253,1
50,919,5,0.178951826172594,1
50,920,5,0.171673112311241,1
51,916,5,0.130816365499579,1
51,917,5,0.142579661451749,1
51,918,5,0.147167072698323,1
51,919,5,0.141618470275487,1
37,914,6,0.256193275454919,2
37,915,6,0.236537286259596,2
37,916,6,0.203309242798103,2
38,914,6,0.22942699871247,2
38,915,6,0.314840185145046,2
38,916,6,0.348479523443724,2
38,917,6,0.281814510333515,2
38,922,6,0.180258813063844,2
38,923,6,0.190443158615044,2
39,915,6,0.294135665348581,2
39,916,6,0.382692657145857,2
39,917,6,0.337486324189063,2
39,918,6,0.217658267193698,2
39,921,6,0.22117190894571,2
39,922,6,0.38251423113195,2
39,923,6,0.433306431187623,2
39,924,6,0.277555575060651,2
40,915,6,0.202063397861436,2
40,916,6,0.277218090642893,2
40,917,6,0.304619119563755,2
40,918,6,0.261200663195156,2
40,919,6,0.264631170189041,2
40,920,6,0.2694570601122,2
40,921,6,0.3088227841654,2
40,922,6,0.505858674894927,2
40,923,6,0.582568527942166,2
40,924,6,0.366343540313292,2
40,925,6,0.164575863588209,2
41,915,6,0.204789350851687,2
41,916,6,0.288659163156883,2
41,917,6,0.365326054531421,2
41,918,6,0.372724851932292,2
41,919,6,0.389122224396212,2
41,920,6,0.361749342778155,2
41,921,6,0.317729422991735,2
41,922,6,0.383604350897993,2
41,923,6,0.416150214411563,2
41,924,6,0.281879192486786,2
42,914,6,0.27215619473577,2
42,915,6,0.274946895236806,2
42,916,6,0.424944067954138,2
42,917,6,0.513945185846593,2
42,918,6,0.466493364772651,2
42,919,6,0.388673218273303,2
42,920,6,0.307323896719388,2
42,921,6,0.230640818467154,2
42,922,6,0.217102031175739,2
42,923,6,0.233763251924694,2
43,915,6,0.275285251088087,2
43,916,6,0.417283121563603,2
43,917,6,0.466183788013478,2
43,918,6,0.381218932342832,2
43,919,6,0.272755130996373,2
43,920,6,0.204239759514344,2
43,923,6,0.233071595137205,2
43,924,6,0.252182350162802,2
44,916,6,0.248781972982988,2
44,917,6,0.266389723039175,2
44,918,6,0.239854397966254,2
44,920,6,0.193820726022385,1
44,921,6,0.195512897423877,2
44,922,6,0.231802809713036,2
44,923,6,0.305874332410798,2
44,924,6,0.331682816567725,2
44,925,6,0.231953567712577,2
45,917,6,0.178578874410435,1
45,918,6,0.199380885832325,1
45,919,6,0.216461440392719,1
45,920,6,0.250676208032708,2
45,921,6,0.297692268773296,2
45,922,6,0.338795718415421,2
45,923,6,0.324009604750349,2
45,924,6,0.292002940729356,2
46,916,6,0.137893691073683,1
46,917,6,0.162321552206637,1
46,918,6,0.189522096952532,1
46,919,6,0.226658955483041,1
46,920,6,0.284689652742964,2
46,921,6,0.349826149667367,2
46,922,6,0.384154051164526,2
46,923,6,0.303931362441283,2
46,924,6,0.221732959633886,2
46,932,6,0.208725485361661,1
47,915,6,0.127148665193555,1
47,916,6,0.145415654710162,1
47,917,6,0.166821449741628,1
47,918,6,0.188601187790886,1
47,919,6,0.223213677690936,1
47,920,6,0.267656896311326,2
47,921,6,0.288551998619348,2
47,922,6,0.292465780859449,2
47,923,6,0.23475703471473,2
48,914,6,0.108763084467339,1
48,915,6,0.136099616414553,1
48,916,6,0.154851460650637,1
48,917,6,0.169390119873832,1
48,918,6,0.18303916529179,1
48,919,6,0.211797157816466,1
48,920,6,0.24399858722993,1
48,921,6,0.240483899757689,2
48,922,6,0.22464465867964,2
49,914,6,0.109448652113083,1
49,915,6,0.143476889407397,1
49,916,6,0.170153452068617,1
49,917,6,0.18493226747793,1
49,918,6,0.196256164861786,1
49,919,6,0.211805371077424,1
49,920,6,0.222021839846879,1
49,921,6,0.208038970031961,1
49,922,6,0.193812207759694,1
50,915,6,0.133448911709044,1
50,916,6,0.16104342065793,1
50,917,6,0.178631541674003,1
50,918,6,0.1893357626794,1
50,919,6,0.191696258235793,1
50,920,6,0.184097042017469,1
50,921,6,0.167534064505353,1
51,916,6,0.134081561554082,1
51,917,6,0.148465661148992,1
51,918,6,0.154736660176853,1
51,919,6,0.148447709618411,1
51,920,6,0.137303534505828,1
52,917,6,0.117971239292756,1
52,918,6,0.114448894098428,1
36,914,7,0.320119830503817,2
36,915,7,0.221675357877992,2
37,913,7,0.269353098092864,2
37,914,7,0.349112903114338,2
37,915,7,0.297838408175163,2
37,916,7,0.244482537837126,2
37,917,7,0.199801940724973,2
38,914,7,0.268598000944875,2
38,915,7,0.363842068598658,2
38,916,7,0.429916467638413,2
38,917,7,0.358724836662802,2
38,918,7,0.218856858647561,2
38,922,7,0.165905682037771,2
38,923,7,0.176319857287837,2
39,914,7,0.182425229481666,2
39,915,7,0.319841625351486,2
39,916,7,0.470674197815984,2
39,917,7,0.428618815978782,2
39,918,7,0.26681990619798,2
39,919,7,0.200886592245657,2
39,920,7,0.194969536836226,2
39,921,7,0.225345204089067,2
39,922,7,0.342609111513631,2
39,923,7,0.397784796478494,2
39,924,7,0.28419226027367,2
40,915,7,0.218947226303933,2
40,916,7,0.315375267114225,2
40,917,7,0.337891344704881,2
40,918,7,0.296955362800107,2
40,919,7,0.326468681224072,2
40,920,7,0.328244532029645,2
40,921,7,0.327796070552687,2
40,922,7,0.467177135086753,2
40,923,7,0.544152993216997,2
40,924,7,0.375000992723624,2
40,925,7,0.178343380393667,2
41,915,7,0.246618399617035,2
41,916,7,0.311601698528032,2
41,917,7,0.351820773858979,2
41,918,7,0.395467829026592,2
41,919,7,0.48195046046487,2
41,920,7,0.440113024151859,2
41,921,7,0.345440311887665,2
41,922,7,0.37066735381197,2
41,923,7,0.392962370503589,2
41,924,7,0.281648937964077,2
42,914,7,0.276831675232798,2
42,915,7,0.327667904467239,2
42,916,7,0.435582136262193,2
42,917,7,0.471825535787043,2
42,918,7,0.455843270681974,2
42,919,7,0.440603902655566,2
42,920,7,0.348060102488932,2
42,921,7,0.247393735808604,2
42,922,7,0.231214178153846,2
42,923,7,0.244368750404813,2
43,914,7,0.237478739466554,2
43,915,7,0.288694434428741,2
43,916,7,0.398981405421091,2
43,917,7,0.433141991681766,2
43,918,7,0.366096684981963,2
43,919,7,0.281416788073455,2
43,920,7,0.213852390209627,2
43,923,7,0.247609720607368,2
43,924,7,0.249287774785782,2
44,915,7,0.184284781477157,2
44,916,7,0.233577462297514,2
44,917,7,0.263364497991165,2
44,918,7,0.245618168218926,2
44,919,7,0.208617122603032,2
44,920,7,0.193710533253356,1
44,921,7,0.201553761751139,1
44,922,7,0.247761001467023,2
44,923,7,0.32090194209103,2
44,924,7,0.338722953716221,2
44,925,7,0.244182873634281,2
45,917,7,0.193763320339033,1
45,918,7,0.220934944384872,1
45,919,7,0.230076935620028,1
45,920,7,0.249240978805578,2
45,921,7,0.28299693669552,2
45,922,7,0.333910440297644,2
45,923,7,0.345511987294961,2
45,924,7,0.323616631802991,2
45,925,7,0.258666185935825,2
45,931,7,0.181760696062592,1
45,932,7,0.193119418108625,1
46,916,7,0.145649427645721,1
46,917,7,0.174318762702315,1
46,918,7,0.204050745583128,1
46,919,7,0.241073925610515,2
46,920,7,0.295287852967326,2
46,921,7,0.348410963411274,2
46,922,7,0.392025884467714,2
46,923,7,0.332708275966335,2
46,924,7,0.257458901932566,2
46,931,7,0.228804729819279,1
46,932,7,0.265764556629519,1
46,933,7,0.222248063989542,1
47,915,7,0.131646514859766,1
47,916,7,0.151266524743494,1
47,917,7,0.172505059003071,1
47,918,7,0.196986513297712,1
47,919,7,0.235214973031254,1
47,920,7,0.290520436233583,2
47,921,7,0.317117916302558,2
47,922,7,0.326639700053031,2
47,923,7,0.267405052023076,2
47,931,7,0.212081354074271,1
47,932,7,0.228128301332611,1
48,914,7,0.109567450288154,1
48,915,7,0.143477259766645,1
48,916,7,0.163392740079386,1
48,917,7,0.176627560464935,1
48,918,7,0.194986900149179,1
48,919,7,0.22723076837523,1
48,920,7,0.271011719303707,1
48,921,7,0.268365371765815,2
48,922,7,0.244643840182299,2
49,914,7,0.110164262429544,1
49,915,7,0.150682882141226,1
49,916,7,0.17764625536082,1
49,917,7,0.187720212070449,1
49,918,7,0.202137360781731,1
49,919,7,0.223689480394689,1
49,920,7,0.244367247181986,1
49,921,7,0.226505278181197,1
49,922,7,0.200478761356726,1
50,914,7,0.105986119937215,1
50,915,7,0.14254497839752,1
50,916,7,0.171063152416568,1
50,917,7,0.18692350397172,1
50,918,7,0.200287285625807,1
50,919,7,0.204742424156454,1
50,920,7,0.201720466984157,1
50,921,7,0.182368923983138,1
51,915,7,0.123954828651695,1
51,916,7,0.144266179428259,1
51,917,7,0.158435568695932,1
51,918,7,0.16438301534949,1
51,919,7,0.155377348996144,1
51,920,7,0.143737034099957,1
52,916,7,0.123703093292635,1
52,917,7,0.127393951944542,1
52,918,7,0.121251227931319,1
35,914,8,0.195952797066468,2
36,913,8,0.305001003519528,2
36,914,8,0.385034155451441,2
36,915,8,0.275242877633014,2
36,916,8,0.170269603264361,2
37,913,8,0.299219390665464,2
37,914,8,0.414382337222729,2
37,915,8,0.347934027843941,2
37,916,8,0.286300192609156,2
37,917,8,0.243104038932366,2
38,914,8,0.283222224047145,2
38,915,8,0.370838808357691,2
38,916,8,0.477258139515002,2
38,917,8,0.431600207920567,2
38,918,8,0.265045928974482,2
38,922,8,0.14833663452294,2
38,923,8,0.157316571801508,2
39,914,8,0.179057650881087,2
39,915,8,0.311819665838062,2
39,916,8,0.505778720869159,2
39,917,8,0.49321517661957,2
39,918,8,0.315674669887012,2
39,919,8,0.234652353762737,2
39,920,8,0.223361342101468,2
39,921,8,0.24366794356533,2
39,922,8,0.293046939876175,2
39,923,8,0.335960901592265,2
39,924,8,0.276913829628213,2
40,915,8,0.24495252372211,2
40,916,8,0.340760430651343,2
40,917,8,0.361630370316379,2
40,918,8,0.341909437537727,2
40,919,8,0.382886507533128,2
40,920,8,0.374259315651895,2
40,921,8,0.372159640149043,2
40,922,8,0.433454095598156,2
40,923,8,0.484388731463222,2
40,924,8,0.372900097213839,2
40,925,8,0.200987569605176,2
41,914,8,0.242108861848692,2
41,915,8,0.320514785962441,2
41,916,8,0.34666116846805,2
41,917,8,0.346702300130352,2
41,918,8,0.430391703910375,2
41,919,8,0.544626486621913,2
41,920,8,0.471082943710115,2
41,921,8,0.380436210752153,2
41,922,8,0.378927367178137,2
41,923,8,0.38208387368644,2
41,924,8,0.289934658619183,2
41,925,8,0.177008856203079,2
42,914,8,0.292724966975133,2
42,915,8,0.396280484358799,2
42,916,8,0.432328116342627,2
42,917,8,0.40986286511222,2
42,918,8,0.429326114998014,2
42,919,8,0.451981164449808,2
42,920,8,0.345678278597055,2
42,921,8,0.260842612946247,2
42,922,8,0.257669614558514,2
42,923,8,0.262514109587397,2
42,924,8,0.215889191783769,2
43,914,8,0.252914702895831,2
43,915,8,0.308137815630203,2
43,916,8,0.358264436546575,2
43,917,8,0.370265710101055,2
43,918,8,0.332193258754032,2
43,919,8,0.272898721455184,2
43,920,8,0.208930076167108,2
43,923,8,0.2615655977689,2
43,924,8,0.241786475016726,2
44,915,8,0.182811851857222,2
44,916,8,0.213931647088576,2
44,917,8,0.252339643913768,2
44,918,8,0.252969189276879,2
44,919,8,0.220154815308925,2
44,920,8,0.197397764563222,1
44,921,8,0.209834232019266,1
44,922,8,0.267229174952224,2
44,923,8,0.323778870939202,2
44,924,8,0.32881717278368,2
44,925,8,0.255652703454542,2
44,931,8,0.148258869973899,1
44,932,8,0.137430763800238,1
45,918,8,0.241952308816221,1
45,919,8,0.252071220602736,1
45,920,8,0.255044333926049,2
45,921,8,0.271853807303165,2
45,922,8,0.325925320636421,2
45,923,8,0.353519001723459,2
45,924,8,0.344557310084285,2
45,925,8,0.290650170899373,2
45,930,8,0.177172870885094,1
45,931,8,0.221581308414984,1
45,932,8,0.230381784852336,1
45,933,8,0.161443572038936,1
46,916,8,0.148877816526782,1
46,917,8,0.17653097295179,1
46,918,8,0.210736884648598,1
46,919,8,0.253601065724665,2
46,920,8,0.305565147796711,2
46,921,8,0.348347065548174,2
46,922,8,0.38956125260528,2
46,923,8,0.345261384799481,2
46,924,8,0.287324344857481,2
46,925,8,0.274602766138432,2
46,926,8,0.258622396401276,2
46,927,8,0.232387062318771,2
46,930,8,0.200490612852644,1
46,931,8,0.266623572225168,1
46,932,8,0.300302081460721,1
46,933,8,0.220081810965505,1
47,915,8,0.133207775160213,1
47,916,8,0.151249139644703,1
47,917,8,0.167963387123554,1
47,918,8,0.195692587016393,1
47,919,8,0.241728764331642,2
47,920,8,0.3096207340569,2
47,921,8,0.347939365374271,2
47,922,8,0.353831541356611,2
47,923,8,0.2859772393454,2
47,924,8,0.240705875661926,2
47,925,8,0.274358394392645,2
47,926,8,0.292141672946274,2
47,927,8,0.257497310365108,2
47,928,8,0.226536410143819,1
47,930,8,0.182601847271012,1
47,931,8,0.230783319634061,1
47,932,8,0.249088782940724,1
47,933,8,0.198938829391764,1
48,914,8,0.110937104142652,1
48,915,8,0.144738409254566,1
48,916,8,0.160439157759915,1
48,917,8,0.168736501159638,1
48,918,8,0.191410624112675,1
48,919,8,0.232225237113483,1
48,920,8,0.286908583923488,2
48,921,8,0.292056686391909,2
48,922,8,0.258615512076442,2
48,923,8,0.2091102668339,2
48,926,8,0.256538864204444,2
48,931,8,0.173981082212014,1
48,932,8,0.184298081731307,1
49,914,8,0.112159845198032,1
49,915,8,0.151403394271256,1
49,916,8,0.172293725480738,1
49,917,8,0.176676328063485,1
49,918,8,0.193465682219131,1
49,919,8,0.226264871457941,1
49,920,8,0.259135714318209,1
49,921,8,0.243218981014096,2
49,922,8,0.203148201882987,1
50,914,8,0.110726304373352,1
50,915,8,0.147420017171397,1
50,916,8,0.171707392327467,1
50,917,8,0.183850774903768,1
50,918,8,0.19700211195778,1
50,919,8,0.208881254103961,1
50,920,8,0.214677310968675,1
50,921,8,0.195143518539164,1
51,915,8,0.131276852759158,1
51,916,8,0.150821821323606,1
51,917,8,0.164608781989554,1
51,918,8,0.16924198706778,1
51,919,8,0.161953720116428,1
51,920,8,0.151018787085723,1
52,916,8,0.128316549508639,1
52,917,8,0.134262285973908,1
52,918,8,0.127526638591392,1
35,914,9,0.214675524529952,2
35,915,9,0.190869812468079,2
36,913,9,0.300248248654816,2
36,914,9,0.419573858866452,2
36,915,9,0.337908010871015,2
36,916,9,0.221016292704277,2
36,917,9,0.162091580899823,2
37,913,9,0.30352969694453,2
37,914,9,0.439384244296276,2
37,915,9,0.392433148924855,2
37,916,9,0.341310610206315,2
37,917,9,0.293783606205145,2
37,918,9,0.214852381963517,2
38,913,9,0.195711017835412,2
38,914,9,0.280405184467866,2
38,915,9,0.35766290777124,2
38,916,9,0.490843526714079,2
38,917,9,0.476742250869175,2
38,918,9,0.302106820287593,2
38,919,9,0.188688897575012,2
39,914,9,0.190770795833988,2
39,915,9,0.306254081354439,2
39,916,9,0.489804734382561,2
39,917,9,0.499829836350287,2
39,918,9,0.354168590057607,2
39,919,9,0.2860234035363,2
39,920,9,0.26916611024459,2
39,921,9,0.26778863527422,2
39,922,9,0.251885648833937,2
39,923,9,0.276192914460178,2
39,924,9,0.259519842215305,2
40,914,9,0.199432256838527,2
40,915,9,0.305660308337462,2
40,916,9,0.373006412103689,2
40,917,9,0.368150566653163,2
40,918,9,0.390247027216485,2
40,919,9,0.452586767176865,2
40,920,9,0.432457175647436,2
40,921,9,0.41846757400855,2
40,922,9,0.39474541063573,2
40,923,9,0.407698485670258,2
40,924,9,0.350936639192019,2
40,925,9,0.226859777338499,2
41,914,9,0.254598399606309,2
41,915,9,0.402673320686145,2
41,916,9,0.38972224994872,2
41,917,9,0.335947960804443,2
41,918,9,0.446717313823647,2
41,919,9,0.565589778603138,2
41,920,9,0.474045556259471,2
41,921,9,0.403486891023551,2
41,922,9,0.382387916842739,2
41,923,9,0.371379053570496,2
41,924,9,0.299994356497786,2
41,925,9,0.20367324058081,2
42,913,9,0.208389220950836,1
42,914,9,0.28831037188916,2
42,915,9,0.424133896207473,2
42,916,9,0.399229328258486,2
42,917,9,0.332780583162936,2
42,918,9,0.375396187826466,2
42,919,9,0.412706091268876,2
42,920,9,0.321033354266352,2
42,921,9,0.274758317022352,2
42,922,9,0.29352420223108,2
42,923,9,0.294369536320412,2
42,924,9,0.235545224550768,2
43,914,9,0.258488260996193,2
43,915,9,0.30347568985192,2
43,916,9,0.297200714908608,2
43,917,9,0.291781988759509,2
43,918,9,0.282970706546467,2
43,919,9,0.247383387535514,2
43,920,9,0.20777507817525,2
43,921,9,0.223041918143482,2
43,922,9,0.283708287880636,2
43,923,9,0.298482353977247,2
43,924,9,0.252927142609377,2
44,915,9,0.181711688819822,2
44,916,9,0.194326004965065,2
44,917,9,0.236811047100958,2
44,918,9,0.256399216982326,2
44,919,9,0.228603515818736,1
44,920,9,0.203486819164326,1
44,921,9,0.22756254490341,2
44,922,9,0.299779090631678,2
44,923,9,0.339912765477336,2
44,924,9,0.333617464347092,2
44,925,9,0.283901201476869,2
44,930,9,0.14935356476594,1
44,931,9,0.16366579288101,1
44,932,9,0.154421037847612,1
45,917,9,0.210578784821623,1
45,918,9,0.260473190489858,1
45,919,9,0.272021601828087,1
45,920,9,0.255640133025968,2
45,921,9,0.26063745570901,2
45,922,9,0.323677327147893,2
45,923,9,0.372715135448506,2
45,924,9,0.378128001207161,2
45,925,9,0.338357147708954,2
45,926,9,0.28512676379828,2
45,927,9,0.23917951627409,2
45,929,9,0.173888666686862,1
45,930,9,0.198234515032349,1
45,931,9,0.248790556603193,1
45,932,9,0.253599606073514,1
45,933,9,0.16106172076192,1
46,917,9,0.182025764354559,1
46,918,9,0.219587098154296,1
46,919,9,0.266918988189586,2
46,920,9,0.306794958356548,2
46,921,9,0.336189522177118,2
46,922,9,0.378592605990139,2
46,923,9,0.370935363192079,2
46,924,9,0.34037423309963,2
46,925,9,0.340812803806097,2
46,926,9,0.35800503257251,2
46,927,9,0.342306026934207,2
46,928,9,0.296960286399514,2
46,929,9,0.227382354236618,1
46,930,9,0.229944434152801,1
46,931,9,0.285801558347091,1
46,932,9,0.302848606288513,1
46,933,9,0.196424046530061,1
46,934,9,0.111456467629654,1
47,915,9,0.14119023694919,1
47,916,9,0.156781163044758,1
47,917,9,0.169257531263253,1
47,918,9,0.194965985744618,1
47,919,9,0.246397796220598,2
47,920,9,0.316707383969704,2
47,921,9,0.35840798343371,2
47,922,9,0.357509186897719,2
47,923,9,0.303795004880716,2
47,924,9,0.284906770405309,2
47,925,9,0.346644894447001,2
47,926,9,0.395063396728403,2
47,927,9,0.362050728062208,2
47,928,9,0.297852111467317,2
47,929,9,0.211504356152618,1
47,930,9,0.191780591215016,1
47,931,9,0.229021586051566,1
47,932,9,0.252000634487344,1
47,933,9,0.189719607360601,1
48,914,9,0.121188691683099,1
48,915,9,0.153042952873776,1
48,916,9,0.160319368329211,1
48,917,9,0.165223425839416,1
48,918,9,0.188013667309439,1
48,919,9,0.234961865164395,2
48,920,9,0.293962271863271,2
48,921,9,0.305766448940606,2
48,922,9,0.262672165842696,2
48,923,9,0.211401461639348,2
48,924,9,0.219002017686714,2
48,925,9,0.284276135750293,2
48,926,9,0.312262637283822,2
48,927,9,0.271394452907166,2
48,928,9,0.220433325462989,1
48,931,9,0.178864247103497,1
48,932,9,0.216936633093006,1
48,933,9,0.190890116869174,1
49,914,9,0.12703706723797,1
49,915,9,0.157840227098613,1
49,916,9,0.165586791832817,1
49,917,9,0.167728470431495,1
49,918,9,0.186732224313343,1
49,919,9,0.227304034148706,1
49,920,9,0.266920796414147,2
49,921,9,0.254388667343075,2
49,922,9,0.202820455734853,1
49,926,9,0.213309617839604,2
49,932,9,0.170708032362881,1
50,914,9,0.130667611797142,1
50,915,9,0.159809394538423,1
50,916,9,0.170814369038568,1
50,917,9,0.179082791738235,1
50,918,9,0.192716837606672,1
50,919,9,0.210275896314742,1
50,920,9,0.222516661587279,1
50,921,9,0.203855304829677,1
51,915,9,0.1479364068915,1
51,916,9,0.159772086290704,1
51,917,9,0.168378538054081,1
51,918,9,0.169569722322996,1
51,919,9,0.163544238797421,1
51,920,9,0.15358105218153,1
52,916,9,0.137751211692614,1
52,917,9,0.141713805102942,1
35,914,10,0.229786900757616,2
35,915,10,0.217899828566372,2
36,913,10,0.278074361222943,2
36,914,10,0.416815641049999,2
36,915,10,0.384102810873353,2
36,916,10,0.272508929240187,2
36,917,10,0.189549394607651,2
37,912,10,0.180917050375711,1
37,913,10,0.284725642947479,2
37,914,10,0.416887360028971,2
37,915,10,0.421428879407621,2
37,916,10,0.407917128341269,2
37,917,10,0.345618171469782,2
37,918,10,0.233420582477472,2
38,913,10,0.203706485769726,1
38,914,10,0.26538648519541,2
38,915,10,0.347862701010054,2
38,916,10,0.502529232403913,2
38,917,10,0.502926431803859,2
38,918,10,0.322999700440131,2
38,919,10,0.19444306027309,2
38,920,10,0.146588571553843,2
39,914,10,0.20754393043318,2
39,915,10,0.315452759340289,2
39,916,10,0.464460615364393,2
39,917,10,0.47763189735317,2
39,918,10,0.377836288835218,2
39,919,10,0.319335583904472,2
39,920,10,0.289792135666438,2
39,921,10,0.267651079492558,2
39,922,10,0.221617538263717,2
39,923,10,0.240098399352794,2
39,924,10,0.240754567010043,2
40,914,10,0.238872662744678,2
40,915,10,0.382430529942031,2
40,916,10,0.413852287782147,2
40,917,10,0.368764665857073,2
40,918,10,0.425754544702536,2
40,919,10,0.497896691793748,2
40,920,10,0.463312763127427,2
40,921,10,0.423092228145329,2
40,922,10,0.345067011552097,2
40,923,10,0.333493132569147,2
40,924,10,0.308193413088993,2
40,925,10,0.249660486903722,2
41,913,10,0.184079373702783,1
41,914,10,0.270821223935501,2
41,915,10,0.4581574495466,2
41,916,10,0.423974511016051,2
41,917,10,0.323652861651725,2
41,918,10,0.43656454684475,2
41,919,10,0.545940651946811,2
41,920,10,0.457552369679657,2
41,921,10,0.392104749201578,2
41,922,10,0.354922815772072,2
41,923,10,0.335980835634112,2
41,924,10,0.278611904991826,2
42,913,10,0.198279241357935,1
42,914,10,0.271234937000715,2
42,915,10,0.399794191468326,2
42,916,10,0.353799429031275,2
42,917,10,0.271413101584565,2
42,918,10,0.317621190948134,2
42,919,10,0.352091855042257,2
42,920,10,0.291529795897849,2
42,921,10,0.278321761200224,2
42,922,10,0.318757997765191,2
42,923,10,0.31751106353662,2
42,924,10,0.23952959290626,2
43,914,10,0.250640065327327,1
43,915,10,0.272435489180006,2
43,916,10,0.242482488971831,2
43,917,10,0.235347735928537,2
43,918,10,0.246991177092489,2
43,919,10,0.219454444186203,2
43,920,10,0.201312657881064,2
43,921,10,0.247317572518663,2
43,922,10,0.33231811339209,2
43,923,10,0.334742964314183,2
43,924,10,0.260826905356988,2
43,925,10,0.203974909080758,2
44,918,10,0.257958015483069,1
44,919,10,0.226793461247371,1
44,921,10,0.225731663070837,2
44,922,10,0.304540668760815,2
44,923,10,0.340318897070896,2
44,924,10,0.331470186788026,2
44,925,10,0.302735145643772,2
44,926,10,0.258654421583259,2
44,930,10,0.149945921703442,1
44,931,10,0.16678129844204,1
44,932,10,0.159632155852691,1
45,917,10,0.211852646346066,1
45,918,10,0.273423999797226,1
45,919,10,0.279153805928325,1
45,920,10,0.240690930577,2
45,921,10,0.234855833490441,2
45,922,10,0.29842137541645,2
45,923,10,0.370020140134173,2
45,924,10,0.388005525907707,2
45,925,10,0.356918333183045,2
45,926,10,0.327551197732624,2
45,927,10,0.272301745920009,2
45,928,10,0.213985196678586,2
45,929,10,0.173242455157617,1
45,930,10,0.207720177863279,1
45,931,10,0.254000465494258,1
45,932,10,0.246253334328263,1
45,933,10,0.154445296378319,1
46,917,10,0.183405908090095,1
46,918,10,0.227384598177941,1
46,919,10,0.273102266540402,2
46,920,10,0.293013280756336,2
46,921,10,0.30363100109162,2
46,922,10,0.345546692135028,2
46,923,10,0.385842584331059,2
46,924,10,0.383452242176491,2
46,925,10,0.384569332810082,2
46,926,10,0.443259596317996,2
46,927,10,0.435277395959075,2
46,928,10,0.341436140205354,2
46,929,10,0.23754769164409,2
46,930,10,0.248823714648756,1
46,931,10,0.287101497519721,1
46,932,10,0.276136401996188,1
46,933,10,0.172501083087621,1
47,916,10,0.153207599345095,1
47,917,10,0.163596884275151,1
47,918,10,0.193195254610995,1
47,919,10,0.251176955521067,2
47,920,10,0.3164763887285,2
47,921,10,0.344487835046636,2
47,922,10,0.333768265918309,2
47,923,10,0.312382372249932,2
47,924,10,0.321691918365791,2
47,925,10,0.391231224237765,2
47,926,10,0.480915066724093,2
47,927,10,0.464150602888458,2
47,928,10,0.351189115269574,2
47,929,10,0.220959039521793,2
47,930,10,0.19382510497584,1
47,931,10,0.219291595046525,1
47,932,10,0.2441467309289,1
47,933,10,0.185120813013628,1
47,934,10,0.114179871676849,1
48,915,10,0.146346846787383,1
48,916,10,0.147446160177097,1
48,917,10,0.150158181123893,1
48,918,10,0.176699726053588,1
48,919,10,0.234331404796084,2
48,920,10,0.297232827233944,2
48,921,10,0.307095733637135,2
48,922,10,0.254600229616708,2
48,923,10,0.207448050959773,2
48,924,10,0.225989062747799,2
48,925,10,0.302288753821432,2
48,926,10,0.355090414224452,2
48,927,10,0.328752076699486,2
48,928,10,0.254606373223048,2
48,930,10,0.139422120116137,1
48,931,10,0.176490440400034,1
48,932,10,0.245740168912196,1
48,933,10,0.220490927218883,1
48,934,10,0.133724284702425,1
49,914,10,0.133960454080174,1
49,915,10,0.151453000624573,1
49,916,10,0.150287185964107,1
49,917,10,0.153237848981275,1
49,918,10,0.177702386572643,1
49,919,10,0.227559974174516,1
49,920,10,0.270582843295187,2
49,921,10,0.25801121649967,2
49,922,10,0.199578875528832,1
49,925,10,0.202805772079984,2
49,926,10,0.24266999968022,2
49,927,10,0.245309724323334,2
49,932,10,0.178069390801005,1
49,933,10,0.164261450372982,1
50,914,10,0.142124108684495,1
50,915,10,0.160225024757388,1
50,916,10,0.161813114317435,1
50,917,10,0.16892897903911,1
50,918,10,0.185590341396012,1
50,919,10,0.208762608429756,1
50,920,10,0.22236701466548,1
50,921,10,0.202703814357751,1
51,915,10,0.156627888780919,1
51,916,10,0.162891676696374,1
51,917,10,0.169061676578879,1
51,918,10,0.170295343232057,1
51,919,10,0.165464311851109,1
51,920,10,0.154267208044902,1
52,916,10,0.141926118987989,1
52,917,10,0.145766079915742,1
35,914,11,0.238064408151764,2
35,915,11,0.222048287854312,2
35,916,11,0.158333251507371,2
36,906,11,0.281736408103984,1
36,907,11,0.257849783439468,1
36,913,11,0.266640630536387,2
36,914,11,0.376720679638616,2
36,915,11,0.384991324493768,2
36,916,11,0.30316108056415,2
36,917,11,0.203449630738716,2
37,906,11,0.322171032516933,3
37,907,11,0.283982223008703,3
37,913,11,0.27572308107606,2
37,914,11,0.360150828694585,2
37,915,11,0.411779234573434,2
37,916,11,0.438404753016022,2
37,917,11,0.355230039660732,2
37,918,11,0.220468727449876,2
38,914,11,0.243108962531773,2
38,915,11,0.319973168241836,2
38,916,11,0.46435251403582,2
38,917,11,0.459781148058995,2
38,918,11,0.303057227474004,2
38,919,11,0.182114258428856,2
39,914,11,0.21614090535699,2
39,915,11,0.306387171039294,2
39,916,11,0.413405460243046,2
39,917,11,0.421343566065685,2
39,918,11,0.368475742072404,2
39,919,11,0.319721302167748,2
39,920,11,0.283251417070178,2
39,921,11,0.240804696223474,2
40,913,11,0.191750308900079,1
40,914,11,0.26455783905805,2
40,915,11,0.412589798465184,2
40,916,11,0.430809207711416,2
40,917,11,0.367191924419956,2
40,918,11,0.423493871856244,2
40,919,11,0.486777984325886,2
40,920,11,0.454734240808474,2
40,921,11,0.377523531343685,2
40,922,11,0.284080259280081,2
40,923,11,0.262725475788488,2
40,924,11,0.254007894465045,2
41,913,11,0.187646597723563,1
41,914,11,0.274480133655858,2
41,915,11,0.450513931826532,2
41,916,11,0.427606558798051,2
41,917,11,0.316962169346096,2
41,918,11,0.386849133622212,2
41,919,11,0.476668353306394,2
41,920,11,0.431011380288834,2
41,921,11,0.358411556311155,2
41,922,11,0.310261215910729,2
41,923,11,0.281891479699465,2
42,913,11,0.196382065220073,1
42,914,11,0.247652006919089,2
42,915,11,0.337778929780368,2
42,916,11,0.300808275408601,2
42,917,11,0.2305800359789,2
42,918,11,0.255960145201583,2
42,919,11,0.285670298672636,2
42,920,11,0.271369464550883,2
42,921,11,0.283170417324182,2
42,922,11,0.33625453111796,2
42,923,11,0.320800986517349,2
42,924,11,0.232444729432179,2
43,914,11,0.233936972197575,1
43,915,11,0.233804710374568,2
43,916,11,0.203061951750013,2
43,919,11,0.196251066975675,2
43,921,11,0.258236307778753,2
43,922,11,0.354764214870821,2
43,923,11,0.347376506461535,2
43,924,11,0.265697412676544,2
43,925,11,0.2426897812212,2
44,918,11,0.255652376666971,1
44,919,11,0.220965444558189,1
44,921,11,0.218956485285118,2
44,922,11,0.2904226831781,2
44,923,11,0.327459217924233,2
44,924,11,0.321097361058643,2
44,925,11,0.324267875860834,2
44,926,11,0.305122873497769,2
44,927,11,0.224596969480074,2
44,930,11,0.142637361243914,1
44,931,11,0.153954232694988,1
44,932,11,0.152982736817312,1
45,917,11,0.220957449155612,1
45,918,11,0.284090476838142,1
45,919,11,0.273598090429354,1
45,920,11,0.224125654658967,1
45,921,11,0.216773065020672,1
45,922,11,0.270715889408366,2
45,923,11,0.35766573993019,2
45,924,11,0.388032409631902,2
45,925,11,0.365847912496883,2
45,926,11,0.349341545485029,2
45,927,11,0.285957784591991,2
45,928,11,0.219268850631566,2
45,929,11,0.179623570704074,1
45,930,11,0.203957916127052,1
45,931,11,0.229768862083683,1
45,932,11,0.215872416688444,1
45,933,11,0.148595384921862,1
46,917,11,0.198536880679116,1
46,918,11,0.243741884699787,1
46,919,11,0.275270741719923,1
46,920,11,0.274512638126279,2
46,921,11,0.269948505047698,2
46,922,11,0.300735074992639,2
46,923,11,0.382461160830377,2
46,924,11,0.424129974756618,2
46,925,11,0.425553374273669,2
46,926,11,0.483820338947613,2
46,927,11,0.457593632056988,2
46,928,11,0.329779431466009,2
46,929,11,0.230781097478576,2
46,930,11,0.247822023599496,1
46,931,11,0.264587358868654,1
46,932,11,0.238338277922317,1
46,933,11,0.160394605721033,1
47,918,11,0.19991703530757,1
47,919,11,0.256046743907966,2
47,920,11,0.309666353601847,2
47,921,11,0.318284460788599,2
47,922,11,0.293419891638334,2
47,923,11,0.303307045679313,2
47,924,11,0.348360224194377,2
47,925,11,0.416548459531737,2
47,926,11,0.522528413906572,2
47,927,11,0.513779090617041,2
47,928,11,0.36115519940193,2
47,929,11,0.219293490414439,2
47,930,11,0.193150375784542,1
47,931,11,0.208528497813707,1
47,932,11,0.232138986980509,1
47,933,11,0.184978682205968,1
47,934,11,0.116152731816215,1
48,916,11,0.145860020449559,1
48,917,11,0.148121020083423,1
48,918,11,0.176735204290907,1
48,919,11,0.237918116249031,2
48,920,11,0.301422396398349,2
48,921,11,0.304618879919536,2
48,922,11,0.242142934899455,2
48,923,11,0.197477631445637,2
48,924,11,0.22192972932346,2
48,925,11,0.29865082386315,2
48,926,11,0.379634012622227,2
48,927,11,0.380674852822524,2
48,928,11,0.282919771257026,2
48,930,11,0.138284550794747,1
48,931,11,0.17061742506229,1
48,932,11,0.248765197887663,1
48,933,11,0.225722513018842,1
48,934,11,0.13496083797915,1
49,915,11,0.150658089857486,1
49,916,11,0.148956267329723,1
49,917,11,0.151054929791104,1
49,918,11,0.17689071160315,1
49,919,11,0.229942843786621,1
49,920,11,0.276290994303232,2
49,921,11,0.261311204537594,2
49,922,11,0.196795146495982,1
49,925,11,0.203639799319351,2
49,926,11,0.264954254167825,2
49,927,11,0.281642271497623,2
49,932,11,0.180079493830575,1
49,933,11,0.171837007171147,1
50,914,11,0.147083120971267,1
50,915,11,0.159561101341781,1
50,916,11,0.159674344128141,1
50,917,11,0.164767568070428,1
50,918,11,0.182512884801197,1
50,919,11,0.209970001362205,1
50,920,11,0.22543077886106,1
50,921,11,0.201487140658279,1
51,915,11,0.156472011109428,1
51,916,11,0.162246020706,1
51,917,11,0.166885173318024,1
35,906,12,0.159283713158377,1
35,907,12,0.177148394496007,1
35,914,12,0.230395967432929,2
35,915,12,0.200494207515928,2
35,916,12,0.149738923562887,2
36,905,12,0.204117018102579,1
36,906,12,0.289598633852576,3
36,907,12,0.290943538995011,3
36,908,12,0.25097874796618,3
36,913,12,0.262760834203698,2
36,914,12,0.322712977025108,2
36,915,12,0.349066412135867,2
36,916,12,0.302754338967123,2
36,917,12,0.200541809572141,2
37,905,12,0.241408338225104,3
37,906,12,0.361078883611122,3
37,907,12,0.325853449156582,3
37,908,12,0.23909139255904,3
37,912,12,0.286791768259682,4
37,913,12,0.265977338910084,2
37,914,12,0.301193514383439,2
37,915,12,0.377558824401381,2
37,916,12,0.420907195728864,2
37,917,12,0.3233072729022,2
37,918,12,0.190792864887967,2
38,906,12,0.257384024007072,3
38,907,12,0.229046617979525,3
38,912,12,0.296670338680455,4
38,914,12,0.226476956591688,2
38,915,12,0.288883688004176,2
38,916,12,0.389853792839071,2
38,917,12,0.370456031182556,2
38,918,12,0.254275533485905,2
39,914,12,0.222259065837774,2
39,915,12,0.284367418411865,2
39,916,12,0.346995276080905,2
39,917,12,0.342369358365517,2
39,918,12,0.314757398960327,2
39,919,12,0.279261580469327,2
39,920,12,0.246300500667715,2
39,921,12,0.198043671090734,2
40,913,12,0.207895706360721,1
40,914,12,0.270662165531651,2
40,915,12,0.384015318947608,2
40,916,12,0.40550940108791,2
40,917,12,0.342630352705762,2
40,918,12,0.360936164585835,2
40,919,12,0.40478523983,2
40,920,12,0.39163400081226,2
40,921,12,0.301438583276045,2
40,922,12,0.224427279587239,2
41,913,12,0.198918895349917,1
41,914,12,0.267636679053584,2
41,915,12,0.390213782027569,2
41,916,12,0.397111831940081,2
41,917,12,0.304580732917051,2
41,918,12,0.309490324030129,2
41,919,12,0.370449669717836,2
41,920,12,0.37270781540691,2
41,921,12,0.301920899945385,2
41,922,12,0.253148748154367,2
42,914,12,0.226334368281429,1
42,915,12,0.268229471707848,2
42,916,12,0.253627905877185,2
42,917,12,0.205043417295422,2
42,918,12,0.204267275027844,2
42,919,12,0.224265563311142,2
42,920,12,0.240419849393722,2
42,921,12,0.26185587227553,2
42,922,12,0.30808555140464,2
42,923,12,0.279019670523243,2
43,915,12,0.199487462152232,1
43,916,12,0.184556483556821,1
43,921,12,0.234073612974037,2
43,922,12,0.312907367376078,2
43,923,12,0.300628585816085,2
43,924,12,0.246414353457541,2
43,925,12,0.268149038393642,2
43,926,12,0.249431256315403,2
44,918,12,0.254870570081492,1
44,922,12,0.246955208673813,2
44,923,12,0.280904123731664,2
44,924,12,0.282323166081098,2
44,925,12,0.308812501249824,2
44,926,12,0.303916090568787,2
44,927,12,0.23342890466762,2
44,930,12,0.127823971709562,1
44,931,12,0.138410777940605,1
44,932,12,0.146409993039069,1
45,917,12,0.231847252822727,1
45,918,12,0.285208765692828,1
45,919,12,0.252885139513552,1
45,920,12,0.203215672623533,1
45,922,12,0.234447305454691,2
45,923,12,0.316085921152522,2
45,924,12,0.362751295257473,2
45,925,12,0.35559935318793,2
45,926,12,0.336833250120821,2
45,927,12,0.278560076483024,2
45,928,12,0.219456513840821,2
45,929,12,0.184944391296824,1
45,930,12,0.180369060297467,1
45,931,12,0.192444688917328,1
45,932,12,0.182926358222191,1
45,933,12,0.153202588602336,1
46,917,12,0.205194502082534,1
46,918,12,0.246693081469987,1
46,919,12,0.259197629670044,1
46,920,12,0.250516539625391,1
46,921,12,0.240763368488629,1
46,922,12,0.25104628406424,2
46,923,12,0.335760580811083,2
46,924,12,0.423208346662316,2
46,925,12,0.444998454770502,2
46,926,12,0.467893627729657,2
46,927,12,0.414358808517599,2
46,928,12,0.291305358193909,2
46,929,12,0.214630907133556,2
46,930,12,0.218228816507277,1
46,931,12,0.224916001292975,1
46,932,12,0.199970868113476,1
46,933,12,0.163085625119916,1
47,918,12,0.196662971816327,1
47,919,12,0.247247160689975,1
47,920,12,0.292885920746897,2
47,921,12,0.292179776377083,2
47,922,12,0.253189901602508,2
47,923,12,0.265204638804924,2
47,924,12,0.33494095401069,2
47,925,12,0.413774468768512,2
47,926,12,0.515314992201958,2
47,927,12,0.511279688557025,2
47,928,12,0.358986462792352,2
47,929,12,0.224142756541863,2
47,930,12,0.189999686095008,1
47,931,12,0.195379393808099,1
47,932,12,0.207501121261345,1
47,933,12,0.183964878230733,1
47,934,12,0.130201514684255,1
48,918,12,0.170691692984318,1
48,919,12,0.229096943265499,1
48,920,12,0.289005035122304,2
48,921,12,0.29092979213118,2
48,922,12,0.226504842464436,1
48,924,12,0.199094118845626,2
48,925,12,0.273018957495569,2
48,926,12,0.37906104508062,2
48,927,12,0.417235192719819,2
48,928,12,0.316628170662431,2
48,929,12,0.194942391681973,2
48,931,12,0.160630067059044,1
48,932,12,0.215311888860383,1
48,933,12,0.205868882700422,1
48,934,12,0.144927793545029,1
49,916,12,0.144467676644697,1
49,917,12,0.144281680052055,1
49,918,12,0.171427738416902,1
49,919,12,0.223686866094118,1
49,920,12,0.269168702759322,1
49,921,12,0.251732995466483,1
49,926,12,0.259961724369161,2
49,927,12,0.293557229561615,2
49,928,12,0.225175797412126,2
49,932,12,0.170053302570945,1
49,933,12,0.171769187857192,1
50,915,12,0.156775901764861,1
50,916,12,0.154624005608121,1
50,917,12,0.156703899569993,1
50,919,12,0.210407962065207,1
50,920,12,0.228526916812033,1
35,906,13,0.14963292456769,1
35,907,13,0.179790156114982,3
35,908,13,0.202377222859035,3
36,905,13,0.187709711296492,1
36,906,13,0.275309237295818,3
36,907,13,0.308796052942071,3
36,908,13,0.325139352955867,3
36,909,13,0.27040589871827,3
36,912,13,0.286132158440015,4
36,914,13,0.261867200911333,2
36,915,13,0.2829332566908,2
36,916,13,0.27466350505501,2
37,905,13,0.232795219995273,3
37,906,13,0.348014526515661,3
37,907,13,0.336836212994801,3
37,908,13,0.299650074898545,3
37,909,13,0.245623483963419,3
37,911,13,0.289167862476143,4
37,912,13,0.327170860571355,4
37,913,13,0.2611346738916,4
37,914,13,0.250500374533533,2
37,915,13,0.322643284129078,2
37,916,13,0.367363030392268,2
37,917,13,0.276310100483231,2
38,906,13,0.255048473235285,3
38,907,13,0.240098987570422,3
38,908,13,0.214727919470544,3
38,911,13,0.287219598547974,4
38,912,13,0.334859583905447,4
38,913,13,0.254759549450616,4
38,915,13,0.266186221525633,2
38,916,13,0.314856219521875,2
38,917,13,0.284055314495475,2
39,912,13,0.280377363952633,4
39,914,13,0.237936721354754,1
39,915,13,0.272651822552179,2
39,916,13,0.29782150236481,2
39,917,13,0.284182456646532,2
39,918,13,0.256884736169864,2
39,919,13,0.233859915688272,2
40,913,13,0.225504197135403,1
40,914,13,0.267686241835225,2
40,915,13,0.33546021946142,2
40,916,13,0.372699798218495,2
40,917,13,0.333550298608279,2
40,918,13,0.294898431111576,2
40,919,13,0.310102353579421,2
40,920,13,0.309739118301048,2
40,921,13,0.228475763664212,2
41,913,13,0.217129938834324,1
41,914,13,0.254303615431196,2
41,915,13,0.318069717782606,2
41,916,13,0.359614592075988,2
41,917,13,0.30979162217083,2
41,918,13,0.250707928212959,2
41,919,13,0.27355390874972,2
41,920,13,0.300111629664191,2
41,921,13,0.248063693901361,2
42,914,13,0.210577238027119,1
42,915,13,0.213150799079972,2
42,916,13,0.220018022031596,2
42,917,13,0.198769880217423,2
42,918,13,0.17676291587695,1
42,922,13,0.266268593779428,2
42,925,13,0.204685693834084,1
43,916,13,0.180570524835148,1
43,922,13,0.258511789701324,2
43,923,13,0.240076068868758,2
43,924,13,0.221212212746166,1
43,925,13,0.265159346047547,1
43,926,13,0.228908539337749,1
44,917,13,0.238809091669149,1
44,918,13,0.252863745820553,1
44,924,13,0.235335775503429,2
44,925,13,0.266287024598447,2
44,926,13,0.268720611641612,2
44,931,13,0.137737660901326,1
45,916,13,0.218463667841822,1
45,917,13,0.25207538169781,1
45,918,13,0.278833597680168,1
45,919,13,0.234055073225828,1
45,923,13,0.260362562004067,2
45,924,13,0.317977498329997,2
45,925,13,0.333921725361772,2
45,926,13,0.308281623947395,2
45,927,13,0.253264496312107,2
45,928,13,0.199891131946089,1
45,930,13,0.159452891084018,1
45,931,13,0.180384593600021,1
45,932,13,0.189440073272146,1
46,917,13,0.208245369061968,1
46,918,13,0.241915534321535,1
46,919,13,0.244823725847358,1
46,920,13,0.234023527332282,1
46,921,13,0.218511487756416,1
46,923,13,0.26482218841736,2
46,924,13,0.378045868597585,2
46,925,13,0.436585156247577,2
46,926,13,0.412435946876636,2
46,927,13,0.33166127037386,2
46,928,13,0.235860705272061,2
46,929,13,0.185247650162952,1
46,930,13,0.183921949236788,1
46,931,13,0.203516426118282,1
46,932,13,0.194841131106559,1
46,933,13,0.185450563458866,1
47,918,13,0.195324754926184,1
47,919,13,0.241214988912109,1
47,920,13,0.27352685073882,1
47,921,13,0.26477160170133,1
47,922,13,0.218097360760279,1
47,924,13,0.288561105099667,2
47,925,13,0.379605821747746,2
47,926,13,0.456932780444551,2
47,927,13,0.455293744702145,2
47,928,13,0.338669556627077,2
47,929,13,0.220843531008272,2
47,930,13,0.182745459515661,1
47,931,13,0.189384018310756,1
47,932,13,0.189454081566034,1
47,933,13,0.186762201626546,1
48,919,13,0.221198117308925,1
48,920,13,0.265837582758776,1
48,921,13,0.266577800179353,1
48,922,13,0.212717892691407,1
48,925,13,0.238885167815738,2
48,926,13,0.354981354319004,2
48,927,13,0.43135969226812,2
48,928,13,0.350438484218392,2
48,929,13,0.213197268272605,2
48,932,13,0.178792114193601,1
48,933,13,0.189294631017098,1
49,919,13,0.209509666603492,1
49,920,13,0.244752377227633,1
49,921,13,0.228769502119097,1
49,926,13,0.239625494165506,2
49,927,13,0.28929888250638,2
49,928,13,0.236639331125181,2
50,920,13,0.214362832395933,1
50,927,13,0.196866211899812,1
35,906,14,0.142015854855056,1
35,907,14,0.185831728481982,3
35,908,14,0.221670281777718,3
35,909,14,0.187635617661169,3
35,912,14,0.244892394808999,4
36,905,14,0.166343468454067,1
36,906,14,0.24498459247577,3
36,907,14,0.324315456131209,3
36,908,14,0.398625381255124,3
36,909,14,0.31999586908512,3
36,910,14,0.224638188285729,3
36,911,14,0.289205835191923,4
36,912,14,0.35871132944319,4
36,913,14,0.297479573636082,4
37,905,14,0.212171242442205,1
37,906,14,0.301120226824125,3
37,907,14,0.336203966187767,3
37,908,14,0.367137220180528,3
37,909,14,0.292770869735976,3
37,910,14,0.229559870538944,4
37,911,14,0.322058181875658,4
37,912,14,0.379938491495288,4
37,913,14,0.284769323552837,4
37,914,14,0.22268105752146,4
37,915,14,0.252141022427957,2
37,916,14,0.279901713749746,2
38,906,14,0.246667635611105,1
38,907,14,0.252380034857576,3
38,908,14,0.25830251494069,3
38,909,14,0.222031687045692,1
38,910,14,0.229220468967435,4
38,911,14,0.321854767505468,4
38,912,14,0.346274382698708,4
38,913,14,0.261993733058925,4
38,916,14,0.241771268501744,2
39,907,14,0.199017301980542,1
39,911,14,0.282984867341221,4
39,912,14,0.279599064887085,4
39,913,14,0.250264041761999,1
39,914,14,0.247460356901465,1
39,915,14,0.251598250057934,1
39,916,14,0.244131066911318,2
39,917,14,0.219601847166678,2
40,912,14,0.217263551379293,1
40,913,14,0.231840760642978,1
40,914,14,0.251596354690021,1
40,915,14,0.278929302866871,2
40,916,14,0.30587805778911,2
40,917,14,0.282618582045516,2
40,918,14,0.218519439587317,2
40,919,14,0.212302763546718,2
41,912,14,0.198205147722612,1
41,913,14,0.224917155942394,1
41,914,14,0.231534212115299,1
41,915,14,0.252077974212542,2
41,916,14,0.290662044181129,2
41,917,14,0.271712264713134,2
41,918,14,0.194209842876402,1
42,913,14,0.22566329911093,1
42,914,14,0.190837721928582,1
42,915,14,0.173434922144169,1
42,916,14,0.182351680492295,1
42,917,14,0.175595826744956,1
43,917,14,0.177842349689413,1
43,925,14,0.205708843933857,1
44,916,14,0.233842922734567,1
44,917,14,0.254513238765239,1
44,918,14,0.225275750837255,1
44,925,14,0.200113761425468,1
45,915,14,0.185064017333743,1
45,916,14,0.229700432766261,1
45,917,14,0.254395442738719,1
45,918,14,0.242690304081314,1
45,919,14,0.202299316702047,1
45,924,14,0.242913674279188,2
45,925,14,0.274683460882695,2
45,926,14,0.249367205951436,2
45,931,14,0.170843333310301,1
46,916,14,0.173322430969223,1
46,917,14,0.193863121263296,1
46,918,14,0.215186075645448,1
46,919,14,0.219410828938359,1
46,920,14,0.208415756101622,1
46,924,14,0.283910874388978,2
46,925,14,0.361372643851846,2
46,926,14,0.320527617821072,2
46,927,14,0.243031404948194,2
46,928,14,0.182823834068168,1
46,930,14,0.159404308665091,1
46,931,14,0.18931905294159,1
46,932,14,0.19049459497876,1
47,919,14,0.227688663120078,1
47,920,14,0.24097233824753,1
47,921,14,0.22422214413584,1
47,924,14,0.21730280945952,2
47,925,14,0.296675806925814,2
47,926,14,0.341322091342985,2
47,927,14,0.34251486597808,2
47,928,14,0.276911759973595,2
47,932,14,0.176441084583855,1
48,919,14,0.207193200225867,1
48,920,14,0.229511200976664,1
48,921,14,0.222633172249351,1
48,925,14,0.187651347036265,2
48,926,14,0.277455098775408,2
48,927,14,0.358709804434524,2
48,928,14,0.315937298165114,2
49,920,14,0.210371710430635,1
49,927,14,0.239209820374865,2
35,907,15,0.184457151028077,3
35,908,15,0.217818502032805,3
35,909,15,0.178800643349211,3
35,911,15,0.204228256591836,4
35,912,15,0.252271476026404,4
35,913,15,0.216470546873038,4
36,906,15,0.204456724675822,3
36,907,15,0.308750825542209,3
36,908,15,0.404241291024721,3
36,909,15,0.313611964951388,3
36,910,15,0.217566352742821,3
36,911,15,0.306509106375049,4
36,912,15,0.413086123428412,4
36,913,15,0.339671378391366,4
36,914,15,0.207032093953236,4
37,905,15,0.186485565054557,1
37,906,15,0.243863558605485,3
37,907,15,0.320181920142356,3
37,908,15,0.396281617222379,3
37,909,15,0.307281937195238,3
37,910,15,0.233586568777833,3
37,911,15,0.331325267393092,4
37,912,15,0.418530927225698,4
37,913,15,0.331725102879446,4
37,914,15,0.218181410523607,4
38,905,15,0.185168502213193,1
38,906,15,0.228499488441885,1
38,907,15,0.264642716683225,3
38,908,15,0.297561357672249,3
38,909,15,0.24784346086417,3
38,910,15,0.252825794890611,4
38,911,15,0.322766265185062,4
38,912,15,0.326903134407141,4
38,913,15,0.268932696775359,4
39,906,15,0.188301153228795,1
39,907,15,0.212974420934845,1
39,908,15,0.232408978871883,3
39,910,15,0.285167329028792,4
39,911,15,0.313030348432062,4
39,912,15,0.263368659086239,4
39,913,15,0.255695055123778,1
39,914,15,0.263510898823089,1
39,915,15,0.254312264408915,1
39,916,15,0.219831927402683,1
39,917,15,0.178021069812135,1
40,911,15,0.246123229303226,4
40,912,15,0.218674053680198,1
40,913,15,0.248841687965176,1
40,914,15,0.267831793019464,1
40,915,15,0.267868545728311,1
40,916,15,0.252685908024274,2
40,917,15,0.223729413835896,1
40,918,15,0.164170701464443,1
41,912,15,0.20233384725541,1
41,913,15,0.236563429265296,1
41,914,15,0.234675098177696,1
41,915,15,0.22659677870115,1
41,916,15,0.225015213999609,1
41,917,15,0.212765472961782,1
41,918,15,0.153952108575775,1
42,913,15,0.22404228025662,1
42,914,15,0.179018686909673,1
42,915,15,0.156322048292977,1
42,916,15,0.15340310545606,1
42,917,15,0.152326623624658,1
42,918,15,0.129366474403417,1
43,916,15,0.16524588703848,1
43,917,15,0.180947811979086,1
43,918,15,0.148747308463741,1
44,915,15,0.179569792362763,1
44,916,15,0.255835726280286,1
44,917,15,0.283676545914548,1
44,918,15,0.200026465572266,1
44,919,15,0.160926942674614,1
45,915,15,0.193626744920085,1
45,916,15,0.250112499472287,1
45,917,15,0.269208962988101,1
45,918,15,0.20520193105332,1
45,919,15,0.176062566540066,1
45,920,15,0.164289390710325,1
46,916,15,0.171945871004052,1
46,917,15,0.184904468748535,1
46,920,15,0.186591814586892,1
46,925,15,0.266579608403914,2
46,926,15,0.237353732327629,2
47,920,15,0.211804608573091,1
47,925,15,0.216230684795734,2
47,926,15,0.236374567834947,2
47,927,15,0.236190935005738,2
48,920,15,0.200400092695405,1
48,927,15,0.263998465879407,2
51,926,15,0.109351454596471,1
51,927,15,0.116990135860484,1
52,927,15,0.101736541681808,1
35,907,16,0.165338868995422,1
35,908,16,0.19344818819115,3
35,909,16,0.159378002265604,1
35,912,16,0.224310964997709,4
35,913,16,0.186749478697105,4
36,906,16,0.168957562058676,1
36,907,16,0.266404384908205,3
36,908,16,0.354359325070032,3
36,909,16,0.274354102582542,3
36,910,16,0.208222777147875,1
36,911,16,0.28687342158082,4
36,912,16,0.399904514952383,4
36,913,16,0.332759516257509,4
36,914,16,0.180778525124255,4
37,906,16,0.204876123844775,3
37,907,16,0.297265527776908,3
37,908,16,0.386049636936209,3
37,909,16,0.300267006261406,3
37,910,16,0.245156439166576,3
37,911,16,0.310848366032929,4
37,912,16,0.397108694779397,4
37,913,16,0.329107817649558,4
37,914,16,0.194265331406001,4
38,904,16,0.146730430038526,1
38,905,16,0.175146395798204,1
38,906,16,0.213606667741878,1
38,907,16,0.27443179088115,3
38,908,16,0.322772670221458,3
38,909,16,0.266460004152833,3
38,910,16,0.273037170456207,3
38,911,16,0.295091606137866,4
38,912,16,0.281743662788066,4
38,913,16,0.244376157589762,4
38,914,16,0.201582366556543,1
38,915,16,0.179151787487447,1
38,916,16,0.157500945349213,1
38,917,16,0.120269253065524,1
38,924,16,0.108859105548694,1
38,925,16,0.119746185986048,1
39,904,16,0.140775532628343,1
39,905,16,0.160784583115655,1
39,907,16,0.219794281474474,1
39,908,16,0.240913472913027,3
39,909,16,0.22864883036195,1
39,910,16,0.304963422948833,1
39,911,16,0.3059079697448,4
39,912,16,0.239294523713335,4
39,913,16,0.241650967103844,1
39,914,16,0.256790577777666,1
39,915,16,0.240226282222346,1
39,916,16,0.187982252130922,1
39,917,16,0.136125933706959,1
39,918,16,0.104198515671996,1
39,924,16,0.13052539384613,1
39,925,16,0.155807445011597,1
39,926,16,0.126725518860451,1
40,904,16,0.150454936917354,1
40,910,16,0.269379546100298,1
40,911,16,0.26435625469826,1
40,912,16,0.224457975833099,1
40,913,16,0.261911992594434,1
40,914,16,0.289347639212011,1
40,915,16,0.262794449751861,1
40,916,16,0.200483031380991,1
40,917,16,0.156122435551533,1
40,918,16,0.117412073079575,1
40,919,16,0.10100075767928,1
40,925,16,0.114285990494156,1
40,926,16,0.10588997903375,1
41,911,16,0.196449122029695,1
41,912,16,0.207718042851147,1
41,913,16,0.242697929124643,1
41,914,16,0.244769500896367,1
41,915,16,0.212409122008243,1
41,916,16,0.168496617296496,1
41,917,16,0.145932142466536,1
41,918,16,0.115422644810346,1
42,913,16,0.210340055607899,1
42,914,16,0.167964182306644,1
42,915,16,0.140832546166609,1
42,916,16,0.125603047124853,1
42,917,16,0.122280608780784,1
42,918,16,0.109041104440047,1
42,919,16,0.101861832036628,1
42,920,16,0.103086653639545,1
42,921,16,0.104908766672289,1
43,913,16,0.218444670591013,1
43,914,16,0.147669726447515,1
43,916,16,0.149331648212828,1
43,917,16,0.168210373169912,1
43,918,16,0.1314819555318,1
43,919,16,0.116074509764574,1
43,920,16,0.118292264509841,1
43,921,16,0.113005647682883,1
44,914,16,0.185670012205885,1
44,915,16,0.167440679510407,1
44,916,16,0.242342471390466,1
44,917,16,0.271851759434385,1
44,918,16,0.175265684154632,1
44,919,16,0.135556767794097,1
44,920,16,0.132140781061295,1
44,921,16,0.11438815518185,1
44,926,16,0.102107543611458,1
44,927,16,0.103852959601227,1
44,933,16,0.195982273305395,1
45,915,16,0.187030428865036,1
45,916,16,0.242945198386896,1
45,917,16,0.253143345266522,1
45,918,16,0.172515450847837,1
45,919,16,0.147793611615779,1
45,920,16,0.141344208359848,1
45,921,16,0.118695977875374,1
45,924,16,0.113600597135116,1
45,925,16,0.137391995901368,1
45,926,16,0.133524214458382,1
45,927,16,0.114366064342033,1
45,930,16,0.103904690073758,1
45,931,16,0.132987280692965,1
45,933,16,0.207602338265083,1
46,916,16,0.162021365143679,1
46,917,16,0.16644348723671,1
46,918,16,0.157819998947952,1
46,919,16,0.166558080745032,1
46,920,16,0.154981108173074,1
46,921,16,0.130176417398782,1
46,922,16,0.105448325631194,1
46,923,16,0.100140968686379,1
46,924,16,0.126807760399218,1
46,925,16,0.169764117356219,1
46,926,16,0.159709473792051,1
46,927,16,0.12546141739147,1
46,928,16,0.104610082832158,1
46,929,16,0.1001188996324,1
47,918,16,0.160411141172139,1
47,919,16,0.189230885654864,1
47,920,16,0.173866662990397,1
47,921,16,0.14551584777951,1
47,922,16,0.119435062432371,1
47,923,16,0.108015122181323,1
47,924,16,0.117564682875353,1
47,925,16,0.144788189894588,1
47,926,16,0.154293220335574,1
47,927,16,0.152800465602983,1
47,932,16,0.149665145822216,1
48,920,16,0.165292127479813,1
48,922,16,0.131216723846047,1
48,926,16,0.142234050916386,1
48,927,16,0.172433841098375,1
48,931,16,0.167663973457848,1
50,926,16,0.107437405327013,1
50,927,16,0.116628534519967,1
51,925,16,0.107977933755713,1
51,926,16,0.107604056095436,1
51,927,16,0.11199454515157,1
51,928,16,0.121896927493369,1
52,924,16,0.106647842983176,1
52,925,16,0.106121562492582,1
52,926,16,0.106341283562578,1
52,927,16,0.105499348063986,1
52,928,16,0.112434749795893,1
53,925,16,0.10356685708259,1
34,924,17,0.175906601725223,1
35,908,17,0.161520595869482,1
35,912,17,0.182795403549469,4
35,913,17,0.154053064149456,1
35,914,17,0.101489969566374,1
35,924,17,0.135411750362892,1
36,907,17,0.216745135576248,1
36,908,17,0.274822868460594,3
36,909,17,0.2271503786327,3
36,910,17,0.199822593699476,1
36,911,17,0.245488564268165,4
36,912,17,0.328826606051571,4
36,913,17,0.277449870174268,4
36,914,17,0.147897377562573,1
37,904,17,0.134900099062572,1
37,905,17,0.149522960549962,1
37,906,17,0.184725966484195,1
37,907,17,0.273001093108341,3
37,908,17,0.341910875403041,3
37,909,17,0.290132147241413,3
37,910,17,0.269394948687823,3
37,911,17,0.280187435016217,4
37,912,17,0.330124802357154,4
37,913,17,0.280325056155393,4
37,914,17,0.160963194309186,1
37,915,17,0.103971027950723,1
38,903,17,0.128975222537268,1
38,904,17,0.144343987548976,1
38,905,17,0.164531387799761,1
38,906,17,0.204446049615161,1
38,907,17,0.281201456849833,3
38,908,17,0.32939534714059,3
38,909,17,0.294243744891316,3
38,910,17,0.299819350860458,3
38,911,17,0.263005815952952,3
38,912,17,0.233890045502342,4
38,913,17,0.20738247558714,1
38,914,17,0.168253476450561,1
38,915,17,0.143172737321908,1
38,916,17,0.121932558231555,1
39,903,17,0.134893890098718,1
39,904,17,0.144861924063583,1
39,905,17,0.158178375984432,1
39,906,17,0.185455247414054,1
39,907,17,0.22920266993772,1
39,908,17,0.252937360167439,3
39,909,17,0.247024640139786,3
39,910,17,0.293729403039992,3
39,911,17,0.260324349644068,1
39,912,17,0.206807198746696,1
39,913,17,0.211371767542039,1
39,914,17,0.224763718284769,1
39,915,17,0.20479898019212,1
39,916,17,0.150462572853602,1
39,917,17,0.101180567093906,1
39,925,17,0.108854726595239,1
40,903,17,0.143862291776021,1
40,904,17,0.146096178934389,1
40,905,17,0.149319317428472,1
40,907,17,0.18108181666914,1
40,908,17,0.190157219490192,1
40,909,17,0.199604059957657,1
40,910,17,0.25645681873822,1
40,911,17,0.24580073354207,1
40,912,17,0.21857375168166,1
40,913,17,0.25221454963149,1
40,914,17,0.278943768663358,1
40,915,17,0.237367675264002,1
40,916,17,0.156475671130226,1
40,917,17,0.106801716357562,1
41,904,17,0.140457110818909,1
41,910,17,0.190079030117309,1
41,911,17,0.197631286961643,1
41,912,17,0.205170951591565,1
41,913,17,0.229236067627503,1
41,914,17,0.231171695769583,1
41,915,17,0.188750834712685,1
41,916,17,0.130347893730341,1
41,917,17,0.101102323256428,1
42,911,17,0.19221408582121,1
42,912,17,0.201917672390493,1
42,913,17,0.183469206842647,1
42,914,17,0.151940099285373,1
42,915,17,0.126950904248348,1
42,916,17,0.107612868466941,1
43,910,17,0.182496915781881,1
43,911,17,0.215020045773411,1
43,912,17,0.217677373373697,1
43,913,17,0.182229952122001,1
43,914,17,0.133919082773653,1
43,915,17,0.112995931199097,1
43,916,17,0.126686282566062,1
43,917,17,0.139974805042488,1
43,918,17,0.109321183174454,1
43,933,17,0.119256919634359,1
43,934,17,0.152686547455642,1
44,911,17,0.194343891138132,1
44,912,17,0.209471388885979,1
44,913,17,0.208126963031982,1
44,914,17,0.172599565968679,1
44,915,17,0.149422876409804,1
44,916,17,0.196778240685629,1
44,917,17,0.218913283968198,1
44,918,17,0.142209465598108,1
44,919,17,0.109243690948389,1
44,920,17,0.103548317334381,1
44,932,17,0.114760496940543,1
44,933,17,0.169848483014199,1
44,934,17,0.197096357493331,1
45,913,17,0.179561655352239,1
45,914,17,0.181491161673818,1
45,915,17,0.17230108909401,1
45,916,17,0.209599663900617,1
45,917,17,0.210801196442621,1
45,918,17,0.14016124824481,1
45,919,17,0.117910391446987,1
45,920,17,0.112573645406598,1
45,931,17,0.107250450157496,1
45,932,17,0.127771162838046,1
45,933,17,0.173325056162712,1
45,934,17,0.184775104441993,1
46,915,17,0.142341716528197,1
46,916,17,0.149457929823281,1
46,917,17,0.14530526586859,1
46,918,17,0.129292707555665,1
46,919,17,0.130370365822325,1
46,920,17,0.119465954750774,1
46,925,17,0.101308613357244,1
46,926,17,0.100910586095451,1
46,931,17,0.109995955937427,1
46,932,17,0.129963733154488,1
46,933,17,0.154039970860768,1
47,916,17,0.106628595195228,1
47,917,17,0.11268390353314,1
47,918,17,0.133884236325637,1
47,919,17,0.152269904195206,1
47,920,17,0.135325423979484,1
47,921,17,0.110629466323069,1
47,930,17,0.101982264149556,1
47,931,17,0.120853102633254,1
47,932,17,0.139207791041067,1
47,933,17,0.151919478989626,1
48,918,17,0.122948246681785,1
48,919,17,0.147293615738834,1
48,920,17,0.132589852541719,1
48,921,17,0.114413840684951,1
48,922,17,0.104164660479613,1
48,926,17,0.100450839554366,1
48,927,17,0.110821149019451,1
48,928,17,0.114210012383838,1
48,929,17,0.111684053387198,1
48,930,17,0.126953932479842,1
48,931,17,0.156020042112539,1
48,932,17,0.160411369923439,1
49,920,17,0.119366992581278,1
49,922,17,0.103048027348622,1
49,927,17,0.108007409994641,1
49,928,17,0.118224107515396,1
49,929,17,0.122335694272379,1
49,930,17,0.142528083480085,1
49,931,17,0.177936355580745,1
50,922,17,0.112454705623578,1
50,927,17,0.102429091688658,1
50,928,17,0.115598783311255,1
50,929,17,0.123782273921151,1
51,924,17,0.102998747782876,1
51,925,17,0.107751502647588,1
51,926,17,0.108003412293352,1
51,927,17,0.108297521107485,1
51,928,17,0.114942593868167,1
52,924,17,0.106990839217969,1
52,925,17,0.114555601133363,1
52,926,17,0.115323170673655,1
52,927,17,0.10872953427669,1
52,928,17,0.109292240688559,1
52,929,17,0.123347700915972,1
53,924,17,0.101727685738627,1
53,925,17,0.11022036096261,1
53,926,17,0.107372396386171,1
53,928,17,0.1032456575788,1
33,923,18,0.116059608251325,1
33,924,18,0.114854274080575,1
34,924,18,0.125169596090336,1
34,925,18,0.106890264896454,1
35,911,18,0.124772233296604,1
35,912,18,0.137935007915609,1
35,913,18,0.116351331516188,1
36,907,18,0.174283088392452,1
36,908,18,0.208520393481939,1
36,909,18,0.195971315028839,3
36,910,18,0.193133513545865,1
36,911,18,0.200348699903365,1
36,912,18,0.236351518418254,4
36,913,18,0.193449408198082,1
36,914,18,0.107917685020492,1
37,903,18,0.113538649104525,1
37,904,18,0.125470022797513,1
37,905,18,0.135254968579121,1
37,906,18,0.167926525485516,1
37,907,18,0.243472001737603,1
37,908,18,0.291761727930091,3
37,909,18,0.294481885887411,3
37,910,18,0.300420138917298,3
37,911,18,0.251355642965032,1
37,912,18,0.247764487201116,4
37,913,18,0.202402015142775,1
37,914,18,0.118769908116912,1
38,902,18,0.113523714912518,1
38,903,18,0.134579574919762,1
38,904,18,0.145676006368184,1
38,905,18,0.153922817516471,1
38,906,18,0.187662305312822,1
38,907,18,0.26627266773115,3
38,908,18,0.313250015037462,3
38,909,18,0.326837450105318,3
38,910,18,0.325929154943923,3
38,911,18,0.233235598926301,3
38,912,18,0.185145866727424,1
38,913,18,0.159597472798462,1
38,914,18,0.124805456699682,1
38,915,18,0.0999646450058472,1
39,902,18,0.126879631879057,1
39,903,18,0.146286510908809,1
39,904,18,0.152650775109508,1
39,905,18,0.153577795198736,1
39,906,18,0.172045105496524,1
39,907,18,0.221545405353821,1
39,908,18,0.252055752657697,3
39,909,18,0.264499431226147,3
39,910,18,0.266154196343649,3
39,911,18,0.205831999276545,1
39,912,18,0.169621648868069,1
39,913,18,0.168572900408547,1
39,914,18,0.167229520274778,1
39,915,18,0.142893018053829,1
39,916,18,0.10004818280198,1
40,902,18,0.135335576180031,1
40,903,18,0.146117485484035,1
40,904,18,0.144808788404496,1
40,905,18,0.141037594474655,1
40,907,18,0.173095041284222,1
40,908,18,0.183934846452934,1
40,909,18,0.194129801707281,1
40,910,18,0.209508751598293,1
40,911,18,0.199612643577862,1
40,912,18,0.19475664562647,1
40,913,18,0.211189659721496,1
40,914,18,0.216756050281128,1
40,915,18,0.171997688619935,1
40,916,18,0.103478025327803,1
41,903,18,0.135072860758577,1
41,904,18,0.130079405061795,1
41,909,18,0.149979929396691,1
41,910,18,0.166828758890305,1
41,911,18,0.182087200417956,1
41,912,18,0.19170902473691,1
41,913,18,0.194468026843534,1
41,914,18,0.181407634770604,1
41,915,18,0.139299128167234,1
42,910,18,0.166632969563445,1
42,911,18,0.189751915758479,1
42,912,18,0.1753372288469,1
42,913,18,0.148560876154337,1
42,914,18,0.121886818864498,1
42,915,18,0.100032453426883,1
43,909,18,0.159856778736256,1
43,910,18,0.19808009701201,1
43,911,18,0.227826371402606,1
43,912,18,0.188845668465864,1
43,913,18,0.144669947258387,1
43,914,18,0.113373926382772,1
43,916,18,0.10116460896751,1
43,917,18,0.105001312912469,1
43,934,18,0.121347031154293,1
43,935,18,0.132500770249794,1
44,908,18,0.199930651456373,1
44,909,18,0.163803522949377,1
44,910,18,0.179137986159021,1
44,911,18,0.205641896053425,1
44,912,18,0.189082088380751,1
44,913,18,0.170259069811647,1
44,914,18,0.148896301810397,1
44,915,18,0.129980737001113,1
44,916,18,0.146388425059366,1
44,917,18,0.15557853031793,1
44,918,18,0.110594456481268,1
44,933,18,0.127880691139013,1
44,934,18,0.1570301424953,1
44,935,18,0.165318934953575,1
45,911,18,0.142697686229569,1
45,912,18,0.146494195303263,1
45,913,18,0.159395474507748,1
45,914,18,0.16700494096289,1
45,915,18,0.155754832212624,1
45,916,18,0.164880484069217,1
45,917,18,0.159167649105985,1
45,918,18,0.111983586875014,1
45,933,18,0.130697523752831,1
45,934,18,0.149162034570425,1
45,935,18,0.14790979549028,1
46,913,18,0.120721766708365,1
46,914,18,0.140699271302131,1
46,915,18,0.138373698444186,1
46,916,18,0.131195036044234,1
46,917,18,0.121089751299441,1
46,918,18,0.102386805376937,1
46,932,18,0.104227512622485,1
46,933,18,0.130033208192138,1
46,934,18,0.132656430062904,1
47,915,18,0.105839065530148,1
47,918,18,0.103842752936085,1
47,919,18,0.111602400066059,1
47,932,18,0.120411547266969,1
47,933,18,0.132716406475149,1
47,934,18,0.134506766648885,1
48,919,18,0.112210943881257,1
48,920,18,0.10029991816104,1
48,930,18,0.101466582469191,1
48,931,18,0.130142660242671,1
48,932,18,0.141833289531913,1
48,933,18,0.12784320860459,1
49,919,18,0.107742058486779,1
49,930,18,0.116144627484447,1
49,931,18,0.148268542886008,1
49,932,18,0.156505670229268,1
50,920,18,0.11672480613846,1
50,921,18,0.120379761729205,1
50,929,18,0.105162048825852,1
50,930,18,0.115416697276549,1
50,931,18,0.129486993659698,1
51,922,18,0.134334985315594,1
51,929,18,0.107420150943251,1
52,925,18,0.104914289382243,1
52,926,18,0.104916184750156,1
52,929,18,0.112391624729406,1
53,925,18,0.102593291550296,1
53,926,18,0.100870434795862,1
32,922,19,0.104114106442339,1
32,923,19,0.181233805568532,1
33,923,19,0.124539005006996,1
33,924,19,0.11870921277201,1
35,910,19,0.107615667947135,1
35,911,19,0.10657150540653,1
35,912,19,0.107054704402312,1
36,908,19,0.157969613190993,1
36,909,19,0.172741304631253,1
36,910,19,0.181992954882405,1
36,911,19,0.164766511457281,1
36,912,19,0.160311133282415,1
36,913,19,0.124998076187101,1
37,903,19,0.108939843864633,1
37,904,19,0.118966950129462,1
37,905,19,0.128010055445555,1
37,907,19,0.215531620823297,1
37,908,19,0.248028618702046,1
37,909,19,0.300678344670268,3
37,910,19,0.312600818848399,3
37,911,19,0.223532753075513,1
37,912,19,0.178317204709209,1
37,913,19,0.136139985572523,1
38,902,19,0.109372379893951,1
38,903,19,0.128990494409765,1
38,904,19,0.136570136052571,1
38,905,19,0.141595301036684,1
38,906,19,0.172200220663682,1
38,907,19,0.242931386165551,1
38,908,19,0.293307215283764,3
38,909,19,0.353557802301086,3
38,910,19,0.331032247870863,3
38,911,19,0.207594517149211,3
38,912,19,0.150103106525217,1
38,913,19,0.124316691422269,1
39,902,19,0.124565943195787,1
39,903,19,0.14021924214579,1
39,904,19,0.14332677409008,1
39,905,19,0.142396300945516,1
39,906,19,0.158593570486636,1
39,907,19,0.208828663090827,1
39,908,19,0.244745231472742,1
39,909,19,0.268347855951996,3
39,910,19,0.228937013428125,3
39,911,19,0.162290463815691,1
39,912,19,0.14165662817089,1
39,913,19,0.135035487153344,1
39,914,19,0.125523321850385,1
39,915,19,0.100400753912611,1
40,902,19,0.132896956608269,1
40,903,19,0.139687177515185,1
40,904,19,0.137056123635628,1
40,905,19,0.132890562464792,1
40,906,19,0.142019460411259,1
40,908,19,0.176710346649653,1
40,909,19,0.177631255811299,1
40,910,19,0.157405915523491,1
40,911,19,0.15380663364197,1
40,912,19,0.166176109645906,1
40,913,19,0.165627999745553,1
40,914,19,0.157104181666028,1
40,915,19,0.120833615201088,1
41,903,19,0.127902422512502,1
41,904,19,0.123493546209025,1
41,905,19,0.125015178069997,1
41,908,19,0.1305925922637,1
41,909,19,0.133541948130582,1
41,910,19,0.138779078426333,1
41,911,19,0.158482898429169,1
41,912,19,0.169212194934201,1
41,913,19,0.155192354552055,1
41,914,19,0.136188578884369,1
41,915,19,0.104311638636246,1
42,909,19,0.129173473663832,1
42,910,19,0.159966317930142,1
42,911,19,0.1806822752916,1
42,912,19,0.151300314578362,1
42,913,19,0.119142968808261,1
43,908,19,0.179900403348606,1
43,909,19,0.161188220230754,1
43,910,19,0.209144361670501,1
43,911,19,0.239006798149761,1
43,912,19,0.170307205620894,1
43,913,19,0.113703742185525,1
44,907,19,0.204825951059668,1
44,908,19,0.230425182241799,1
44,909,19,0.18101632843986,1
44,910,19,0.201329324047199,1
44,911,19,0.229175699070172,1
44,912,19,0.178455381387257,1
44,913,19,0.13612250243746,1
44,914,19,0.122429678377873,1
44,915,19,0.110595055591816,1
44,916,19,0.110616068032648,1
44,917,19,0.112104661670165,1
44,934,19,0.116884256687396,1
44,935,19,0.129051255112181,1
44,936,19,0.122780528407296,1
45,908,19,0.160028004530676,1
45,909,19,0.136386819118014,1
45,910,19,0.138706901944761,1
45,911,19,0.147736173253671,1
45,912,19,0.138419742812977,1
45,913,19,0.142432574365926,1
45,914,19,0.153055033120993,1
45,915,19,0.137266030185566,1
45,916,19,0.127767328530543,1
45,917,19,0.121183746297854,1
45,934,19,0.119073896808616,1
45,935,19,0.122416944555513,1
45,936,19,0.118005497523143,1
46,912,19,0.102730161078058,1
46,913,19,0.124591094945855,1
46,914,19,0.141835620616588,1
46,915,19,0.13038986414741,1
46,916,19,0.114408546726297,1
46,917,19,0.103370751861078,1
46,933,19,0.10866915482644,1
46,934,19,0.11403977784505,1
46,935,19,0.106316763601814,1
47,914,19,0.102978018557939,1
47,915,19,0.101544630234126,1
47,932,19,0.101009537372028,1
47,933,19,0.111162119171302,1
47,934,19,0.111215254830389,1
47,935,19,0.122664344532794,1
48,931,19,0.103598642620355,1
48,932,19,0.11773447080446,1
48,933,19,0.110168151201642,1
48,934,19,0.117650486398646,1
48,935,19,0.17208528947487,1
49,931,19,0.112488190456713,1
49,932,19,0.123535189838523,1
49,933,19,0.108673457529462,1
50,919,19,0.110990664625582,1
50,920,19,0.122766531006327,1
50,921,19,0.115139113020603,1
50,931,19,0.104056308613903,1
50,932,19,0.110936701104648,1
51,920,19,0.162896480473672,1
51,921,19,0.172461683399446,1
51,922,19,0.117780221064436,1
51,930,19,0.107653411911615,1
51,931,19,0.115536279741792,1
52,922,19,0.120773813075547,1
52,929,19,0.103268238599974,1
53,928,19,0.102498457797117,1
53,929,19,0.1215249996656,1
54,928,19,0.104072092453595,1
31,923,20,0.141519780428966,1
32,922,20,0.100427158348369,1
32,923,20,0.195395994616719,1
32,924,20,0.189319575801704,1
33,923,20,0.129372748724786,1
33,924,20,0.139308430720096,1
33,925,20,0.108132057667238,1
36,908,20,0.127283726496756,1
36,909,20,0.15089533763422,1
36,910,20,0.156063036463998,1
36,911,20,0.126106735701354,1
36,912,20,0.0998365115991566,1
37,904,20,0.10406646081445,1
37,905,20,0.114039135162827,1
37,908,20,0.217393068186702,1
37,909,20,0.290416474214247,3
37,910,20,0.282361966658726,1
37,911,20,0.180363962411356,1
37,912,20,0.118140929185591,1
38,903,20,0.114167170533246,1
38,904,20,0.119409082820456,1
38,905,20,0.12156035808081,1
38,906,20,0.148921268380841,1
38,907,20,0.211391745155562,1
38,908,20,0.279604663847472,3
38,909,20,0.356904019887424,3
38,910,20,0.300259642648134,3
38,911,20,0.173065989869137,1
38,912,20,0.113680202587475,1
39,902,20,0.11265149709899,1
39,903,20,0.127387873695717,1
39,904,20,0.12749278339901,1
39,905,20,0.122731227055712,1
39,906,20,0.138145077859334,1
39,907,20,0.189511966537823,1
39,908,20,0.238376207066421,1
39,909,20,0.257959061203297,3
39,910,20,0.193245819541188,1
39,911,20,0.132300057323527,1
39,912,20,0.11503886548666,1
39,913,20,0.102768765583143,1
40,902,20,0.122128783275177,1
40,903,20,0.128258228820088,1
40,904,20,0.124605277526448,1
40,905,20,0.118330041153079,1
40,906,20,0.127937519497655,1
40,908,20,0.169039204486895,1
40,909,20,0.156728975069628,1
40,910,20,0.12418251244551,1
40,911,20,0.123308965695859,1
40,912,20,0.134559608199158,1
40,913,20,0.122030703432123,1
40,914,20,0.105021410348101,1
41,903,20,0.118610512032571,1
41,904,20,0.114344768685306,1
41,905,20,0.113603298579039,1
41,908,20,0.118370541026077,1
41,909,20,0.117262055798529,1
41,910,20,0.121780689154272,1
41,911,20,0.138119000211147,1
41,912,20,0.139078633699987,1
41,913,20,0.116012583519821,1
42,908,20,0.108679056489849,1
42,909,20,0.120410828334312,1
42,910,20,0.151832019742638,1
42,911,20,0.165936759535797,1
42,912,20,0.127744202863417,1
43,908,20,0.165479398543983,1
43,909,20,0.163107846674762,1
43,910,20,0.210374085086986,1
43,911,20,0.231564407286884,1
43,912,20,0.150044426370338,1
44,907,20,0.209444788377678,1
44,908,20,0.233953769078738,1
44,909,20,0.2055891961111,1
44,910,20,0.231265244158315,1
44,911,20,0.243402243484058,1
44,912,20,0.162823432558576,1
44,913,20,0.108963742929011,1
45,908,20,0.167866124249429,1
45,909,20,0.15957305087397,1
45,910,20,0.161915006682153,1
45,911,20,0.15545027708913,1
45,912,20,0.127547825318929,1
45,913,20,0.12811403925073,1
45,914,20,0.135177040636294,1
45,915,20,0.109566295638736,1
46,913,20,0.12246222641997,1
46,914,20,0.133415045623743,1
46,915,20,0.111312790027491,1
46,937,20,0.100689655911442,1
47,935,20,0.0998719026931239,1
47,936,20,0.117308906243328,1
48,935,20,0.131296340191324,1
48,936,20,0.179658068578679,1
49,935,20,0.147313321029381,1
50,919,20,0.118387054691344,1
50,920,20,0.142477845337464,1
50,921,20,0.113688143525457,1
51,919,20,0.117280976798905,1
51,920,20,0.15384187223507,1
51,921,20,0.14027494853377,1
51,922,20,0.100766930279126,1
52,921,20,0.13370978622718,1
52,922,20,0.106263464548942,1
52,930,20,0.104087745578258,1
52,931,20,0.118532693018935,1
53,928,20,0.102207671323292,1
53,929,20,0.113858508779273,1
54,928,20,0.10873987165686,1
31,911,21,0.10083168868283,1
31,923,21,0.116688031643775,1
31,924,21,0.129130457526535,1
32,923,21,0.169465564231117,1
32,925,21,0.135660838742624,1
33,923,21,0.119497827431891,1
33,924,21,0.155059232188443,1
33,925,21,0.121080100173169,1
36,908,21,0.105494522500851,1
36,909,21,0.125918974455827,1
36,910,21,0.125579355025937,1
37,905,21,0.111275318385986,1
37,907,21,0.14828580816269,1
37,908,21,0.188563672577706,1
37,909,21,0.249318710675861,1
37,910,21,0.221333930223541,1
37,911,21,0.136781534932418,1
38,903,21,0.106166223460654,1
38,904,21,0.112375023920786,1
38,905,21,0.115961441264919,1
38,906,21,0.137314547246979,1
38,907,21,0.186109497917552,1
38,908,21,0.267152880947255,1
38,909,21,0.322061144749637,3
38,910,21,0.242384300199587,1
38,911,21,0.140499309987277,1
39,902,21,0.105412248283327,1
39,903,21,0.120117634525379,1
39,904,21,0.120211204699949,1
39,905,21,0.115957835708716,1
39,906,21,0.130706652018988,1
39,907,21,0.175473662657901,1
39,908,21,0.228459053926401,1
39,909,21,0.226230297332902,1
39,910,21,0.156872162490434,1
39,911,21,0.113458989187571,1
40,902,21,0.115639119790467,1
40,903,21,0.123184350702019,1
40,904,21,0.120118505958902,1
40,905,21,0.114487062886751,1
40,907,21,0.144199068154041,1
40,908,21,0.155628888282661,1
40,909,21,0.132551520359611,1
40,910,21,0.104826634062712,1
40,911,21,0.104337367711023,1
40,912,21,0.108026657782588,1
41,903,21,0.113526089568869,1
41,904,21,0.110493903945592,1
41,907,21,0.109118052020159,1
41,908,21,0.105446266869495,1
41,909,21,0.104640005680766,1
41,910,21,0.115531160069842,1
41,911,21,0.122306958751946,1
41,912,21,0.109751497048287,1
42,909,21,0.11902097900791,1
42,910,21,0.152590972983968,1
42,911,21,0.15376456518863,1
42,912,21,0.10972565904432,1
43,908,21,0.137883124942213,1
43,909,21,0.164222061577726,1
43,910,21,0.208855067526585,1
43,911,21,0.207942284482544,1
43,912,21,0.129197906481243,1
44,907,21,0.187125262618215,1
44,908,21,0.201359954935545,1
44,909,21,0.222687963632133,1
44,910,21,0.25287424659451,1
44,911,21,0.231251802296217,1
44,912,21,0.14271802330942,1
45,908,21,0.153928895765297,1
45,909,21,0.174830817040639,1
45,910,21,0.179287437008277,1
45,911,21,0.152722831768971,1
45,912,21,0.119380074977048,1
45,913,21,0.117095862532706,1
45,914,21,0.113065242842961,1
46,913,21,0.118607668980701,1
46,914,21,0.118967124416167,1
47,937,21,0.0999233390568401,1
48,936,21,0.11962541619263,1
48,937,21,0.153382234623176,1
49,920,21,0.101915751985886,1
49,935,21,0.115457251614142,1
49,936,21,0.166034370983332,1
50,919,21,0.120720176342185,1
50,920,21,0.151935001399261,1
50,921,21,0.10700253821302,1
50,935,21,0.124958589355574,1
51,919,21,0.110067467950937,1
51,920,21,0.137478485678561,1
51,921,21,0.109647382528084,1
52,931,21,0.100998568202553,1
52,932,21,0.105577831545684,1
53,929,21,0.10140553855088,1
53,930,21,0.104632663853332,1
53,931,21,0.108452374844586,1
54,928,21,0.101955184352818,1
54,929,21,0.110901211974409,1
30,910,22,0.106394375649988,1
30,911,22,0.107297158994348,1
31,909,22,0.101201884536471,1
31,910,22,0.108349970512672,1
31,911,22,0.10919479263481,1
31,925,22,0.107340741563435,1
32,908,22,0.102612964162086,1
32,909,22,0.102484645575772,1
32,910,22,0.10119678665036,1
33,908,22,0.102424494876822,1
33,923,22,0.105763120098588,1
33,925,22,0.135684106017698,1
37,907,22,0.114444809253787,1
37,908,22,0.146899052425296,1
37,909,22,0.181670143226596,1
37,910,22,0.152392830786595,1
38,904,22,0.101559564426133,1
38,905,22,0.105922298324548,1
38,906,22,0.118093446951487,1
38,907,22,0.149724130978828,1
38,908,22,0.219739119732445,1
38,909,22,0.2427545940895,1
38,910,22,0.172907149323667,1
38,911,22,0.106617680490348,1
39,903,22,0.109850034393941,1
39,904,22,0.108992620057391,1
39,905,22,0.103348606556666,1
39,906,22,0.115645601077297,1
39,907,22,0.148699434084551,1
39,908,22,0.19015702341765,1
39,909,22,0.173316614150454,1
39,910,22,0.120474562803627,1
40,902,22,0.108182731526621,1
40,903,22,0.116406547722811,1
40,904,22,0.112304448698314,1
40,905,22,0.105758937217675,1
40,907,22,0.122877682352231,1
40,908,22,0.126821431012616,1
40,909,22,0.103969775265033,1
41,903,22,0.107629926778161,1
41,904,22,0.104687498807789,1
41,910,22,0.108316714430837,1
41,911,22,0.101458020634824,1
42,909,22,0.123075258117814,1
42,910,22,0.153467961896036,1
42,911,22,0.134113336198928,1
43,908,22,0.124448092704672,1
43,909,22,0.173847948955483,1
43,910,22,0.207636520245037,1
43,911,22,0.172957801397212,1
43,912,22,0.105174641040265,1
44,908,22,0.16562029845179,1
44,909,22,0.231053660098844,1
44,910,22,0.253703480949498,1
44,911,22,0.193309216330012,1
44,912,22,0.11601872712616,1
45,909,22,0.179578092767073,1
45,910,22,0.181569536226325,1
45,911,22,0.138565947572358,1
45,912,22,0.107493699932622,1
45,913,22,0.0997377890738793,1
46,913,22,0.10341484639736,1
47,938,22,0.109070090497617,1
48,937,22,0.122733122423625,1
48,938,22,0.190112514950444,1
49,936,22,0.125955280554994,1
49,937,22,0.188565415444753,1
50,919,22,0.115180048610363,1
50,920,22,0.144216605753699,1
50,936,22,0.155929892314548,1
51,920,22,0.1202044837689,1
54,928,22,0.101950337003844,1
30,910,23,0.103029378671222,1
30,911,23,0.104027627558065,1
31,910,23,0.1039340029189,1
31,911,23,0.103142773958449,1
32,910,23,0.101841636564725,1
37,908,23,0.108854508736858,1
37,909,23,0.120385142831211,1
38,907,23,0.118280598193547,1
38,908,23,0.162439271982724,1
38,909,23,0.161698989204632,1
38,910,23,0.115777753971114,1
39,907,23,0.121907395588568,1
39,908,23,0.144930560346466,1
39,909,23,0.12673042067402,1
40,903,23,0.103352952831363,1
40,906,23,0.100371125172817,1
40,907,23,0.104615877865088,1
40,908,23,0.10077313924298,1
41,910,23,0.100179115688864,1
42,909,23,0.135960001871192,1
42,910,23,0.149775905023035,1
42,911,23,0.111836205680376,1
43,908,23,0.121544182096033,1
43,909,23,0.180747687270447,1
43,910,23,0.194338618965316,1
43,911,23,0.136658216195944,1
44,908,23,0.134154903577992,1
44,909,23,0.207370362661165,1
44,910,23,0.21706449417672,1
44,911,23,0.146467224435715,1
44,940,23,0.100217240905511,1
45,909,23,0.154970977758365,1
45,910,23,0.155092412019845,1
45,911,23,0.113897516322362,1
47,939,23,0.121937819511452,1
48,937,23,0.100364349777173,1
48,938,23,0.158638111632598,1
48,939,23,0.210340229894604,1
49,937,23,0.14100581982981,1
49,938,23,0.184734953142404,1
50,919,23,0.103949547114372,1
50,920,23,0.11886907725187,1
50,936,23,0.114058742417102,1
50,937,23,0.165048855918849,1
51,920,23,0.100520107626554,1
54,927,23,0.107049867946257,1
54,928,23,0.107495834944754,1
55,927,23,0.1065650241197,1
55,928,23,0.108313359411772,1
31,926,24,0.1229837793837,1
38,908,24,0.105896994073613,1
39,908,24,0.101649812260396,1
42,909,24,0.129307739783943,1
42,910,24,0.122475570245797,1
43,908,24,0.113170871478911,1
43,909,24,0.160358866053657,1
43,910,24,0.153402342951727,1
44,908,24,0.104438769894385,1
44,909,24,0.153331484513359,1
44,910,24,0.152703682017295,1
44,911,24,0.100000308422791,1
44,940,24,0.103937499545912,1
45,909,24,0.113209399733563,1
45,910,24,0.112324763992327,1
47,939,24,0.10140871928324,1
47,940,24,0.127923424060415,1
48,938,24,0.113386387882156,1
48,939,24,0.164306013304783,1
48,940,24,0.19907747446533,1
49,938,24,0.126690715984112,1
49,939,24,0.15323369877912,1
50,937,24,0.101768196504544,1
50,938,24,0.121667903870512,1
30,923,25,0.104759021714219,1
38,936,25,0.0999016839337847,1
42,909,25,0.112878244101768,1
43,909,25,0.125431723294161,1
43,910,25,0.108606825543682,1
44,909,25,0.100187307163984,1
47,940,25,0.118974509815277,1
47,941,25,0.11320033682492,1
48,939,25,0.12264767836666,1
48,940,25,0.18044577912628,1
48,941,25,0.159017435752396,1
49,939,25,0.111772591033171,1
49,940,25,0.135223390006818,1
30,923,26,0.140974524473402,1
32,923,26,0.119365424000936,1
32,926,26,0.155045790326345,1
37,936,26,0.144435586105199,1
38,937,26,0.139790671139003,1
48,940,26,0.133946685430505,1
48,941,26,0.125666433020758,1
49,940,26,0.103431011489218,1
29,923,27,0.116558307870904,1
31,922,27,0.101383273424358,1
31,926,27,0.121607764064481,1
32,923,27,0.114555426846659,1
32,925,27,0.121311748989516,1
32,926,27,0.117727858802601,1
37,936,27,0.118799460606273,1
37,937,27,0.192529479399151,1
38,937,27,0.119326797710013,1
38,938,27,0.136005708559493,1
29,923,28,0.161001853278866,1
31,922,28,0.102278061366141,1
31,923,28,0.160881018127933,1
31,925,28,0.125527722589678,1
32,923,28,0.103565419217277,1
37,937,28,0.134418283467508,1
38,938,28,0.10721288047972,1
39,939,28,0.101585206357558,1
45,944,28,0.137502330278344,1
28,923,29,0.110561657902033,1
29,922,29,0.119526639202757,1
31,922,29,0.101581796873898,1
39,940,29,0.128883536837692,1
44,944,29,0.118368885302382,1
45,944,29,0.135224697157103,1
46,944,29,0.100743739254485,1
28,923,30,0.126816137053961,1
38,939,30,0.101432749062646,1
39,941,30,0.100386244544447,1
