x,y,z,signal,mito.p
3,349,1,0.100819586649775,1
3,387,1,0.0997445426836853,1
3,388,1,0.114763743030417,1
4,349,1,0.110432380738843,1
4,386,1,0.118278332466387,1
4,387,1,0.15689085473951,1
4,388,1,0.181612007717669,1
4,389,1,0.206438364507935,1
4,390,1,0.207951129532807,1
4,391,1,0.186788061416352,1
5,386,1,0.134876330713222,1
5,387,1,0.212198714384029,1
5,388,1,0.263903937127961,1
5,389,1,0.298781517105816,1
5,390,1,0.301632825808401,2
5,391,1,0.266687491874106,1
5,392,1,0.224233559914996,1
6,386,1,0.109385767291453,1
6,387,1,0.195573636340455,1
6,388,1,0.258909032672946,1
6,389,1,0.30195018011177,1
6,390,1,0.33709762126597,2
6,391,1,0.343152929603881,2
6,392,1,0.315882245352276,2
6,393,1,0.264222228222367,1
7,387,1,0.115362352503449,1
7,388,1,0.160679194123924,1
7,389,1,0.216199400332246,1
7,390,1,0.30062954439296,2
7,391,1,0.373374200622221,2
7,392,1,0.380824957246922,2
7,393,1,0.317434595244945,2
7,394,1,0.228445350634247,1
8,389,1,0.114568040846909,1
8,390,1,0.185314706972574,1
8,391,1,0.270653843341503,2
8,392,1,0.312239718582158,2
8,393,1,0.283533282243308,1
9,391,1,0.167786039508632,1
9,392,1,0.224954845442279,1
9,393,1,0.232485817522805,1
9,394,1,0.207866230121794,1
10,392,1,0.144510246172313,1
10,393,1,0.170253416386665,1
10,394,1,0.16837162105049,1
11,393,1,0.116751232360056,1
11,394,1,0.12523333055965,1
12,394,1,0.104739022314858,1
12,395,1,0.118460712609906,1
13,394,1,0.102701676094764,1
13,395,1,0.145684099807032,1
14,395,1,0.161216705214049,1
15,395,1,0.140397428515478,1
16,395,1,0.131011359643349,1
19,394,1,0.0999731196968618,1
21,393,1,0.100854977743742,1
23,352,1,0.121336127342332,1
23,353,1,0.138511526548824,1
23,354,1,0.107692343204271,1
23,391,1,0.109841940955093,1
23,392,1,0.136005773917007,1
24,352,1,0.122759407037273,1
24,353,1,0.167037695970449,1
24,354,1,0.152298944717372,1
24,390,1,0.124115335813778,1
24,391,1,0.183551470167252,1
25,353,1,0.144494211795483,1
25,354,1,0.163329898829432,1
25,355,1,0.128470313953835,1
25,389,1,0.105335747312895,1
25,390,1,0.182970692402692,1
26,353,1,0.100631280758296,1
26,354,1,0.140272377804876,1
26,355,1,0.141777245463442,1
27,355,1,0.115512446034928,1
27,386,1,0.104436024878786,1
29,381,1,0.116516784063516,1
29,382,1,0.128855389534888,1
31,366,1,0.108021657932748,1
31,367,1,0.125542166600328,1
3,388,2,0.107511520748175,1
4,349,2,0.116482482261453,1
4,386,2,0.114974858694369,1
4,387,2,0.166329144265527,1
4,388,2,0.177887936555604,1
4,389,2,0.187626729039231,1
4,390,2,0.198427493986096,2
4,391,2,0.183669930661834,1
4,392,2,0.148335294693898,1
5,386,2,0.130915349454913,1
5,387,2,0.226675730578366,1
5,388,2,0.26311078012084,1
5,389,2,0.288739836115308,2
5,390,2,0.312647963402013,2
5,391,2,0.274712305332318,2
5,392,2,0.218311929479568,2
5,393,2,0.196434438374827,1
6,387,2,0.185230482922542,1
6,388,2,0.243867109697093,1
6,389,2,0.290481897086013,2
6,390,2,0.344131745523154,2
6,391,2,0.34869389609047,2
6,392,2,0.308601113262896,2
6,393,2,0.272222510826897,2
6,394,2,0.216590978985966,1
7,388,2,0.140256953431513,1
7,389,2,0.196668679705905,1
7,390,2,0.287154916394703,2
7,391,2,0.374618302691842,2
7,392,2,0.383310459942241,2
7,393,2,0.330228437588919,2
7,394,2,0.253902930297156,2
7,395,2,0.169887980738645,1
8,390,2,0.15852405187731,1
8,391,2,0.240389153147862,2
8,392,2,0.282996174191187,2
8,393,2,0.272284034033646,2
8,394,2,0.242647451337803,1
9,391,2,0.136779225633581,1
9,392,2,0.191316269647933,1
9,393,2,0.217289215096556,1
9,394,2,0.218944459502496,1
10,392,2,0.121204290343167,1
10,393,2,0.156353093112247,1
10,394,2,0.171134065319531,1
10,395,2,0.158364143825774,1
11,393,2,0.103467927591851,1
11,394,2,0.115760662981137,1
11,395,2,0.116683914120377,1
12,395,2,0.105253200772395,1
13,395,2,0.127559251991004,1
14,395,2,0.145228100430097,1
15,395,2,0.118602353236209,1
16,395,2,0.114504785666032,1
17,395,2,0.127505571685965,1
23,352,2,0.117900566034011,1
23,353,2,0.132297617309662,1
23,354,2,0.100700374543779,1
23,391,2,0.110392676048935,1
23,392,2,0.131440028686407,1
24,352,2,0.112930453862736,1
24,353,2,0.158703959328207,1
24,354,2,0.149138418721942,1
24,390,2,0.1141822463332,1
24,391,2,0.191929410274967,1
25,353,2,0.135044931314153,1
25,354,2,0.163397445820412,1
25,355,2,0.130781508158644,1
25,390,2,0.150924225655519,1
26,354,2,0.143021096995925,1
26,355,2,0.154164934428017,1
26,356,2,0.10695591651952,1
27,355,2,0.123998182469482,1
27,356,2,0.103827023560989,1
29,381,2,0.10742118577056,1
29,382,2,0.119408178708176,1
31,367,2,0.120754979218524,1
3,387,3,0.102878500849572,1
3,388,3,0.110561995582523,1
4,349,3,0.114994738271621,1
4,350,3,0.105155828969079,1
4,386,3,0.115679750378494,1
4,387,3,0.192065876764725,1
4,388,3,0.199187100802569,1
4,389,3,0.183450372985624,1
4,390,3,0.203820120701171,2
4,391,3,0.194893700333856,2
4,392,3,0.14903099275435,1
5,386,3,0.127614871235632,1
5,387,3,0.241543083633653,1
5,388,3,0.26891949455748,1
5,389,3,0.277387431962319,2
5,390,3,0.337540287709997,2
5,391,3,0.31232167690503,2
5,392,3,0.23435885495207,2
5,393,3,0.209887759823439,2
5,394,3,0.187834043074437,1
6,387,3,0.163997373336648,1
6,388,3,0.219693935904259,1
6,389,3,0.278304027528024,2
6,390,3,0.369339419837403,2
6,391,3,0.384456133595398,2
6,392,3,0.32610100163473,2
6,393,3,0.297527851053276,2
6,394,3,0.258078447595997,2
6,395,3,0.160320228869815,1
7,388,3,0.121408543468123,1
7,389,3,0.181447219638402,1
7,390,3,0.274743720510835,2
7,391,3,0.367536816022663,2
7,392,3,0.373994094859061,2
7,393,3,0.336714582660778,2
7,394,3,0.282196285360097,2
7,395,3,0.190957674753072,1
8,390,3,0.143316730818723,1
8,391,3,0.219991944383409,2
8,392,3,0.261275257904755,2
8,393,3,0.267374137918835,2
8,394,3,0.26211351159671,1
8,395,3,0.218151389638727,1
9,391,3,0.117920848649268,1
9,392,3,0.165721482776771,1
9,393,3,0.20764318671149,1
9,394,3,0.239131478501115,1
10,392,3,0.105135110637061,1
10,393,3,0.148435912587088,1
10,394,3,0.183733011556006,1
10,395,3,0.176048721639964,1
11,394,3,0.115215733813144,1
11,395,3,0.120167948918434,1
12,349,3,0.102415257681474,1
13,395,3,0.113188256577702,1
14,395,3,0.127624239146008,1
14,396,3,0.226300796304942,1
15,395,3,0.103844027407613,1
15,396,3,0.180878838015712,1
16,395,3,0.104200694255804,1
17,395,3,0.119179884910894,1
18,395,3,0.116311387182061,1
23,352,3,0.108961945597369,1
23,353,3,0.119652180094716,1
24,353,3,0.139554055151573,1
24,354,3,0.145234864932822,1
25,353,3,0.118170089529867,1
25,354,3,0.161171401563754,1
25,355,3,0.138759710816276,1
26,354,3,0.141018597223846,1
26,355,3,0.166928134990725,1
26,356,3,0.122168389928814,1
27,355,3,0.133782311282162,1
27,356,3,0.117305790868482,1
29,382,3,0.111931137469826,1
31,367,3,0.102337961527952,1
3,387,4,0.108586455785073,1
3,388,4,0.112632685027805,1
4,349,4,0.104128289022932,1
4,386,4,0.112703271143197,1
4,387,4,0.201801902446915,1
4,388,4,0.209729551067273,1
4,389,4,0.1781524493087,1
4,390,4,0.204622710976183,2
4,391,4,0.197093394619351,2
4,392,4,0.15038243364821,1
4,393,4,0.129522123323608,1
5,386,4,0.11661451533316,1
5,387,4,0.233370017547279,1
5,388,4,0.261275824336545,1
5,389,4,0.26236627089016,2
5,390,4,0.348412510205778,2
5,391,4,0.340626818106375,2
5,392,4,0.262988517997513,2
5,393,4,0.237890883951426,2
5,394,4,0.223930126762163,2
6,387,4,0.141777256356361,1
6,388,4,0.195511568487754,1
6,389,4,0.262188607380586,2
6,390,4,0.379116555396057,2
6,391,4,0.409848442887408,2
6,392,4,0.362658378658045,2
6,393,4,0.345866355737234,2
6,394,4,0.32100257087714,2
6,395,4,0.201107674930533,2
7,388,4,0.109038958534995,1
7,389,4,0.168939610528095,1
7,390,4,0.253710299916818,2
7,391,4,0.332789558928227,2
7,392,4,0.349245295652374,2
7,393,4,0.341402611800543,2
7,394,4,0.318235486224587,2
7,395,4,0.223891326184536,2
8,390,4,0.126462160756774,1
8,391,4,0.188467008814127,2
8,392,4,0.231590267076689,2
8,393,4,0.259015238633605,2
8,394,4,0.280017636194191,2
8,395,4,0.241513672752239,1
9,391,4,0.0997885391836958,1
9,392,4,0.142399655964581,1
9,393,4,0.196218998222015,1
9,394,4,0.255091783481396,1
9,395,4,0.248931140616348,1
10,393,4,0.138737129795102,1
10,394,4,0.191283830535026,1
10,395,4,0.198714609546204,1
11,394,4,0.114852683714395,1
11,395,4,0.129249865705073,1
13,395,4,0.105811953054653,1
13,396,4,0.177630950809566,1
14,395,4,0.112446350754673,1
14,396,4,0.201388254739216,1
14,397,4,0.234189971135244,1
15,396,4,0.163483129521596,1
15,397,4,0.214610602732462,1
16,396,4,0.188411433141175,1
17,395,4,0.10565132607046,1
17,396,4,0.21140303021969,1
18,395,4,0.1011015062875,1
23,352,4,0.100388499378689,1
23,353,4,0.110967321100075,1
24,353,4,0.130286087307697,1
24,354,4,0.15118925037581,1
24,355,4,0.110705215682087,1
25,353,4,0.112138560434224,1
25,354,4,0.169711308484703,1
25,355,4,0.159678799332029,1
25,356,4,0.104258328690455,1
26,354,4,0.143492052350704,1
26,355,4,0.185201682044595,1
26,356,4,0.144878568443879,1
27,355,4,0.143461573963224,1
27,356,4,0.131378309407115,1
28,384,4,0.101343928200778,1
29,382,4,0.106165057918317,1
3,387,5,0.119071870725674,1
3,388,5,0.12408758065606,1
4,386,5,0.109497746499205,1
4,387,5,0.19816161961812,1
4,388,5,0.222832534453657,1
4,389,5,0.190285973793268,1
4,390,5,0.207183549099596,2
4,391,5,0.190591171598986,2
4,392,5,0.147294476279438,1
4,393,5,0.129443291268501,1
5,386,5,0.101073718451023,1
5,387,5,0.2021795599501,1
5,388,5,0.251458472120788,1
5,389,5,0.261816635981141,2
5,390,5,0.343369611549464,2
5,391,5,0.342572925236573,2
5,392,5,0.279993976774032,2
5,393,5,0.252621574444412,2
5,394,5,0.231225898934736,2
6,387,5,0.116530389319399,1
6,388,5,0.174324633985678,1
6,389,5,0.242618519744827,2
6,390,5,0.351790186542309,2
6,391,5,0.39056078685657,2
6,392,5,0.374524057156291,2
6,393,5,0.37445856892701,2
6,394,5,0.355038847145707,2
6,395,5,0.220496112248347,2
7,388,5,0.0998608790590535,1
7,389,5,0.154907864185436,1
7,390,5,0.219909877131347,2
7,391,5,0.273755209893615,2
7,392,5,0.304945776419985,2
7,393,5,0.328942724568558,2
7,394,5,0.333518099139591,2
7,395,5,0.243581824147384,2
7,396,5,0.139548826550433,1
8,390,5,0.11051029778875,1
8,391,5,0.15476114745886,1
8,392,5,0.199737585359273,2
8,393,5,0.241959955645388,2
8,394,5,0.278535393128475,2
8,395,5,0.254467052788501,1
8,396,5,0.171038708706238,1
9,392,5,0.128138308674355,1
9,393,5,0.184374136092058,1
9,394,5,0.255591463463689,1
9,395,5,0.280122796434622,1
9,396,5,0.210128471548428,1
10,393,5,0.128811959466667,1
10,394,5,0.193065062442606,1
10,395,5,0.234826531538218,1
11,394,5,0.118146549931817,1
11,395,5,0.148322833194514,1
11,396,5,0.155879708636521,1
12,395,5,0.101559063351857,1
12,396,5,0.131405367418015,1
13,396,5,0.155231590846444,1
13,397,5,0.206873493051985,1
14,396,5,0.163343776408292,1
15,396,5,0.143873293624253,1
16,396,5,0.162945945219041,1
16,397,5,0.265542646082796,1
17,396,5,0.17163549906179,1
17,397,5,0.267972289889267,1
18,396,5,0.136877654050044,1
24,353,5,0.111834255847867,1
24,354,5,0.139500919492486,1
24,355,5,0.112645734744817,1
25,354,5,0.157097787522551,1
25,355,5,0.161914342214092,1
25,356,5,0.107089463706975,1
26,354,5,0.127551191230913,1
26,355,5,0.17428538679837,1
26,356,5,0.144994109636157,1
27,355,5,0.133339764660244,1
27,356,5,0.128650657121494,1
27,386,5,0.100242643192717,1
28,384,5,0.123177215840047,1
28,385,5,0.149386613882313,1
28,386,5,0.157034619485026,1
29,382,5,0.106869492099841,1
29,383,5,0.119611854508422,1
29,384,5,0.136081784706082,1
3,387,6,0.115466042199809,1
3,388,6,0.125483333944582,1
3,389,6,0.108870085611088,1
4,386,6,0.100157231814509,1
4,387,6,0.174962283680557,1
4,388,6,0.227660058314674,1
4,389,6,0.215092897615963,1
4,390,6,0.207116121930726,2
4,391,6,0.178612555316113,2
4,392,6,0.136977291580521,1
4,393,6,0.117696367373651,1
5,387,6,0.170554627384013,1
5,388,6,0.256335101260845,1
5,389,6,0.287216069242204,2
5,390,6,0.331339537117037,2
5,391,6,0.320441193401393,2
5,392,6,0.268919559914994,2
5,393,6,0.242377067301343,2
5,394,6,0.206201269232068,2
6,387,6,0.102902683129845,1
6,388,6,0.17186073194882,1
6,389,6,0.235315819675744,2
6,390,6,0.309422395786984,2
6,391,6,0.344093511377317,2
6,392,6,0.357095147044935,2
6,393,6,0.382909121233059,2
6,394,6,0.350580811098595,2
6,395,6,0.207708152080657,2
7,389,6,0.138934640203171,1
7,390,6,0.183321978148876,2
7,391,6,0.221195306935813,2
7,392,6,0.266145307721711,2
7,393,6,0.322614526822807,2
7,394,6,0.332057053694331,2
7,395,6,0.240261858495937,2
7,396,6,0.147776640447912,1
8,391,6,0.12629756875005,1
8,392,6,0.172639368694859,1
8,393,6,0.227674741969542,2
8,394,6,0.264876849085113,2
8,395,6,0.251994142307595,1
8,396,6,0.190873472488877,1
9,392,6,0.110504949365501,1
9,393,6,0.16516686980375,1
9,394,6,0.232946784070823,1
9,395,6,0.28996971203266,1
9,396,6,0.254267886656738,1
9,397,6,0.163741901706357,1
10,393,6,0.113168997896836,1
10,394,6,0.175684963501477,1
10,395,6,0.248552393821259,1
10,396,6,0.245243778591454,1
10,397,6,0.176783242063882,1
11,394,6,0.111826641697457,1
11,395,6,0.15384289616946,1
11,396,6,0.1705340833387,1
12,396,6,0.129752029272908,1
13,396,6,0.128928219591602,1
14,396,6,0.123657462854769,1
14,397,6,0.164380303012649,1
15,396,6,0.116310417712266,1
16,396,6,0.128507578629878,1
17,396,6,0.133392508174245,1
24,354,6,0.119504101753259,1
24,355,6,0.106836715306444,1
25,354,6,0.134481919900551,1
25,355,6,0.153410066031328,1
25,356,6,0.104061755073424,1
26,354,6,0.1077650098672,1
26,355,6,0.154026289354451,1
26,356,6,0.135542018781714,1
27,355,6,0.121153714520055,1
27,356,6,0.125928636475017,1
27,386,6,0.105486320132812,1
27,387,6,0.104784097213853,1
28,384,6,0.135556724222421,1
28,385,6,0.170651214897158,1
28,386,6,0.176468262416865,1
29,382,6,0.118448131288413,1
29,383,6,0.14953275328418,1
29,384,6,0.165907599191522,1
30,382,6,0.138934378773114,1
3,387,7,0.0996987379591139,1
3,388,7,0.113073859141923,1
3,389,7,0.104422953375936,1
4,387,7,0.141652684934197,1
4,388,7,0.213242669959172,1
4,389,7,0.220834010597029,1
4,390,7,0.183602873852211,1
4,391,7,0.156944633080821,1
4,392,7,0.128135748838381,1
4,393,7,0.112301257073034,1
5,387,7,0.141131970725234,1
5,388,7,0.256491632507478,1
5,389,7,0.30482031177846,1
5,390,7,0.294864488775841,2
5,391,7,0.278582014821975,2
5,392,7,0.241490688693061,2
5,393,7,0.22510115913085,2
5,394,7,0.17385958259302,2
6,388,7,0.173326755458082,1
6,389,7,0.232136198393234,1
6,390,7,0.260659677263856,2
6,391,7,0.282916525167152,2
6,392,7,0.314175237795048,2
6,393,7,0.373759592097926,2
6,394,7,0.32230170397376,2
6,395,7,0.181273542937197,2
7,389,7,0.127492304110572,1
7,390,7,0.154562319007587,1
7,391,7,0.180859503084412,1
7,392,7,0.235436535004567,2
7,393,7,0.327066549978609,2
7,394,7,0.328860178028058,2
7,395,7,0.227890291051545,2
7,396,7,0.153678641843227,1
8,391,7,0.104499367203015,1
8,392,7,0.153423932717269,1
8,393,7,0.222429496449105,2
8,394,7,0.256046939980509,2
8,395,7,0.243411132105997,1
8,396,7,0.222965014135046,1
8,397,7,0.164752383341284,1
9,393,7,0.153272248819609,1
9,394,7,0.210623990435647,1
9,395,7,0.284495780569855,1
9,396,7,0.31612676959893,3
9,397,7,0.232635987304717,1
9,398,7,0.167122377523082,1
10,393,7,0.104800981238368,1
10,394,7,0.161106850125511,1
10,395,7,0.246195994002426,1
10,396,7,0.285562654846663,1
10,397,7,0.219755154109275,1
10,398,7,0.177679358941788,1
10,399,7,0.150531971640818,1
11,394,7,0.111505703623724,1
11,395,7,0.162653938738284,1
11,396,7,0.189431576795293,1
11,397,7,0.177112502327764,1
11,398,7,0.167955555114763,1
11,399,7,0.14893662739669,1
12,395,7,0.107012330947239,1
12,396,7,0.135989129536711,1
12,397,7,0.166853975997888,1
12,398,7,0.181873590275543,1
13,396,7,0.113218604250153,1
13,397,7,0.154335125395129,1
14,397,7,0.12775599989474,1
16,396,7,0.101028839624571,1
17,396,7,0.108546827345599,1
18,396,7,0.10165282959897,1
21,394,7,0.127180025907477,1
22,393,7,0.101917429495419,1
24,354,7,0.101730365396711,1
24,355,7,0.101744537084385,1
25,354,7,0.113601054637716,1
25,355,7,0.139438263422157,1
26,355,7,0.135010956299662,1
26,356,7,0.124274132787572,1
27,355,7,0.115158578666931,1
27,356,7,0.129725842695531,1
27,386,7,0.106207867090152,1
27,387,7,0.110271557682108,1
28,383,7,0.1048590622827,1
28,384,7,0.139123991814878,1
28,385,7,0.178177383200387,1
28,386,7,0.183744547157271,1
29,382,7,0.130670465741931,1
29,383,7,0.178288349366667,1
29,384,7,0.187242492212945,1
29,385,7,0.186840892073705,1
30,382,7,0.146375266413163,1
30,383,7,0.179485165274726,1
4,387,8,0.114202060552937,1
4,388,8,0.182482874809236,1
4,389,8,0.205353190127137,1
4,390,8,0.15675350592331,1
4,393,8,0.114159741562459,1
5,387,8,0.118440114099998,1
5,388,8,0.237381988559624,1
5,389,8,0.302055819640639,1
5,390,8,0.256859181381792,1
5,391,8,0.241464828903255,1
5,392,8,0.222586398054985,1
5,393,8,0.212143400141134,2
5,394,8,0.150266696383389,1
6,388,8,0.165610462145895,1
6,389,8,0.231509114829827,1
6,390,8,0.229723678255497,1
6,391,8,0.239291212265946,1
6,392,8,0.273802746592315,2
6,393,8,0.346528449142442,2
6,394,8,0.280711536923002,2
6,395,8,0.157796546493254,1
7,389,8,0.116941934693724,1
7,390,8,0.13395901621486,1
7,391,8,0.154387912480806,1
7,392,8,0.215985506973938,2
7,393,8,0.33366227781603,2
7,394,8,0.323645236608396,2
7,395,8,0.213899512977402,2
7,396,8,0.144619338756518,1
7,397,8,0.111509483466631,1
8,392,8,0.139518685843444,1
8,393,8,0.223564952544201,2
8,394,8,0.252406613580038,2
8,395,8,0.230054910137725,1
8,396,8,0.238285708695021,3
8,397,8,0.206107807986688,1
8,398,8,0.146699396112176,1
9,393,8,0.144008605464593,1
9,394,8,0.190369348195616,1
9,395,8,0.258592462659749,3
9,396,8,0.351377039908886,3
9,397,8,0.300435389003957,3
9,398,8,0.201365597467608,1
9,399,8,0.142701041248634,1
10,394,8,0.142404971709073,1
10,395,8,0.222159962060331,1
10,396,8,0.295003874567902,3
10,397,8,0.251517751386214,1
10,398,8,0.208021628504846,1
10,399,8,0.178398226241043,1
10,400,8,0.138392227299477,1
11,394,8,0.104225682612086,1
11,395,8,0.165167512485973,1
11,396,8,0.198511543749424,1
11,397,8,0.19251902219687,1
11,398,8,0.200283930606742,1
11,399,8,0.183061408632473,1
11,400,8,0.140425249030711,1
12,395,8,0.114911614406412,1
12,396,8,0.142772302725006,1
12,397,8,0.168423678310591,1
12,398,8,0.191542493790597,1
12,399,8,0.165760849786189,1
13,396,8,0.103344314746563,1
13,397,8,0.131351000859077,1
13,398,8,0.146465601390778,1
25,355,8,0.119530887441184,1
26,355,8,0.119052622937727,1
26,356,8,0.115183283807318,1
27,356,8,0.131625840099425,1
27,357,8,0.110272755903202,1
27,386,8,0.105468793426074,1
28,383,8,0.102137205030009,1
28,384,8,0.1354967042385,1
28,385,8,0.175064731584146,1
29,382,8,0.129281945351652,1
29,383,8,0.183761768862276,1
4,388,9,0.146512626122282,1
4,389,9,0.174542840939927,1
4,390,9,0.135479155745923,1
5,388,9,0.201202813685445,1
5,389,9,0.27908655304616,1
5,390,9,0.22754184835723,1
5,391,9,0.196761661662847,1
5,392,9,0.205713920034131,1
5,393,9,0.208672327916737,1
5,394,9,0.142171547346923,1
6,388,9,0.149959145707159,1
6,389,9,0.234102653496203,1
6,390,9,0.221164719619143,1
6,391,9,0.202457155098965,1
6,392,9,0.239994480905133,1
6,393,9,0.308094941100854,2
6,394,9,0.23982635959264,1
6,395,9,0.134503346272306,1
7,389,9,0.114467880456318,1
7,390,9,0.126854730666127,1
7,391,9,0.13634649353172,1
7,392,9,0.198214624562178,1
7,393,9,0.320745781203645,2
7,394,9,0.308987245457095,2
7,395,9,0.193032100469585,1
7,396,9,0.126967592200321,1
7,397,9,0.114397686486012,1
8,392,9,0.133312761113939,1
8,393,9,0.231221323908738,1
8,394,9,0.261791865483239,1
8,395,9,0.215185661714525,1
8,396,9,0.227301877350736,3
8,397,9,0.225109982395274,1
8,398,9,0.155019157139287,1
8,399,9,0.114913596917677,1
9,393,9,0.147931690257555,1
9,394,9,0.192065092474554,1
9,395,9,0.232007139088425,3
9,396,9,0.343144955987143,3
9,397,9,0.331129739496289,3
9,398,9,0.207075883487785,1
9,399,9,0.139355281164895,1
9,400,9,0.105792389372053,1
10,394,9,0.137956924468722,1
10,395,9,0.20028349488998,1
10,396,9,0.280165409533914,3
10,397,9,0.256650298766243,1
10,398,9,0.210210255584595,1
10,399,9,0.179022455859662,1
10,400,9,0.13354469314618,1
11,394,9,0.102691654609245,1
11,395,9,0.170134999463759,1
11,396,9,0.207147036034967,1
11,397,9,0.197805464737124,1
11,398,9,0.223217294140058,1
11,399,9,0.207198102039436,1
11,400,9,0.144067154904443,1
12,395,9,0.121498017905133,1
12,396,9,0.149390154081002,1
12,397,9,0.159351412650223,1
12,398,9,0.18998737709649,1
12,399,9,0.165346570289185,1
12,400,9,0.113034633740453,1
13,397,9,0.114290935879401,1
13,398,9,0.127554905716306,1
13,399,9,0.106470865727501,1
16,397,9,0.105144173545704,1
18,396,9,0.107831652745899,1
26,356,9,0.101370550494917,1
27,357,9,0.110821998667136,1
31,366,9,0.103619415416968,1
4,388,10,0.112236237239273,1
4,389,10,0.139860298677519,1
4,390,10,0.118121779433916,1
4,391,10,0.104797724255575,1
5,388,10,0.155849655072885,1
5,389,10,0.235292813830728,1
5,390,10,0.199084271646812,1
5,391,10,0.156387177055929,1
5,392,10,0.185949851296073,1
5,393,10,0.215664144076362,1
5,394,10,0.150419175464139,1
6,388,10,0.125050983094888,1
6,389,10,0.215971171892479,1
6,390,10,0.205137641045135,1
6,391,10,0.165557075949671,1
6,392,10,0.207582121007341,1
6,393,10,0.27214697932626,1
6,394,10,0.209603323921415,1
6,395,10,0.117096995396286,1
7,389,10,0.102975741937859,1
7,390,10,0.11210483595687,1
7,391,10,0.112621759430006,1
7,392,10,0.169753769083129,1
7,393,10,0.274891689923101,1
7,394,10,0.270650902253361,1
7,395,10,0.165701897308334,1
7,396,10,0.111283390038996,1
7,397,10,0.108839008113061,1
8,392,10,0.118389298632667,1
8,393,10,0.220069218751093,1
8,394,10,0.262826997793959,1
8,395,10,0.20084175699088,1
8,396,10,0.196837258520999,1
8,397,10,0.209182029384548,1
8,398,10,0.149156108822466,1
8,399,10,0.116600637754301,1
9,393,10,0.145065185932906,1
9,394,10,0.196813838745058,1
9,395,10,0.209765889845197,1
9,396,10,0.29320482184477,3
9,397,10,0.310563058697382,1
9,398,10,0.198805195060957,1
9,399,10,0.13844403402244,1
9,400,10,0.103828385175869,1
10,394,10,0.13013426180209,1
10,395,10,0.182660832427624,1
10,396,10,0.255163458888692,1
10,397,10,0.254481061082389,1
10,398,10,0.213509938620786,1
10,399,10,0.182247969010096,1
10,400,10,0.131016980389574,1
11,395,10,0.163492846005381,1
11,396,10,0.210097840660082,1
11,397,10,0.206612193710007,1
11,398,10,0.245487387832909,1
11,399,10,0.235745479974436,1
11,400,10,0.153197512502062,1
12,395,10,0.114738275385697,1
12,396,10,0.148082437364176,1
12,397,10,0.153190541033875,1
12,398,10,0.189822153300462,1
12,399,10,0.176786063329914,1
12,400,10,0.11876890596836,1
13,397,10,0.108159638538252,1
13,398,10,0.130183105651074,1
13,399,10,0.117492702466323,1
14,398,10,0.133887220985455,1
15,398,10,0.140981310761965,1
16,397,10,0.104589941824849,1
16,398,10,0.132678597153154,1
17,397,10,0.12753894758991,1
18,396,10,0.115556802001267,1
18,397,10,0.153938241889835,1
19,396,10,0.126214586492788,1
28,384,10,0.129595225703299,1
29,382,10,0.110661251860834,1
30,365,10,0.10599924590466,1
4,389,11,0.113607013064432,1
4,390,11,0.110160373657446,1
4,392,11,0.111007178290849,1
5,388,11,0.117734568840731,1
5,389,11,0.186327726657639,1
5,390,11,0.17554052339498,1
5,391,11,0.129195041643535,1
5,392,11,0.157554974227661,1
5,393,11,0.213384103620013,1
5,394,11,0.164136192696918,1
6,389,11,0.180613911331692,1
6,390,11,0.182803976276755,1
6,391,11,0.136780772428085,1
6,392,11,0.17235749262881,1
6,393,11,0.2388944703686,1
6,394,11,0.190598535212258,1
6,395,11,0.108632053544183,1
7,392,11,0.140339020683575,1
7,393,11,0.22321123767707,1
7,394,11,0.227647683958642,1
7,395,11,0.143273180928394,1
8,392,11,0.103190887981857,1
8,393,11,0.201676067446142,1
8,394,11,0.261448586032551,1
8,395,11,0.190978807016013,1
8,396,11,0.163198922370872,1
8,397,11,0.172251548098208,1
8,398,11,0.138406300950879,1
8,399,11,0.116690863802726,1
9,393,11,0.144437960761551,1
9,394,11,0.216083848247049,1
9,395,11,0.205075420691567,1
9,396,11,0.238984336950696,1
9,397,11,0.268905834837001,1
9,398,11,0.192653266531143,1
9,399,11,0.138349429020561,1
9,400,11,0.10562494342054,1
10,394,11,0.132386449064449,1
10,395,11,0.180342459789167,1
10,396,11,0.248755895334801,1
10,397,11,0.273934398411856,1
10,398,11,0.232022193102541,1
10,399,11,0.187874521161597,1
10,400,11,0.129167863810525,1
11,395,11,0.155459873750806,1
11,396,11,0.222577858006456,1
11,397,11,0.236218581234266,1
11,398,11,0.262648680709242,1
11,399,11,0.253498280140585,1
11,400,11,0.157984623633433,1
11,401,11,0.100106721348911,1
12,395,11,0.103187424033602,1
12,396,11,0.147614194346239,1
12,397,11,0.158288035000428,1
12,398,11,0.191012182919958,1
12,399,11,0.192454361829437,1
12,400,11,0.131769986097107,1
13,397,11,0.108551271656568,1
13,398,11,0.143360226244458,1
13,399,11,0.144612857469688,1
13,400,11,0.116102580816945,1
14,397,11,0.106634139691021,1
14,398,11,0.18080290347707,1
14,399,11,0.184069025429693,1
15,397,11,0.110611645507517,1
15,398,11,0.19114779976203,1
15,399,11,0.199036146730485,1
16,397,11,0.110791694566361,1
16,398,11,0.154005843345409,1
17,397,11,0.154176066991278,1
18,396,11,0.127701371905744,1
18,397,11,0.202286768059311,1
19,396,11,0.136018333452662,1
30,366,11,0.105358872980021,1
4,390,12,0.102071989123705,1
4,392,12,0.107193959479344,1
5,389,12,0.13415538286643,1
5,390,12,0.143230219255692,1
5,391,12,0.109790373876348,1
5,392,12,0.129373228013223,1
5,393,12,0.18607267985119,1
6,389,12,0.128868036213895,1
6,390,12,0.140203697950317,1
6,391,12,0.106766347049433,1
6,392,12,0.133638372249941,1
6,393,12,0.193568533160725,1
6,394,12,0.171701085327341,1
7,392,12,0.110801062476737,1
7,393,12,0.170413825512477,1
7,394,12,0.180207866881484,1
7,395,12,0.12155558698227,1
8,393,12,0.162420111338129,1
8,394,12,0.22437144248423,1
8,395,12,0.166328131224056,1
8,396,12,0.131275284178816,1
8,397,12,0.137814902590253,1
8,398,12,0.126595010797409,1
9,393,12,0.124326778265302,1
9,394,12,0.203977523381328,1
9,395,12,0.190090075537218,1
9,396,12,0.191358773818035,1
9,397,12,0.224037313085536,1
9,398,12,0.180634215732787,1
9,399,12,0.138249802383003,1
10,394,12,0.119520190594684,1
10,395,12,0.167703187966399,1
10,396,12,0.231354152163536,1
10,397,12,0.276436937632556,1
10,398,12,0.229281861459155,1
10,399,12,0.18198868485814,1
10,400,12,0.131195493546834,1
11,395,12,0.135250796591128,1
11,396,12,0.209524197757494,1
11,397,12,0.240541828301154,1
11,398,12,0.240398673559104,1
11,399,12,0.238992158066568,1
11,400,12,0.157664753065766,1
11,401,12,0.106008047383246,1
12,396,12,0.128881260217612,1
12,397,12,0.149735176398737,1
12,398,12,0.173012189741989,1
12,399,12,0.19451116280294,1
12,400,12,0.148939176339746,1
12,401,12,0.11197942577994,1
13,398,12,0.145705275641649,1
13,399,12,0.168477456651901,1
13,400,12,0.148582912529559,1
14,397,12,0.100701311334817,1
14,398,12,0.201383636141542,1
14,399,12,0.220708850957237,1
15,397,12,0.10694625450033,1
15,398,12,0.215341691886882,1
15,399,12,0.225484154164366,1
16,397,12,0.110727840274937,1
16,398,12,0.173989382616324,1
16,399,12,0.162270475309249,1
17,397,12,0.181475279797855,1
17,398,12,0.231899277404072,1
18,396,12,0.138177364471374,1
18,397,12,0.25553050668873,1
19,396,12,0.144542772428572,1
27,363,12,0.100223232010984,1
28,363,12,0.106811933915624,1
28,364,12,0.107560114060021,1
29,365,12,0.104320516365266,1
29,366,12,0.102698484469484,1
29,369,12,0.123954752401262,1
29,370,12,0.106048895829653,1
30,366,12,0.116673936206534,1
30,369,12,0.109842529172721,1
4,391,13,0.100546708134854,1
4,392,13,0.114060496177068,1
4,393,13,0.131228194089798,1
5,390,13,0.11092269281076,1
5,391,13,0.100868408712921,1
5,392,13,0.11380340150184,1
5,393,13,0.151783502681225,1
5,394,13,0.152512663788975,1
6,392,13,0.102809298134898,1
6,393,13,0.145371146242956,1
6,394,13,0.14794345461012,1
7,393,13,0.126779667561009,1
7,394,13,0.141260670563715,1
7,395,13,0.105290432769681,1
8,393,13,0.121342597736243,1
8,394,13,0.172502390237906,1
8,395,13,0.137062103848182,1
8,396,13,0.112509562363874,1
8,397,13,0.121833933742549,1
8,398,13,0.118186069442101,1
9,394,13,0.169545747008185,1
9,395,13,0.168309073909351,1
9,396,13,0.167379188982415,1
9,397,13,0.205038951198615,1
9,398,13,0.180598574101681,1
9,399,13,0.144507446692119,1
10,394,13,0.102895733447496,1
10,395,13,0.150081516759676,1
10,396,13,0.215543167317482,1
10,397,13,0.282555250614206,1
10,398,13,0.239676080881537,1
10,399,13,0.183526928420651,1
10,400,13,0.143991852155106,1
11,395,13,0.111771338347481,1
11,396,13,0.192832651121926,1
11,397,13,0.25253314572763,1
11,398,13,0.239900954302239,1
11,399,13,0.228881960615287,1
11,400,13,0.168533947330053,1
11,401,13,0.119082774537635,1
12,396,13,0.111182227499854,1
12,397,13,0.148628978684188,1
12,398,13,0.173902871053293,1
12,399,13,0.208482050406912,1
12,400,13,0.184878369314511,1
12,401,13,0.140393812066356,1
13,398,13,0.148914721736497,1
13,399,13,0.197974435697303,1
13,400,13,0.196223878249746,1
13,401,13,0.155894414077228,1
14,398,13,0.184396499254851,1
14,399,13,0.222587770562785,1
14,400,13,0.186177840091621,1
15,398,13,0.196282133580782,1
15,399,13,0.211045459259218,1
16,397,13,0.105867506941767,1
16,398,13,0.182191554582378,1
16,399,13,0.172803731950283,1
17,397,13,0.184153053407183,1
17,398,13,0.26534657354004,1
18,396,13,0.140609263112087,1
18,397,13,0.268638696890416,1
18,398,13,0.324642025844087,1
19,396,13,0.149421296936543,1
28,364,13,0.104426286609163,1
29,366,13,0.115630612420695,1
29,367,13,0.113865011851941,1
29,368,13,0.109060668122646,1
29,369,13,0.170868615775397,1
29,370,13,0.154153137396695,1
30,367,13,0.104947273141102,1
30,369,13,0.131176496296025,1
30,370,13,0.116072124215304,1
4,391,14,0.101825144685295,1
4,392,14,0.121080960713774,1
4,393,14,0.133706845139039,1
5,392,14,0.108033400499475,1
5,393,14,0.124559189585981,1
5,394,14,0.123169089722441,1
6,393,14,0.102771880957989,1
6,394,14,0.113394742751061,1
7,394,14,0.103342702594545,1
8,394,14,0.116982750461374,1
8,395,14,0.108820958546209,1
8,396,14,0.101650945123976,1
8,397,14,0.113290355907882,1
9,394,14,0.119415498749772,1
9,395,14,0.135546245234303,1
9,396,14,0.146440656606172,1
9,397,14,0.182254907799526,1
9,398,14,0.171787912785025,1
9,399,14,0.142646881655157,1
10,395,14,0.123670970074381,1
10,396,14,0.185841444965768,1
10,397,14,0.262593431823861,1
10,398,14,0.247123918203935,1
10,399,14,0.183939563086879,1
10,400,14,0.162281095905315,1
11,396,14,0.163211144226037,1
11,397,14,0.244939800792669,1
11,398,14,0.249781136875031,1
11,399,14,0.216898464304683,1
11,400,14,0.180324050755986,1
11,401,14,0.144399781080308,1
12,397,14,0.142240292558997,1
12,398,14,0.181531857619358,1
12,399,14,0.220472038897265,1
12,400,14,0.222318279745686,1
12,401,14,0.172341959326256,1
13,398,14,0.152298650608558,1
13,399,14,0.233430908964724,1
13,400,14,0.258850908056938,1
13,401,14,0.198756067996078,1
14,398,14,0.156702886528522,1
14,399,14,0.216363382335504,1
14,400,14,0.20950138798502,1
15,398,14,0.166749512904275,1
15,399,14,0.192457411846769,1
16,397,14,0.101040059331184,1
16,398,14,0.195149030356199,1
16,399,14,0.203508561430733,1
17,397,14,0.166590018783663,1
17,398,14,0.27674080650215,1
17,399,14,0.251358758339878,1
18,396,14,0.134759297191035,1
18,397,14,0.237733241627051,1
18,398,14,0.313300797826036,1
18,399,14,0.243243707940322,1
19,396,14,0.145056809278162,1
19,398,14,0.21941002286235,1
29,367,14,0.120712431476746,1
29,368,14,0.10902662775064,1
29,369,14,0.170292826967758,1
29,370,14,0.165717615790511,1
30,369,14,0.128672944033854,1
30,370,14,0.125899214700685,1
3,393,15,0.108129454259587,1
4,392,15,0.115212128256941,1
4,393,15,0.126280336152125,1
4,394,15,0.100597142350019,1
5,392,15,0.104142896427367,1
5,393,15,0.105803826937047,1
8,397,15,0.110611754436707,1
8,398,15,0.115843285772071,1
9,395,15,0.104099869397152,1
9,396,15,0.128932881760952,1
9,397,15,0.164313333346379,1
9,398,15,0.174486143296314,1
9,399,15,0.152942454802695,1
10,396,15,0.155120515750973,1
10,397,15,0.237399439015929,1
10,398,15,0.26232123956284,1
10,399,15,0.194031155432437,1
10,400,15,0.181725087110244,1
11,396,15,0.132952532281221,1
11,397,15,0.222102839592875,1
11,398,15,0.255864984660832,1
11,399,15,0.199764512655145,1
11,400,15,0.172876289684021,1
11,401,15,0.169889941464072,1
12,397,15,0.129176806897059,1
12,398,15,0.173789976840342,1
12,399,15,0.208428326530197,1
12,400,15,0.226393734690208,1
12,401,15,0.187151405623916,1
13,398,15,0.141483114863471,1
13,399,15,0.248539060888352,1
13,400,15,0.303162627358654,1
13,401,15,0.23163972092914,1
13,402,15,0.145186674658981,1
14,398,15,0.124021929032994,1
14,399,15,0.202109126335574,1
14,400,15,0.228395308564168,1
14,401,15,0.177883470458796,1
15,398,15,0.128603501674961,1
15,399,15,0.163817759994565,1
15,400,15,0.14127266366758,1
16,398,15,0.18459231036755,1
16,399,15,0.209802686125721,1
17,397,15,0.149992314645642,1
17,398,15,0.252021200318496,1
17,399,15,0.25864838690611,1
17,400,15,0.169553687946166,1
18,396,15,0.137950214430592,1
18,397,15,0.202024531926295,1
18,398,15,0.26637863404759,1
18,399,15,0.232742258622891,1
19,398,15,0.195202340301991,1
29,369,15,0.13886381444356,1
29,370,15,0.14694960646257,1
30,369,15,0.115321809058775,1
30,370,15,0.129749578366123,1
3,393,16,0.104903429141958,1
4,392,16,0.100232349384222,1
4,393,16,0.109938332395695,1
5,396,16,0.103291745519267,1
8,397,16,0.110279596656361,1
8,398,16,0.123571169150118,1
9,396,16,0.115200973907842,1
9,397,16,0.152049431513797,1
9,398,16,0.181900942395257,1
9,399,16,0.175143084350815,1
9,400,16,0.174288926997059,1
10,396,16,0.13035143392903,1
10,397,16,0.208461963864198,1
10,398,16,0.26479410647207,1
10,399,16,0.218429180860135,1
10,400,16,0.198553982562012,1
10,401,16,0.221224521744683,1
11,396,16,0.106728548620358,1
11,397,16,0.182319067092683,1
11,398,16,0.231458615257148,1
11,399,16,0.183395701424952,1
11,400,16,0.162568886826404,1
12,397,16,0.109780047389096,1
12,398,16,0.150025799478777,1
12,399,16,0.182963513969043,1
12,400,16,0.214493765282818,1
12,401,16,0.188645020897111,1
13,398,16,0.126408349736706,1
13,399,16,0.243506793721023,1
13,400,16,0.324282755588245,1
13,401,16,0.250828142467506,1
13,402,16,0.15266928217896,1
14,398,16,0.104780230227593,1
14,399,16,0.191167428802144,1
14,400,16,0.244861654991462,1
14,401,16,0.194962107865439,1
14,402,16,0.131522390047283,1
15,398,16,0.104939190595173,1
15,399,16,0.142179553642419,1
15,400,16,0.14321750721917,1
15,401,16,0.121272991983564,1
16,398,16,0.159754592262723,1
16,399,16,0.18588519092864,1
17,397,16,0.133389828516161,1
17,398,16,0.207869585140858,1
17,399,16,0.229829492071071,1
18,396,16,0.139863435838203,1
18,397,16,0.168818742698405,1
18,398,16,0.209153707795039,1
29,369,16,0.109139816072405,1
29,370,16,0.11996980672106,1
1,389,17,0.102476443207733,1
5,396,17,0.105478281158559,1
6,396,17,0.100235486544906,1
8,397,17,0.104350428320955,1
8,398,17,0.122343351994466,1
9,396,17,0.102413340527723,1
9,397,17,0.138058860405116,1
9,398,17,0.174500979452049,1
9,399,17,0.187301640763342,1
9,400,17,0.174814946057595,1
10,396,17,0.108409249778099,1
10,397,17,0.173661026464723,1
10,398,17,0.234136247258529,1
10,399,17,0.231307835471769,1
10,400,17,0.215094684054686,1
10,401,17,0.214484092370708,1
11,397,17,0.14242308663344,1
11,398,17,0.187913496025929,1
11,399,17,0.176154350275914,1
11,400,17,0.174684100314063,1
11,401,17,0.191779654423978,1
12,398,17,0.134120373024629,1
12,399,17,0.162970465179805,1
12,400,17,0.206316342028827,1
12,401,17,0.193664521563323,1
12,402,17,0.166045416403241,1
13,398,17,0.11916356731817,1
13,399,17,0.21886095438512,1
13,400,17,0.322471677082491,1
13,401,17,0.259686220660752,1
13,402,17,0.166030863463401,1
14,399,17,0.179986021692276,1
14,400,17,0.26701922483061,1
14,401,17,0.221481202488988,1
14,402,17,0.146067552343147,1
15,399,17,0.133855675091909,1
15,400,17,0.163497333888026,1
15,401,17,0.143933172000227,1
16,398,17,0.129155031951894,1
17,397,17,0.114587963995837,1
1,388,18,0.107432743157663,1
1,389,18,0.109534804209786,1
1,390,18,0.107760848772126,1
6,396,18,0.0997786375202867,1
6,397,18,0.110817826679143,1
7,397,18,0.102400116524006,1
7,398,18,0.100310723936729,1
8,397,18,0.10312490957122,1
8,398,18,0.121861307648102,1
8,399,18,0.148535277794589,1
9,397,18,0.128170290284663,1
9,398,18,0.163279431935511,1
9,399,18,0.191222917331744,1
9,400,18,0.176751576348227,1
10,397,18,0.141673730053786,1
10,398,18,0.190913100928352,1
10,399,18,0.228288797601776,1
10,400,18,0.231917403221357,1
10,401,18,0.198797068943352,1
11,397,18,0.113775047233573,1
11,398,18,0.148055139709057,1
11,399,18,0.172568455791895,1
11,400,18,0.204849501550637,1
11,401,18,0.20695109420724,1
12,398,18,0.124019783127942,1
12,399,18,0.14991001864228,1
12,400,18,0.207222262533871,1
12,401,18,0.208921557904417,1
12,402,18,0.184707274235119,1
13,398,18,0.116700678322782,1
13,399,18,0.191528463710871,1
13,400,18,0.309983729691054,1
13,401,18,0.276149996359152,1
13,402,18,0.184226025071845,1
14,398,18,0.103086882390844,1
14,399,18,0.186776994210605,1
14,400,18,0.316429069888182,1
14,401,18,0.285520695322513,1
14,402,18,0.176028678668927,1
15,399,18,0.143493239678879,1
15,400,18,0.206436011637422,1
15,401,18,0.187347674239214,1
23,387,18,0.108137689306383,1
24,386,18,0.105268690503273,1
24,387,18,0.110566439893493,1
1,387,19,0.100798900996514,1
1,388,19,0.11358451918661,1
1,389,19,0.111558131243073,1
1,390,19,0.105227471697618,1
2,388,19,0.104880455975698,1
2,389,19,0.107393463291598,1
2,390,19,0.100607011334671,1
6,397,19,0.11608343106527,1
7,397,19,0.114042806076544,1
7,398,19,0.107639272902699,1
7,399,19,0.116626247006969,1
8,397,19,0.106392120815747,1
8,398,19,0.12480252650446,1
8,399,19,0.155192158479512,1
8,400,19,0.164757927837076,1
9,397,19,0.116247979500317,1
9,398,19,0.145765034195514,1
9,399,19,0.177661843127969,1
9,400,19,0.176231341427702,1
10,397,19,0.117538779513871,1
10,398,19,0.152104713077935,1
10,399,19,0.195331791751885,1
10,400,19,0.216799796244001,1
10,401,19,0.176266580020803,1
11,397,19,0.103484724473014,1
11,398,19,0.133188167905937,1
11,399,19,0.16939469489983,1
11,400,19,0.217690793449957,1
11,401,19,0.210077558044826,1
11,402,19,0.185955036325537,1
12,398,19,0.127544306906078,1
12,399,19,0.152306831190758,1
12,400,19,0.205846966147309,1
12,401,19,0.220452039497903,1
12,402,19,0.195957219591599,1
13,398,19,0.123335609775836,1
13,399,19,0.176798132684213,1
13,400,19,0.273224572235405,1
13,401,19,0.277217981713702,1
13,402,19,0.198618098283493,1
14,398,19,0.126845112218613,1
14,399,19,0.205454145700818,1
14,400,19,0.32831871280832,1
14,401,19,0.318297924436535,1
14,402,19,0.194236051239616,1
15,398,19,0.113065275521718,1
15,399,19,0.164528087245291,1
15,400,19,0.230511388803097,1
15,401,19,0.210408354210292,1
16,400,19,0.129060938917209,1
23,386,19,0.102175569890875,1
23,387,19,0.131642190370907,1
24,386,19,0.126934891657357,1
1,387,20,0.10534058376895,1
1,388,20,0.114622483656281,1
1,389,20,0.115302888058399,1
2,388,20,0.106409865380866,1
2,389,20,0.11433403916005,1
2,390,20,0.101815820346595,1
6,397,20,0.106784396616286,1
7,397,20,0.117329962255836,1
7,398,20,0.109861602673963,1
7,399,20,0.10917432483993,1
7,400,20,0.128816643421855,1
8,397,20,0.115677048934571,1
8,398,20,0.127255023655081,1
8,399,20,0.149178166983526,1
8,400,20,0.175144936147052,1
8,401,20,0.141373826206723,1
9,397,20,0.107730620921785,1
9,398,20,0.128887795969037,1
9,399,20,0.16467261449514,1
9,400,20,0.191315006069324,1
9,401,20,0.156803112276627,1
10,397,20,0.101764187910336,1
10,398,20,0.125258950705237,1
10,399,20,0.165650765946351,1
10,400,20,0.19756026512949,1
10,401,20,0.170418945184426,1
11,397,20,0.101102552007728,1
11,398,20,0.129964898696826,1
11,399,20,0.169794475921589,1
11,400,20,0.209799832180932,1
11,401,20,0.201025019460842,1
12,397,20,0.101590576566645,1
12,398,20,0.135043351840892,1
12,399,20,0.164955198600926,1
12,400,20,0.200423490685507,1
12,401,20,0.216748817382884,1
12,402,20,0.196361259744703,1
13,398,20,0.133530325385964,1
13,399,20,0.172011446376685,1
13,400,20,0.23022745397535,1
13,401,20,0.257826995452832,1
13,402,20,0.20172885453182,1
14,398,20,0.159818697091285,1
14,399,20,0.221815397245195,1
14,400,20,0.300215744184394,1
14,401,20,0.306013391415288,1
14,402,20,0.195155696822653,1
15,398,20,0.1449565508513,1
15,400,20,0.233423000705499,1
15,401,20,0.211473442048377,1
23,387,20,0.154000897960164,1
24,385,20,0.113818422837199,1
1,387,21,0.107412852687493,1
1,388,21,0.110893401751456,1
1,389,21,0.118978322336942,1
1,390,21,0.101439317492829,1
2,388,21,0.104326158897329,1
2,389,21,0.118399069581048,1
2,390,21,0.107756317317805,1
2,391,21,0.105307088042896,1
2,392,21,0.103309664371091,1
3,353,21,0.101775048150621,1
7,397,21,0.111849375219498,1
7,398,21,0.108077048426076,1
7,399,21,0.100272435326297,1
7,400,21,0.110056161100972,1
8,397,21,0.123742765303786,1
8,398,21,0.126696826911695,1
8,399,21,0.132928491608896,1
8,400,21,0.166006550468099,1
8,401,21,0.143334431812167,1
9,397,21,0.103726362096122,1
9,398,21,0.113418816102144,1
9,399,21,0.146233723823132,1
9,400,21,0.199050677884487,1
9,401,21,0.17513257268394,1
9,402,21,0.138544902452769,1
10,398,21,0.108263382699208,1
10,399,21,0.138558137349405,1
10,400,21,0.170808955257805,1
10,401,21,0.161131391872113,1
10,402,21,0.157825510764987,1
11,397,21,0.10207432020838,1
11,398,21,0.12659022880595,1
11,399,21,0.160857021027284,1
11,400,21,0.176517574661368,1
11,401,21,0.174961717248767,1
12,397,21,0.104066330099421,1
12,398,21,0.138955848716546,1
12,399,21,0.178112025686135,1
12,400,21,0.194353869051974,1
12,401,21,0.204517616093266,1
13,398,21,0.136901651150694,1
13,399,21,0.167321565440683,1
13,400,21,0.197396065267851,1
13,401,21,0.22792798055143,1
13,402,21,0.193827414274676,1
14,397,21,0.105734177612693,1
14,398,21,0.17318841538625,1
14,399,21,0.206398997498518,1
14,400,21,0.234797186014319,1
14,401,21,0.248297347014811,1
14,402,21,0.179068674515157,1
15,397,21,0.104184877737355,1
15,398,21,0.160812360059212,1
15,400,21,0.201553217105187,1
15,401,21,0.183098237591754,1
22,388,21,0.107800379175329,1
22,389,21,0.113914912314072,1
23,387,21,0.155855352069544,1
23,388,21,0.213476562716841,1
1,387,22,0.10189024076949,1
1,388,22,0.102073775562428,1
1,389,22,0.108495826698644,1
1,390,22,0.100020002820418,1
2,387,22,0.102929828284097,1
2,388,22,0.103284479942266,1
2,389,22,0.109777945055721,1
2,390,22,0.107842611022455,1
2,391,22,0.112638109701488,1
2,392,22,0.118309202998952,1
7,397,22,0.108778094909779,1
7,398,22,0.111709619068189,1
7,399,22,0.10443484844353,1
8,397,22,0.127761751355994,1
8,398,22,0.128999459282137,1
8,399,22,0.125653895270941,1
8,400,22,0.151102597204831,1
8,401,22,0.142785385120776,1
9,397,22,0.107347495173241,1
9,398,22,0.112104737920598,1
9,399,22,0.135024430840517,1
9,400,22,0.195712041769802,1
9,401,22,0.193676133415022,1
9,402,22,0.135999281737258,1
10,398,22,0.102728690533988,1
10,399,22,0.122164686336339,1
10,400,22,0.153511969288966,1
10,401,22,0.159771410929724,1
10,402,22,0.151002861638083,1
11,397,22,0.106411826106293,1
11,398,22,0.12349098637305,1
11,399,22,0.145218296802959,1
11,400,22,0.14776983237351,1
11,401,22,0.150175174077599,1
12,397,22,0.110200819065849,1
12,398,22,0.137673632323198,1
12,399,22,0.173450967413918,1
13,397,22,0.107979088405132,1
13,398,22,0.137136208376424,1
13,399,22,0.158626031385381,1
13,401,22,0.19462076735434,1
14,397,22,0.118821595017766,1
14,398,22,0.16742323994702,1
14,399,22,0.1758870816143,1
14,400,22,0.178757725248185,1
14,401,22,0.186805119727572,1
15,397,22,0.11504158871642,1
15,398,22,0.157731308801112,1
16,396,22,0.101717500859322,1
19,358,22,0.105228822419579,1
19,359,22,0.112909060169738,1
20,359,22,0.132434704695805,1
22,388,22,0.11492823700087,1
22,389,22,0.135708462584675,1
23,387,22,0.147766640748231,1
23,388,22,0.250070496376461,1
1,357,23,0.10234140369037,1
2,387,23,0.107298008642033,1
2,388,23,0.104180564141414,1
2,391,23,0.107539265012974,1
2,392,23,0.114004288714812,1
7,396,23,0.101235107939549,1
7,397,23,0.10558492283598,1
7,400,23,0.100359415284847,1
8,397,23,0.11676233224456,1
8,398,23,0.125065721214351,1
8,399,23,0.127680882325026,1
8,400,23,0.134524783536981,1
8,401,23,0.130817814257811,1
9,397,23,0.105781267701711,1
9,398,23,0.11663577831113,1
9,399,23,0.131430257738026,1
9,400,23,0.173443930588217,1
9,401,23,0.187298046100058,1
9,402,23,0.124162687332854,1
10,398,23,0.110220034175039,1
10,399,23,0.120642705901958,1
10,400,23,0.138385920299351,1
10,401,23,0.152626560150478,1
10,402,23,0.135669378791153,1
11,397,23,0.107258423774235,1
11,398,23,0.11945838417204,1
11,399,23,0.126013361599326,1
11,400,23,0.123294663293157,1
11,401,23,0.128809181772312,1
12,397,23,0.110687983084163,1
12,398,23,0.127293900483142,1
12,399,23,0.145293501516025,1
13,397,23,0.115858677466677,1
13,398,23,0.1335076354356,1
13,399,23,0.143688320966002,1
14,396,23,0.101645847237864,1
14,397,23,0.129428204575628,1
14,398,23,0.149333118756898,1
15,396,23,0.114995478990116,1
15,397,23,0.124627509974212,1
16,395,23,0.102161953742072,1
16,396,23,0.112416220940603,1
18,358,23,0.100098126835787,1
19,359,23,0.139043188141424,1
22,388,23,0.115405858822103,1
1,357,24,0.109253636183474,1
1,358,24,0.112705242761543,1
2,387,24,0.111447121505116,1
2,388,24,0.112177883871965,1
2,391,24,0.102148392057865,1
2,392,24,0.104009981029217,1
7,396,24,0.101018317064776,1
7,400,24,0.101224367521374,1
8,397,24,0.101211437626471,1
8,399,24,0.126625423827375,1
8,400,24,0.118291349504642,1
8,401,24,0.112593764628068,1
9,399,24,0.12802852983625,1
9,400,24,0.143201418377745,1
9,401,24,0.159676882178278,1
9,402,24,0.110197300652999,1
10,399,24,0.130779645469488,1
10,400,24,0.128289981679096,1
10,401,24,0.140063092151323,1
10,402,24,0.120935834353378,1
11,396,24,0.102113447573579,1
11,397,24,0.105361792282325,1
11,398,24,0.117613581188932,1
11,400,24,0.109043413738884,1
11,401,24,0.116169528697377,1
12,397,24,0.106380301998586,1
12,398,24,0.114183411875538,1
13,397,24,0.114007741770148,1
13,398,24,0.124057429056151,1
14,395,24,0.101385844153252,1
14,396,24,0.116936030731603,1
14,397,24,0.128964591048283,1
14,398,24,0.128647563532486,1
15,356,24,0.10623267026681,1
15,357,24,0.108908907974554,1
15,394,24,0.109266250183725,1
15,395,24,0.133454848349922,1
15,396,24,0.139532846638198,1
15,397,24,0.128291484901923,1
16,357,24,0.13852703806554,1
16,358,24,0.10904652911373,1
16,394,24,0.113298558275921,1
16,395,24,0.12481355013853,1
16,396,24,0.120765959280918,1
17,358,24,0.108091350828778,1
1,357,25,0.106427490123876,1
1,358,25,0.123627333040699,1
2,387,25,0.102593672802462,1
2,388,25,0.110355607445435,1
2,391,25,0.10112469731214,1
2,392,25,0.101016105802211,1
8,400,25,0.111113471394861,1
9,399,25,0.125258090164632,1
9,400,25,0.125521001658629,1
9,401,25,0.129775645121391,1
10,355,25,0.100593950724739,1
10,400,25,0.123841771044959,1
10,401,25,0.126225152624259,1
11,355,25,0.108907252250859,1
11,395,25,0.100412986660695,1
11,396,25,0.101142823129426,1
11,397,25,0.103142055025792,1
11,398,25,0.11745658154678,1
12,397,25,0.100816525739524,1
12,398,25,0.104693500806181,1
13,397,25,0.107575200752894,1
14,394,25,0.10590635109107,1
14,395,25,0.126950152636934,1
14,396,25,0.125493584181401,1
14,397,25,0.122128783275177,1
15,357,25,0.143268115721039,1
15,358,25,0.107797503444702,1
15,394,25,0.156569971130372,1
15,395,25,0.190839944084066,1
15,396,25,0.1594771931864,1
16,358,25,0.150099239538957,1
16,359,25,0.113352826798588,1
16,394,25,0.139651252668185,1
16,395,25,0.159027446344996,1
17,360,25,0.118818566786273,1
18,361,25,0.128238567101218,1
18,362,25,0.127386043685318,1
19,362,25,0.132347953488554,1
19,366,25,0.103079039489134,1
19,367,25,0.141390241835719,1
19,368,25,0.122690378609304,1
20,366,25,0.121202166223954,1
20,367,25,0.143461203603977,1
20,368,25,0.109378251177314,1
21,366,25,0.11802485424028,1
21,367,25,0.108261454652537,1
1,358,26,0.113684723148878,1
9,400,26,0.114953007498771,1
10,356,26,0.10594421487766,1
11,357,26,0.108283621742788,1
14,394,26,0.115346274554943,1
14,395,26,0.142718469919101,1
14,396,26,0.129885020921491,1
15,393,26,0.107846783010448,1
15,394,26,0.180564108905833,1
15,395,26,0.227793627287966,1
15,396,26,0.170707749146986,1
16,394,26,0.152887205917314,1
16,395,26,0.182492210040855,1
17,361,26,0.119342875658519,1
17,362,26,0.11103059806679,1
17,363,26,0.103730468726601,1
18,362,26,0.176853675678408,1
18,363,26,0.125794566427449,1
18,367,26,0.117134205607733,1
18,368,26,0.118755594821291,1
19,366,26,0.13089911900554,1
19,367,26,0.176441836195269,1
19,368,26,0.155287373484858,1
19,387,26,0.101541994147718,1
20,366,26,0.161674621744735,1
20,367,26,0.179131613801381,1
20,368,26,0.133845718963905,1
20,382,26,0.10482859478814,1
21,382,26,0.104895172309324,1
14,394,27,0.120850292260141,1
14,395,27,0.147045398792625,1
15,361,27,0.100604985251729,1
15,363,27,0.100922807950616,1
15,393,27,0.113563223529883,1
15,394,27,0.173130824523275,1
15,395,27,0.219762670223414,1
15,396,27,0.166286868846725,1
16,362,27,0.106072740429436,1
16,363,27,0.109160022437228,1
16,364,27,0.109626566159795,1
16,395,27,0.173708029410389,1
17,362,27,0.13917580943076,1
17,363,27,0.139837684977588,1
17,364,27,0.143048078756392,1
17,365,27,0.114548085019224,1
17,368,27,0.117955531703497,1
17,369,27,0.125007858028401,1
18,365,27,0.119918381250263,1
18,366,27,0.121028413272315,1
18,367,27,0.140878862858375,1
18,368,27,0.144276320735887,1
18,369,27,0.109759939060545,1
18,387,27,0.101204411693689,1
19,366,27,0.156674118329333,1
19,367,27,0.189243151081705,1
19,368,27,0.169314947839524,1
19,369,27,0.100148049083757,1
19,386,27,0.111065695051943,1
19,387,27,0.13042976490986,1
1,385,28,0.103308999903029,1
2,384,28,0.100545804022574,1
2,385,28,0.108187186730509,1
2,386,28,0.102391674511748,1
2,387,28,0.099900736249828,1
3,388,28,0.0998391912572409,1
4,368,28,0.102979630709957,1
4,387,28,0.109545860522613,1
4,388,28,0.10931075865093,1
5,368,28,0.113288133752398,1
5,369,28,0.100799728858361,1
5,387,28,0.101667545932596,1
5,388,28,0.0999640350023808,1
9,380,28,0.124326440584812,1
9,381,28,0.102924305574143,1
9,394,28,0.103004826031701,1
10,379,28,0.106876485353866,1
10,380,28,0.137424533050546,1
10,381,28,0.107028158358607,1
10,389,28,0.103616310935041,1
10,393,28,0.103211257740466,1
10,394,28,0.104750884703694,1
14,393,28,0.118946068403659,1
14,394,28,0.142220238695041,1
14,395,28,0.158783902461056,1
15,363,28,0.10723869669785,1
15,364,28,0.106909109646397,1
15,388,28,0.107685371736084,1
15,393,28,0.123186148033661,1
15,394,28,0.165179777912814,1
15,395,28,0.200875546825749,1
15,396,28,0.167479490980953,1
16,363,28,0.128562315548064,1
16,364,28,0.13549068045427,1
16,365,28,0.121893180329218,1
16,366,28,0.10544268309913,1
16,368,28,0.106895264746295,1
16,369,28,0.11349879191375,1
16,370,28,0.0998434830673434,1
16,388,28,0.101660770536952,1
16,395,28,0.154131994240834,1
17,365,28,0.165382571386619,1
17,366,28,0.138100286176233,1
17,367,28,0.12809106608447,1
17,368,28,0.142384242484136,1
17,369,28,0.153146402925917,1
17,370,28,0.128281310915538,1
18,367,28,0.157928165634038,1
18,368,28,0.156929589959624,1
18,369,28,0.144096740072561,1
18,370,28,0.116296932278492,1
18,387,28,0.11272597198648,1
19,369,28,0.125543648037317,1
19,386,28,0.128484605463618,1
19,387,28,0.154892821064239,1
19,388,28,0.105284452557127,1
20,386,28,0.103403310796094,1
20,387,28,0.124985560223122,1
2,385,29,0.111180963921245,1
4,368,29,0.115895168745467,1
4,369,29,0.110520667847678,1
4,387,29,0.119056707782368,1
5,368,29,0.132214144871043,1
5,369,29,0.120345187604165,1
5,379,29,0.0999260187149244,1
5,380,29,0.105796463323775,1
5,387,29,0.119289380533104,1
6,379,29,0.127399136974006,1
6,380,29,0.130349821777011,1
6,388,29,0.102399070803778,1
7,380,29,0.101614551881457,1
8,380,29,0.104980191542447,1
8,381,29,0.101369352273822,1
8,385,29,0.103664577459316,1
9,361,29,0.109010157657049,1
9,362,29,0.108583046301413,1
9,379,29,0.112078311699002,1
9,380,29,0.163925534535566,1
9,381,29,0.136874876355689,1
9,382,29,0.102819112654955,1
9,389,29,0.105413904007021,1
9,390,29,0.101533595707137,1
9,394,29,0.104597501510664,1
10,361,29,0.108818943356186,1
10,362,29,0.101654572466017,1
10,379,29,0.123557651037587,1
10,380,29,0.177834909825707,1
10,381,29,0.136725381934757,1
10,389,29,0.120578971432644,1
10,390,29,0.103422776442422,1
10,393,29,0.101847355347222,1
10,394,29,0.107683280295628,1
11,380,29,0.106152008201305,1
11,389,29,0.104353609053315,1
12,362,29,0.101013818289212,1
13,363,29,0.10325862015246,1
14,364,29,0.100412845052748,1
14,388,29,0.114755050481022,1
14,389,29,0.112188961970631,1
15,364,29,0.120007844794355,1
15,366,29,0.101861309176514,1
15,367,29,0.110015748371326,1
15,368,29,0.115125257227582,1
15,369,29,0.101766322922468,1
15,383,29,0.105029536465707,1
15,388,29,0.122519381566184,1
15,389,29,0.113311618885852,1
15,395,29,0.186139845590003,1
16,366,29,0.151662961639107,1
16,368,29,0.138945271692156,1
16,369,29,0.133671682796372,1
16,370,29,0.124615625799538,1
16,371,29,0.104673338013035,1
16,383,29,0.114593366883682,1
17,368,29,0.15632178686292,1
17,369,29,0.174595824098147,1
17,370,29,0.158530663879168,1
17,371,29,0.113955118078256,1
17,372,29,0.107424344717082,1
17,373,29,0.107523688138744,1
18,370,29,0.168296536159533,1
18,386,29,0.104367345024227,1
18,387,29,0.115529068629386,1
19,385,29,0.145721092160098,1
19,386,29,0.152938522458921,1
19,387,29,0.159226852120978,1
19,388,29,0.129880685539712,1
20,386,29,0.133332564440757,1
20,387,29,0.153475663189799,1
7,385,30,0.103941660640986,1
8,384,30,0.107824648598955,1
8,385,30,0.118046716328797,1
8,386,30,0.107545746299804,1
9,380,30,0.180709246159148,1
9,385,30,0.104540411721966,1
9,388,30,0.10239892919583,1
9,389,30,0.113432595644732,1
10,380,30,0.192248137086135,1
10,389,30,0.115723801343099,1
10,390,30,0.101514042917457,1
17,370,30,0.179304887464582,1
19,386,30,0.161453931204945,1
19,387,30,0.145212196768296,1
8,384,31,0.103930288433506,1
8,385,31,0.101186906772788,1
8,394,31,0.100481023833031,1
9,385,31,0.101874783717369,1
9,389,31,0.114446682835863,1
10,389,31,0.101906111752534,1
