x,y,z,signal,mito.p
44,945,29,0.150008610452528,1
45,946,29,0.182924637140983,1
46,946,29,0.15819090284133,1
43,945,30,0.108497841888667,1
43,946,30,0.124316778565621,1
44,946,30,0.161279818786978,1
44,947,30,0.139887084365443,1
45,947,30,0.173139484393913,1
46,946,30,0.150034034525572,1
46,947,30,0.164653083491298,1
47,946,30,0.1004493145457,1
28,922,31,0.108652161872734,1
28,923,31,0.130345562645666,1
28,924,31,0.123281689826578,1
28,925,31,0.108653479915939,1
29,925,31,0.160692167590503,1
29,926,31,0.114594989928619,1
30,926,31,0.105839751784048,1
43,945,31,0.120890519810163,1
43,946,31,0.149949723332187,1
43,947,31,0.131897258963193,1
44,945,31,0.14588787364355,1
44,946,31,0.184247124656029,1
44,947,31,0.165227434433623,1
44,948,31,0.136650297043801,1
45,946,31,0.190731102036999,1
45,947,31,0.186533864257589,1
45,948,31,0.157323020409581,1
46,945,31,0.108071144463955,1
46,946,31,0.134846636615914,1
46,947,31,0.150881656127903,1
46,948,31,0.149881043477628,1
47,909,31,0.102495887068223,1
47,947,31,0.104081286077266,1
47,948,31,0.136288303558198,1
28,922,32,0.10753976608725,1
28,923,32,0.120573568544799,1
28,924,32,0.105815384324151,1
29,921,32,0.115069975663444,1
29,922,32,0.180990141862483,1
29,923,32,0.192149926528052,1
29,924,32,0.15161415046888,1
29,925,32,0.124697758409114,1
29,926,32,0.104455152844624,1
30,924,32,0.117583723697838,1
30,925,32,0.115010271574175,1
30,926,32,0.110493620729697,1
42,908,32,0.125696682656938,1
43,906,32,0.114554522734378,1
43,907,32,0.120187828495685,1
43,908,32,0.10915192899838,1
43,945,32,0.11852069991507,1
43,946,32,0.152734410941912,1
43,947,32,0.131154819387131,1
43,948,32,0.108595431550364,1
44,906,32,0.14273951503869,1
44,907,32,0.116988512815547,1
44,945,32,0.125073302686005,1
44,946,32,0.179169009192453,1
44,947,32,0.170054304719497,1
44,948,32,0.139426923893434,1
44,949,32,0.133389632443618,1
45,907,32,0.108479770535976,1
45,945,32,0.116657738435919,1
45,946,32,0.166303131974855,1
45,947,32,0.172600644367664,1
45,948,32,0.142574160527633,1
45,949,32,0.119950101430513,1
46,908,32,0.121508584036604,1
46,909,32,0.127545276375873,1
46,910,32,0.109678939314549,1
46,946,32,0.108070763211789,1
46,947,32,0.120862078398545,1
46,948,32,0.120670798740168,1
46,949,32,0.131591364010657,1
47,909,32,0.143593596142013,1
47,910,32,0.125706333783209,1
47,948,32,0.107247890321521,1
47,949,32,0.170658632975026,1
48,948,32,0.103583109317801,1
29,921,33,0.104068345289444,1
29,922,33,0.137000188496347,1
29,923,33,0.143010737829916,1
29,924,33,0.124118342259434,1
29,925,33,0.109760614421525,1
30,922,33,0.101171460613587,1
30,925,33,0.105049176398739,1
30,926,33,0.114071182130648,1
31,928,33,0.100244396952683,1
31,929,33,0.114434842232864,1
41,907,33,0.107054453865174,1
41,908,33,0.0998471866598177,1
42,905,33,0.100750514650129,1
42,906,33,0.114113642729074,1
42,907,33,0.144241408930357,1
42,908,33,0.134142267791903,1
43,906,33,0.153614896480993,1
43,907,33,0.176738145379049,1
43,908,33,0.144083407139654,1
43,945,33,0.0999020107213559,1
43,946,33,0.129304667980773,1
43,947,33,0.121424436237005,1
43,948,33,0.107791566803824,1
43,949,33,0.114982461951861,1
44,907,33,0.169943894092087,1
44,908,33,0.132976093665109,1
44,946,33,0.147251601750089,1
44,947,33,0.153526554907563,1
44,948,33,0.138301053567095,1
44,949,33,0.138005713853111,1
45,907,33,0.141761712160888,1
45,908,33,0.149581248559755,1
45,909,33,0.134986381874303,1
45,946,33,0.131049680932538,1
45,947,33,0.141172078453147,1
45,948,33,0.124135574857358,1
45,949,33,0.116884147758206,1
45,950,33,0.114314333869503,1
46,908,33,0.175034209624991,1
46,909,33,0.18402983270698,1
46,910,33,0.135662461787561,1
46,949,33,0.11091962100759,1
47,909,33,0.164762001788798,1
47,910,33,0.140183055868732,1
47,911,33,0.10266635035831,1
47,949,33,0.12177138660141,1
48,910,33,0.111829201533432,1
48,911,33,0.109217972766531,1
29,923,34,0.110029517020995,1
29,924,34,0.133509955627356,1
29,925,34,0.135934033152196,1
29,926,34,0.113662087663108,1
30,925,34,0.111119146605682,1
30,926,34,0.116716255197012,1
30,927,34,0.100283393602853,1
31,928,34,0.101955968642989,1
31,929,34,0.124068332868112,1
31,930,34,0.109822627809631,1
42,906,34,0.141239505622017,1
42,907,34,0.168611145447303,1
42,908,34,0.136362920053636,1
43,905,34,0.163007729855847,1
43,906,34,0.201903903740824,1
43,907,34,0.254860962526897,1
43,908,34,0.1831659370836,1
43,947,34,0.100401625346134,1
43,948,34,0.10291626659989,1
43,949,34,0.114611601630158,1
43,950,34,0.114684409901034,1
44,906,34,0.17625216868891,1
44,907,34,0.22228640706457,1
44,908,34,0.183659255601172,1
44,909,34,0.131276907223754,1
44,947,34,0.114580175558722,1
44,948,34,0.119822806778589,1
44,949,34,0.129339645143817,1
44,950,34,0.115987409983915,1
45,907,34,0.164044844677832,1
45,908,34,0.211607533881783,1
45,909,34,0.213717797301944,1
45,910,34,0.124364042941344,1
45,949,34,0.103405641880769,1
45,950,34,0.101534074995575,1
46,908,34,0.210025903822729,1
46,909,34,0.233912005627131,1
46,910,34,0.14968465504022,1
47,909,34,0.156817403786411,1
47,910,34,0.133041505643956,1
47,911,34,0.108008608215735,1
48,910,34,0.112301692789796,1
48,911,34,0.11383898866835,1
28,925,35,0.101432237095452,1
29,924,35,0.154612099647608,1
29,925,35,0.17944555862109,1
29,926,35,0.140880409652879,1
30,924,35,0.100680189964795,1
30,925,35,0.124840553684835,1
30,926,35,0.119130529094715,1
31,929,35,0.119978738914675,1
31,930,35,0.110596133990801,1
42,906,35,0.18190546295666,1
42,907,35,0.214759443578251,1
42,908,35,0.147704180750444,1
43,905,35,0.185215407122588,1
43,906,35,0.247348094477818,1
43,907,35,0.327321923572629,2
43,908,35,0.218499636260499,1
43,909,35,0.105870186599851,1
43,949,35,0.118882551792725,1
43,950,35,0.109391006785513,1
44,906,35,0.174092353380028,1
44,907,35,0.251641756376588,1
44,908,35,0.226238924524783,1
44,909,35,0.179812987673294,1
44,949,35,0.111945853803452,1
44,950,35,0.103784127245801,1
45,907,35,0.168009899887863,1
45,908,35,0.257103139196656,1
45,909,35,0.292707320446285,1
45,910,35,0.15280288383101,1
46,908,35,0.216305344862848,1
46,909,35,0.264328455968865,1
46,910,35,0.157082363149187,1
46,911,35,0.0998459339741279,1
47,909,35,0.139118240353623,1
47,910,35,0.120137928033554,1
47,911,35,0.108473441750013,1
48,910,35,0.103466304546914,1
48,911,35,0.107467905500331,1
28,925,36,0.109671270699543,1
29,924,36,0.147270261320408,1
29,925,36,0.19115712410073,1
29,926,36,0.156836793182305,1
30,925,36,0.126561667572222,1
30,926,36,0.118144883315204,1
31,929,36,0.107718192101158,1
31,930,36,0.103052689517972,1
42,906,36,0.196587418529852,1
42,907,36,0.245468695583833,2
42,908,36,0.1511354720345,1
42,949,36,0.114089482234639,1
43,905,36,0.18106089137166,1
43,906,36,0.255097338870107,2
43,907,36,0.35441233001409,2
43,908,36,0.23025313947845,2
43,909,36,0.112320809862715,1
43,949,36,0.112814019451096,1
44,906,36,0.164244294025491,1
44,907,36,0.253646728841289,2
44,908,36,0.249240303444597,1
44,909,36,0.208265651677224,1
45,907,36,0.169344925152727,1
45,908,36,0.288450716258096,1
45,909,36,0.333459081304222,1
45,910,36,0.163980020916614,1
46,907,36,0.118319856273775,1
46,908,36,0.215606607677982,1
46,909,36,0.268186313962603,1
46,910,36,0.155829394243467,1
46,911,36,0.111324521701299,1
46,912,36,0.106173761360631,1
47,908,36,0.105814131638461,1
47,909,36,0.126260445681955,1
47,910,36,0.109160926549508,1
47,911,36,0.106619357999881,1
57,932,36,0.104406755605321,1
57,933,36,0.102206287922573,1
58,932,36,0.136770249868291,1
28,925,37,0.107857828430357,1
29,924,37,0.122349724352105,1
29,925,37,0.168038864159596,1
29,926,37,0.153072429112703,1
30,925,37,0.123806793881915,1
30,926,37,0.118860972920103,1
41,907,37,0.103348116375309,1
42,906,37,0.193629773151579,1
42,907,37,0.248454684337453,1
42,908,37,0.147802206128903,1
42,948,37,0.099699032067928,1
42,949,37,0.119393854519636,1
43,905,37,0.165016307876752,1
43,906,37,0.240730166871389,1
43,907,37,0.336964335508572,2
43,908,37,0.22728067973028,1
43,909,37,0.119519580591218,1
43,949,37,0.10215425244831,1
44,906,37,0.156482043487866,1
44,907,37,0.248135913954609,1
44,908,37,0.274300879780103,1
44,909,37,0.220377118000733,1
44,910,37,0.104715428252213,1
45,907,37,0.177990177493732,1
45,908,37,0.320661404652746,3
45,909,37,0.32921570111975,1
45,910,37,0.159988681092935,1
46,908,37,0.215358118408797,1
46,909,37,0.243010534115309,1
46,910,37,0.148543077124623,1
46,911,37,0.124999873518743,1
46,912,37,0.124485586132015,1
47,909,37,0.112834312959272,1
47,910,37,0.10045181991708,1
47,911,37,0.106824384522089,1
47,912,37,0.102558739211095,1
57,932,37,0.104883691172654,1
57,933,37,0.112148069952547,1
58,932,37,0.144704379775479,1
58,933,37,0.153997129010176,1
58,934,37,0.113647523830349,1
29,925,38,0.130189042291952,1
29,926,38,0.130235053981985,1
30,925,38,0.115680403953636,1
30,926,38,0.114800582882617,1
42,906,38,0.17607696697904,1
42,907,38,0.218153720723402,1
42,908,38,0.134670421864572,1
42,949,38,0.107955657736272,1
43,905,38,0.139086803389268,1
43,906,38,0.220483258603878,1
43,907,38,0.300653922745776,1
43,908,38,0.224023304791648,1
43,909,38,0.12376898455992,1
44,906,38,0.154912395639757,1
44,907,38,0.25530935864634,1
44,908,38,0.311881929763306,3
44,909,38,0.217884556693875,1
44,910,38,0.101614987598218,1
45,907,38,0.197084985285851,3
45,908,38,0.351716681124614,3
45,909,38,0.293543046981022,3
45,910,38,0.143088589522309,1
46,908,38,0.211964168051217,3
46,909,38,0.201008004721299,1
46,910,38,0.133211958041125,1
46,911,38,0.12508472935808,1
46,912,38,0.122885111323017,1
47,911,38,0.103602073889853,1
47,912,38,0.104296846052187,1
57,933,38,0.116864475146416,1
57,934,38,0.10360085388292,1
58,933,38,0.166288230461605,1
58,934,38,0.128911237530816,1
29,921,39,0.104307662720796,1
42,907,39,0.167807618381254,1
42,908,39,0.115949883877815,1
43,906,39,0.198982793213017,1
43,907,39,0.258996633527882,1
43,908,39,0.221388503747941,1
43,909,39,0.124031852482241,1
44,906,39,0.157327192397574,1
44,907,39,0.268454410486064,1
44,908,39,0.336725127006411,1
44,909,39,0.201131552209073,1
45,906,39,0.101268897774417,1
45,907,39,0.211168331386012,1
45,908,39,0.341617725165784,3
45,909,39,0.232018184508334,1
45,910,39,0.112851512878439,1
46,907,39,0.117610237062786,1
46,908,39,0.188054581113361,1
46,909,39,0.150340343409032,1
46,910,39,0.105421844945003,1
46,911,39,0.103287050671159,1
57,933,39,0.122528934656183,1
57,934,39,0.108848746382685,1
58,933,39,0.172971493796448,1
58,934,39,0.139561200906465,1
59,934,39,0.108822439983198,1
29,921,40,0.103327452507886,1
43,907,40,0.220530032798244,1
43,908,40,0.206871009466444,1
43,909,40,0.116984079397497,1
44,906,40,0.158610193081094,1
44,907,40,0.267669074594815,1
44,908,40,0.317095585818522,1
44,909,40,0.172868098208902,1
45,907,40,0.210863808941275,1
45,908,40,0.287877225856375,1
45,909,40,0.170386135712272,1
46,908,40,0.153994612745877,1
46,909,40,0.110975316502652,1
57,933,40,0.129205019557377,1
57,934,40,0.109755832430066,1
58,933,40,0.17151918447226,1
58,934,40,0.135050639203731,1
59,934,40,0.104138604617265,1
43,907,41,0.184828741175355,1
43,908,41,0.176940677422796,1
43,909,41,0.107132861096438,1
44,906,41,0.15607370063174,1
44,907,41,0.249019874334864,1
44,908,41,0.262382740983751,1
44,909,41,0.145135053115641,1
45,907,41,0.200985674237263,1
45,908,41,0.223619177495192,1
45,909,41,0.130361673272929,1
46,908,41,0.125919834996432,1
57,932,41,0.102199185739358,1
57,933,41,0.12652815006033,1
57,934,41,0.101926154723571,1
58,932,41,0.131692341370176,1
58,933,41,0.149056318791123,1
58,934,41,0.114654639553293,1
59,933,41,0.128266943155322,1
28,927,42,0.104661497410036,1
29,927,42,0.105966207681206,1
43,907,42,0.147948323744932,1
43,908,42,0.139224751316016,1
44,907,42,0.208960314910368,1
44,908,42,0.197769823106019,1
44,909,42,0.120067494419029,1
45,908,42,0.169197413243061,1
45,909,42,0.106130451114521,1
57,932,42,0.110144905712407,1
57,933,42,0.116552469266297,1
58,932,42,0.124966454043122,1
58,933,42,0.123507663432104,1
28,927,43,0.125444326401493,1
28,928,43,0.11072166398984,1
29,927,43,0.126052042354844,1
29,928,43,0.129227774865256,1
29,932,43,0.101195381463803,1
30,928,43,0.100144399955878,1
41,952,43,0.125529051525801,1
42,952,43,0.121129619383134,1
42,953,43,0.144990983368392,1
43,908,43,0.102928499347974,1
44,908,43,0.14168175813512,1
57,932,43,0.112364719219373,1
57,933,43,0.0998178193500806,1
58,932,43,0.112008858447191,1
58,933,43,0.104458028575251,1
59,940,43,0.107991364724892,1
28,916,44,0.108080457909736,1
28,917,44,0.116164670455485,1
28,927,44,0.134023524081427,1
28,928,44,0.141689513893478,1
28,929,44,0.102563521202554,1
28,932,44,0.149203667307004,1
29,927,44,0.132977923675508,1
29,928,44,0.164949523390105,1
29,929,44,0.119211147588545,1
29,932,44,0.142567210845284,1
29,933,44,0.120359544471463,1
30,928,44,0.109835503239939,1
41,951,44,0.106548466882756,1
41,952,44,0.154361649652996,1
41,953,44,0.190399216579629,1
42,952,44,0.158444272138246,1
42,953,44,0.207629679491878,1
42,954,44,0.154768380357103,1
43,953,44,0.112654699617189,1
57,931,44,0.113596653898423,1
57,932,44,0.115119418622975,1
58,932,44,0.105105067966344,1
58,943,44,0.10548771442645,1
59,940,44,0.101473902510787,1
59,941,44,0.141157710692931,1
27,917,45,0.100356158302053,1
27,928,45,0.11260488629841,1
27,932,45,0.113114969018388,1
28,916,45,0.113705354337543,1
28,917,45,0.12410769987753,1
28,927,45,0.141633578754198,1
28,928,45,0.196400321752388,1
28,929,45,0.157454759372475,1
28,931,45,0.118722229810266,1
28,932,45,0.209402785281852,1
28,933,45,0.158365995622011,1
29,927,45,0.134273701753064,1
29,928,45,0.208219117127077,1
29,929,45,0.167386095093087,1
29,931,45,0.105245477692795,1
29,932,45,0.185777329244287,1
29,933,45,0.141943711052241,1
30,928,45,0.115314096872093,1
40,951,45,0.10521994469056,1
40,952,45,0.100143092805593,1
41,951,45,0.110222517760581,1
41,952,45,0.169970429242874,1
41,953,45,0.215619831681699,1
42,952,45,0.182654906679666,1
42,953,45,0.250833654284541,1
42,954,45,0.166601565277847,1
43,953,45,0.128268794951559,1
44,955,45,0.0998244531377771,1
45,955,45,0.112609450431488,1
46,955,45,0.111036327742206,1
47,955,45,0.103258369615322,1
57,931,45,0.14329016298918,1
57,932,45,0.131143458072571,1
58,931,45,0.120881064756435,1
58,932,45,0.125966325974903,1
58,933,45,0.111509189357817,1
58,944,45,0.103305143809688,1
59,933,45,0.102101007860033,1
59,934,45,0.106590306584796,1
59,941,45,0.158400166709046,1
59,942,45,0.174760938964985,1
27,927,46,0.101555664761116,1
27,928,46,0.133454565134027,1
27,929,46,0.121460840372443,1
27,931,46,0.102010956098313,1
27,932,46,0.126889119611542,1
28,917,46,0.117917842203612,1
28,927,46,0.142119969375259,1
28,928,46,0.238770748594121,1
28,929,46,0.202635080038597,1
28,930,46,0.113370963508793,1
28,931,46,0.131178315413505,1
28,932,46,0.232864891105465,1
28,933,46,0.172021565898475,1
29,927,46,0.126062695629667,1
29,928,46,0.224978657363305,1
29,929,46,0.189945853289102,1
29,930,46,0.100363053519807,1
29,931,46,0.109106265881756,1
29,932,46,0.197020673491827,1
29,933,46,0.148024378105683,1
30,928,46,0.107029106042563,1
39,949,46,0.103981888191008,1
39,950,46,0.107595014972631,1
40,950,46,0.10143441567926,1
40,951,46,0.105655901096458,1
40,952,46,0.103142294670011,1
40,953,46,0.107907118889022,1
41,951,46,0.102508664462259,1
41,952,46,0.164551191126579,1
41,953,46,0.20964362772187,1
41,954,46,0.153664078010468,1
42,952,46,0.174710450285226,1
42,953,46,0.243348018533067,1
42,954,46,0.156233772077061,1
42,955,46,0.132933948961336,1
43,953,46,0.124012016476665,1
44,955,46,0.101342719086765,1
44,956,46,0.131519525209575,1
45,955,46,0.11930501187193,1
45,956,46,0.17077716972004,1
46,955,46,0.110901800192037,1
46,956,46,0.164842271709218,1
57,930,46,0.100104074369584,1
57,931,46,0.161075946914189,1
57,932,46,0.139647734255334,1
58,931,46,0.139440071646718,1
58,932,46,0.145286127009834,1
58,933,46,0.117079348867438,1
59,933,46,0.100145325853996,1
59,934,46,0.104766232826624,1
59,935,46,0.104224168496339,1
59,941,46,0.159214401514513,1
59,942,46,0.193872075242748,1
59,943,46,0.154740287518894,1
60,942,46,0.241042445074484,1
27,927,47,0.104287336533864,1
27,928,47,0.152298269356391,1
27,929,47,0.146492376185783,1
27,930,47,0.124355404856544,1
27,931,47,0.123610666874564,1
27,932,47,0.13089867239586,1
28,927,47,0.14261296110526,1
28,928,47,0.260814400285928,1
28,929,47,0.233550861789214,1
28,930,47,0.143286720826763,1
28,931,47,0.144410260068427,1
28,932,47,0.210814464018014,1
28,933,47,0.160983204601466,1
29,927,47,0.117656390360767,1
29,928,47,0.216985890872914,1
29,929,47,0.190080075837537,1
29,930,47,0.111028789842229,1
29,931,47,0.11245764671172,1
29,932,47,0.177033942595633,1
29,933,47,0.141737453630182,1
31,940,47,0.139304639984269,1
32,940,47,0.109914531367588,1
32,941,47,0.129540390748841,1
39,949,47,0.106502890909484,1
39,950,47,0.114225839795206,1
40,951,47,0.100325342234084,1
40,952,47,0.10850451924804,1
40,953,47,0.109292142652288,1
41,952,47,0.148150823109922,1
41,953,47,0.178007638842956,1
41,954,47,0.135422142207658,1
41,955,47,0.167096223624462,1
42,952,47,0.142299560931504,1
42,953,47,0.190450130083231,1
42,954,47,0.133265572988649,1
42,955,47,0.133197633852584,1
43,953,47,0.107213817270758,1
44,955,47,0.104265289265723,1
44,956,47,0.129032791614405,1
45,955,47,0.119885582671028,1
45,956,47,0.17304912763046,1
45,957,47,0.165658107773785,1
46,955,47,0.106925285631174,1
46,956,47,0.161742756953343,1
46,957,47,0.153081121662099,1
47,956,47,0.120580768764286,1
48,956,47,0.101750909442024,1
57,930,47,0.114530089916967,1
57,931,47,0.166444946887862,1
57,932,47,0.1376774666307,1
58,931,47,0.147531767627848,1
58,932,47,0.151138173478423,1
58,933,47,0.108996879188736,1
59,934,47,0.100538810768549,1
59,935,47,0.111848917716898,1
59,941,47,0.141777310820956,1
59,942,47,0.19438905318048,1
59,943,47,0.158116624026383,1
60,942,47,0.237776072584724,1
27,927,48,0.102813840482139,1
27,928,48,0.154384818891798,1
27,929,48,0.151558258901276,1
27,930,48,0.139411750057209,1
27,931,48,0.135282614807649,1
27,932,48,0.122126713620559,1
28,927,48,0.132206552506471,1
28,928,48,0.238302048073584,1
28,929,48,0.220659048531377,1
28,930,48,0.158090829594092,1
28,931,48,0.147100985358496,1
28,932,48,0.164166028402174,1
28,933,48,0.13502416941046,1
29,927,48,0.10299358453925,1
29,928,48,0.179143160295566,1
29,929,48,0.162272577642625,1
29,930,48,0.113799207728009,1
29,931,48,0.110520733205192,1
29,932,48,0.142045625202798,1
29,933,48,0.128536172542363,1
31,939,48,0.108941554052922,1
31,940,48,0.184177747654651,1
32,940,48,0.134776987291559,1
32,941,48,0.135962942959334,1
38,914,48,0.100818072534028,1
39,950,48,0.107466282455393,1
40,952,48,0.108250953878581,1
40,953,48,0.104300015891629,1
41,952,48,0.123380336101422,1
41,953,48,0.134943028056516,1
41,954,48,0.111863089404571,1
41,955,48,0.148834310208129,1
42,952,48,0.101822693778511,1
42,953,48,0.12715918775335,1
42,954,48,0.1064090266261,1
42,955,48,0.120430206837288,1
42,956,48,0.175953473955861,1
43,956,48,0.109284996897396,1
44,956,48,0.116377213091831,1
44,957,48,0.127247028252504,1
45,955,48,0.106470931085015,1
45,956,48,0.1529041879781,1
45,957,48,0.153449433040746,1
46,956,48,0.141896740785332,1
46,957,48,0.15069010414655,1
47,956,48,0.106609881160314,1
47,957,48,0.133076831380409,1
57,930,48,0.117972971266883,1
57,931,48,0.151524022456727,1
57,932,48,0.122995630879617,1
58,931,48,0.134336085500417,1
58,932,48,0.134572363807356,1
59,935,48,0.107735413806163,1
59,941,48,0.113869565092101,1
59,942,48,0.164533304953512,1
59,943,48,0.148327451792187,1
59,944,48,0.157581182590876,1
60,942,48,0.204134599273913,1
60,943,48,0.181373311182703,1
60,944,48,0.182537393869041,1
27,927,49,0.103435956874463,1
27,928,49,0.145950235605065,1
27,929,49,0.150221109517199,1
27,930,49,0.14869114457316,1
27,931,49,0.134883051644271,1
27,932,49,0.104536958666629,1
28,927,49,0.119246887255922,1
28,928,49,0.192479676973291,1
28,929,49,0.188113686092082,1
28,930,49,0.158949986797689,1
28,931,49,0.138130165453165,1
28,932,49,0.118293713268074,1
28,933,49,0.102287287668569,1
29,928,49,0.136909450480728,1
29,929,49,0.131184437234006,1
29,930,49,0.109256969416701,1
29,931,49,0.101483183277811,1
29,932,49,0.108151240097671,1
29,933,49,0.109041921408975,1
30,939,49,0.106787217882318,1
30,940,49,0.155069591354452,1
31,937,49,0.106912922168062,1
31,938,49,0.10210365483936,1
31,939,49,0.127721621842243,1
31,940,49,0.206278151454666,1
31,941,49,0.202222630551992,1
32,939,49,0.109545239626228,1
32,940,49,0.144935211622897,1
32,941,49,0.131746119711486,1
40,955,49,0.104197164950034,1
41,955,49,0.118396117599987,1
41,956,49,0.173416632933098,1
42,955,49,0.102566571219886,1
42,956,49,0.142974769411239,1
44,957,49,0.109558136842373,1
45,956,49,0.122052990344483,1
45,957,49,0.133998895191473,1
46,956,49,0.118475156620556,1
46,957,49,0.142726334606649,1
47,957,49,0.133595051110911,1
50,956,49,0.100529453751092,1
57,930,49,0.109757771369655,1
57,931,49,0.129221032148369,1
57,932,49,0.104497221297964,1
58,931,49,0.110285718476862,1
58,932,49,0.107039454315653,1
59,942,49,0.12139561357322,1
59,943,49,0.129566000001509,1
59,944,49,0.13995500171567,1
60,942,49,0.15496193663556,1
60,943,49,0.169842208692831,1
60,944,49,0.171967438983755,1
60,945,49,0.139729790614477,1
61,943,49,0.117768402247275,1
61,944,49,0.115215494168925,1
27,923,50,0.114058437415369,1
27,927,50,0.0997955106518827,1
27,928,50,0.133392235851269,1
27,929,50,0.149489835183155,1
27,930,50,0.149286682243022,1
27,931,50,0.122054155886821,1
28,927,50,0.102755704973212,1
28,928,50,0.144136902265069,1
28,929,50,0.151566199839257,1
28,930,50,0.144572412061285,1
28,931,50,0.120470477958986,1
29,928,50,0.103440760651761,1
29,929,50,0.104709099466249,1
29,937,50,0.116296354953783,1
30,933,50,0.0997563179291697,1
30,934,50,0.112080893320815,1
30,935,50,0.108340918496949,1
30,936,50,0.108175193626644,1
30,937,50,0.113459076330923,1
30,938,50,0.118778883882203,1
30,939,50,0.129078639910653,1
30,940,50,0.147959380057759,1
31,936,50,0.116489094263311,1
31,937,50,0.132399520567299,1
31,938,50,0.124937293698847,1
31,939,50,0.147327122357807,1
31,940,50,0.193911921540604,1
31,941,50,0.161632890971885,1
32,937,50,0.108488877016296,1
32,938,50,0.108417441253218,1
32,939,50,0.114109775742814,1
32,940,50,0.133307107688956,1
32,941,50,0.114253638524601,1
41,956,50,0.124504321952767,1
42,956,50,0.116750241104423,1
42,957,50,0.130889598594298,1
43,957,50,0.101114392610726,1
45,957,50,0.119856237147129,1
46,956,50,0.101498400685712,1
46,957,50,0.138395636783137,1
47,957,50,0.136506401583256,1
48,957,50,0.119234905044975,1
54,953,50,0.106535602345367,1
54,954,50,0.104973797398969,1
55,953,50,0.112893766511403,1
57,931,50,0.104434761300178,1
59,943,50,0.110352622785618,1
59,944,50,0.11987316474332,1
59,945,50,0.117507582193735,1
60,942,50,0.110290761898379,1
60,943,50,0.152362799008796,1
60,944,50,0.153926390393917,1
60,945,50,0.129108584545099,1
60,946,50,0.134041878650013,1
61,943,50,0.116667759921438,1
61,944,50,0.112457908141777,1
27,922,51,0.113711672230587,1
27,923,51,0.136134310361702,1
27,924,51,0.10590191767302,1
27,928,51,0.119445693921356,1
27,929,51,0.144043114232118,1
27,930,51,0.137934180053762,1
28,928,51,0.108979123730698,1
28,929,51,0.120121664905424,1
28,930,51,0.118193912343811,1
29,937,51,0.12471837870486,1
29,938,51,0.184435920728864,1
30,934,51,0.117346900744947,1
30,935,51,0.117556458721476,1
30,936,51,0.115762492991536,1
30,937,51,0.125127462279481,1
30,938,51,0.145508320772452,1
30,939,51,0.151319224685819,1
31,935,51,0.10976898018335,1
31,936,51,0.132632236889712,1
31,937,51,0.14567695405214,1
31,938,51,0.140630580554652,1
31,939,51,0.151807260137656,1
31,940,51,0.152087240835791,1
32,937,51,0.113857452166126,1
32,938,51,0.108594614581436,1
32,939,51,0.106628192157224,1
32,940,51,0.105782346100697,1
42,956,51,0.104545052105477,1
42,957,51,0.104936053434489,1
45,957,51,0.113955564687937,1
46,957,51,0.135557595655944,1
47,957,51,0.137143125380016,1
48,957,51,0.120173057697464,1
49,957,51,0.113002161948789,1
53,954,51,0.100023521233269,1
53,955,51,0.107653945664648,1
54,953,51,0.126167006222413,1
54,954,51,0.12088452870469,1
55,952,51,0.117645562799239,1
55,953,51,0.150309472876467,1
60,943,51,0.12628881084314,1
60,944,51,0.125996237930592,1
60,945,51,0.113894335590002,1
27,922,52,0.123142075283217,1
27,923,52,0.144541345456178,1
27,924,52,0.108762888394796,1
27,928,52,0.11221250156868,1
27,929,52,0.137227491037996,1
27,930,52,0.12666424619084,1
28,929,52,0.10543335876043,1
28,930,52,0.1047853825783,1
29,934,52,0.106135015247599,1
29,937,52,0.132637705135071,1
29,938,52,0.193906344366054,1
30,934,52,0.117454686178867,1
30,935,52,0.119588205981182,1
30,936,52,0.119207443996071,1
30,937,52,0.140222215912688,1
30,938,52,0.182750067220416,1
30,939,52,0.178678239617936,1
31,935,52,0.120069858182461,1
31,936,52,0.136009368580291,1
31,937,52,0.143783111147505,1
31,938,52,0.146908812480758,1
31,939,52,0.144024356625527,1
31,940,52,0.111796185095816,1
32,937,52,0.108404391536206,1
32,938,52,0.100836677639751,1
42,956,52,0.100539148449039,1
45,957,52,0.114347045305386,1
46,957,52,0.131809265963172,1
47,957,52,0.13185818606259,1
48,957,52,0.114073033926885,1
49,957,52,0.10600242663702,1
54,953,52,0.136806229179886,1
54,954,52,0.134763970253304,1
55,952,52,0.12747118274055,1
55,953,52,0.181056893670372,1
56,952,52,0.116481817793391,1
27,923,53,0.134983767573733,1
27,924,53,0.106532018575002,1
27,928,53,0.105257503475417,1
27,929,53,0.125369818835246,1
27,930,53,0.11581248059702,1
28,929,53,0.10691748630114,1
28,930,53,0.109865970734499,1
28,934,53,0.107295590414006,1
29,930,53,0.102389180033288,1
29,933,53,0.109963397002411,1
29,934,53,0.120726701200691,1
29,935,53,0.100883887550879,1
29,937,53,0.133414958480391,1
29,938,53,0.189448308318942,1
29,939,53,0.176407218498554,1
30,934,53,0.107572771631948,1
30,935,53,0.11004890641689,1
30,936,53,0.115548556061552,1
30,937,53,0.150213843940198,1
30,938,53,0.205776554318622,1
30,939,53,0.193903316134561,1
30,940,53,0.110966308058604,1
31,935,53,0.112991748318185,1
31,936,53,0.124408976232393,1
31,937,53,0.131961636114731,1
31,938,53,0.138685181464191,1
31,939,53,0.124474486247511,1
44,957,53,0.109812279536541,1
45,957,53,0.123863992599804,1
46,957,53,0.131597943333758,1
47,957,53,0.127573946538791,1
48,957,53,0.113504674090033,1
49,957,53,0.103185452415255,1
54,953,53,0.133158746131605,1
54,954,53,0.138084567694056,1
55,952,53,0.12094775120681,1
55,953,53,0.188845210963264,1
56,952,53,0.119740085951384,1
27,923,54,0.116064161491484,1
27,929,54,0.122003808815009,1
27,930,54,0.113447660551767,1
28,921,54,0.109657175262303,1
28,929,54,0.136947978735379,1
28,930,54,0.138641522644671,1
28,933,54,0.102606254123956,1
28,934,54,0.13511922102202,1
28,935,54,0.138526177524936,1
28,936,54,0.117625705007826,1
29,929,54,0.106562900000486,1
29,930,54,0.124202511844871,1
29,933,54,0.107453515954276,1
29,934,54,0.128855193462345,1
29,935,54,0.114938628845636,1
29,936,54,0.103963620765775,1
29,937,54,0.1361011305303,1
29,938,54,0.191679875285554,1
29,939,54,0.194773834652718,1
30,936,54,0.108776864009927,1
30,937,54,0.15383459576515,1
30,938,54,0.210272432366486,1
30,939,54,0.197874852631422,1
30,940,54,0.108109138965574,1
31,936,54,0.107165714140269,1
31,937,54,0.122027054304244,1
31,938,54,0.128951149186186,1
31,939,54,0.1106802817904,1
43,957,54,0.100782942870117,1
44,957,54,0.114482215537778,1
45,957,54,0.122783861640522,1
46,957,54,0.121027171479544,1
47,957,54,0.113296434156708,1
48,957,54,0.105115078558943,1
54,953,54,0.122803381751446,1
54,954,54,0.132788147239959,1
55,952,54,0.114025856694515,1
55,953,54,0.17799246500673,1
56,952,54,0.118560339247464,1
27,929,55,0.122778894469439,1
27,930,55,0.116484475665637,1
28,929,55,0.161153308425225,1
28,930,55,0.162005690233177,1
28,931,55,0.101379863940698,1
28,933,55,0.104915999570532,1
28,934,55,0.144835900879991,1
28,935,55,0.163854512703412,1
28,936,55,0.140009433632122,1
28,937,55,0.119267529337506,1
29,920,55,0.10813783091433,1
29,929,55,0.114214674553188,1
29,930,55,0.131986885901071,1
29,933,55,0.100043869206039,1
29,934,55,0.123959131354717,1
29,935,55,0.124725382851804,1
29,936,55,0.117003980760587,1
29,937,55,0.143565721162185,1
29,938,55,0.195801755851032,1
29,939,55,0.206092710400896,1
30,918,55,0.111779965539362,1
30,919,55,0.100560128211114,1
30,936,55,0.104161784748986,1
30,937,55,0.148660687971519,1
30,938,55,0.196527049972522,1
30,939,55,0.187049164685788,1
30,940,55,0.105330998000193,1
31,917,55,0.104529300944543,1
31,918,55,0.11724145728862,1
31,919,55,0.104259614054902,1
31,937,55,0.117101635779798,1
31,938,55,0.124505999462299,1
31,939,55,0.107032177845733,1
44,957,55,0.117660268239946,1
45,957,55,0.118299388478895,1
46,957,55,0.110648409109283,1
54,953,55,0.118320880208165,1
54,954,55,0.123265415805529,1
55,952,55,0.125240694172922,1
55,953,55,0.161170726202773,1
56,951,55,0.100144552456744,1
56,952,55,0.122850253982083,1
27,929,56,0.116457036402571,1
27,930,56,0.114194500867122,1
27,934,56,0.10596286355506,1
27,935,56,0.130719777986433,1
28,921,56,0.126301359485876,1
28,929,56,0.156196006326743,1
28,930,56,0.161326821732644,1
28,931,56,0.119652506882287,1
28,932,56,0.104403967018046,1
28,933,56,0.113546187004502,1
28,934,56,0.138889238516604,1
28,935,56,0.173617890505317,1
28,936,56,0.175058108689369,1
28,937,56,0.140015697060571,1
28,938,56,0.124753453904176,1
29,920,56,0.110984270482104,1
29,921,56,0.101385495579842,1
29,929,56,0.110812935758493,1
29,930,56,0.129033009472786,1
29,931,56,0.114472335660206,1
29,934,56,0.113640792006381,1
29,935,56,0.128939798764544,1
29,936,56,0.137925923221128,1
29,937,56,0.148779704004971,1
29,938,56,0.181739552906732,1
29,939,56,0.187923343224743,1
30,918,56,0.120848919752342,1
30,919,56,0.106931026199509,1
30,936,56,0.101311739625009,1
30,937,56,0.134818848779438,1
30,938,56,0.169058190844785,1
30,939,56,0.162196316316412,1
30,940,56,0.1005509672662,1
31,917,56,0.113228440556048,1
31,918,56,0.134013001521632,1
31,919,56,0.118106638276447,1
31,937,56,0.107668160923998,1
31,938,56,0.118084961367554,1
31,939,56,0.105412923644308,1
45,915,56,0.10545315119433,1
46,957,56,0.104256237249999,1
54,952,56,0.106626166074282,1
54,953,56,0.109466843287883,1
55,951,56,0.111143710138121,1
55,952,56,0.142506559072059,1
56,951,56,0.105590260366311,1
27,929,57,0.101250859100484,1
27,930,57,0.104294122822427,1
27,934,57,0.10584995844919,1
27,935,57,0.12854018113657,1
27,936,57,0.141957305415206,1
28,929,57,0.123480703457475,1
28,930,57,0.141009893781531,1
28,931,57,0.137592153288764,1
28,932,57,0.132078146776804,1
28,933,57,0.124751286213286,1
28,934,57,0.132431632892635,1
28,935,57,0.176649814698537,1
28,936,57,0.208734068981867,1
28,937,57,0.155962581964593,1
28,938,57,0.117842964278118,1
29,929,57,0.101182745677714,1
29,930,57,0.129773956718939,1
29,931,57,0.144556911437489,1
29,932,57,0.129929986891296,1
29,933,57,0.11042206514451,1
29,934,57,0.112069869686745,1
29,935,57,0.13483428404572,1
29,936,57,0.158416092156685,1
29,937,57,0.145779750529139,1
29,938,57,0.149025067006392,1
29,939,57,0.143150809875876,1
30,919,57,0.10269386587181,1
30,931,57,0.112731668983139,1
30,936,57,0.102087522426259,1
30,937,57,0.118272145288371,1
30,938,57,0.136217390655235,1
30,939,57,0.128387168302788,1
31,918,57,0.135054321010368,1
31,919,57,0.118518445080829,1
31,937,57,0.100483834206144,1
31,938,57,0.113544553066646,1
31,939,57,0.105869718204332,1
31,943,57,0.116538776867062,1
32,943,57,0.113771256497747,1
32,944,57,0.13128832300291,1
34,920,57,0.10482677567066,1
45,915,57,0.11130676624326,1
54,952,57,0.11343466529935,1
54,953,57,0.100364022989602,1
55,951,57,0.125305801150036,1
55,952,57,0.147242331875984,1
56,951,57,0.107896029897437,1
27,934,58,0.101512517908791,1
27,935,58,0.124994165629165,1
27,936,58,0.137914474763215,1
28,930,58,0.122140482270228,1
28,931,58,0.148725381017709,1
28,932,58,0.142471015477225,1
28,933,58,0.126598768854479,1
28,934,58,0.131475702996269,1
28,935,58,0.182257293348796,1
28,936,58,0.212506352203612,1
28,937,58,0.152284598742994,1
28,938,58,0.106162443617747,1
29,930,58,0.143594108109208,1
29,931,58,0.186218862824733,1
29,932,58,0.1652629453497,1
29,933,58,0.132097045991342,1
29,934,58,0.125124946015183,1
29,935,58,0.149986683006497,1
29,936,58,0.167038022758021,1
29,937,58,0.137271237000868,1
29,938,58,0.117988646177385,1
29,939,58,0.10595399671896,1
30,930,58,0.105999681621422,1
30,931,58,0.129858736307843,1
30,932,58,0.116018062658099,1
30,933,58,0.105586480523403,1
30,934,58,0.104033890986514,1
30,935,58,0.102308245644806,1
30,936,58,0.104314645081902,1
30,937,58,0.105651838037655,1
30,938,58,0.109814545263702,1
30,939,58,0.10547406559889,1
30,940,58,0.102510614294768,1
30,941,58,0.133802321574442,1
30,942,58,0.144317528648623,1
31,919,58,0.110038906717209,1
31,938,58,0.108434259920219,1
31,939,58,0.111277518755633,1
31,941,58,0.100666965961078,1
31,942,58,0.112981312901743,1
31,943,58,0.124174625972124,1
31,944,58,0.142658112254689,1
32,922,58,0.101967939961016,1
32,923,58,0.105139740127654,1
32,939,58,0.102814417806848,1
32,943,58,0.13276118726533,1
32,944,58,0.191640660777003,1
32,945,58,0.171308079701226,1
33,920,58,0.109242100582209,1
33,921,58,0.105282677011323,1
33,922,58,0.107038103593692,1
33,944,58,0.121040036016933,1
33,945,58,0.125709568980165,1
33,946,58,0.119366589543274,1
34,919,58,0.103625907596717,1
34,920,58,0.128961377637166,1
34,921,58,0.109872343092139,1
35,920,58,0.115529112201062,1
54,952,58,0.112045382404739,1
55,951,58,0.130153193695385,1
55,952,58,0.137200106239524,1
27,934,59,0.101989115795634,1
27,936,59,0.134351586124214,1
28,930,59,0.140039465409921,1
28,931,59,0.172657483619225,1
28,932,59,0.149288501360502,1
28,933,59,0.131084363986768,1
28,934,59,0.143868195738142,1
28,935,59,0.2007212377346,1
28,936,59,0.206207848555169,1
28,937,59,0.146200979708492,1
28,938,59,0.101318678414439,1
29,924,59,0.101316554295226,1
29,929,59,0.10116118859093,1
29,930,59,0.185479102906756,1
29,931,59,0.248071493231395,1
29,932,59,0.217422326567249,1
29,933,59,0.1777206104262,1
29,934,59,0.158069991439965,1
29,935,59,0.181555974542117,1
29,936,59,0.177732352992927,1
29,937,59,0.137294678562647,1
29,938,59,0.104717988088188,1
29,941,59,0.128021209794654,1
30,930,59,0.116935660372355,1
30,931,59,0.157846338026195,1
30,932,59,0.160915984398058,1
30,933,59,0.151793012199549,1
30,934,59,0.126159609930383,1
30,935,59,0.121695811529097,1
30,936,59,0.117815318049589,1
30,937,59,0.107764280041624,1
30,938,59,0.101958593836478,1
30,939,59,0.105711062838486,1
30,940,59,0.118426868310443,1
30,941,59,0.168185341241953,1
30,942,59,0.165702518204719,1
31,938,59,0.109823727994455,1
31,939,59,0.126669485684899,1
31,940,59,0.112066166094271,1
31,941,59,0.118835668669169,1
31,942,59,0.118757217866228,1
31,943,59,0.124901347066008,1
31,944,59,0.169241496886424,1
32,922,59,0.112481796313236,1
32,923,59,0.116613088360766,1
32,938,59,0.104018782507803,1
32,939,59,0.116655276636215,1
32,943,59,0.141144552046728,1
32,944,59,0.237938159220068,1
32,945,59,0.207854182553333,1
33,919,59,0.104037278684336,1
33,920,59,0.114686479555652,1
33,921,59,0.111296450648928,1
33,922,59,0.121781582373634,1
33,923,59,0.101794088973106,1
33,944,59,0.140250003749164,1
33,945,59,0.142639648756913,1
33,946,59,0.148105737318007,1
33,947,59,0.149664666533778,1
34,919,59,0.11332654218494,1
34,920,59,0.13885950084762,1
34,921,59,0.118972919449097,1
34,946,59,0.104319764753852,1
34,947,59,0.115419812651395,1
35,919,59,0.100359219212304,1
35,920,59,0.131901017020263,1
35,921,59,0.106654814451362,1
54,952,59,0.100969015713192,1
55,950,59,0.107932575640823,1
55,951,59,0.119742417036059,1
56,950,59,0.103171879838129,1
27,934,60,0.105122148063401,1
27,936,60,0.131012851973257,1
28,930,60,0.1541796834404,1
28,931,60,0.176508021571368,1
28,932,60,0.145073671516839,1
28,933,60,0.135717601743752,1
28,934,60,0.155341195397844,1
28,935,60,0.207057714098823,1
28,936,60,0.192897681848607,1
28,937,60,0.138637241727487,1
29,924,60,0.113043849149963,1
29,929,60,0.103626637422293,1
29,930,60,0.20571313574396,1
29,931,60,0.266979727106164,1
29,932,60,0.244557895051058,1
29,933,60,0.221280859921968,1
29,934,60,0.195497821623923,1
29,935,60,0.214135954678127,1
29,936,60,0.191544563445215,1
29,937,60,0.138638537984853,1
29,941,60,0.140104300064059,1
30,930,60,0.119844146006992,1
30,931,60,0.167861200650022,1
30,932,60,0.194950866372988,1
30,933,60,0.195516056370399,1
30,934,60,0.152354150031077,1
30,935,60,0.147632766773205,1
30,936,60,0.137657129550849,1
30,937,60,0.111234154044927,1
30,939,60,0.11830034705577,1
30,940,60,0.147122673160308,1
30,941,60,0.192081518996469,1
30,942,60,0.1686459810024,1
30,943,60,0.121760624397397,1
31,932,60,0.103265656978161,1
31,933,60,0.106956101699144,1
31,938,60,0.110284444005334,1
31,939,60,0.142556927929709,1
31,940,60,0.138152942546882,1
31,941,60,0.138231436921498,1
31,942,60,0.122646578181837,1
31,943,60,0.138265259435124,1
31,944,60,0.208064067317434,1
32,922,60,0.115756240456006,1
32,923,60,0.116587522679774,1
32,938,60,0.101668101471467,1
32,939,60,0.118922790235666,1
32,943,60,0.143622756486288,1
32,944,60,0.25499690615654,1
32,945,60,0.225344398013057,1
32,946,60,0.158561970128495,1
33,919,60,0.110886887785869,1
33,920,60,0.114952364816548,1
33,921,60,0.114117803824148,1
33,922,60,0.124083343310552,1
33,923,60,0.102565111568734,1
33,944,60,0.143163870485808,1
33,945,60,0.150941697897663,1
33,946,60,0.171203758215561,1
33,947,60,0.184449776521886,1
34,919,60,0.118476191447865,1
34,920,60,0.137882384223718,1
34,921,60,0.121103236733214,1
34,946,60,0.118374331761903,1
34,947,60,0.138817388822603,1
34,948,60,0.101870502800186,1
35,919,60,0.10103987415156,1
35,920,60,0.132660939731387,1
35,921,60,0.110309465040374,1
44,956,60,0.113893769158212,1
45,956,60,0.108064401747068,1
46,956,60,0.103614284852099,1
55,950,60,0.111735903681837,1
27,934,61,0.109566284745817,1
28,930,61,0.151753220366289,1
28,931,61,0.163008143786771,1
28,932,61,0.13856149236847,1
28,933,61,0.13960320400229,1
28,934,61,0.158557863498016,1
28,935,61,0.196628702693021,1
28,936,61,0.183318154734292,1
28,937,61,0.134139620812576,1
29,929,61,0.100234604218464,1
29,930,61,0.194944657409134,1
29,931,61,0.24140371962743,1
29,932,61,0.240706420307878,1
29,933,61,0.237729233032843,1
29,934,61,0.212103967774202,1
29,935,61,0.228467419688226,1
29,936,61,0.205626275607519,1
29,937,61,0.141093159254688,1
29,940,61,0.123889100778196,1
29,941,61,0.138204967128226,1
30,923,61,0.101172419190463,1
30,930,61,0.120244242923404,1
30,931,61,0.167425897819267,1
30,932,61,0.215922916261123,1
30,933,61,0.22091893179388,1
30,934,61,0.169610461840213,1
30,935,61,0.169536193918185,1
30,936,61,0.159229727851605,1
30,937,61,0.119610351285595,1
30,938,61,0.10547793258515,1
30,939,61,0.135399179934317,1
30,940,61,0.172845952904489,1
30,941,61,0.190530672326627,1
30,942,61,0.154562220971315,1
30,943,61,0.143079548399504,1
31,932,61,0.121024143248051,1
31,933,61,0.117044480633585,1
31,938,61,0.112402408719258,1
31,939,61,0.147771836670614,1
31,940,61,0.153606585183764,1
31,941,61,0.145960605663993,1
31,942,61,0.127645981412416,1
31,943,61,0.164938031360516,1
31,944,61,0.246575220085953,1
32,922,61,0.107583196155471,1
32,923,61,0.104034435632466,1
32,939,61,0.110561875760414,1
32,943,61,0.142546917337109,1
32,944,61,0.231452014148209,1
32,945,61,0.21714375105567,1
32,946,61,0.171646893055107,1
33,919,61,0.115961942339195,1
33,920,61,0.114358058046537,1
33,921,61,0.113079381851878,1
33,922,61,0.111842392858392,1
33,944,61,0.131067164067601,1
33,945,61,0.153321539278274,1
33,946,61,0.183122550587056,1
33,947,61,0.19552775536545,1
34,919,61,0.116972870583803,1
34,920,61,0.130648483831304,1
34,921,61,0.119098351411865,1
34,946,61,0.132281114537313,1
34,947,61,0.14942007692961,1
34,948,61,0.11042195621532,1
35,920,61,0.118862465250012,1
35,921,61,0.104554746803425,1
37,949,61,0.100493398189063,1
45,956,61,0.12856202143925,1
46,955,61,0.100654471782936,1
46,956,61,0.122242919280899,1
55,949,61,0.10821912476914,1
55,950,61,0.112737267943527,1
56,948,61,0.121174487316668,1
56,949,61,0.136580473432742,1
28,930,62,0.134179292823727,1
28,931,62,0.141572894302215,1
28,932,62,0.130853139994264,1
28,933,62,0.13544372108028,1
28,934,62,0.149124998645683,1
28,935,62,0.173647922283116,1
28,936,62,0.167103205985568,1
28,937,62,0.124007016626825,1
29,930,62,0.163572091991411,1
29,931,62,0.195937220192238,1
29,932,62,0.213749974984794,1
29,933,62,0.217098109724884,1
29,934,62,0.199881132246408,1
29,935,62,0.219005329134103,1
29,936,62,0.206432613046681,1
29,937,62,0.139035998814857,1
29,939,62,0.10618242123127,1
29,940,62,0.138679985541808,1
29,941,62,0.130816016926169,1
30,923,62,0.101168987920964,1
30,930,62,0.118426759381252,1
30,931,62,0.162919497211608,1
30,932,62,0.218907053218506,1
30,933,62,0.215418073035204,1
30,934,62,0.169855269302762,1
30,935,62,0.175970499588323,1
30,936,62,0.171999170056924,1
30,937,62,0.131203652343196,1
30,938,62,0.115250819905378,1
30,939,62,0.144203773895067,1
30,940,62,0.189005554731562,1
30,941,62,0.173577510454428,1
30,942,62,0.144317256325647,1
30,943,62,0.172037622061143,1
31,931,62,0.102519176129135,1
31,932,62,0.131004083173429,1
31,933,62,0.119673464858524,1
31,936,62,0.101473390543592,1
31,937,62,0.102404201368647,1
31,938,62,0.114572289085336,1
31,939,62,0.136549417720553,1
31,940,62,0.151482226326363,1
31,941,62,0.140354739165752,1
31,942,62,0.141709752937058,1
31,943,62,0.200031498100863,1
31,944,62,0.276830934514304,1
31,945,62,0.25327423458173,1
32,942,62,0.106202943490745,1
32,943,62,0.148242933633341,1
32,944,62,0.206321570629967,1
32,945,62,0.211939288624125,1
32,946,62,0.18298618213357,1
33,919,62,0.119394856668188,1
33,920,62,0.11332313270128,1
33,921,62,0.108210116325093,1
33,944,62,0.126535491887764,1
33,945,62,0.162078640112001,1
33,946,62,0.183624899334514,1
33,947,62,0.181871618657196,1
34,919,62,0.111300905852816,1
34,920,62,0.119789681411783,1
34,921,62,0.112137166140586,1
34,945,62,0.11047289150476,1
34,946,62,0.144402547881745,1
34,947,62,0.146533126595919,1
34,948,62,0.113296695586765,1
35,920,62,0.102321023038842,1
35,947,62,0.105307905011824,1
35,948,62,0.102253236403644,1
36,948,62,0.101850601437096,1
36,949,62,0.116097918647595,1
36,950,62,0.106798742590664,1
37,949,62,0.113069382152197,1
37,950,62,0.108622217238288,1
37,951,62,0.122750376807387,1
46,955,62,0.113345278005692,1
46,956,62,0.133007225627731,1
47,955,62,0.107689587295754,1
55,948,62,0.110096268828884,1
55,949,62,0.121243962354318,1
56,947,62,0.117584921918933,1
56,948,62,0.166081591787379,1
28,930,63,0.110258300999634,1
28,931,63,0.118274465480127,1
28,932,63,0.121968537543151,1
28,933,63,0.125218712262296,1
28,934,63,0.136513078942629,1
28,935,63,0.159778774542996,1
28,936,63,0.159764014637694,1
28,937,63,0.119980906605564,1
29,930,63,0.128905682142104,1
29,931,63,0.156063145393188,1
29,932,63,0.181624752432948,1
29,933,63,0.176029168850283,1
29,934,63,0.171828979089813,1
29,935,63,0.200674289253529,1
29,936,63,0.202075336500706,1
29,937,63,0.142207809874414,1
29,938,63,0.105528944125024,1
29,939,63,0.116031667913982,1
29,940,63,0.160049082329022,1
29,941,63,0.131339955439168,1
30,930,63,0.114866670222444,1
30,931,63,0.159998038110392,1
30,932,63,0.210185811874265,1
30,933,63,0.188908193821165,1
30,934,63,0.156788047369592,1
30,935,63,0.168187868399171,1
30,936,63,0.176313833503607,1
30,937,63,0.152057045664207,1
30,938,63,0.134837976745275,1
30,939,63,0.150241882313812,1
30,940,63,0.201552737816749,1
30,941,63,0.162435808034468,1
30,942,63,0.150602361683668,1
30,943,63,0.205628497763004,1
31,931,63,0.113797998613995,1
31,932,63,0.135622974956034,1
31,933,63,0.116076579419192,1
31,936,63,0.107714575652036,1
31,937,63,0.121604539760445,1
31,938,63,0.126956633923764,1
31,939,63,0.125727596761179,1
31,940,63,0.143112412336253,1
31,941,63,0.136091414046515,1
31,942,63,0.170226303911169,1
31,943,63,0.238746740600553,1
31,944,63,0.286049154396915,1
31,945,63,0.287096748207019,1
32,941,63,0.100022845872288,1
32,942,63,0.128191498798037,1
32,943,63,0.159244052040145,1
32,944,63,0.187712761313824,1
32,945,63,0.212381366850524,1
32,946,63,0.190922403481214,1
33,920,63,0.110239140355039,1
33,921,63,0.101410941438724,1
33,943,63,0.102268617205331,1
33,944,63,0.137585770038205,1
33,945,63,0.1812505479851,1
33,946,63,0.181493383829302,1
33,947,63,0.164305305265045,1
34,919,63,0.103087220071335,1
34,920,63,0.105086974827815,1
34,921,63,0.103103112840217,1
34,945,63,0.133834815151944,1
34,946,63,0.156228881156412,1
34,947,63,0.145311736262501,1
34,948,63,0.117976903610657,1
35,946,63,0.102986133782625,1
35,947,63,0.118546178452709,1
35,948,63,0.113129260528171,1
35,949,63,0.11222717433063,1
36,948,63,0.10800548194797,1
36,949,63,0.129509618252548,1
36,950,63,0.119152402076152,1
37,949,63,0.121500991672032,1
37,950,63,0.11778824914577,1
37,951,63,0.141327912552961,1
38,951,63,0.108847264945695,1
38,952,63,0.14165242350414,1
45,955,63,0.10398402320314,1
46,955,63,0.111158862188509,1
49,926,63,0.100248993764519,1
49,953,63,0.105020582486254,1
50,926,63,0.115407656153744,1
55,947,63,0.104060426137301,1
55,948,63,0.136985330554774,1
56,947,63,0.141250104432245,1
28,932,64,0.108619929725289,1
28,933,64,0.112934375313591,1
28,934,64,0.121308982188079,1
28,935,64,0.143046945892811,1
28,936,64,0.145886043633151,1
29,931,64,0.122250882004718,1
29,932,64,0.150782399849593,1
29,933,64,0.14227595597594,1
29,934,64,0.143844656140092,1
29,935,64,0.172742426601915,1
29,936,64,0.183076440860751,1
29,937,64,0.141702803254709,1
29,938,64,0.1099021243328,1
29,939,64,0.121486536768463,1
29,940,64,0.165335296117976,1
30,930,64,0.106913238062714,1
30,931,64,0.155160590800128,1
30,932,64,0.190324992229277,1
30,933,64,0.159140612880923,1
30,934,64,0.137194224063242,1
30,935,64,0.146785341243417,1
30,936,64,0.165386438372878,1
30,937,64,0.165228469260932,1
30,938,64,0.14452335035392,1
30,939,64,0.149084455201008,1
30,940,64,0.195783259674499,1
30,941,64,0.154248820797559,1
30,942,64,0.157047189913601,1
31,930,64,0.100639820806825,1
31,931,64,0.129122810697368,1
31,932,64,0.137856186753422,1
31,933,64,0.111323497766909,1
31,936,64,0.110205503021037,1
31,937,64,0.13757206674605,1
31,938,64,0.134340889277714,1
31,939,64,0.118565230168114,1
31,940,64,0.132796001034588,1
31,941,64,0.136384673212962,1
31,942,64,0.195651847499176,1
31,943,64,0.256936782537047,1
31,944,64,0.27716445390953,1
32,941,64,0.110219042919406,1
32,942,64,0.151456050641905,1
32,943,64,0.171681717717285,1
32,944,64,0.184810680715584,1
32,945,64,0.220523976335257,1
32,946,64,0.202547631684528,1
33,942,64,0.100266466006662,1
33,943,64,0.117703262591404,1
33,944,64,0.158035885710444,1
33,945,64,0.200519043371343,1
33,946,64,0.185513742389309,1
33,947,64,0.158402192791987,1
34,944,64,0.119838982763366,1
34,945,64,0.157328292582398,1
34,946,64,0.167970315020065,1
34,947,64,0.152258139842641,1
34,948,64,0.126313722948989,1
35,946,64,0.113810721543436,1
35,947,64,0.130285738734288,1
35,948,64,0.12319957900284,1
35,949,64,0.123905124262107,1
36,920,64,0.110007731182911,1
36,921,64,0.102142618810773,1
36,948,64,0.111780226969419,1
36,949,64,0.134628974307617,1
36,950,64,0.13087797584968,1
37,949,64,0.121891579070119,1
37,950,64,0.125964299891961,1
37,951,64,0.151509589338996,1
38,951,64,0.120997226845098,1
38,952,64,0.150466701269919,1
48,953,64,0.101734766136004,1
49,926,64,0.121023555030423,1
49,952,64,0.109960739130164,1
49,953,64,0.120225844783142,1
49,954,64,0.10577037478267,1
50,926,64,0.1294094251832,1
50,953,64,0.10561619640655,1
52,951,64,0.101662927334922,1
52,952,64,0.104708424105269,1
55,947,64,0.117773783349282,1
29,931,65,0.10419653316073,1
29,932,65,0.125364808092487,1
29,933,65,0.116484312271852,1
29,934,65,0.118084253327816,1
29,935,65,0.137932350043363,1
29,936,65,0.149514976040304,1
29,937,65,0.133000275945382,1
29,938,65,0.111866487995312,1
29,939,65,0.121105720318756,1
30,931,65,0.138622601644295,1
30,932,65,0.15669416130037,1
30,933,65,0.127952595297609,1
30,934,65,0.113535315871298,1
30,935,65,0.119467174757707,1
30,936,65,0.139521474430719,1
30,937,65,0.157031242680123,1
30,938,65,0.142238582370707,1
30,939,65,0.145971542154711,1
30,940,65,0.188955229445588,1
30,941,65,0.155789635088963,1
30,942,65,0.162423858502279,1
31,931,65,0.127352526173425,1
31,932,65,0.126908051504837,1
31,933,65,0.100226162206207,1
31,936,65,0.103774487012449,1
31,937,65,0.136081523276025,1
31,938,65,0.132534309547524,1
31,939,65,0.119147663656368,1
31,940,65,0.134300389404716,1
31,941,65,0.145133277569837,1
31,942,65,0.206498929137809,1
31,943,65,0.241385877026039,1
31,944,65,0.245276021631818,1
32,940,65,0.101265357575729,1
32,941,65,0.125853693192009,1
32,942,65,0.170374534753492,1
32,943,65,0.178622075727356,1
32,944,65,0.182572981035551,1
32,945,65,0.21544722248656,1
33,942,65,0.115151803271287,1
33,943,65,0.134987373129936,1
33,944,65,0.171125187590512,1
33,945,65,0.200791889207506,1
33,946,65,0.181764889836423,1
33,947,65,0.154940183476233,1
34,943,65,0.11027721110709,1
34,944,65,0.143412947972621,1
34,945,65,0.171105013904446,1
34,946,65,0.170727127649961,1
34,947,65,0.158481721993913,1
34,948,65,0.137853692274961,1
35,920,65,0.107850933212603,1
35,921,65,0.101378970721336,1
35,945,65,0.104152634696991,1
35,946,65,0.121802115526028,1
35,947,65,0.13673660164137,1
35,948,65,0.130815025670536,1
35,949,65,0.128365066570052,1
36,919,65,0.130348438376293,1
36,920,65,0.138783620773573,1
36,921,65,0.118232691135601,1
36,947,65,0.104026875946651,1
36,948,65,0.116291464033133,1
36,949,65,0.129647272070481,1
36,950,65,0.136924918425767,1
37,919,65,0.100160880942388,1
37,920,65,0.110365803217659,1
37,949,65,0.115412721361099,1
37,950,65,0.133086950902199,1
37,951,65,0.151950883275224,1
38,950,65,0.104992184646312,1
38,951,65,0.128336984624762,1
38,952,65,0.150642099052333,1
39,952,65,0.105142267284872,1
41,951,65,0.101228256293472,1
48,952,65,0.107423092031392,1
48,953,65,0.105407738614844,1
49,926,65,0.119745848305558,1
49,952,65,0.123973390185743,1
49,953,65,0.121073651565097,1
50,925,65,0.104451928540588,1
50,926,65,0.123869711382301,1
50,952,65,0.114500864215177,1
51,951,65,0.104286432421583,1
51,952,65,0.121253123299232,1
52,950,65,0.125942982449396,1
52,951,65,0.121495360032887,1
53,944,65,0.105511874920885,1
53,950,65,0.116314088625983,1
54,943,65,0.100978045943078,1
54,944,65,0.112594265702344,1
29,938,66,0.120177295042972,1
29,939,66,0.129295986324297,1
30,931,66,0.11336076773657,1
30,932,66,0.117025897313699,1
30,935,66,0.100534573423042,1
30,936,66,0.118303930826135,1
30,937,66,0.139543314733398,1
30,938,66,0.136157719244723,1
30,939,66,0.150121188770827,1
30,940,66,0.176686905087875,1
30,941,66,0.165357637494932,1
30,942,66,0.169821250716594,1
31,931,66,0.110633572953548,1
31,932,66,0.107585309381765,1
31,937,66,0.120475913525588,1
31,938,66,0.121253733302698,1
31,939,66,0.123724378056443,1
31,940,66,0.137167438375318,1
31,941,66,0.157053780129621,1
31,942,66,0.198590255982421,1
31,943,66,0.203527776539923,1
31,944,66,0.20134374627201,1
32,939,66,0.101265052573995,1
32,940,66,0.110622919678725,1
32,941,66,0.138738992484258,1
32,942,66,0.178005242400767,1
32,943,66,0.183733174949791,1
32,944,66,0.182009239796372,1
32,945,66,0.196030180363342,1
33,941,66,0.109587351651244,1
33,942,66,0.130747947075076,1
33,943,66,0.152817229805388,1
33,944,66,0.173685644461758,1
33,945,66,0.18238186477096,1
33,946,66,0.169354260384346,1
33,947,66,0.153340906888331,1
34,942,66,0.103259709444364,1
34,943,66,0.12960055234071,1
34,944,66,0.161987793167192,1
34,945,66,0.180380759292518,1
34,946,66,0.170808029359686,1
34,947,66,0.162358914918951,1
34,948,66,0.152282790518433,1
35,921,66,0.101042292379587,1
35,944,66,0.115548479811119,1
35,945,66,0.135116704757721,1
35,946,66,0.136757319973388,1
35,947,66,0.141652172967002,1
35,948,66,0.139587376590923,1
35,949,66,0.131772284503025,1
36,920,66,0.142486134848855,1
36,921,66,0.116056514662317,1
36,947,66,0.118261731657767,1
36,948,66,0.127571778847902,1
36,949,66,0.127750695043166,1
36,950,66,0.140982345589274,1
37,920,66,0.109106549097651,1
37,947,66,0.103258217114455,1
37,948,66,0.112954755965119,1
37,949,66,0.116024031977734,1
37,950,66,0.14200864374265,1
37,951,66,0.151478740592269,1
38,950,66,0.11471060737133,1
38,951,66,0.135023178154827,1
39,949,66,0.10123760241801,1
39,950,66,0.104001037942684,1
39,951,66,0.114765812685035,1
39,952,66,0.126669725329118,1
40,949,66,0.105641195655751,1
40,950,66,0.111862370471915,1
40,951,66,0.112748988724416,1
40,952,66,0.108714709013873,1
41,950,66,0.109475677445226,1
41,951,66,0.114435441343411,1
41,952,66,0.100021876402494,1
41,953,66,0.101920065581827,1
48,951,66,0.108462134900047,1
48,952,66,0.111641679932124,1
48,953,66,0.105997590180966,1
49,926,66,0.102218640492767,1
49,950,66,0.111353889011036,1
49,951,66,0.135479635034361,1
49,952,66,0.133295528516015,1
50,925,66,0.103540343717642,1
50,926,66,0.106479928636144,1
50,950,66,0.105561742704259,1
50,951,66,0.129427191534157,1
50,952,66,0.134641250627377,1
51,950,66,0.114797423936095,1
51,951,66,0.125766201266264,1
52,949,66,0.112107537400792,1
52,950,66,0.149865880534321,1
53,943,66,0.133784914689813,1
53,944,66,0.12931845841628,1
53,949,66,0.105890828681436,1
54,943,66,0.12945684205979,1
54,944,66,0.127672026381845,1
30,936,67,0.107706395069835,1
30,937,67,0.123399954248617,1
30,938,67,0.130286697311163,1
30,939,67,0.150804218366434,1
30,940,67,0.16565498150602,1
30,941,67,0.176020487193807,1
31,937,67,0.103558404177414,1
31,938,67,0.112061678211625,1
31,939,67,0.131153087413004,1
31,940,67,0.147725367477981,1
31,941,67,0.174778422100047,1
31,942,67,0.195932579808726,1
31,943,67,0.181760521775887,1
32,939,67,0.110981144214339,1
32,940,67,0.126821126010882,1
32,941,67,0.154314570456896,1
32,942,67,0.181391916288426,1
32,943,67,0.195060187708493,1
32,944,67,0.196142660645369,1
32,945,67,0.188851027782033,1
33,940,67,0.103327605008753,1
33,941,67,0.121095165080204,1
33,942,67,0.145357377593287,1
33,943,67,0.170687510103406,1
33,944,67,0.176636754088606,1
33,945,67,0.167690083784791,1
33,946,67,0.160124820795121,1
34,941,67,0.10669088090631,1
34,942,67,0.122075026719705,1
34,943,67,0.143621285942218,1
34,944,67,0.171363470194555,1
34,945,67,0.189054028221299,1
34,946,67,0.173953806342733,1
34,947,67,0.167277405546887,1
35,941,67,0.115520005720743,1
35,942,67,0.116079171933924,1
35,943,67,0.114758525322196,1
35,944,67,0.14445616282927,1
35,945,67,0.170659319228925,1
35,946,67,0.156763636338019,1
35,947,67,0.148771795745747,1
35,948,67,0.152898480088522,1
36,921,67,0.107130551797601,1
36,941,67,0.111382766139416,1
36,942,67,0.109074327843125,1
36,944,67,0.102474231945167,1
36,945,67,0.115573348345292,1
36,946,67,0.117684156411405,1
36,947,67,0.13144533353798,1
36,948,67,0.14215771333974,1
36,949,67,0.12959760035965,1
37,947,67,0.118755474999182,1
37,948,67,0.130895491663499,1
37,949,67,0.12279173722099,1
37,950,67,0.14356759474426,1
38,947,67,0.104110065169375,1
38,948,67,0.112028520166062,1
38,949,67,0.108231695197715,1
38,950,67,0.118866626345086,1
38,951,67,0.130991992033292,1
39,948,67,0.110850919367192,1
39,949,67,0.117811941244686,1
39,950,67,0.113314135150151,1
39,951,67,0.122811921799975,1
39,952,67,0.143895787502075,1
40,948,67,0.109066452262657,1
40,949,67,0.12861227047479,1
40,950,67,0.120113767539119,1
40,951,67,0.1159514197794,1
40,952,67,0.121330550167782,1
41,949,67,0.113307218146559,1
41,950,67,0.121564540961722,1
41,951,67,0.115979741368909,1
41,952,67,0.100757605940426,1
42,950,67,0.120365317718555,1
42,951,67,0.117274876764241,1
48,947,67,0.100921675087036,1
48,950,67,0.114888902670209,1
48,951,67,0.119283792465636,1
48,952,67,0.112424270807775,1
49,946,67,0.11707876064981,1
49,947,67,0.122323766526028,1
49,948,67,0.107858688970961,1
49,949,67,0.121971435059616,1
49,950,67,0.161745393039751,1
49,951,67,0.171200860699096,1
49,952,67,0.143230480685749,1
50,945,67,0.112110336880986,1
50,946,67,0.104783966498825,1
50,949,67,0.110402599498182,1
50,950,67,0.152366524387108,1
50,951,67,0.173373017685254,1
50,952,67,0.159512377314906,1
51,944,67,0.10987380274329,1
51,945,67,0.12405244009923,1
51,949,67,0.100560563927876,1
51,950,67,0.136979971238605,1
51,951,67,0.155181733955989,1
52,943,67,0.120008138903169,1
52,944,67,0.124436284780431,1
52,945,67,0.118895449008871,1
52,949,67,0.120361755734028,1
52,950,67,0.154259789967034,1
53,942,67,0.145468877512601,1
53,943,67,0.185912292511216,1
53,944,67,0.150617611770326,1
53,945,67,0.109001007605053,1
54,942,67,0.13119246531534,1
54,943,67,0.170315244595147,1
54,944,67,0.135057861209056,1
55,939,67,0.112641181504658,1
30,940,68,0.147766281281903,1
30,941,68,0.171918660492285,1
31,938,68,0.100789130048133,1
31,939,68,0.128916596846984,1
31,940,68,0.155008318684841,1
31,941,68,0.187811037229421,1
31,942,68,0.194163547970473,1
31,943,68,0.170905444734678,1
31,944,68,0.170053226320511,1
32,939,68,0.117365386028561,1
32,940,68,0.14597030036194,1
32,941,68,0.173308389996578,1
32,942,68,0.186753618006341,1
32,943,68,0.202380229304691,1
32,944,68,0.206979306867559,1
32,945,68,0.187682239354668,1
33,939,68,0.100263056523002,1
33,940,68,0.117755014849773,1
33,941,68,0.140284980912208,1
33,942,68,0.167093892539787,1
33,943,68,0.187849053516877,1
33,944,68,0.183850448116197,1
33,945,68,0.16476425662304,1
33,946,68,0.164370804387244,1
34,937,68,0.100874933571427,1
34,940,68,0.105684037506343,1
34,941,68,0.130724843193788,1
34,942,68,0.15030273015958,1
34,943,68,0.159076802161175,1
34,944,68,0.173970265543405,1
34,945,68,0.18459639521219,1
34,946,68,0.172174720340205,1
34,947,68,0.174214430323731,1
35,937,68,0.113054175637215,1
35,938,68,0.110656360940184,1
35,940,68,0.111984676166918,1
35,941,68,0.14539475119852,1
35,942,68,0.145593808401093,1
35,943,68,0.13663904465843,1
35,944,68,0.164228314113256,1
35,945,68,0.185919547195298,1
35,946,68,0.167018676933802,1
35,947,68,0.155989454795869,1
35,948,68,0.165660286357593,1
36,937,68,0.118213606741439,1
36,938,68,0.119675414691032,1
36,940,68,0.102648660257786,1
36,941,68,0.134412216111601,1
36,942,68,0.130494033132208,1
36,943,68,0.111991429776724,1
36,944,68,0.126561177390865,1
36,945,68,0.141824335552461,1
36,946,68,0.13820038120931,1
36,947,68,0.141467483524646,1
36,948,68,0.149690417394394,1
36,949,68,0.134561917497995,1
37,934,68,0.104745318422064,1
37,938,68,0.100556838549563,1
37,945,68,0.108644340756862,1
37,946,68,0.118207975102295,1
37,947,68,0.128170878502291,1
37,948,68,0.138195305109036,1
37,949,68,0.127145037851514,1
37,950,68,0.134499108926799,1
38,934,68,0.113456091671106,1
38,935,68,0.103589056851598,1
38,945,68,0.105216023239705,1
38,946,68,0.113628199791969,1
38,947,68,0.1175288996363,1
38,948,68,0.125392693965234,1
38,949,68,0.117198604545109,1
38,950,68,0.11972944356948,1
38,951,68,0.128399052477463,1
39,944,68,0.10706473678075,1
39,945,68,0.118274639766831,1
39,946,68,0.11136783194741,1
39,947,68,0.1111751035308,1
39,948,68,0.130237875248017,1
39,949,68,0.131196386766195,1
39,950,68,0.121273362342812,1
39,951,68,0.134240097097819,1
40,944,68,0.121935194317963,1
40,945,68,0.130163552861394,1
40,946,68,0.108358575918716,1
40,947,68,0.102666546430853,1
40,948,68,0.130573987157976,1
40,949,68,0.148682942205122,1
40,950,68,0.127186202192574,1
40,951,68,0.121311945062058,1
40,952,68,0.132894745345704,1
41,948,68,0.113276314935237,1
41,949,68,0.13979195650345,1
41,950,68,0.133512874929659,1
41,951,68,0.116104094932692,1
41,952,68,0.102184240654432,1
42,948,68,0.101784960706949,1
42,949,68,0.125154923328386,1
42,950,68,0.148851433876863,1
42,951,68,0.134143291726293,1
43,950,68,0.121476798498839,1
43,951,68,0.118477661991935,1
47,946,68,0.100933363189168,1
48,945,68,0.121176012325334,1
48,946,68,0.135641917742248,1
48,947,68,0.12184074181695,1
48,948,68,0.107390870776866,1
48,949,68,0.116728368122987,1
48,950,68,0.130729385541029,1
48,951,68,0.124286735894904,1
48,952,68,0.116877644685538,1
49,945,68,0.131553761654124,1
49,946,68,0.153000056558589,1
49,947,68,0.141728063933968,1
49,948,68,0.127149013766964,1
49,949,68,0.1505128545679,1
49,950,68,0.191765057912462,1
49,951,68,0.182372333466798,1
49,952,68,0.153142982549338,1
50,944,68,0.118941918201504,1
50,945,68,0.134392804929868,1
50,946,68,0.127734061555789,1
50,947,68,0.112526620675093,1
50,948,68,0.113612307023087,1
50,949,68,0.149063878476938,1
50,950,68,0.199814641868576,1
50,951,68,0.202826272553621,1
51,943,68,0.107202750065011,1
51,944,68,0.146257949675081,1
51,945,68,0.151133794524968,1
51,946,68,0.111255634881277,1
51,949,68,0.125017901299757,1
51,950,68,0.167621719824884,1
52,937,68,0.109984616408704,1
52,938,68,0.109008262289135,1
52,942,68,0.115803428581296,1
52,943,68,0.150252873269125,1
52,944,68,0.160012863373208,1
52,945,68,0.144604393671593,1
52,946,68,0.0996991192112803,1
52,949,68,0.126221329209675,1
53,937,68,0.100722095024349,1
53,938,68,0.102878076025729,1
53,942,68,0.174974843216212,1
53,943,68,0.215775535066485,1
53,944,68,0.166878702924113,1
53,945,68,0.118869959578313,1
54,938,68,0.104256694752599,1
54,939,68,0.112067701995856,1
54,942,68,0.152513328257037,1
54,943,68,0.185457251711158,1
54,944,68,0.133589866081447,1
55,939,68,0.128409008605467,1
31,939,69,0.126145307527681,1
31,940,69,0.156125507354703,1
31,941,69,0.185027286410733,1
32,939,69,0.121263667644864,1
32,940,69,0.158284004620382,1
32,941,69,0.184057566078861,1
32,942,69,0.184463305527336,1
32,943,69,0.194549919808892,1
32,944,69,0.201105997421,1
33,937,69,0.0998474263040366,1
33,938,69,0.100065045040657,1
33,939,69,0.11086368586831,1
33,940,69,0.130469861744854,1
33,941,69,0.159415539264623,1
33,942,69,0.183559029853067,1
33,943,69,0.191139020069282,1
33,944,69,0.18286406161819,1
33,945,69,0.164575907159885,1
34,936,69,0.0997991815655998,1
34,937,69,0.113748610119059,1
34,938,69,0.113677207034739,1
34,939,69,0.120091676699302,1
34,940,69,0.131056075076016,1
34,941,69,0.157367801199763,1
34,942,69,0.17683477646387,1
34,943,69,0.172123251297731,1
34,944,69,0.173086675522398,1
34,945,69,0.172797468521834,1
34,946,69,0.162862494566261,1
35,935,69,0.0999297223073987,1
35,936,69,0.109682174511504,1
35,937,69,0.123327189549416,1
35,938,69,0.123203696526238,1
35,939,69,0.128647509067891,1
35,940,69,0.143094961879948,1
35,941,69,0.165795227838685,1
35,942,69,0.169406873183319,1
35,943,69,0.164593869583385,1
35,944,69,0.179998668371283,1
35,945,69,0.186697671974142,1
35,946,69,0.165725426013464,1
35,947,69,0.151873489085431,1
36,934,69,0.102911854967678,1
36,935,69,0.10518674307332,1
36,936,69,0.112173711883972,1
36,937,69,0.129977654305024,1
36,938,69,0.131068896041728,1
36,939,69,0.122690661825199,1
36,940,69,0.127504700252442,1
36,941,69,0.144318454546741,1
36,942,69,0.142417041063372,1
36,943,69,0.136669370545043,1
36,944,69,0.149719196486502,1
36,945,69,0.165934428451122,1
36,946,69,0.157385120941039,1
36,947,69,0.139833981385113,1
36,948,69,0.144645263903838,1
37,933,69,0.100773531388065,1
37,934,69,0.116267466932484,1
37,935,69,0.10460994122421,1
37,936,69,0.101297622401931,1
37,937,69,0.118637373970929,1
37,938,69,0.125138170018899,1
37,939,69,0.109559814351906,1
37,941,69,0.104332106431126,1
37,942,69,0.104156643291198,1
37,943,69,0.100809031411223,1
37,944,69,0.106691970198215,1
37,945,69,0.128498080004473,1
37,946,69,0.135493806722035,1
37,947,69,0.125734285013471,1
37,948,69,0.134172408498892,1
37,949,69,0.130616317041373,1
38,933,69,0.10259586227919,1
38,934,69,0.115385957459013,1
38,935,69,0.10025465808242,1
38,938,69,0.107484233985975,1
38,944,69,0.101843815148533,1
38,945,69,0.116508984733482,1
38,946,69,0.121439250606902,1
38,947,69,0.123274565857525,1
38,948,69,0.136681483471018,1
38,949,69,0.128314479854021,1
38,950,69,0.123878785183863,1
39,943,69,0.100273818727015,1
39,944,69,0.140622508901642,1
39,945,69,0.154160370294938,1
39,946,69,0.131219272789103,1
39,947,69,0.132626768644352,1
39,948,69,0.155199467628189,1
39,949,69,0.145868876392741,1
39,950,69,0.133522231947116,1
40,943,69,0.103833951457499,1
40,944,69,0.171463282011736,1
40,945,69,0.186308162975039,1
40,946,69,0.13782584997389,1
40,947,69,0.126791519056926,1
40,948,69,0.156835725676239,1
40,949,69,0.16637515595556,1
40,950,69,0.139115560695539,1
40,951,69,0.13217097623288,1
41,944,69,0.126271196993049,1
41,945,69,0.133543625640114,1
41,946,69,0.111838297120832,1
41,947,69,0.113388751645588,1
41,948,69,0.139524568019727,1
41,949,69,0.171538312438097,1
41,950,69,0.154932122716142,1
41,951,69,0.123236789214287,1
42,946,69,0.110489971601818,1
42,947,69,0.123874373551651,1
42,948,69,0.128490803534553,1
42,949,69,0.159027130450344,1
42,950,69,0.176552758789873,1
42,951,69,0.149034576524715,1
43,946,69,0.118441246963578,1
43,947,69,0.127177629465288,1
43,948,69,0.109663645656214,1
43,949,69,0.119169155385638,1
43,950,69,0.147840592775607,1
43,951,69,0.143471944022152,1
43,952,69,0.112309633727777,1
44,946,69,0.113197548237645,1
44,947,69,0.119479963044662,1
44,948,69,0.103895746987224,1
44,949,69,0.107563741402062,1
44,950,69,0.117903931945995,1
44,951,69,0.113897581679876,1
44,952,69,0.106344682153319,1
45,930,69,0.109378011533096,1
45,931,69,0.114837738629469,1
45,946,69,0.102837390973107,1
45,947,69,0.10776444343541,1
45,948,69,0.110092009697539,1
45,949,69,0.126647242344216,1
45,950,69,0.116966672512868,1
46,930,69,0.106442947175996,1
46,931,69,0.110210949480558,1
46,944,69,0.104761461728084,1
46,945,69,0.115842457910223,1
46,946,69,0.107575255217489,1
46,947,69,0.101323046474975,1
46,948,69,0.111613968346082,1
46,949,69,0.135244849057331,1
46,950,69,0.116104487077778,1
47,944,69,0.12157252547138,1
47,945,69,0.145295277061829,1
47,946,69,0.134074807944276,1
47,947,69,0.110524643763129,1
47,948,69,0.112944473049543,1
47,949,69,0.132592652021913,1
47,950,69,0.116625996469831,1
47,951,69,0.102292559841386,1
48,944,69,0.127633280268813,1
48,945,69,0.172393264974944,1
48,946,69,0.177418190314838,1
48,947,69,0.137865914130126,1
48,948,69,0.124731820566958,1
48,949,69,0.142968604019061,1
48,950,69,0.142465928484032,1
48,951,69,0.12620216856508,1
49,944,69,0.131752067245283,1
49,945,69,0.171945228321829,1
49,946,69,0.185901159947956,1
49,947,69,0.149920040127798,1
49,948,69,0.138425853740559,1
49,949,69,0.177082808230455,1
49,950,69,0.205711414662751,1
49,951,69,0.178130064360068,1
50,943,69,0.114374789570186,1
50,944,69,0.144743583391111,1
50,945,69,0.151994171735497,1
50,946,69,0.144069943491718,1
50,947,69,0.124347126238072,1
50,948,69,0.133737345312357,1
50,949,69,0.196308821232435,1
50,950,69,0.242552574012947,1
51,943,69,0.140159712343225,1
51,944,69,0.180016140613427,1
51,945,69,0.162850240032339,1
51,946,69,0.124704108980915,1
51,947,69,0.102527585462635,1
51,948,69,0.110424309085833,1
51,949,69,0.161504953637738,1
52,937,69,0.111063157001806,1
52,938,69,0.125109434498467,1
52,939,69,0.107305459398658,1
52,942,69,0.132314218118281,1
52,943,69,0.181850791395988,1
52,944,69,0.196102291487399,1
52,945,69,0.15909209581951,1
52,946,69,0.116643348889864,1
52,947,69,0.102994216328554,1
53,937,69,0.105924640302142,1
53,938,69,0.120999220249283,1
53,939,69,0.10905926293609,1
53,941,69,0.116094901309021,1
53,942,69,0.188448752281813,1
53,943,69,0.226500637797685,1
53,944,69,0.180772926163867,1
53,945,69,0.125542863747146,1
53,946,69,0.106404048562098,1
54,938,69,0.125932623283387,1
54,939,69,0.133566370055074,1
54,941,69,0.111360718871275,1
54,942,69,0.163181678880028,1
54,943,69,0.183397585899946,1
54,944,69,0.133560335377925,1
32,939,70,0.127786750605195,1
32,940,70,0.167180785354984,1
32,941,70,0.188321065484803,1
33,937,70,0.109646990382999,1
33,938,70,0.116043987805419,1
33,939,70,0.129944354651512,1
33,940,70,0.153334338458148,1
33,941,70,0.180553488309767,1
33,942,70,0.193210308625111,1
33,943,70,0.185573283084793,1
33,944,70,0.173613664052729,1
34,936,70,0.111533959855719,1
34,937,70,0.12492054038936,1
34,938,70,0.134064361634915,1
34,939,70,0.148818657083465,1
34,940,70,0.160645774648303,1
34,941,70,0.180091062110597,1
34,942,70,0.192743590615839,1
34,943,70,0.183117746809759,1
34,944,70,0.174216532657106,1
34,945,70,0.165808854880407,1
35,934,70,0.108128691755254,1
35,935,70,0.119971484230593,1
35,936,70,0.127501170946672,1
35,937,70,0.132877741499079,1
35,938,70,0.140237694750647,1
35,939,70,0.158675637738698,1
35,940,70,0.169023954400237,1
35,941,70,0.175308101181382,1
35,942,70,0.17995265668125,1
35,943,70,0.184439580749662,1
35,944,70,0.192146615080664,1
35,945,70,0.189544296721539,1
35,946,70,0.170591009733613,1
36,934,70,0.120982968014072,1
36,935,70,0.128219744137113,1
36,936,70,0.131645196816562,1
36,937,70,0.139026957692052,1
36,938,70,0.144908741829625,1
36,939,70,0.150029067354489,1
36,940,70,0.149802429280902,1
36,941,70,0.148435988837521,1
36,942,70,0.148544721955398,1
36,943,70,0.157278217833562,1
36,944,70,0.174417245583373,1
36,945,70,0.19111141741243,1
36,946,70,0.177844604523655,1
36,947,70,0.147007208218464,1
37,933,70,0.10895715271299,1
37,934,70,0.122953823856334,1
37,935,70,0.114668941955995,1
37,936,70,0.11677415106172,1
37,937,70,0.135681404573775,1
37,938,70,0.146902712446094,1
37,939,70,0.136618250075979,1
37,940,70,0.122395441933324,1
37,941,70,0.119092316734716,1
37,942,70,0.119115910797361,1
37,943,70,0.12044655710877,1
37,944,70,0.130034722307885,1
37,945,70,0.154334776821719,1
37,946,70,0.155490450174557,1
37,947,70,0.133977305425932,1
37,948,70,0.1333045587459,1
38,933,70,0.108092766908254,1
38,934,70,0.111835486747719,1
38,936,70,0.102030138528746,1
38,937,70,0.122143314429179,1
38,938,70,0.132757723317075,1
38,939,70,0.116884659725401,1
38,942,70,0.103697855326989,1
38,943,70,0.113490447937764,1
38,944,70,0.123759387898244,1
38,945,70,0.137415197818927,1
38,946,70,0.137143299666721,1
38,947,70,0.135397251887647,1
38,948,70,0.1446914063089,1
39,943,70,0.12605118181424,1
39,944,70,0.167803359249909,1
39,945,70,0.180120941387529,1
39,946,70,0.153067647121244,1
39,947,70,0.152739051325424,1
39,948,70,0.169071730743155,1
39,949,70,0.157352768971485,1
40,943,70,0.128393322802047,1
40,944,70,0.199426984665711,1
40,945,70,0.215564691725509,1
40,946,70,0.164598542645654,1
40,947,70,0.151249673397736,1
40,948,70,0.173997988022367,1
40,949,70,0.176856791053254,1
40,950,70,0.153838974718605,1
41,943,70,0.1052802043187,1
41,944,70,0.153355307327304,1
41,945,70,0.164644837551583,1
41,946,70,0.141254494278618,1
41,947,70,0.139011685819555,1
41,948,70,0.162934747298266,1
41,949,70,0.189371970742296,1
41,950,70,0.170339917056777,1
42,944,70,0.103755478868721,1
42,945,70,0.122502617363778,1
42,946,70,0.14161888420641,1
42,947,70,0.149810337540127,1
42,948,70,0.154174182516284,1
42,949,70,0.179196252382976,1
42,950,70,0.184512018661291,1
43,945,70,0.11647308167232,1
43,946,70,0.157432548710548,1
43,947,70,0.163947472874516,1
43,948,70,0.142855208731835,1
43,949,70,0.147162552136921,1
43,950,70,0.166794751197056,1
43,951,70,0.161572751165855,1
44,931,70,0.0999263346095766,1
44,945,70,0.120123222592847,1
44,946,70,0.154457823235217,1
44,947,70,0.160617561987984,1
44,948,70,0.143713668788612,1
44,949,70,0.146006530210674,1
44,950,70,0.152171562922095,1
44,951,70,0.142603582301965,1
45,930,70,0.124815587114391,1
45,931,70,0.134527986055179,1
45,932,70,0.113178779738136,1
45,944,70,0.113058162445584,1
45,945,70,0.12971379512707,1
45,946,70,0.139180482493029,1
45,947,70,0.144389890309818,1
45,948,70,0.154708545552806,1
45,949,70,0.17482557754658,1
45,950,70,0.156816717532511,1
46,930,70,0.121832779093131,1
46,931,70,0.128808070694569,1
46,932,70,0.100576674555139,1
46,943,70,0.103263260535972,1
46,944,70,0.146084676011881,1
46,945,70,0.157891913999467,1
46,946,70,0.141517449344291,1
46,947,70,0.133459978914791,1
46,948,70,0.157554102794137,1
46,949,70,0.186215616734859,1
46,950,70,0.155107596748989,1
47,943,70,0.112327236684949,1
47,944,70,0.168737056698509,1
47,945,70,0.192489044883667,1
47,946,70,0.169473298203637,1
47,947,70,0.139814602882138,1
47,948,70,0.150985923148973,1
47,949,70,0.173465454996244,1
47,950,70,0.148304718270147,1
48,936,70,0.102681349907831,1
48,943,70,0.11492846575217,1
48,944,70,0.171389438913551,1
48,945,70,0.214456947216456,1
48,946,70,0.204773381832372,1
48,947,70,0.157007136650283,1
48,948,70,0.150074861186141,1
48,949,70,0.17134817653622,1
48,950,70,0.163541123422575,1
49,936,70,0.113108825412048,1
49,937,70,0.101428402787949,1
49,943,70,0.124187479616593,1
49,944,70,0.165265123933508,1
49,945,70,0.200540807423589,1
49,946,70,0.19839777810295,1
49,947,70,0.156465104998755,1
49,948,70,0.154906273819256,1
49,949,70,0.197672266123079,1
49,950,70,0.212740005317062,1
50,942,70,0.108969450818589,1
50,943,70,0.142492234883518,1
50,944,70,0.169104736287852,1
50,945,70,0.169439050866169,1
50,946,70,0.155931656967433,1
50,947,70,0.137146676471624,1
50,948,70,0.157014413120203,1
50,949,70,0.22749557523714,1
51,938,70,0.105939116991549,1
51,939,70,0.10740435621064,1
51,942,70,0.119962475786545,1
51,943,70,0.170127004061183,1
51,944,70,0.198704871276581,1
51,945,70,0.170095817633966,1
51,946,70,0.137792408712431,1
51,947,70,0.125453313059702,1
52,937,70,0.104526937181111,1
52,938,70,0.125973591551904,1
52,939,70,0.118193498412888,1
52,940,70,0.102890188951704,1
52,941,70,0.110652385024734,1
52,942,70,0.150589638754226,1
52,943,70,0.204432259179653,1
52,944,70,0.214862599521578,1
52,945,70,0.16819868506778,1
52,946,70,0.134420963125592,1
53,937,70,0.103629861726329,1
53,938,70,0.126215261853769,1
53,939,70,0.12030966579517,1
53,941,70,0.132617400733976,1
53,942,70,0.186519703462834,1
53,943,70,0.218471488957694,1
53,944,70,0.187520218076838,1
