x,y,z,signal,mito.p
294,175,46,0.196732904356577,1
295,174,46,0.199059348648044,1
295,175,46,0.173029073766504,1
293,175,47,0.168398668168471,1
294,174,47,0.214956365768692,1
294,175,47,0.232506775499042,1
294,176,47,0.192929097027124,1
295,173,47,0.167266251197788,1
295,174,47,0.211811405754573,1
295,175,47,0.201348125225465,1
295,176,47,0.143922464260809,1
296,174,47,0.156245972146388,1
296,175,47,0.135060257651246,1
289,174,48,0.130519773099904,1
290,173,48,0.119346557465156,1
290,174,48,0.117345648059257,1
291,171,48,0.126012370343693,1
291,172,48,0.120358139284906,1
291,173,48,0.10992519553533,1
292,172,48,0.116980920450975,1
292,176,48,0.106143686011157,1
293,173,48,0.106646176366562,1
293,174,48,0.128812569470134,1
293,175,48,0.171625477576271,1
293,176,48,0.180784004262533,1
293,177,48,0.129946021268126,1
294,167,48,0.117226555775371,1
294,168,48,0.12445380059425,1
294,173,48,0.136778942417686,1
294,174,48,0.206341243241757,1
294,175,48,0.26072886908561,1
294,176,48,0.219682302266722,1
294,177,48,0.134818718064409,1
295,168,48,0.109149020588995,1
295,174,48,0.209347950327395,1
295,175,48,0.224477757374079,1
295,176,48,0.162478922208036,1
296,169,48,0.116321789919746,1
296,174,48,0.151548041343214,1
296,175,48,0.13997955435519,1
297,174,48,0.121824772797635,1
297,175,48,0.10335151496605,1
298,170,48,0.113742619013586,1
298,173,48,0.129028989985659,1
298,174,48,0.108938994216947,1
299,172,48,0.115855507627236,1
299,173,48,0.104751527385918,1
306,158,48,0.154383239418537,1
306,159,48,0.178339328227783,1
307,158,48,0.13799628058522,1
307,159,48,0.171015986077116,1
307,160,48,0.138312534703766,1
309,152,48,0.141572687336753,1
289,174,49,0.121381452778465,1
289,175,49,0.110636219932875,1
290,173,49,0.118327840783432,1
290,174,49,0.114545797506225,1
291,171,49,0.128325590631444,1
291,172,49,0.121434305221657,1
291,173,49,0.11284046745853,1
292,171,49,0.139432893213069,1
292,172,49,0.120318292987051,1
292,173,49,0.103343987958992,1
292,175,49,0.0997111123151455,1
292,176,49,0.104011952647564,1
293,172,49,0.122122334667104,1
293,173,49,0.10767075343873,1
293,174,49,0.125362030398131,1
293,175,49,0.17012327868287,1
293,176,49,0.17037467636144,1
293,177,49,0.117907570180955,1
294,166,49,0.1194442887348,1
294,167,49,0.129202688472702,1
294,168,49,0.14609514410708,1
294,173,49,0.128939820550382,1
294,174,49,0.193064539582492,1
294,175,49,0.269080971189358,1
294,176,49,0.225657504078,1
294,177,49,0.130105918426743,1
295,159,49,0.133487483535372,1
295,167,49,0.105069851159081,1
295,168,49,0.122528912870345,1
295,173,49,0.142854620514206,1
295,174,49,0.196897757793358,1
295,175,49,0.23337899331257,1
295,176,49,0.175466745654309,1
295,177,49,0.10742140362894,1
296,158,49,0.145035110583431,1
296,159,49,0.129116699769785,1
296,160,49,0.106115026741157,1
296,169,49,0.120861936790597,1
296,174,49,0.147119405284596,1
296,175,49,0.143841322906865,1
296,176,49,0.113964594917823,1
297,156,49,0.186183961912123,1
297,157,49,0.189613553900808,1
297,158,49,0.141599287845054,1
297,159,49,0.107178295461762,1
297,174,49,0.122589281427676,1
297,175,49,0.106151518019948,1
298,155,49,0.115635862807674,1
298,156,49,0.151710465659049,1
298,157,49,0.149173493921257,1
298,158,49,0.109309309892698,1
298,170,49,0.113548060586577,1
298,173,49,0.145205944232766,1
298,174,49,0.111978521667659,1
299,171,49,0.117652610517859,1
299,172,49,0.130253539265599,1
299,173,49,0.111087491782946,1
305,158,49,0.114714103998343,1
305,159,49,0.116098082041381,1
306,158,49,0.120202425007201,1
306,159,49,0.12956223105152,1
306,160,49,0.104250518467502,1
307,150,49,0.114432195253537,1
307,158,49,0.121601544207708,1
307,159,49,0.143381369400318,1
307,160,49,0.120396972541291,1
308,149,49,0.179966196579619,1
308,150,49,0.188738482142491,1
308,151,49,0.150492245165072,1
308,152,49,0.116068442408668,1
308,158,49,0.104822396717205,1
308,159,49,0.120965582915281,1
308,160,49,0.101247852654828,1
309,150,49,0.223877056460591,1
309,151,49,0.207729284343598,1
309,152,49,0.165258021750293,1
309,153,49,0.124057908344589,1
310,152,49,0.137579985898194,1
282,188,50,0.10085795151064,1
284,180,50,0.101118499241205,1
285,179,50,0.105033555952833,1
285,180,50,0.100948384524527,1
289,173,50,0.102628976753077,1
289,174,50,0.105868411054047,1
289,175,50,0.101570348415985,1
290,172,50,0.10612579983809,1
290,173,50,0.107582313829028,1
290,174,50,0.101971403909271,1
291,171,50,0.123933304243668,1
291,172,50,0.114754985123507,1
291,173,50,0.106841791406718,1
292,169,50,0.140885997720348,1
292,170,50,0.143924915167593,1
292,171,50,0.129467920158455,1
292,172,50,0.115315436701135,1
292,173,50,0.104197284772144,1
292,174,50,0.101066507338618,1
292,175,50,0.103497196865317,1
292,176,50,0.100126764319949,1
293,167,50,0.132853537432968,1
293,168,50,0.152621701908585,1
293,169,50,0.159015562170321,1
293,171,50,0.126522246098209,1
293,172,50,0.113108672911181,1
293,173,50,0.108299841299241,1
293,174,50,0.128621562134733,1
293,175,50,0.164600699443625,1
293,176,50,0.151075255978036,1
293,177,50,0.107174417582583,1
294,166,50,0.112365002435268,1
294,167,50,0.140739455280476,1
294,168,50,0.159596536007424,1
294,169,50,0.161391514778835,1
294,172,50,0.120319861567393,1
294,173,50,0.120718901870657,1
294,174,50,0.173652802310846,1
294,175,50,0.246353396682583,1
294,176,50,0.207891806695704,1
294,177,50,0.122470897183528,1
295,167,50,0.112110587418124,1
295,168,50,0.127429364824347,1
295,169,50,0.144245493774998,1
295,173,50,0.129462223161796,1
295,174,50,0.174117287271715,1
295,175,50,0.228121918082053,1
295,176,50,0.189717515920145,1
295,177,50,0.115162423867353,1
296,156,50,0.131266014304712,1
296,157,50,0.129726125911426,1
296,158,50,0.117033565928705,1
296,159,50,0.107821761975409,1
296,169,50,0.121920074946333,1
296,174,50,0.139193510424203,1
296,175,50,0.153467155820027,1
296,176,50,0.134061071973365,1
297,155,50,0.129276270140831,1
297,156,50,0.162759883268886,1
297,157,50,0.15747754735911,1
297,158,50,0.121209573408902,1
297,174,50,0.119717243500153,1
297,175,50,0.111063189680563,1
298,154,50,0.108545650910342,1
298,155,50,0.11981290511518,1
298,156,50,0.1459471093373,1
298,157,50,0.142435297595686,1
298,158,50,0.106917028798541,1
298,170,50,0.111062688606287,1
298,174,50,0.111934329095106,1
299,152,50,0.101735354353632,1
299,153,50,0.101941524632339,1
299,171,50,0.123694030383993,1
299,173,50,0.120462112197162,1
300,151,50,0.101877299981668,1
301,150,50,0.110269575170842,1
302,149,50,0.1206269983127,1
302,150,50,0.102931571151144,1
308,148,50,0.126083250567899,1
308,149,50,0.166804140893271,1
308,150,50,0.172790900091651,1
308,151,50,0.13957683224529,1
308,152,50,0.103199101242815,1
309,149,50,0.236825687184151,1
309,150,50,0.266121953303285,1
309,151,50,0.240963275338887,1
309,152,50,0.169292508426297,1
309,153,50,0.116011951730516,1
310,149,50,0.208010299869042,1
310,150,50,0.232557601859292,1
310,151,50,0.235440064310337,1
310,152,50,0.173637552224188,1
310,153,50,0.117410602535504,1
311,152,50,0.108863560752582,1
284,179,51,0.105895218527809,1
284,180,51,0.129098508594985,1
284,181,51,0.109605738898587,1
285,178,51,0.11489219233176,1
285,179,51,0.129129912880583,1
285,180,51,0.124388170757022,1
286,177,51,0.102867749538477,1
286,178,51,0.109243037373247,1
286,179,51,0.101760647711648,1
291,169,51,0.102418841451839,1
291,170,51,0.121841809323017,1
291,171,51,0.122837661767671,1
291,172,51,0.111100432570768,1
292,168,51,0.106998486047136,1
292,169,51,0.131941658501208,1
292,170,51,0.14336634806496,1
292,171,51,0.133119586087649,1
292,172,51,0.114139197517146,1
292,173,51,0.103960429140495,1
292,174,51,0.107137577730383,1
292,175,51,0.108991432729215,1
293,167,51,0.129032541077267,1
293,168,51,0.155736150856467,1
293,169,51,0.162955912239965,1
293,170,51,0.145251400383928,1
293,171,51,0.123317070027626,1
293,172,51,0.11085162740693,1
293,173,51,0.114372610986377,1
293,174,51,0.141854073221445,1
293,175,51,0.163965435298017,1
293,176,51,0.13563223393722,1
293,177,51,0.101039580042746,1
294,166,51,0.111990024590167,1
294,167,51,0.154281477768847,1
294,168,51,0.167322404195449,1
294,169,51,0.154498639002867,1
294,170,51,0.131777970606765,1
294,171,51,0.120345612428008,1
294,172,51,0.113646587039312,1
294,173,51,0.119462959198038,1
294,174,51,0.163540328239485,1
294,175,51,0.215825402849859,1
294,176,51,0.181654010813495,1
294,177,51,0.113085078848537,1
295,166,51,0.102722928179814,1
295,167,51,0.123130746647414,1
295,168,51,0.1284461534594,1
295,169,51,0.131397219514572,1
295,170,51,0.133711823203041,1
295,171,51,0.135939239967498,1
295,172,51,0.12615236613922,1
295,173,51,0.121226773328069,1
295,174,51,0.156380499696557,1
295,175,51,0.216240553780386,1
295,176,51,0.201153795549756,1
295,177,51,0.119728550350119,1
296,157,51,0.113159477485593,1
296,158,51,0.103895736094305,1
296,169,51,0.122039199908976,1
296,170,51,0.139737045298559,1
296,173,51,0.126506789046089,1
296,174,51,0.136619502761669,1
296,175,51,0.173036524523128,1
296,176,51,0.170207328446198,1
296,177,51,0.106826443283788,1
297,155,51,0.118671348985421,1
297,156,51,0.130501004600395,1
297,157,51,0.124901118314708,1
297,158,51,0.104877079170795,1
297,169,51,0.104466132907018,1
297,170,51,0.12862512411926,1
297,174,51,0.119956702539453,1
297,175,51,0.122196635267889,1
297,176,51,0.11594414330948,1
298,153,51,0.106671121151168,1
298,154,51,0.111482632421193,1
298,155,51,0.112704109897963,1
298,156,51,0.122506854709285,1
298,157,51,0.11999744205667,1
298,158,51,0.099758997587254,1
298,170,51,0.113900076158337,1
298,174,51,0.111539754888649,1
299,153,51,0.101422106680742,1
299,171,51,0.128245179103076,1
299,173,51,0.127769931938194,1
300,150,51,0.113115796880235,1
300,172,51,0.100011059733885,1
301,149,51,0.128490531211577,1
301,150,51,0.107101859848845,1
302,148,51,0.135833121150192,1
302,149,51,0.121136057098288,1
302,150,51,0.106382861834561,1
302,151,51,0.101261980770826,1
302,152,51,0.100101775963666,1
303,148,51,0.102437882274324,1
303,149,51,0.101260183439184,1
303,150,51,0.100902743193741,1
303,151,51,0.101632459840362,1
303,152,51,0.100674373146026,1
308,148,51,0.119428700967651,1
308,149,51,0.144883470257448,1
308,150,51,0.150799752269627,1
308,151,51,0.121746779497294,1
309,148,51,0.199112484307131,1
309,149,51,0.248784086209282,1
309,150,51,0.276646757039142,1
309,151,51,0.23478250235945,1
309,152,51,0.15334989354654,1
309,153,51,0.105927450675255,1
310,148,51,0.252860608659869,1
310,149,51,0.272050206633492,2
310,150,51,0.284299163381148,1
310,151,51,0.271407219408283,1
310,152,51,0.200427237849658,1
310,153,51,0.141818910878778,1
310,154,51,0.1089024702594,1
311,149,51,0.168942627866669,1
311,150,51,0.159679028083329,1
311,151,51,0.168584425116893,1
311,152,51,0.151694736283952,1
311,153,51,0.122435538768318,1
283,180,52,0.124097591248659,1
283,181,52,0.109863454470201,1
284,179,52,0.127872848237303,1
284,180,52,0.162076341706084,1
284,181,52,0.126417565146216,1
285,177,52,0.114555350596225,1
285,178,52,0.144491739102861,1
285,179,52,0.153178820252986,1
285,180,52,0.143595469724088,1
286,177,52,0.119939633335314,1
286,178,52,0.126823326380529,1
286,179,52,0.110109895870606,1
291,170,52,0.1060870210463,1
291,171,52,0.112943852153158,1
291,172,52,0.10139996137633,1
292,169,52,0.120070871223932,1
292,170,52,0.13618014776503,1
292,171,52,0.126331914123789,1
292,172,52,0.103802144133897,1
292,174,52,0.103410445658067,1
292,175,52,0.104440055258832,1
293,167,52,0.117411855221194,1
293,168,52,0.144718529677314,1
293,169,52,0.150892941192031,1
293,170,52,0.134117028898483,1
293,171,52,0.110195318141733,1
293,173,52,0.109296020531467,1
293,174,52,0.142243560434709,1
293,175,52,0.150453586195392,1
293,176,52,0.115881879384236,1
294,166,52,0.106317711285771,1
294,167,52,0.154018544489012,1
294,168,52,0.157152426404465,1
294,169,52,0.133103725997524,1
294,170,52,0.108918406599958,1
294,173,52,0.10752805619928,1
294,174,52,0.143133588170871,1
294,175,52,0.172309890572596,1
294,176,52,0.146684559956441,1
294,177,52,0.102099058027524,1
295,166,52,0.103643673947674,1
295,167,52,0.126101724958594,1
295,168,52,0.12036582968575,1
295,169,52,0.110124819169693,1
295,170,52,0.10364224697528,1
295,171,52,0.104740187857195,1
295,172,52,0.104768030158266,1
295,173,52,0.104230333888517,1
295,174,52,0.129197655944105,1
295,175,52,0.182723542962549,1
295,176,52,0.188697764411112,1
295,177,52,0.118566264995423,1
296,156,52,0.110903281629027,1
296,169,52,0.110849481501879,1
296,170,52,0.114515079474527,1
296,171,52,0.117581850115763,1
296,172,52,0.119916061058507,1
296,173,52,0.111162424173035,1
296,174,52,0.123074757043538,1
296,175,52,0.174067615560883,1
296,176,52,0.190124235731333,1
296,177,52,0.118236536336023,1
297,155,52,0.107928632404129,1
297,156,52,0.10458163052762,1
297,169,52,0.104072506384518,1
297,170,52,0.118724528216183,1
297,171,52,0.136586388287781,1
297,173,52,0.130055440639902,1
297,174,52,0.113287109818008,1
297,175,52,0.125254430143834,1
297,176,52,0.127132761531754,1
298,154,52,0.107390652918485,1
298,155,52,0.101910632313936,1
298,170,52,0.10964537823098,1
298,171,52,0.155132290996457,1
298,173,52,0.15105053994473,1
298,174,52,0.106028940001969,1
299,171,52,0.126771998946003,1
299,172,52,0.161701265824712,1
299,173,52,0.129558167992718,1
300,150,52,0.103643554125565,1
301,149,52,0.123774169589384,1
301,150,52,0.105816843975303,1
301,151,52,0.101156722494123,1
302,148,52,0.139030944500421,1
302,149,52,0.119186812807405,1
302,150,52,0.112127613050586,1
302,151,52,0.115014465348006,1
302,152,52,0.118101736462878,1
302,153,52,0.10387418990044,1
303,148,52,0.109071985865531,1
303,149,52,0.10776352843021,1
303,150,52,0.119780062964268,1
303,151,52,0.131486911809964,1
303,152,52,0.128465651784485,1
303,153,52,0.103792874259792,1
304,150,52,0.110212387345872,1
304,151,52,0.113702467713997,1
308,148,52,0.113115894916506,1
308,149,52,0.1244409578427,1
308,150,52,0.127009170472304,1
308,151,52,0.101035778414,1
309,148,52,0.212099458105718,1
309,149,52,0.24644973365859,2
309,150,52,0.252548526529317,1
309,151,52,0.194518678917079,1
309,152,52,0.127463230909649,1
310,147,52,0.185397580300646,1
310,148,52,0.319789404697598,2
310,149,52,0.334355045681261,2
310,150,52,0.304321481443852,2
310,151,52,0.257600880239359,1
310,152,52,0.203680037762292,1
310,153,52,0.156393582092326,1
310,154,52,0.114925263233971,1
311,148,52,0.217896756763202,1
311,149,52,0.203439260679788,2
311,150,52,0.180100506271407,1
311,151,52,0.187251141190664,1
311,152,52,0.191329580795002,1
311,153,52,0.157024619785346,1
311,154,52,0.111864668877832,1
312,152,52,0.104937937909483,1
282,180,53,0.1021366277053,1
283,179,53,0.111692495399455,1
283,180,53,0.152616124734036,1
283,181,53,0.117599986825968,1
284,178,53,0.119870158297665,1
284,179,53,0.155538084909527,1
284,180,53,0.183837126076209,1
284,181,53,0.127812468787053,1
285,177,53,0.138113706252493,1
285,178,53,0.175725986234589,1
285,179,53,0.170983470713776,1
285,180,53,0.147558074027335,1
286,177,53,0.134344102688832,1
286,178,53,0.140007167904962,1
286,179,53,0.113804370971634,1
291,170,53,0.103193665676213,1
291,171,53,0.110640903888063,1
292,169,53,0.114581569852359,1
292,170,53,0.133516763701757,1
292,171,53,0.120656245800328,1
293,167,53,0.108349186222501,1
293,168,53,0.13158894578263,1
293,169,53,0.134584182624517,1
293,170,53,0.122520154963436,1
293,171,53,0.100445425773602,1
293,173,53,0.103636822301597,1
293,174,53,0.135318049473293,1
293,175,53,0.136320415883534,1
293,176,53,0.103899701116836,1
294,166,53,0.103719227234149,1
294,167,53,0.145576096514731,1
294,168,53,0.140619959958586,1
294,169,53,0.114595708861276,1
294,173,53,0.101276816926561,1
294,174,53,0.128099627918837,1
294,175,53,0.140588751745531,1
294,176,53,0.121304788414248,1
295,166,53,0.104464368254134,1
295,167,53,0.12207178062983,1
295,168,53,0.10857034515781,1
295,174,53,0.114455658601153,1
295,175,53,0.147769363977991,1
295,176,53,0.160190428846511,1
295,177,53,0.112111121171157,1
296,170,53,0.10072799898647,1
296,171,53,0.104192927604527,1
296,172,53,0.108936488845568,1
296,173,53,0.105381671859576,1
296,174,53,0.114292155886333,1
296,175,53,0.158203200946929,1
296,176,53,0.185417710415035,1
296,177,53,0.123411566100315,1
297,154,53,0.105668210094975,1
297,155,53,0.106953705256955,1
297,170,53,0.110291502616873,1
297,171,53,0.119621015453337,1
297,172,53,0.127134929222643,1
297,173,53,0.114188466189973,1
297,174,53,0.107363703836775,1
297,175,53,0.124514877191318,1
297,176,53,0.136198360725669,1
298,153,53,0.101391345077368,1
298,154,53,0.10219916395352,1
298,170,53,0.104842417902404,1
298,171,53,0.133078236566966,1
298,172,53,0.150573462769449,1
298,173,53,0.124135716465306,1
299,171,53,0.116191630430113,1
299,172,53,0.138855590289684,1
299,173,53,0.117324145437068,1
300,150,53,0.103509767293891,1
301,149,53,0.121201708721354,1
301,150,53,0.109275585415344,1
301,151,53,0.107418124860309,1
301,152,53,0.10511420712542,1
302,148,53,0.138155818277509,1
302,149,53,0.120663827271981,1
302,150,53,0.127621842703819,1
302,151,53,0.147554795258703,1
302,152,53,0.14926715123918,1
302,153,53,0.116068104728178,1
303,148,53,0.114052685954115,1
303,149,53,0.119782012796777,1
303,150,53,0.158561033337457,1
303,151,53,0.190727594517068,1
303,152,53,0.168041870605251,1
303,153,53,0.112722987326663,1
304,149,53,0.108773247560805,1
304,150,53,0.141735797906487,1
304,151,53,0.149077407482388,1
304,152,53,0.109090057218221,1
308,147,53,0.103026862406923,1
308,148,53,0.116984820115992,1
308,149,53,0.118473272145562,1
308,150,53,0.111408440749598,1
309,147,53,0.14212064473624,1
309,148,53,0.226714661871022,2
309,149,53,0.248941379960248,2
309,150,53,0.215213416872244,1
309,151,53,0.151295173120574,1
309,152,53,0.107418397183285,1
310,147,53,0.198330263790728,2
310,148,53,0.36479417508044,2
310,149,53,0.385065178484872,2
310,150,53,0.296615786941893,2
310,151,53,0.219251204102718,1
310,152,53,0.191920064150429,1
310,153,53,0.156076293146472,1
310,154,53,0.109527898099113,1
311,147,53,0.14867397733275,1
311,148,53,0.239567565622041,2
311,149,53,0.239175616609073,2
311,150,53,0.198724870675942,1
311,151,53,0.19559995363286,1
311,152,53,0.216493596289731,1
311,153,53,0.176674084122163,1
311,154,53,0.122918585263233,1
312,148,53,0.107052144566337,1
312,149,53,0.105330061209155,1
312,152,53,0.129347760368503,1
312,153,53,0.108835337199344,1
282,180,54,0.111163524357859,1
283,179,54,0.14029632044093,1
283,180,54,0.175423272014412,1
283,181,54,0.117059327682239,1
284,178,54,0.142000768162183,1
284,179,54,0.182336027367631,1
284,180,54,0.191795449156589,1
284,181,54,0.117362717263396,1
285,177,54,0.153532012260003,1
285,178,54,0.19073643956733,1
285,179,54,0.17455395171735,1
285,180,54,0.138863923372751,1
286,176,54,0.100539431664934,1
286,177,54,0.136345415132735,1
286,178,54,0.138957014258883,1
286,179,54,0.107893905778224,1
291,171,54,0.0999320751779117,1
292,170,54,0.113999811725085,1
292,171,54,0.101842017816891,1
293,168,54,0.10952941221486,1
293,169,54,0.10761981814929,1
293,174,54,0.111190582368759,1
293,175,54,0.109445852632889,1
294,167,54,0.123209785667982,1
294,168,54,0.113710201686517,1
294,174,54,0.103677518247138,1
294,175,54,0.105619573211453,1
295,167,54,0.105260150454744,1
295,175,54,0.107773756881191,1
295,176,54,0.118948933241367,1
295,177,54,0.0997453487596944,1
296,175,54,0.124245745840549,1
296,176,54,0.150746856254759,1
296,177,54,0.117557700514247,1
297,155,54,0.112940780349988,1
297,175,54,0.112693097156812,1
297,176,54,0.130222450874654,1
297,177,54,0.100420633489863,1
298,171,54,0.103758997281571,1
298,172,54,0.103869157371843,1
299,172,54,0.103112676823136,1
300,150,54,0.104699372089545,1
301,149,54,0.118899620996864,1
301,150,54,0.111638183305112,1
301,151,54,0.114315401375569,1
301,152,54,0.110286263122814,1
302,148,54,0.133489847298804,1
302,149,54,0.120527840070661,1
302,150,54,0.144084855897886,1
302,151,54,0.187900620595622,1
302,152,54,0.171909488654452,1
302,153,54,0.114534076725336,1
303,147,54,0.136494637230691,1
303,148,54,0.117769382609989,1
303,149,54,0.130165066977141,1
303,150,54,0.198316647641925,1
303,151,54,0.255698061569433,1
303,152,54,0.194177076975923,1
303,153,54,0.106102445419664,1
304,147,54,0.104198025490639,1
304,148,54,0.102776543127339,1
304,149,54,0.119917466245064,1
304,150,54,0.1645468557448,1
304,151,54,0.175296020934164,1
304,152,54,0.113771245604828,1
305,150,54,0.105164706698098,1
307,147,54,0.108219201019574,1
308,147,54,0.113021736524308,1
308,148,54,0.118310499256318,1
308,149,54,0.112403879263329,1
309,147,54,0.145899986569524,1
309,148,54,0.227126348853294,2
309,149,54,0.240961793901897,2
309,150,54,0.170978808544426,1
309,151,54,0.115045728025656,1
310,147,54,0.19477427036948,2
310,148,54,0.359377104655035,2
310,149,54,0.391464071275206,2
310,150,54,0.259761752161389,2
310,151,54,0.176949261043001,1
310,152,54,0.169408354620308,1
310,153,54,0.143133718885899,1
311,147,54,0.14706057262885,1
311,148,54,0.235593915898886,2
311,149,54,0.261633896371293,2
311,150,54,0.207069217021331,1
311,151,54,0.191372607825218,1
311,152,54,0.211562110409378,1
311,153,54,0.174379610548083,1
311,154,54,0.126805538243733,1
311,155,54,0.105219824868451,1
312,148,54,0.112749457119935,1
312,149,54,0.128931923184076,1
312,150,54,0.131931440943147,1
312,152,54,0.1461856533714,1
312,153,54,0.122591754120298,1
312,154,54,0.108908178148978,1
282,180,55,0.111131510068794,1
283,178,55,0.0998928170976845,1
283,179,55,0.159202942163681,1
283,180,55,0.175645879707954,1
283,181,55,0.107028430681583,1
284,177,55,0.103894232871477,1
284,178,55,0.15419969373268,1
284,179,55,0.194851653666354,1
284,180,55,0.178263371903304,1
285,177,55,0.153386177859869,1
285,178,55,0.18164087395313,1
285,179,55,0.161245593235348,1
285,180,55,0.119791859995591,1
286,176,55,0.100212328199023,1
286,177,55,0.128257335600727,1
286,178,55,0.12518137133582,1
296,176,55,0.11474859098003,1
296,177,55,0.100876110006683,1
297,155,55,0.113989855597081,1
297,176,55,0.110181832707959,1
300,150,55,0.107282616947427,1
300,151,55,0.0998469034439226,1
301,148,55,0.13108434220093,1
301,149,55,0.1175006978689,1
301,150,55,0.11485580998216,1
301,151,55,0.122045877268349,1
301,152,55,0.1122393417212,1
302,147,55,0.15357127034023,1
302,148,55,0.129686497471951,1
302,149,55,0.122291164019335,1
302,150,55,0.157400795851541,1
302,151,55,0.220696236956986,1
302,152,55,0.177003126527663,1
302,153,55,0.103918785510998,1
303,146,55,0.145534006275553,1
303,147,55,0.13063158891387,1
303,148,55,0.122163281149783,1
303,149,55,0.139198357773177,1
303,150,55,0.220491254006455,1
303,151,55,0.297801502965449,1
303,152,55,0.197129646253923,1
304,146,55,0.103733529636851,1
304,147,55,0.106670010073426,1
304,148,55,0.112764347740265,1
304,149,55,0.132673335873257,1
304,150,55,0.171525219149409,1
304,151,55,0.184426737998112,1
304,152,55,0.109459501460448,1
305,147,55,0.10037358697252,1
305,148,55,0.104210378060832,1
305,149,55,0.110496289494862,1
305,150,55,0.107163644485651,1
306,146,55,0.107578947917044,1
306,147,55,0.106034789499494,1
307,145,55,0.123383789156758,1
307,146,55,0.141447712876585,1
307,147,55,0.124604384307086,1
308,146,55,0.134335421032355,1
308,147,55,0.125396637201927,1
308,148,55,0.121620606816031,1
308,149,55,0.11177919214211,1
309,147,55,0.15123700493289,1
309,148,55,0.220824838759196,1
309,149,55,0.225616415987373,2
309,150,55,0.139208248543667,1
310,147,55,0.187545053932254,1
310,148,55,0.318349513301118,2
310,149,55,0.350816860654234,2
310,150,55,0.214023953684538,2
310,151,55,0.14494881687878,1
310,152,55,0.147098741417173,1
310,153,55,0.123720238747207,1
311,147,55,0.147585023109044,1
311,148,55,0.22028095531143,1
311,149,55,0.26605197719136,2
311,150,55,0.208623113708505,1
311,151,55,0.180724093207802,1
311,152,55,0.187524444529427,1
311,153,55,0.156704019392103,1
311,154,55,0.121625312557058,1
311,155,55,0.106520352258709,1
312,148,55,0.123094614834951,1
312,149,55,0.159879555829972,1
312,150,55,0.163926329718656,1
312,152,55,0.159932408273164,1
312,153,55,0.134269115834147,1
312,154,55,0.115616266446317,1
282,180,56,0.100957164217274,1
283,178,56,0.113832017200163,1
283,179,56,0.164129134085379,1
283,180,56,0.153938307247349,1
284,177,56,0.107296810420939,1
284,178,56,0.166598449903001,1
284,179,56,0.198280744580763,1
284,180,56,0.154730342283809,1
285,177,56,0.137777278447882,1
285,178,56,0.162770449400356,1
285,179,56,0.146519336160412,1
285,180,56,0.103649599695633,1
286,177,56,0.111438472527397,1
286,178,56,0.106334911204938,1
296,155,56,0.120965985953286,1
297,154,56,0.10858286112179,1
297,155,56,0.107116064215275,1
300,149,56,0.101453086142498,1
300,150,56,0.102185384410932,1
301,148,56,0.121635878688528,1
301,149,56,0.112068497178946,1
301,150,56,0.118020573323097,1
301,151,56,0.132112459471786,1
301,152,56,0.112083605657657,1
302,147,56,0.14171529743285,1
302,148,56,0.12540547135927,1
302,149,56,0.123427644048821,1
302,150,56,0.165035228877128,1
302,151,56,0.232964495957185,1
302,152,56,0.165238588782722,1
303,146,56,0.12824741215148,1
303,147,56,0.124054978149367,1
303,148,56,0.125976848534697,1
303,149,56,0.148302779330557,1
303,150,56,0.218165506861806,1
303,151,56,0.296914078636938,1
303,152,56,0.181502196200807,1
304,147,56,0.109469315980505,1
304,148,56,0.127700903510225,1
304,149,56,0.15311931223626,1
304,150,56,0.168800867418257,1
304,151,56,0.177861041938489,1
304,152,56,0.103035141025395,1
305,144,56,0.107047188288173,1
305,147,56,0.108519017723285,1
305,148,56,0.119121161184339,1
305,149,56,0.125936403126294,1
305,150,56,0.106954347939178,1
306,146,56,0.116445936518067,1
306,147,56,0.116029522008931,1
306,148,56,0.10256584139431,1
307,144,56,0.124138984341019,1
307,145,56,0.132796839789355,1
307,146,56,0.157773649577428,1
307,147,56,0.130137496999045,1
308,141,56,0.269000036800876,1
308,142,56,0.288643215923406,1
308,144,56,0.172475462942034,1
308,145,56,0.153954200016231,1
308,146,56,0.153894811821614,1
308,147,56,0.130418784847466,1
308,148,56,0.122328831733383,1
308,149,56,0.109809153268776,1
309,141,56,0.254474176757555,1
309,142,56,0.259487904176674,1
309,146,56,0.134010136683924,1
309,147,56,0.154640464808794,1
309,148,56,0.207944397708839,1
309,149,56,0.203098268742099,1
309,150,56,0.118903237445986,1
310,147,56,0.17863157435276,1
310,148,56,0.264278239612081,1
310,149,56,0.286816734830126,2
310,150,56,0.174270114925873,1
310,151,56,0.12028430707964,1
310,152,56,0.123883588961161,1
310,153,56,0.105071016701419,1
311,147,56,0.150642349589471,1
311,148,56,0.204786997981174,1
311,149,56,0.255728736029455,1
311,150,56,0.201885538279319,1
311,151,56,0.16569648352757,1
311,152,56,0.15879193054239,1
311,153,56,0.136871826338357,1
311,154,56,0.111794453121688,1
311,155,56,0.102115419191925,1
312,148,56,0.13621675886593,1
312,149,56,0.18852371735066,1
312,150,56,0.188421977486808,1
312,152,56,0.166115893589442,1
312,153,56,0.13924618858069,1
283,178,57,0.125970977251334,1
283,179,57,0.160652985760709,1
283,180,57,0.127238063380133,1
284,177,57,0.108076111635038,1
284,178,57,0.183085307696852,1
284,179,57,0.201504896116317,1
284,180,57,0.132027625418287,1
285,177,57,0.118416149678106,1
285,178,57,0.147952626447953,1
285,179,57,0.136546574668683,1
296,163,57,0.102456552737562,1
297,154,57,0.101051148322769,1
300,148,57,0.102628236034583,1
301,147,57,0.134784296440236,1
301,148,57,0.114246765092686,1
301,149,57,0.10695739795651,1
301,150,57,0.123829777941093,1
301,151,57,0.142469065644716,1
301,152,57,0.113434915836488,1
302,146,57,0.140517196160344,1
302,147,57,0.131895167522737,1
302,148,57,0.118993681352791,1
302,149,57,0.123128883958257,1
302,150,57,0.167828140640729,1
302,151,57,0.225754015340711,1
302,152,57,0.152509188947801,1
303,145,57,0.126083315925413,1
303,146,57,0.111902935702427,1
303,147,57,0.115328399274795,1
303,148,57,0.12632406032916,1
303,149,57,0.153375807800941,1
303,150,57,0.198566182631339,1
303,151,57,0.256494355737239,1
303,152,57,0.157918318435224,1
304,144,57,0.118696195733755,1
304,147,57,0.111091598413424,1
304,148,57,0.140047635099202,1
304,149,57,0.168704083832569,1
304,150,57,0.161138461376571,1
304,151,57,0.16084637864538,1
305,143,57,0.121939791129799,1
305,144,57,0.100961717457434,1
305,146,57,0.10192570811389,1
305,147,57,0.117271358351391,1
305,148,57,0.13028582587764,1
305,149,57,0.132548208912222,1
305,150,57,0.1035208127138,1
306,143,57,0.118068796275695,1
306,145,57,0.100411069506944,1
306,146,57,0.121889781738477,1
306,147,57,0.123061053751383,1
306,148,57,0.108552415413067,1
307,141,57,0.170222240852367,1
307,142,57,0.177573305481996,1
307,143,57,0.150257459188042,1
307,144,57,0.121848726326608,1
307,145,57,0.133989570852773,1
307,146,57,0.154219671346203,1
307,147,57,0.127535843107983,1
308,140,57,0.224376475012827,1
308,141,57,0.30989974528524,1
308,142,57,0.285583068176948,1
308,143,57,0.222287910287397,1
308,144,57,0.171440483132181,1
308,145,57,0.167837443193591,1
308,146,57,0.159904653115445,1
308,147,57,0.132069465120328,1
308,148,57,0.122181483217502,1
308,149,57,0.110373090580498,1
309,140,57,0.254147105970401,1
309,141,57,0.310783400663762,3
309,142,57,0.270864795611669,1
309,143,57,0.216449828541021,1
309,144,57,0.163447814678062,1
309,145,57,0.14751367448932,1
309,146,57,0.145622031954331,1
309,147,57,0.159366423092663,1
309,148,57,0.190513722944598,1
309,149,57,0.180059211215319,1
309,150,57,0.112981323794662,1
310,141,57,0.176486224840365,1
310,142,57,0.161910486120751,1
310,146,57,0.154854194773316,1
310,147,57,0.17937881770612,1
310,148,57,0.222984490674293,1
310,149,57,0.230147456377905,1
310,150,57,0.151607538467022,1
310,151,57,0.106092783400473,1
310,152,57,0.101484283462634,1
311,147,57,0.164176137031045,1
311,148,57,0.200580566578092,1
311,149,57,0.235992683879174,1
311,150,57,0.188033143848686,1
311,151,57,0.149062887221305,1
311,152,57,0.131773145043629,1
311,153,57,0.115330403571899,1
311,157,57,0.108102690357501,1
311,158,57,0.100874236424608,1
312,148,57,0.156735750465272,1
312,149,57,0.209381456946368,1
312,150,57,0.201853622026526,1
312,151,57,0.185084648522408,1
312,152,57,0.157149278350862,1
312,153,57,0.128557054268166,1
313,149,57,0.147371826897555,1
283,178,58,0.125475719794172,1
283,179,58,0.145596161271606,1
283,180,58,0.102376979963961,1
284,177,58,0.104324612102825,1
284,178,58,0.185385358445481,1
284,179,58,0.194571357073566,1
284,180,58,0.112949581828574,1
285,177,58,0.101879914282238,1
285,178,58,0.134257460410772,1
285,179,58,0.128271213179586,1
295,163,58,0.116148559828221,1
295,164,58,0.123261156674184,1
296,163,58,0.115521922874495,1
300,147,58,0.107763637359401,1
301,146,58,0.135871943513657,1
301,147,58,0.125853584262818,1
301,148,58,0.103818047795698,1
301,150,58,0.122127323624025,1
301,151,58,0.149507340104055,1
301,152,58,0.118315956608758,1
302,145,58,0.151851202173071,1
302,146,58,0.127021969652178,1
302,147,58,0.120742986114659,1
302,148,58,0.110569261159524,1
302,149,58,0.118231645415373,1
302,150,58,0.16344363179715,1
302,151,58,0.215091329035621,1
302,152,58,0.15043905504139,1
303,144,58,0.144176084094863,1
303,145,58,0.116701571542144,1
303,146,58,0.101574160937649,1
303,147,58,0.108375263870688,1
303,148,58,0.125228025708077,1
303,149,58,0.153859028582562,1
303,150,58,0.17631277689046,1
303,151,58,0.207764751687999,1
303,152,58,0.137177862898841,1
304,143,58,0.119685991715422,1
304,144,58,0.104866948756086,1
304,147,58,0.114464209542601,1
304,148,58,0.147800147367204,1
304,149,58,0.174465784430624,1
304,150,58,0.150403446089042,1
304,151,58,0.135548717926925,1
305,142,58,0.136353933395426,1
305,143,58,0.103006253004096,1
305,146,58,0.109381322980484,1
305,147,58,0.126123140437431,1
305,148,58,0.136595505661019,1
305,149,58,0.130478554294249,1
306,142,58,0.121835676609596,1
306,143,58,0.105094131475626,1
306,145,58,0.104666932976638,1
306,146,58,0.122598475051347,1
306,147,58,0.125104576256574,1
306,148,58,0.11039454963101,1
307,141,58,0.168498251234353,1
307,142,58,0.163698068600132,1
307,143,58,0.138046115689837,1
307,144,58,0.121000745257949,1
307,145,58,0.126723884922595,1
307,146,58,0.134575239537983,1
307,147,58,0.11663316401056,1
308,140,58,0.230711099580813,1
308,141,58,0.316129187826957,3
308,142,58,0.263332363879991,1
308,143,58,0.192529610114179,1
308,144,58,0.166497178434668,1
308,145,58,0.163520742771048,1
308,146,58,0.146988701149011,1
308,147,58,0.125870871325338,1
308,148,58,0.115424365891555,1
308,149,58,0.103331439316255,1
309,140,58,0.27249513880468,3
309,141,58,0.347141938342886,3
309,142,58,0.27223976521066,3
309,143,58,0.190807417827807,1
309,144,58,0.156882761300662,1
309,145,58,0.152796849153861,1
309,146,58,0.150411975244652,1
309,147,58,0.15899465865868,1
309,148,58,0.162547090095401,1
309,149,58,0.147155308345758,1
309,150,58,0.104200846756671,1
310,140,58,0.196668548990877,1
310,141,58,0.215299710576894,3
310,142,58,0.189080868373818,1
310,144,58,0.123387089711228,1
310,145,58,0.131808448994244,1
310,146,58,0.158552188287195,1
310,147,58,0.186838953134116,1
310,148,58,0.191323894691263,1
310,149,58,0.180078110429856,1
310,150,58,0.131372329194561,1
311,139,58,0.23316102600254,1
311,146,58,0.161196008667869,1
311,147,58,0.183477844927448,1
311,148,58,0.195806287305353,1
311,149,58,0.205194436725019,1
311,150,58,0.168244217469375,1
311,151,58,0.131229697312626,1
311,152,58,0.109773119492586,1
311,156,58,0.105550032816289,1
311,157,58,0.138030092205927,1
311,158,58,0.101449393442943,1
312,148,58,0.168900722807115,1
312,149,58,0.212404764840626,1
312,150,58,0.208017641696477,1
312,151,58,0.175280618346639,1
312,152,58,0.136013398960336,1
312,156,58,0.146935794241224,1
312,157,58,0.21015857957666,1
313,149,58,0.170833311824782,1
313,150,58,0.181511073929826,1
283,178,59,0.120562501339052,1
283,179,59,0.13611216505729,1
284,177,59,0.10341279852858,1
284,178,59,0.17769241955172,1
284,179,59,0.191113094921963,1
284,180,59,0.106889916323045,1
285,178,59,0.128285678976074,1
285,179,59,0.132214940054133,1
295,163,59,0.151069733268082,1
295,164,59,0.161512676717338,1
296,163,59,0.125939474929464,1
296,164,59,0.110815648095334,1
301,145,59,0.146611544720102,1
301,146,59,0.12437455460822,1
301,147,59,0.109315497070714,1
301,150,59,0.114551309323261,1
301,151,59,0.146469882307962,1
301,152,59,0.120716527214306,1
302,144,59,0.175748229575272,1
302,145,59,0.14364468393232,1
302,146,59,0.114185666709779,1
302,147,59,0.105361149600101,1
302,149,59,0.110182290210559,1
302,150,59,0.151280598394896,1
302,151,59,0.202088756576966,1
302,152,59,0.153762419283578,1
303,143,59,0.130108118796389,1
303,144,59,0.130543857343906,1
303,145,59,0.106196255238453,1
303,147,59,0.101645160983965,1
303,148,59,0.121671781749691,1
303,149,59,0.147026641186034,1
303,150,59,0.155219859172636,1
303,151,59,0.16682381350506,1
303,152,59,0.119386392870092,1
304,142,59,0.120435065079181,1
304,147,59,0.117871427475574,1
304,148,59,0.148866880036064,1
304,149,59,0.163656860687396,1
304,150,59,0.133814292892469,1
304,151,59,0.108956346636981,1
305,142,59,0.114014800381687,1
305,145,59,0.102883685879036,1
305,146,59,0.117556338899366,1
305,147,59,0.132146216627897,1
305,148,59,0.134351324694157,1
305,149,59,0.118431410657683,1
306,142,59,0.111874679470432,1
306,144,59,0.100453922250455,1
306,145,59,0.11154849100972,1
306,146,59,0.12275558362269,1
306,147,59,0.121929083390381,1
306,148,59,0.104526218248454,1
307,141,59,0.162568788790133,1
307,142,59,0.149231727466456,1
307,143,59,0.129461340835354,1
307,144,59,0.120099563172688,1
307,145,59,0.114844742776413,1
307,146,59,0.112668991126972,1
307,147,59,0.103266332339142,1
308,140,59,0.218899101387605,1
308,141,59,0.280656723754383,3
308,142,59,0.226191039252675,1
308,143,59,0.169985995224184,1
308,144,59,0.155994487324467,1
308,145,59,0.141798737192712,1
308,146,59,0.124077668099731,1
308,147,59,0.112226738613868,1
308,148,59,0.102292298411329,1
309,139,59,0.180858969331379,1
309,140,59,0.267823514400992,3
309,141,59,0.339161981925288,3
309,142,59,0.252988426171907,3
309,143,59,0.16581052149702,1
309,144,59,0.146380560371818,1
309,145,59,0.147420311280211,1
309,146,59,0.146137942385996,1
309,147,59,0.146773435282904,1
309,148,59,0.131664335675319,1
309,149,59,0.116733302615313,1
310,139,59,0.191684188881494,1
310,140,59,0.225451802194811,1
310,141,59,0.267273182345154,3
310,142,59,0.215967533657519,1
310,144,59,0.116584538019957,1
310,145,59,0.128209504793214,1
310,146,59,0.15633020708934,1
310,147,59,0.17912173392381,1
310,148,59,0.158203854522071,1
310,149,59,0.139109035837033,1
310,150,59,0.114215480629197,1
311,138,59,0.206279632891656,1
311,139,59,0.246143904063568,1
311,140,59,0.194801197665352,1
311,141,59,0.167485939589026,1
311,145,59,0.127362460515592,1
311,146,59,0.152088820309053,1
311,147,59,0.183332664102456,1
311,148,59,0.176247354018694,1
311,149,59,0.173738344404083,1
311,150,59,0.153170116810672,1
311,151,59,0.115434594342535,1
311,156,59,0.131383418186146,1
311,157,59,0.177327386941704,1
311,158,59,0.102452228248703,1
312,139,59,0.208564313731517,1
312,147,59,0.142128738175088,1
312,148,59,0.165913111008557,1
312,149,59,0.212704690473528,1
312,150,59,0.219165977904133,1
312,151,59,0.15761922066417,1
312,152,59,0.110906800041878,1
312,156,59,0.17212781543081,1
312,157,59,0.246632603983466,1
312,158,59,0.138936285033946,1
313,149,59,0.188714670221465,1
313,150,59,0.210774661291835,1
313,151,59,0.145725449327715,1
313,156,59,0.110785474709588,1
313,157,59,0.155259531183786,1
314,150,59,0.122701129920399,1
283,178,60,0.112948361821641,1
283,179,60,0.123777862288939,1
284,178,60,0.154500240261967,1
284,179,60,0.17607753341083,1
284,180,60,0.105232133866968,1
285,178,60,0.121475219025578,1
285,179,60,0.143029800438239,1
295,163,60,0.157733846851249,1
295,164,60,0.167501505570337,1
296,163,60,0.117255999335541,1
296,164,60,0.106626198753039,1
301,145,60,0.138561067544627,1
301,146,60,0.113990465600547,1
301,150,60,0.103013191793526,1
301,151,60,0.132294055325135,1
301,152,60,0.115950559238796,1
302,144,60,0.163893073636821,1
302,145,60,0.131735194113687,1
302,146,60,0.103509625685944,1
302,150,60,0.136088407600859,1
302,151,60,0.177579340159145,1
302,152,60,0.145910062519638,1
303,143,60,0.113952481991848,1
303,144,60,0.112914724487639,1
303,148,60,0.113966359570707,1
303,149,60,0.131842511152088,1
303,150,60,0.137082005211272,1
303,151,60,0.135263857201059,1
303,152,60,0.10221474082775,1
304,147,60,0.120219461532583,1
304,148,60,0.141364120615857,1
304,149,60,0.138571394031879,1
304,150,60,0.110931875541512,1
305,145,60,0.104690505253445,1
305,146,60,0.123125060543674,1
305,147,60,0.132226442976641,1
305,148,60,0.123819603954708,1
305,149,60,0.0999057252067492,1
306,141,60,0.125362749330788,1
306,142,60,0.102592180472554,1
306,144,60,0.105792269549944,1
306,145,60,0.116838375712392,1
306,146,60,0.121791244392824,1
306,147,60,0.113221795875432,1
307,141,60,0.163399951191791,1
307,142,60,0.138139402648513,1
307,143,60,0.124828342722589,1
307,144,60,0.125313752980937,1
307,145,60,0.112065784842104,1
307,146,60,0.100839694978326,1
308,140,60,0.20560329154834,1
308,141,60,0.233783774184169,1
308,142,60,0.187071604099014,1
308,143,60,0.153527284733139,1
308,144,60,0.147779243855563,1
308,145,60,0.124698205018795,1
308,146,60,0.106848795553662,1
309,139,60,0.182188025276608,1
309,140,60,0.254466203140816,1
309,141,60,0.30874239442287,3
309,142,60,0.225108609887475,1
309,143,60,0.149535639907726,1
309,144,60,0.136084627757952,1
309,145,60,0.135534415524223,1
309,146,60,0.135205231510775,1
309,147,60,0.126266011963585,1
309,148,60,0.10153015354472,1
310,137,60,0.222017591608452,1
310,139,60,0.200972733449441,1
310,140,60,0.26892437458521,1
310,141,60,0.325831924748555,1
310,142,60,0.235820292542416,1
310,143,60,0.140800335805002,1
310,144,60,0.112784586783845,1
310,145,60,0.125195902489822,1
310,146,60,0.149561009516175,1
310,147,60,0.157436132480913,1
310,148,60,0.12391395841945,1
310,149,60,0.104139530515383,1
311,138,60,0.203724829445392,1
311,139,60,0.233766737658787,1
311,140,60,0.208199858446211,1
311,141,60,0.197797142546976,1
311,144,60,0.105594770034794,1
311,145,60,0.116162350263729,1
311,146,60,0.14078978056645,1
311,147,60,0.164132565354877,1
311,148,60,0.147417718765479,1
311,149,60,0.149726167954689,1
311,150,60,0.145496218739396,1
311,151,60,0.104229691206294,1
311,156,60,0.145361484223766,1
311,157,60,0.191742771000102,1
311,158,60,0.100819455934746,1
312,139,60,0.209906582787543,1
312,146,60,0.123838012987889,1
312,147,60,0.137957371078403,1
312,148,60,0.155688156655169,1
312,149,60,0.217307972703146,1
312,150,60,0.233451605510903,1
312,151,60,0.143444014577729,1
312,156,60,0.170702542331684,1
312,157,60,0.237588605448012,1
312,158,60,0.124396678126794,1
313,148,60,0.128143874955986,1
313,149,60,0.190856980609448,1
313,150,60,0.218223021474347,1
313,151,60,0.13706633030077,1
313,156,60,0.101985738990731,1
313,157,60,0.138193878136642,1
314,149,60,0.117763249896568,1
314,150,60,0.138899695718884,1
283,178,61,0.10520288637934,1
283,179,61,0.11460737517757,1
284,178,61,0.128998827492832,1
284,179,61,0.157513395955678,1
284,180,61,0.111465345358673,1
285,178,61,0.113437682637925,1
285,179,61,0.151127193416028,1
285,180,61,0.111985874388012,1
295,163,61,0.143390159985985,1
295,164,61,0.148024312748169,1
296,163,61,0.103456740563995,1
301,145,61,0.129229702911927,1
301,146,61,0.10777320134232,1
301,151,61,0.117404437143326,1
301,152,61,0.106326763301495,1
302,143,61,0.135519590261407,1
302,144,61,0.14364865984777,1
302,145,61,0.118577201486141,1
302,150,61,0.125415874096955,1
302,151,61,0.148307049354822,1
302,152,61,0.125560227060099,1
303,142,61,0.103226823721776,1
303,143,61,0.102634673749736,1
303,148,61,0.108002268536853,1
303,149,61,0.11878527802568,1
303,150,61,0.12460979808785,1
303,151,61,0.115221267416017,1
304,146,61,0.104793846376396,1
304,147,61,0.124821774292407,1
304,148,61,0.130065603733369,1
304,149,61,0.112308391935007,1
305,145,61,0.107252966421795,1
305,146,61,0.126724146352652,1
305,147,61,0.128398268187292,1
305,148,61,0.108527470628461,1
306,141,61,0.114616492550808,1
306,144,61,0.113247993345728,1
306,145,61,0.120637629801685,1
306,146,61,0.118851626795565,1
306,147,61,0.102647974003887,1
307,140,61,0.171235630896678,1
307,141,61,0.162683218904668,1
307,142,61,0.127889122258351,1
307,143,61,0.12287700699125,1
307,144,61,0.13173539018623,1
307,145,61,0.11553663920812,1
308,140,61,0.191067671449558,1
308,141,61,0.193113884505752,1
308,142,61,0.154379503147305,1
308,143,61,0.137434369356441,1
308,144,61,0.135570275013709,1
308,145,61,0.113628428543269,1
309,137,61,0.243974797094742,1
309,139,61,0.182061035626417,1
309,140,61,0.23040357069042,1
309,141,61,0.259673672018016,1
309,142,61,0.19103137624331,1
309,143,61,0.13638856198506,1
309,144,61,0.122868020333041,1
309,145,61,0.119938892616819,1
309,146,61,0.122607592424585,1
309,147,61,0.112184060157062,1
310,136,61,0.244730852819606,1
310,137,61,0.237162844814337,1
310,138,61,0.201441978615931,1
310,139,61,0.222500017206983,1
310,140,61,0.295239771622674,1
310,141,61,0.333645982009144,1
310,142,61,0.226073853229621,1
310,143,61,0.136832426650182,1
310,144,61,0.113497855122713,1
310,145,61,0.122267493706257,1
310,146,61,0.138995509834778,1
310,147,61,0.134372162848284,1
310,148,61,0.105041485997896,1
311,137,61,0.198146108101404,1
311,138,61,0.20096114338358,1
311,139,61,0.218240471930652,1
311,140,61,0.215778846513874,1
311,141,61,0.206681276602571,1
311,143,61,0.11093645056751,1
311,144,61,0.100577644024934,1
311,145,61,0.110478392428876,1
311,146,61,0.128310242508514,1
311,147,61,0.136801349152155,1
311,148,61,0.125346388166387,1
311,149,61,0.142934334895755,1
311,150,61,0.150542123841365,1
311,151,61,0.103521684147323,1
311,156,61,0.141901490098035,1
311,157,61,0.174889627910547,1
312,139,61,0.182482558914584,1
312,140,61,0.132780042908192,1
312,145,61,0.109646914132565,1
312,146,61,0.11934708032527,1
312,147,61,0.125941304939863,1
312,148,61,0.14291438996099,1
312,149,61,0.217198084935851,1
312,150,61,0.238720118306414,1
312,151,61,0.13754262318588,1
312,156,61,0.145856218820814,1
312,157,61,0.18900455258301,1
312,158,61,0.106552388333611,1
313,148,61,0.120610680719975,1
313,149,61,0.175885970536558,1
313,150,61,0.199831700179796,1
313,151,61,0.123224425751175,1
313,157,61,0.112894158656488,1
314,149,61,0.115755074913669,1
314,150,61,0.139675805307705,1
283,179,62,0.0997586163350875,1
284,179,62,0.128820020226758,1
284,180,62,0.112493179413635,1
285,179,62,0.14377964719925,1
285,180,62,0.12330463031408,1
286,179,62,0.106710488160586,1
295,163,62,0.120063409574388,1
295,164,62,0.117873965525711,1
301,144,62,0.118482237017933,1
301,145,62,0.115300698581671,1
301,151,62,0.099831435498883,1
302,143,62,0.113142560782321,1
302,144,62,0.115669739785894,1
302,145,62,0.103086827926249,1
302,150,62,0.10760150715238,1
302,151,62,0.112572621472208,1
303,149,62,0.101513236841448,1
303,150,62,0.102595328526157,1
304,146,62,0.108451928234905,1
304,147,62,0.121033097227503,1
304,148,62,0.1109274639093,1
305,145,62,0.105657970751076,1
305,146,62,0.123106651510493,1
305,147,62,0.11723827655626,1
306,140,62,0.111974959683132,1
306,141,62,0.103277737225379,1
306,144,62,0.113885414289307,1
306,145,62,0.116425152828535,1
306,146,62,0.109142561088004,1
307,139,62,0.138026214326748,1
307,140,62,0.172347177034477,1
307,141,62,0.152642474705198,1
307,142,62,0.115729836020249,1
307,143,62,0.117167755798383,1
307,144,62,0.131934011672041,1
307,145,62,0.115023778793787,1
308,140,62,0.173861129387524,1
308,141,62,0.160473317954031,1
308,142,62,0.126778000944395,1
308,143,62,0.117270486917867,1
308,144,62,0.118700585580129,1
308,145,62,0.102269107386688,1
309,135,62,0.23369745869368,1
309,136,62,0.277358304296801,1
309,137,62,0.240718271803795,1
309,139,62,0.190331506194864,1
309,140,62,0.205363080897627,1
309,141,62,0.207000635203043,1
309,142,62,0.155782217011096,1
309,143,62,0.119569219623292,1
309,144,62,0.108041842511732,1
309,145,62,0.103525333275202,1
309,146,62,0.105096876491224,1
310,136,62,0.252997423723036,1
310,137,62,0.236699351109102,1
310,138,62,0.214336711176071,1
310,139,62,0.259235950959234,1
310,140,62,0.284339576110794,1
310,141,62,0.275917432537607,1
310,142,62,0.185757177344059,1
310,143,62,0.126114273601331,1
310,144,62,0.112576335957601,1
310,145,62,0.11464466163945,1
310,146,62,0.121264735150931,1
310,147,62,0.108795273043108,1
311,137,62,0.225022621184558,1
311,138,62,0.205715096469387,1
311,139,62,0.221386739095056,1
311,140,62,0.209653365991494,1
311,141,62,0.187457670935699,1
311,142,62,0.134749961959416,1
311,143,62,0.10346964867306,1
311,145,62,0.106383286658404,1
311,146,62,0.116126327380457,1
311,147,62,0.112359305438609,1
311,148,62,0.108310265822764,1
311,149,62,0.13778196240307,1
311,150,62,0.157020273510648,1
311,151,62,0.105972144322084,1
311,156,62,0.12464937206273,1
311,157,62,0.141551260964998,1
312,139,62,0.150634267043541,1
312,145,62,0.101214847110131,1
312,146,62,0.114345836191372,1
312,147,62,0.117057366956811,1
312,148,62,0.132514756757844,1
312,149,62,0.195750624489049,1
312,150,62,0.21938250734885,1
312,151,62,0.129710549037196,1
312,156,62,0.119333507748143,1
312,157,62,0.136528797424807,1
313,146,62,0.106053394605218,1
313,147,62,0.110972680416243,1
313,148,62,0.120921510164837,1
313,149,62,0.155581667478614,1
313,150,62,0.171139707851595,1
313,151,62,0.112213688896856,1
284,179,63,0.108500074937071,1
284,180,63,0.111963892477386,1
285,179,63,0.128000371640527,1
285,180,63,0.129498311402582,1
286,179,63,0.110831867651788,1
286,180,63,0.103616463435907,1
294,163,63,0.105011552256368,1
294,164,63,0.102720651559735,1
295,163,63,0.101570065200089,1
304,146,63,0.108423203607392,1
304,147,63,0.112287063599523,1
305,145,63,0.103592509906934,1
305,146,63,0.115915298859857,1
305,147,63,0.104165128875132,1
306,140,63,0.106495080686531,1
306,144,63,0.110281099879188,1
306,145,63,0.109109119826545,1
307,139,63,0.137002388865994,1
307,140,63,0.161789335075166,1
307,141,63,0.139903249457301,1
307,142,63,0.110157890071905,1
307,143,63,0.114677438432848,1
307,144,63,0.125879117265053,1
307,145,63,0.10958978077219,1
308,135,63,0.164366338290437,1
308,136,63,0.179193278616078,1
308,139,63,0.156505844515972,1
308,140,63,0.161525170895479,1
308,141,63,0.143158532955477,1
308,142,63,0.112404445695119,1
308,143,63,0.104447048512857,1
308,144,63,0.104859312819838,1
309,134,63,0.218461728902233,1
309,135,63,0.26596169667834,1
309,136,63,0.271136116439166,1
309,137,63,0.219600648945584,1
309,138,63,0.188868870383423,1
309,139,63,0.202779846932664,1
309,140,63,0.181920473399099,1
309,141,63,0.163473173393591,1
309,142,63,0.126513684263842,1
309,143,63,0.105102061520688,1
310,135,63,0.216904041479232,1
310,136,63,0.229753481281996,1
310,137,63,0.221831736623758,1
310,138,63,0.223123876466354,1
310,139,63,0.284892348180497,1
310,140,63,0.242979293223497,1
310,141,63,0.195136459927625,1
310,142,63,0.139385639730265,1
310,143,63,0.114133761950544,1
310,144,63,0.111795379019807,1
310,145,63,0.107129930901216,1
310,146,63,0.103067329601164,1
311,136,63,0.192779210461107,1
311,137,63,0.243052471853621,1
311,138,63,0.209838197041798,1
311,139,63,0.230032819297908,1
311,140,63,0.191181371738518,1
311,141,63,0.154157973852749,1
311,142,63,0.114389451439216,1
311,145,63,0.102560852437389,1
311,146,63,0.106808807647859,1
311,147,63,0.102047621663808,1
311,148,63,0.102345172640358,1
311,149,63,0.13481973110588,1
311,150,63,0.161490879986335,1
311,151,63,0.10786074773266,1
311,157,63,0.103856924623759,1
312,137,63,0.220235902198273,1
312,146,63,0.111092763955762,1
312,147,63,0.12188383420468,1
312,148,63,0.128633315594379,1
312,149,63,0.162404599821413,1
312,150,63,0.185351677539803,1
312,151,63,0.121054044310821,1
313,146,63,0.106163946840575,1
313,147,63,0.120035033520284,1
313,148,63,0.12799180980616,1
313,149,63,0.139936756076274,1
313,150,63,0.148864167699223,1
313,151,63,0.111484560467863,1
314,149,63,0.109989420186002,1
314,150,63,0.120215616332161,1
314,151,63,0.100041984731045,1
284,180,64,0.10394957979313,1
285,179,64,0.109926001611339,1
285,180,64,0.129967894249562,1
286,179,64,0.11237043800187,1
286,180,64,0.118248638369078,1
297,151,64,0.100175281381362,1
304,146,64,0.0999516715392682,1
305,146,64,0.103027374374118,1
306,144,64,0.102852314272195,1
307,138,64,0.12202778412982,1
307,139,64,0.1307756477682,1
307,140,64,0.138277906114131,1
307,141,64,0.118203498112568,1
307,142,64,0.100501066804069,1
307,143,64,0.106422424916521,1
307,144,64,0.111869189439235,1
308,134,64,0.146260967013656,1
308,135,64,0.169410827312931,1
308,136,64,0.167231535464801,1
308,138,64,0.164748385639996,1
308,139,64,0.160758407431197,1
308,140,64,0.147619619019922,1
308,141,64,0.123152630521769,1
309,133,64,0.169380839106808,1
309,134,64,0.26075638459911,1
309,135,64,0.287351598940924,1
309,136,64,0.243313749409761,1
309,137,64,0.204201024294231,1
309,138,64,0.206746525187632,1
309,139,64,0.216073347473092,1
309,140,64,0.166776015376304,1
309,141,64,0.130656729771019,1
309,142,64,0.10124533639053,1
310,134,64,0.214384966807426,1
310,135,64,0.216842278628264,1
310,136,64,0.203726071238163,1
310,137,64,0.218205854233937,1
310,138,64,0.241468336423187,1
310,139,64,0.282036573381104,1
310,140,64,0.202635798971253,1
310,141,64,0.13937399519981,1
310,142,64,0.105907799849303,1
310,143,64,0.100433138560923,1
310,144,64,0.10306396368918,1
311,135,64,0.129241804944982,1
311,136,64,0.185535593584907,1
311,137,64,0.248285887663979,1
311,138,64,0.216188420269852,1
311,139,64,0.22124297434954,1
311,140,64,0.169116369925389,1
311,141,64,0.126610097490283,1
311,149,64,0.117922384550852,1
311,150,64,0.145213198916848,1
311,151,64,0.0998684060661115,1
312,137,64,0.210887337646405,1
312,141,64,0.101238887782457,1
312,146,64,0.102365433469776,1
312,147,64,0.121329036052035,1
312,148,64,0.116349860972117,1
312,149,64,0.121918549937667,1
312,150,64,0.141831187198538,1
312,151,64,0.107039312707706,1
313,146,64,0.10117392241329,1
313,147,64,0.123178414061141,1
313,148,64,0.124784030327926,1
313,149,64,0.117105600802329,1
313,150,64,0.125373141175554,1
313,151,64,0.110449046904977,1
314,149,64,0.100886534530206,1
314,150,64,0.10723926312964,1
285,180,65,0.119294042702454,1
285,181,65,0.105211502678303,1
286,179,65,0.106263922051542,1
286,180,65,0.124906248879577,1
286,181,65,0.101173867948695,1
307,138,65,0.12387768499904,1
307,139,65,0.121980748505397,1
307,140,65,0.113810383862946,1
308,134,65,0.150830197978349,1
308,135,65,0.165071883549704,1
308,136,65,0.152788309105332,1
308,137,65,0.156349400412692,1
308,138,65,0.169050761873999,1
308,139,65,0.158750515664192,1
308,140,65,0.133560335377925,1
308,141,65,0.104900586090088,1
309,133,65,0.170111100399381,1
309,134,65,0.274444884169838,1
309,135,65,0.284392689984042,1
309,136,65,0.216202254277035,1
309,137,65,0.206627835941751,1
309,138,65,0.233289192087988,1
309,139,65,0.219834519917415,1
309,140,65,0.158751049417225,1
309,141,65,0.111658465920368,1
310,133,65,0.157332333855362,1
310,134,65,0.215036690153707,1
310,135,65,0.214405532638578,1
310,136,65,0.192032217644885,1
310,137,65,0.230433351931081,1
310,138,65,0.266197746233979,1
310,139,65,0.253877462652436,1
310,140,65,0.17208495179438,1
310,141,65,0.112406951066498,1
311,134,65,0.117026899462251,1
311,135,65,0.125274985082067,1
311,137,65,0.221866071104579,1
311,138,65,0.204875099910385,1
311,139,65,0.183552450529966,1
311,140,65,0.141326550938081,1
311,141,65,0.106092772507554,1
311,150,65,0.118223323225225,1
312,147,65,0.11573402979408,1
312,148,65,0.103601757995201,1
312,150,65,0.108103540005186,1
313,147,65,0.1198192665799,1
313,148,65,0.114015138062177,1
313,149,65,0.0998198998976176,1
313,150,65,0.108736483959038,1
313,151,65,0.108033433178232,1
314,151,65,0.100654689641317,1
285,181,66,0.102645218095369,1
286,180,66,0.11563954461431,1
286,181,66,0.112067712888775,1
287,180,66,0.103326297858468,1
306,138,66,0.101113837071855,1
307,137,66,0.124457765616781,1
307,138,66,0.137570737809927,1
307,139,66,0.124930561874879,1
307,140,66,0.100300157805259,1
308,134,66,0.158243711712846,1
308,135,66,0.164932770080619,1
308,136,66,0.144966713944766,1
308,137,66,0.154157015275873,1
308,138,66,0.17149859685527,1
308,139,66,0.154773783244948,1
308,140,66,0.11934525031487,1
309,133,66,0.165461098439992,1
309,134,66,0.254088981354393,1
309,135,66,0.258282798757224,1
309,136,66,0.19111050240723,1
309,137,66,0.203937982085205,1
309,138,66,0.245130906164341,1
309,139,66,0.213538804856247,1
309,140,66,0.145719273042618,1
310,133,66,0.14824339113594,1
310,134,66,0.198406557795698,1
310,135,66,0.206214079304861,1
310,136,66,0.178555519992009,1
310,137,66,0.22317781820145,1
310,138,66,0.265825230188582,1
310,139,66,0.218217553228988,1
310,140,66,0.143438339366908,1
311,134,66,0.11363944128442,1
311,135,66,0.124420424690306,1
311,137,66,0.17228824634246,1
311,138,66,0.173240080501266,1
311,139,66,0.143350215651858,1
311,140,66,0.113577547718424,1
313,147,66,0.103009608023161,1
286,181,67,0.107087873340795,1
306,138,67,0.115442905639764,1
306,139,67,0.105993298370863,1
307,137,67,0.137387747662941,1
307,138,67,0.154435917575024,1
307,139,67,0.133631988999383,1
308,134,67,0.186219320327333,1
308,135,67,0.18602026312476,1
308,136,67,0.155587538761978,1
308,137,67,0.163308036740915,1
308,138,67,0.185269370643522,1
308,139,67,0.161091077178738,1
308,140,67,0.115554863061677,1
309,133,67,0.175934683670514,1
309,134,67,0.236314221063454,1
309,135,67,0.243319261226797,1
309,136,67,0.193336405055941,1
309,137,67,0.218287289696695,1
309,138,67,0.272888046394523,1
309,139,67,0.230616810473585,1
309,140,67,0.143235600357699,1
310,133,67,0.160815540791572,1
310,134,67,0.193678115926287,1
310,135,67,0.218426065485289,1
310,136,67,0.192833544341288,1
310,137,67,0.225064951067955,1
310,138,67,0.267889089773624,1
310,139,67,0.211920400302507,1
310,140,67,0.130707959169273,1
311,134,67,0.126490220916226,1
311,135,67,0.14498884835626,1
311,136,67,0.136613903801281,1
311,137,67,0.145370710526195,1
311,138,67,0.151424341354574,1
311,139,67,0.125125305481511,1
302,141,68,0.120355688378122,1
306,137,68,0.109662589043067,1
306,138,68,0.12924159797952,1
306,139,68,0.118087902455695,1
307,134,68,0.155204587300139,1
307,135,68,0.151664780756587,1
307,136,68,0.135146747428439,1
307,137,68,0.148831401798745,1
307,138,68,0.164175472562984,1
307,139,68,0.13888064400348,1
308,133,68,0.158424316310562,1
308,134,68,0.220797650033267,1
308,135,68,0.219180770488192,1
308,136,68,0.175144816324943,1
308,137,68,0.17519954235021,1
308,138,68,0.199663230293893,1
308,139,68,0.170634810161081,1
308,140,68,0.111943130573692,1
309,133,68,0.189603510629451,1
309,134,68,0.222410324911591,1
309,135,68,0.232248221172662,1
309,136,68,0.201444549344824,1
309,137,68,0.223911848444011,1
309,138,68,0.282589846525084,1
309,139,68,0.239749128796632,1
309,140,68,0.136606670903037,1
310,133,68,0.179749035345599,1
310,134,68,0.189391621568247,1
310,135,68,0.218476848273863,1
310,136,68,0.205022655391728,1
310,137,68,0.21437196066209,1
310,138,68,0.247566955007209,1
310,139,68,0.201469189127697,1
310,140,68,0.11970374717346,1
311,134,68,0.143741521982603,1
311,135,68,0.162495414087466,1
311,137,68,0.134992035299286,1
311,138,68,0.136043659489435,1
311,139,68,0.116111948727321,1
301,141,69,0.180161844298532,1
301,142,69,0.142031769409777,1
302,140,69,0.144929220517424,1
302,141,69,0.130684920645499,1
306,137,69,0.118117019228294,1
306,138,69,0.136565778884954,1
306,139,69,0.127054343407571,1
307,134,69,0.185628379469307,1
307,135,69,0.179220195019031,1
307,136,69,0.149075610150746,1
307,137,69,0.153455598432924,1
307,138,69,0.16563986213439,1
307,139,69,0.145528951961117,1
308,133,69,0.16665202127885,1
308,134,69,0.223521380868033,1
308,135,69,0.231562882278218,1
308,136,69,0.184416357046265,1
308,137,69,0.176763536773335,1
308,138,69,0.204298624848847,1
308,139,69,0.181476303732244,1
308,140,69,0.11352619849806,1
309,133,69,0.182654982930099,1
309,134,69,0.185462153524726,1
309,135,69,0.203787746945779,1
309,136,69,0.193742297005283,1
309,137,69,0.206949678127765,1
309,138,69,0.259605961633251,1
309,139,69,0.227089792216989,1
309,140,69,0.127641569780204,1
310,134,69,0.1617969056539,1
310,135,69,0.190115826397833,1
310,137,69,0.190394641553631,1
310,138,69,0.208996915118349,1
310,139,69,0.177081119828004,1
310,140,69,0.108791656593986,1
311,138,69,0.118942735170432,1
311,139,69,0.105434600553201,1
302,141,70,0.13059713461094,1
302,142,70,0.100190324502559,1
305,139,70,0.105390222801024,1
306,138,70,0.139407251281645,1
306,139,70,0.130639399136823,1
307,137,70,0.158844739413905,1
307,138,70,0.166104630311153,1
307,139,70,0.150539923471719,1
307,140,70,0.105734406363993,1
308,134,70,0.211272576621243,1
308,135,70,0.22519281215167,1
308,137,70,0.178637532779476,1
308,138,70,0.19764485953877,1
308,139,70,0.179842638198926,1
308,140,70,0.11643407412923,1
309,134,70,0.164358756818784,1
309,135,70,0.182728030845194,1
309,138,70,0.214413549826993,1
309,139,70,0.191144858673889,1
309,140,70,0.116846512722916,1
310,138,70,0.167128216127688,1
310,139,70,0.145152067855184,1
