x,y,z,signal,mito.p
1,111,1,0.106469122860454,1
1,112,1,0.120841643282422,1
1,113,1,0.134723394129873,1
1,114,1,0.134543464893138,1
1,115,1,0.120649067366679,1
1,116,1,0.109185087043943,1
1,117,1,0.105274888574208,1
1,118,1,0.110232332280638,1
1,119,1,0.121757541701308,1
1,120,1,0.113254420167963,1
2,111,1,0.105644637818168,1
2,112,1,0.115664456720159,1
2,113,1,0.122068229538223,1
2,114,1,0.121638732633317,1
2,115,1,0.114707698961946,1
2,116,1,0.113462670994207,1
2,117,1,0.119514090560021,1
2,118,1,0.12649790042415,1
2,119,1,0.130392108088732,1
2,120,1,0.120061045810956,1
2,121,1,0.10276265465556,1
3,112,1,0.10545052600084,1
3,113,1,0.105218201823513,1
3,114,1,0.104464226646186,1
3,115,1,0.103642715370799,1
3,116,1,0.111423941373395,1
3,117,1,0.12791187756623,1
3,118,1,0.137206663776788,1
3,119,1,0.132323019596867,1
3,120,1,0.119868459002294,1
4,116,1,0.104407637931763,1
4,117,1,0.127267528726141,1
4,118,1,0.137617152537965,1
4,119,1,0.1269791931591,1
4,120,1,0.111374705379325,1
5,117,1,0.100542372753076,1
5,118,1,0.108804150772127,1
5,119,1,0.100717171424942,1
1,110,2,0.101610107570488,1
1,111,2,0.113626881748765,1
1,112,2,0.12664344071547,1
1,113,2,0.143335335924447,1
1,114,2,0.146685082816555,1
1,115,2,0.129479281473016,1
1,116,2,0.114177823808069,1
1,117,2,0.112185606951566,1
1,118,2,0.115009040674323,1
1,119,2,0.126787521355638,1
1,120,2,0.121468901132534,1
1,121,2,0.102751761736518,1
2,111,2,0.102478458397756,1
2,112,2,0.111360076189052,1
2,113,2,0.120762604261853,1
2,114,2,0.124833375251186,1
2,115,2,0.117248722865621,1
2,116,2,0.112852907172076,1
2,117,2,0.117957536000601,1
2,118,2,0.121319722606254,1
2,119,2,0.122884708285013,1
2,120,2,0.113848661580459,1
3,113,2,0.101792422356493,1
3,114,2,0.105092813432421,1
3,115,2,0.10623427152591,1
3,116,2,0.112771068671314,1
3,117,2,0.126633190478651,1
3,118,2,0.135083383318372,1
3,119,2,0.127165015465037,1
3,120,2,0.113850600520048,1
4,116,2,0.108877329402251,1
4,117,2,0.134952559360678,1
4,118,2,0.150096505416278,1
4,119,2,0.131646765396904,1
4,120,2,0.11009756508625,1
5,117,2,0.111124756458988,1
5,118,2,0.125005875517135,1
5,119,2,0.108533679592315,1
1,110,3,0.106084918712925,1
1,111,3,0.119204187013277,1
1,112,3,0.129235247407719,1
1,113,3,0.14244503586531,1
1,114,3,0.146949236103322,1
1,115,3,0.129100883251336,1
1,116,3,0.113021006698732,1
1,117,3,0.115378877061636,1
1,118,3,0.116671332798883,1
1,119,3,0.121156742751549,1
1,120,3,0.12010113175303,1
1,121,3,0.100586086037191,1
2,111,3,0.106832663140561,1
2,112,3,0.115275525045765,1
2,113,3,0.126130395121513,1
2,114,3,0.133352847056013,1
2,115,3,0.125970389033705,1
2,116,3,0.118205589553024,1
2,117,3,0.121546992469146,1
2,118,3,0.122703798685564,1
2,119,3,0.12041358424283,1
2,120,3,0.112409412866202,1
3,114,3,0.106336686750742,1
3,115,3,0.111411044157249,1
3,116,3,0.116760088303237,1
3,117,3,0.126126909387419,1
3,118,3,0.134634747554709,1
3,119,3,0.127260121541193,1
3,120,3,0.109741878600773,1
4,115,3,0.100448486683853,1
4,116,3,0.116050686950629,1
4,117,3,0.138361868734107,1
4,118,3,0.159202920377843,1
4,119,3,0.143303452350411,1
4,120,3,0.113203572021875,1
5,116,3,0.0999007798215042,1
5,117,3,0.121789501525777,1
5,118,3,0.142468379390816,1
5,119,3,0.124244558512373,1
1,110,4,0.113609257005755,1
1,111,4,0.131054255958536,1
1,112,4,0.140587575310274,1
1,113,4,0.148869516122472,1
1,114,4,0.150137277612252,1
1,115,4,0.13093152543969,1
1,116,4,0.117533060731374,1
1,117,4,0.122381836677441,1
1,118,4,0.121355865311636,1
1,119,4,0.116907665570418,1
1,120,4,0.113232993796207,1
2,109,4,0.103308324542048,1
2,110,4,0.106304966570492,1
2,111,4,0.114645326107512,1
2,112,4,0.12531735853714,1
2,113,4,0.137853006021062,1
2,114,4,0.144901487145543,1
2,115,4,0.135798862919805,1
2,116,4,0.126390180347744,1
2,117,4,0.127245339850053,1
2,118,4,0.12574680097745,1
2,119,4,0.119949611249157,1
2,120,4,0.10979717105783,1
3,113,4,0.105287317394835,1
3,114,4,0.115519166965977,1
3,115,4,0.121834707139801,1
3,116,4,0.125422050382052,1
3,117,4,0.129961173318513,1
3,118,4,0.136088974032649,1
3,119,4,0.129386310408993,1
3,120,4,0.106930644947343,1
4,115,4,0.109696574950478,1
4,116,4,0.12410349521078,1
4,117,4,0.139570786675222,1
4,118,4,0.159768633235368,1
4,119,4,0.1479643799076,1
4,120,4,0.110903205378594,1
5,116,4,0.110848893284251,1
5,117,4,0.128112350848278,1
5,118,4,0.149645233566208,1
5,119,4,0.131742644870312,1
6,118,4,0.100889432046672,1
1,109,5,0.11105935537306,1
1,110,5,0.129040841481577,1
1,111,5,0.147894011650589,1
1,112,5,0.15814462972124,1
1,113,5,0.156734432422068,1
1,114,5,0.152239861524488,1
1,115,5,0.13129764734161,1
1,116,5,0.121666792792769,1
1,117,5,0.127618640185621,1
1,118,5,0.126332905379422,1
1,119,5,0.115207781982244,1
1,120,5,0.105392466742347,1
2,108,5,0.101262318451316,1
2,109,5,0.118036760200793,1
2,110,5,0.117840949088095,1
2,111,5,0.124696375008396,1
2,112,5,0.138814937915819,1
2,113,5,0.148791119784127,1
2,114,5,0.155672873889753,1
2,115,5,0.146066680909624,1
2,116,5,0.13801833874628,1
2,117,5,0.136533775488809,1
2,118,5,0.133121764671457,1
2,119,5,0.125275660443047,1
2,120,5,0.110049200525704,1
3,112,5,0.101314146960118,1
3,113,5,0.11266184537208,1
3,114,5,0.124517012203451,1
3,115,5,0.132928491608896,1
3,116,5,0.138629050252368,1
3,117,5,0.140589623179054,1
3,118,5,0.145178766399756,1
3,119,5,0.14109870375048,1
3,120,5,0.111935886782529,1
4,115,5,0.115445487261577,1
4,116,5,0.133049620868642,1
4,117,5,0.144057405741901,1
4,118,5,0.160373560601444,1
4,119,5,0.154031332775967,1
4,120,5,0.113068369110726,1
5,115,5,0.101111974382699,1
5,116,5,0.123144613333354,1
5,117,5,0.137585878967396,1
5,118,5,0.155403600931035,1
5,119,5,0.139697177214865,1
5,120,5,0.101541329679657,1
6,117,5,0.105817072726602,1
6,118,5,0.115152838098596,1
6,119,5,0.100604375248262,1
1,109,6,0.135203434179133,1
1,110,6,0.154581185543367,1
1,111,6,0.166537798129776,1
1,112,6,0.175289234645601,1
1,113,6,0.162917634522451,1
1,114,6,0.153737115032644,1
1,115,6,0.134129337897001,1
1,116,6,0.12859441698048,1
1,117,6,0.135444331083746,1
1,118,6,0.132855160477905,1
1,119,6,0.116770676220546,1
1,120,6,0.102517019331164,1
2,108,6,0.108884083012057,1
2,109,6,0.132984851572019,1
2,110,6,0.133673491020933,1
2,111,6,0.137102679971613,1
2,112,6,0.152513448079146,1
2,113,6,0.157642727583463,1
2,114,6,0.165819366547282,1
2,115,6,0.157926030621906,1
2,116,6,0.149967522361902,1
2,117,6,0.145536566111527,1
2,118,6,0.140606332916865,1
2,119,6,0.132543721029577,1
2,120,6,0.112970724984434,1
3,108,6,0.106796084718418,1
3,109,6,0.106714910685717,1
3,112,6,0.108691147629986,1
3,113,6,0.119490180602724,1
3,114,6,0.133943493805226,1
3,115,6,0.147097161943912,1
3,116,6,0.154668176394836,1
3,117,6,0.151662003062231,1
3,118,6,0.153757343183305,1
3,119,6,0.152904852446162,1
3,120,6,0.118066399833506,1
4,114,6,0.10210616021074,1
4,115,6,0.123857467741298,1
4,116,6,0.14671629102961,1
4,117,6,0.156174645312502,1
4,118,6,0.165059029905234,1
4,119,6,0.158667108583088,1
4,120,6,0.117124445552272,1
5,115,6,0.108035372117822,1
5,116,6,0.138056344140818,1
5,117,6,0.155511996368422,1
5,118,6,0.162995072283921,1
5,119,6,0.143409375095175,1
5,120,6,0.10774159009126,1
6,116,6,0.110391717472059,1
6,117,6,0.125284930317152,1
6,118,6,0.128985178665273,1
6,119,6,0.1095796612504,1
1,108,7,0.11390903013779,1
1,109,7,0.172039321356513,1
1,110,7,0.189285785966836,1
1,111,7,0.183276031816357,1
1,112,7,0.186243175820035,1
1,113,7,0.166185586485473,1
1,114,7,0.156172314227827,1
1,115,7,0.140644534383945,1
1,116,7,0.135445866985331,1
1,117,7,0.143634749590153,1
1,118,7,0.142092399397164,1
1,119,7,0.125778161691372,1
1,120,7,0.107375402831826,1
1,129,7,0.101007859862496,1
1,130,7,0.108537753544037,1
2,108,7,0.116595398260242,1
2,109,7,0.148344891355573,1
2,110,7,0.152339422804532,1
2,111,7,0.149461971096246,1
2,112,7,0.163350028943822,1
2,113,7,0.163969204248005,1
2,114,7,0.174387649522336,1
2,115,7,0.168836323869739,1
2,116,7,0.157885541641827,1
2,117,7,0.151531582142542,1
2,118,7,0.147816061921924,1
2,119,7,0.140350523606083,1
2,120,7,0.115593369530491,1
3,107,7,0.105031148617725,1
3,108,7,0.109512898549592,1
3,109,7,0.109378839394943,1
3,110,7,0.102091171554138,1
3,111,7,0.10286374094427,1
3,112,7,0.11642861677679,1
3,113,7,0.12740488843526,1
3,114,7,0.145362214049342,1
3,115,7,0.160728157795017,1
3,116,7,0.16704109456119,1
3,117,7,0.159698929446419,1
3,118,7,0.158493420988964,1
3,119,7,0.157370132284438,1
3,120,7,0.118211177620493,1
4,114,7,0.110966787347042,1
4,115,7,0.133402257336788,1
4,116,7,0.15874848958125,1
4,117,7,0.168814744997117,1
4,118,7,0.167405037879301,1
4,119,7,0.157239526185125,1
4,120,7,0.115873883981659,1
5,115,7,0.114554424698107,1
5,116,7,0.149647717151749,1
5,117,7,0.174118343884862,1
5,118,7,0.168436401240032,1
5,119,7,0.144924187988827,1
5,120,7,0.110606514942648,1
6,116,7,0.121791255285743,1
6,117,7,0.143606166570587,1
6,118,7,0.139221810227874,1
6,119,7,0.11936083808202,1
1,108,8,0.132442427775405,1
1,109,8,0.200521091240123,1
1,110,8,0.211852537416875,1
1,111,8,0.18953928597878,1
1,112,8,0.182567229574297,1
1,113,8,0.162256151120709,1
1,114,8,0.153663511578677,1
1,115,8,0.145205824410656,1
1,116,8,0.141142210069134,1
1,117,8,0.15182074557143,1
1,118,8,0.152421784165408,1
1,119,8,0.140099006105404,1
1,120,8,0.115878262935114,1
1,128,8,0.103920561056802,1
1,129,8,0.106398743710524,1
1,130,8,0.116413802406893,1
1,131,8,0.108233035026757,1
2,108,8,0.119584121136542,1
2,109,8,0.154490382170234,1
2,110,8,0.163701336475844,1
2,111,8,0.158478432332362,1
2,112,8,0.165654033822063,1
2,113,8,0.162614702443894,1
2,114,8,0.169198883787131,1
2,115,8,0.169410293559898,1
2,116,8,0.160986123903769,1
2,117,8,0.158890565924315,1
2,118,8,0.155931286608185,1
2,119,8,0.146893181141932,1
2,120,8,0.117038652921897,1
3,106,8,0.104243133068391,1
3,107,8,0.107935658336911,1
3,108,8,0.107251670164429,1
3,109,8,0.107554460635038,1
3,110,8,0.105454229593315,1
3,111,8,0.109483607490288,1
3,112,8,0.122903324283656,1
3,113,8,0.134412248790358,1
3,114,8,0.149168058354655,1
3,115,8,0.164389670923025,1
3,116,8,0.170623045808515,1
3,117,8,0.167132104899786,1
3,118,8,0.161333390162827,1
3,119,8,0.150554323910692,1
3,120,8,0.112391668301083,1
4,106,8,0.106105909367919,1
4,107,8,0.101905066032306,1
4,108,8,0.100433182132599,1
4,113,8,0.104556043060791,1
4,114,8,0.119055585811707,1
4,115,8,0.141440904802184,1
4,116,8,0.167926874058926,1
4,117,8,0.183159281510065,1
4,118,8,0.172086455017208,1
4,119,8,0.149148429314542,1
4,120,8,0.110445474027532,1
5,115,8,0.121262153529118,1
5,116,8,0.155001412574168,1
5,117,8,0.181939841009156,1
5,118,8,0.169002996424,1
5,119,8,0.142037836765683,1
5,120,8,0.109402455243426,1
6,115,8,0.10099427639245,1
6,116,8,0.127684651275015,1
6,117,8,0.149777037886615,1
6,118,8,0.142687871709512,1
6,119,8,0.126457618409533,1
6,120,8,0.102229620555161,1
1,108,9,0.145765698663575,1
1,109,9,0.209801858263874,1
1,110,9,0.218465781068116,1
1,111,9,0.188480864607149,1
1,112,9,0.167283004507274,1
1,113,9,0.153251279950453,1
1,114,9,0.151406694825726,1
1,115,9,0.15307337679666,1
1,116,9,0.148987540900292,1
1,117,9,0.156695010948055,1
1,118,9,0.162763183823355,1
1,119,9,0.159649649880673,1
1,120,9,0.126748263275411,1
1,128,9,0.102466214756753,1
1,129,9,0.108342476184372,1
1,130,9,0.118622940853198,1
1,131,9,0.117227427208894,1
2,107,9,0.101227744326277,1
2,108,9,0.122676315850821,1
2,109,9,0.157121632122333,1
2,110,9,0.171775745394455,1
2,111,9,0.165912250467953,1
2,112,9,0.160894220345812,1
2,113,9,0.158306476712366,1
2,114,9,0.163545872735277,1
2,115,9,0.171362184830108,1
2,116,9,0.166971336307646,1
2,117,9,0.166445959929333,1
2,118,9,0.162843965710971,1
2,119,9,0.151757435925958,1
2,120,9,0.116747681268448,1
2,128,9,0.0997236064932867,1
2,129,9,0.103894396265263,1
2,130,9,0.107016045432632,1
2,131,9,0.100578951175219,1
3,106,9,0.116692051130901,1
3,107,9,0.112503930724729,1
3,108,9,0.105781343952145,1
3,109,9,0.105696324719022,1
3,110,9,0.108049772556795,1
3,111,9,0.115292877465799,1
3,112,9,0.128006776676924,1
3,113,9,0.142710267551062,1
3,114,9,0.155277330213501,1
3,115,9,0.168191016452774,1
3,116,9,0.17260672261649,1
3,117,9,0.17606877550392,1
3,118,9,0.163720464441682,1
3,119,9,0.139362524956058,1
3,120,9,0.104676562317071,1
4,106,9,0.12095319766633,1
4,107,9,0.111609513142194,1
4,108,9,0.104412398137384,1
4,109,9,0.100629505212492,1
4,113,9,0.113622949404991,1
4,114,9,0.130994737048891,1
4,115,9,0.151826181138032,1
4,116,9,0.174996999413543,1
4,117,9,0.197129951255656,1
4,118,9,0.178021549100572,1
4,119,9,0.139172160302881,1
4,120,9,0.10350636870315,1
5,114,9,0.107861630059102,1
5,115,9,0.131077730199071,1
5,116,9,0.159499643492546,1
5,117,9,0.185469146778751,1
5,118,9,0.169844496205829,1
5,119,9,0.138499228443226,1
5,120,9,0.105889456173636,1
6,115,9,0.110840505736588,1
6,116,9,0.133546425120308,1
6,117,9,0.152131553230454,1
6,118,9,0.146984670768966,1
6,119,9,0.13288352563909,1
6,120,9,0.104984091207464,1
7,117,9,0.10416537941227,1
7,118,9,0.103031088859511,1
1,107,10,0.106019855307488,1
1,108,10,0.146780363179415,1
1,109,10,0.195913386485374,1
1,110,10,0.207821373081179,1
1,111,10,0.180641601131897,1
1,112,10,0.148577760178852,1
1,113,10,0.140988521874371,1
1,114,10,0.147174425418677,1
1,115,10,0.15949811848388,1
1,116,10,0.159041411067208,1
1,117,10,0.160656438816045,1
1,118,10,0.177153601311309,1
1,119,10,0.188119611840041,1
1,120,10,0.145762626860405,1
1,121,10,0.104584920189171,1
1,127,10,0.101171874544511,1
1,128,10,0.106885330404128,1
1,129,10,0.11139455227782,1
1,130,10,0.116494203042342,1
1,131,10,0.116232054052678,1
2,107,10,0.104864160168812,1
2,108,10,0.121345397216436,1
2,109,10,0.148986865539311,1
2,110,10,0.167334963731104,1
2,111,10,0.163247025501361,1
2,112,10,0.148135681952454,1
2,113,10,0.148086467744222,1
2,114,10,0.154296008922849,1
2,115,10,0.168243433179204,1
2,116,10,0.171578169628872,1
2,117,10,0.17097740335787,1
2,118,10,0.168333964229362,1
2,119,10,0.157545377565985,1
2,120,10,0.119472109250033,1
2,127,10,0.1047303515513,1
2,128,10,0.113412236779043,1
2,129,10,0.116820249895106,1
2,130,10,0.114506681033946,1
2,131,10,0.106641939021055,1
3,106,10,0.120974645823924,1
3,107,10,0.112598100009847,1
3,108,10,0.102845190303141,1
3,109,10,0.102063961042371,1
3,110,10,0.107907619963297,1
3,111,10,0.115540135835133,1
3,112,10,0.125609637340874,1
3,113,10,0.143514371941821,1
3,114,10,0.15729040700997,1
3,115,10,0.169157251050553,1
3,116,10,0.173047275834223,1
3,117,10,0.180414865022039,1
3,118,10,0.163693155893644,1
3,119,10,0.129170892042019,1
3,129,10,0.102504884619351,1
4,105,10,0.0998160111255196,1
4,106,10,0.125330332003719,1
4,107,10,0.115570886545588,1
4,108,10,0.103137425535199,1
4,112,10,0.101097661087078,1
4,113,10,0.122445396860051,1
4,114,10,0.14819303317121,1
4,115,10,0.169597488373634,1
4,116,10,0.180910939448129,1
4,117,10,0.201275556598807,1
4,118,10,0.180080539550803,1
4,119,10,0.130849937476066,1
5,113,10,0.100487690299485,1
5,114,10,0.127334890537497,1
5,115,10,0.153494769369798,1
5,116,10,0.166355908167613,1
5,117,10,0.182471034206237,1
5,118,10,0.168237028142807,1
5,119,10,0.133196729740304,1
5,120,10,0.101534946429098,1
6,114,10,0.107721677835251,1
6,115,10,0.131085801852081,1
6,116,10,0.143908379716488,1
6,117,10,0.154070721571223,1
6,118,10,0.150789839713299,1
6,119,10,0.133588722324948,1
6,120,10,0.103412515312685,1
7,115,10,0.102577845391095,1
7,116,10,0.111329488872382,1
7,117,10,0.115028168640161,1
7,118,10,0.11264683492964,1
7,119,10,0.104236564638209,1
1,107,11,0.109808216477739,1
1,108,11,0.136172947545544,1
1,109,11,0.169643064346905,1
1,110,11,0.187226196406058,1
1,111,11,0.166688577915154,1
1,112,11,0.134522822811553,1
1,113,11,0.133295561194772,1
1,114,11,0.146790188592391,1
1,115,11,0.167972787712687,1
1,116,11,0.169464834405541,1
1,117,11,0.163837879216035,1
1,118,11,0.188419384972076,1
1,119,11,0.211608993532935,1
1,120,11,0.162573429173644,1
1,121,11,0.110477281351134,1
1,127,11,0.105588027317907,1
1,128,11,0.117780438922817,1
1,129,11,0.116087548588667,1
1,130,11,0.1117904554204,1
1,131,11,0.108765404659095,1
2,107,11,0.107861063627312,1
2,108,11,0.118273986191689,1
2,109,11,0.137130740131065,1
2,110,11,0.153635429633387,1
2,111,11,0.149608328356493,1
2,112,11,0.13329296868004,1
2,113,11,0.137578918392128,1
2,114,11,0.147043895569797,1
2,115,11,0.16453662729382,1
2,116,11,0.173902587837398,1
2,117,11,0.175877833526034,1
2,118,11,0.174375394988414,1
2,119,11,0.164301514529218,1
2,120,11,0.122860351718035,1
2,127,11,0.111388680994456,1
2,128,11,0.128763170082278,1
2,129,11,0.126818620639503,1
2,130,11,0.116099160440366,1
2,131,11,0.104953874250041,1
3,106,11,0.114976351024278,1
3,107,11,0.108342694042752,1
3,110,11,0.10404019798664,1
3,111,11,0.110572082425556,1
3,112,11,0.117788510575827,1
3,113,11,0.136852077476134,1
3,114,11,0.154158551177458,1
3,115,11,0.170034163712188,1
3,116,11,0.177291984954818,1
3,117,11,0.188358188552898,1
3,118,11,0.167026835730164,1
3,119,11,0.127374660584919,1
3,128,11,0.112044554542891,1
3,129,11,0.114134197667306,1
3,130,11,0.102795420556039,1
4,106,11,0.116335460533143,1
4,107,11,0.11118806610446,1
4,112,11,0.102125364427011,1
4,113,11,0.12741364634217,1
4,114,11,0.161550562289766,1
4,115,11,0.18874747969362,1
4,116,11,0.188102313884603,1
4,117,11,0.200133804396505,1
4,118,11,0.175509870720796,1
4,119,11,0.125542558745413,1
5,113,11,0.112087897467759,1
5,114,11,0.150043326185515,1
5,115,11,0.183248875769186,1
5,116,11,0.178655288237515,1
5,117,11,0.180681643502295,1
5,118,11,0.162784403229649,1
5,119,11,0.125971979399885,1
6,114,11,0.123853056109086,1
6,115,11,0.1545273745233,1
6,116,11,0.159191972994206,1
6,117,11,0.1594048859898,1
6,118,11,0.150902439817435,1
6,119,11,0.128192544518265,1
7,115,11,0.121084108767377,1
7,116,11,0.130361684165848,1
7,117,11,0.127347820432399,1
7,118,11,0.120550007160911,1
7,119,11,0.106903902831095,1
1,107,12,0.0997373860358748,1
1,108,12,0.114480625171597,1
1,109,12,0.136994153819198,1
1,110,12,0.156087480174328,1
1,111,12,0.141701855570753,1
1,112,12,0.118774799037562,1
1,113,12,0.12268337446236,1
1,114,12,0.140956191690654,1
1,115,12,0.165931204147086,1
1,116,12,0.171410516711897,1
1,117,12,0.165812819902938,1
1,118,12,0.190965648369811,1
1,119,12,0.213531027312051,1
1,120,12,0.166690386139715,1
1,121,12,0.114575143030125,1
1,124,12,0.100196424537222,1
1,125,12,0.103536454945544,1
1,126,12,0.107653270303668,1
1,127,12,0.119406141732315,1
1,128,12,0.137352084245998,1
1,129,12,0.125841035620082,1
1,130,12,0.106918956845211,1
2,107,12,0.102957463619707,1
2,108,12,0.108326833952627,1
2,109,12,0.119180647415227,1
2,110,12,0.131031228327681,1
2,111,12,0.125289701415692,1
2,112,12,0.113519956855449,1
2,113,12,0.120561706155962,1
2,114,12,0.134765549726565,1
2,115,12,0.154425645552367,1
2,116,12,0.169428441163022,1
2,117,12,0.178860946549027,1
2,118,12,0.180129797330711,1
2,119,12,0.166217938455027,1
2,120,12,0.125089467777863,1
2,126,12,0.106215971421919,1
2,127,12,0.120451437136501,1
2,128,12,0.139004311313363,1
2,129,12,0.129822473780352,1
2,130,12,0.110932746975036,1
3,106,12,0.10038951242016,1
3,112,12,0.103097470308153,1
3,113,12,0.119072001440703,1
3,114,12,0.139473458443582,1
3,115,12,0.161325253152302,1
3,116,12,0.180247887466044,1
3,117,12,0.196318450572868,1
3,118,12,0.169663368748,1
3,119,12,0.124187501402431,1
3,127,12,0.105749198948052,1
3,128,12,0.120618599872119,1
3,129,12,0.119616832572425,1
3,130,12,0.104326649078686,1
4,113,12,0.121450208883458,1
4,114,12,0.158329112198135,1
4,115,12,0.195422028693229,1
4,116,12,0.203093780859453,1
4,117,12,0.202802482418433,1
4,118,12,0.166042856567266,1
4,119,12,0.115901878783597,1
4,128,12,0.10298585056673,1
4,129,12,0.101041682376121,1
5,113,12,0.116451306727155,1
5,114,12,0.160468917214738,1
5,115,12,0.205676600893493,1
5,116,12,0.205716033260425,1
5,117,12,0.188117934330509,1
5,118,12,0.155315912932748,1
5,119,12,0.115753462761651,1
6,113,12,0.103562706880435,1
6,114,12,0.135224522870398,1
6,115,12,0.177416850485796,1
6,116,12,0.190343205189915,1
6,117,12,0.176107118578948,1
6,118,12,0.151482770972315,1
6,119,12,0.119208348108351,1
7,114,12,0.109924226065536,1
7,115,12,0.145303381393596,1
7,116,12,0.165344478848729,1
7,117,12,0.152967029228053,1
7,118,12,0.133676268715288,1
7,119,12,0.108823463917588,1
8,116,12,0.111501629672002,1
8,117,12,0.10524052141463,1
1,109,13,0.10685143164007,1
1,110,13,0.122962048010211,1
1,111,13,0.115962704843528,1
1,112,13,0.106363679404128,1
1,113,13,0.114699627308936,1
1,114,13,0.134371106235137,1
1,115,13,0.155793981363661,1
1,116,13,0.165531477589922,1
1,117,13,0.167967689826576,1
1,118,13,0.190321571852697,1
1,119,13,0.199387748371321,1
1,120,13,0.159701358567365,1
1,121,13,0.116723324701471,1
1,124,13,0.108055600268482,1
1,125,13,0.121345320966003,1
1,126,13,0.130596633536664,1
1,127,13,0.13917353281068,1
1,128,13,0.154684352379614,1
1,129,13,0.139471552182749,1
1,130,13,0.10900513602137,1
2,109,13,0.10053606575295,1
2,110,13,0.107670764331649,1
2,111,13,0.102930340251292,1
2,113,13,0.107289185377609,1
2,114,13,0.125516285024684,1
2,115,13,0.14430186463104,1
2,116,13,0.161134180459387,1
2,117,13,0.180347372495655,1
2,118,13,0.193681536302866,1
2,119,13,0.174242141909774,1
2,120,13,0.13120168072485,1
2,121,13,0.1021373139592,1
2,125,13,0.106145025840199,1
2,126,13,0.118205959912272,1
2,127,13,0.13104909271491,1
2,128,13,0.145783432335775,1
2,129,13,0.134983386321566,1
2,130,13,0.109273047365207,1
3,113,13,0.104356811571513,1
3,114,13,0.126670378904261,1
3,115,13,0.150898703546204,1
3,116,13,0.176562442594902,1
3,117,13,0.195961947118463,1
3,118,13,0.175032706402163,1
3,119,13,0.128953436699184,1
3,127,13,0.114543324813603,1
3,128,13,0.128560899468588,1
3,129,13,0.124964602246885,1
3,130,13,0.104639210497676,1
4,113,13,0.112446405219268,1
4,114,13,0.14846932116979,1
4,115,13,0.190295515990349,1
4,116,13,0.212672447433164,1
4,117,13,0.198870792219428,1
4,118,13,0.153418867509914,1
4,119,13,0.107554112061629,1
4,127,13,0.101316129471383,1
4,128,13,0.11433960544168,1
4,129,13,0.109352587460052,1
5,113,13,0.119072578765412,1
5,114,13,0.164445682312739,1
5,115,13,0.220168366100213,1
5,116,13,0.234629674705291,1
5,117,13,0.189630263638618,1
5,118,13,0.140726514492655,1
5,119,13,0.104634297791188,1
6,113,13,0.115335033062492,1
6,114,13,0.149826513524904,1
6,115,13,0.201487641732554,1
6,116,13,0.222099811361381,1
6,117,13,0.18220892878825,1
6,118,13,0.142745843824653,1
6,119,13,0.109093314201015,1
7,114,13,0.123548936702354,1
7,115,13,0.166683665208667,1
7,116,13,0.195130752038047,1
7,117,13,0.173637214543697,1
7,118,13,0.14239648612514,1
7,119,13,0.107441228741597,1
8,115,13,0.119490648998243,1
8,116,13,0.142695387823651,1
8,117,13,0.136998663487681,1
8,118,13,0.11734197714554,1
1,114,14,0.114074624293065,1
1,115,14,0.127202291033999,1
1,116,14,0.142146602562317,1
1,117,14,0.157308511041417,1
1,118,14,0.179190773244698,1
1,119,14,0.177460934129159,1
1,120,14,0.14628116248556,1
1,121,14,0.115438145434143,1
1,123,14,0.101534826606989,1
1,124,14,0.11832991043805,1
1,125,14,0.146560533180229,1
1,126,14,0.162729219701783,1
1,127,14,0.161912250773635,1
1,128,14,0.164409191033948,1
1,129,14,0.146462344407985,1
1,130,14,0.113946893924379,1
2,114,14,0.10763562377482,1
2,115,14,0.122675912812817,1
2,116,14,0.140397276014611,1
2,117,14,0.16517709825473,1
2,118,14,0.188141898752401,1
2,119,14,0.171377707239743,1
2,120,14,0.13308648250668,1
2,121,14,0.10553649291792,1
2,125,14,0.118614041338341,1
2,126,14,0.135809026013271,1
2,127,14,0.146089022286579,1
2,128,14,0.153790196227135,1
2,129,14,0.141086274929853,1
2,130,14,0.111494069986187,1
3,114,14,0.105985411897477,1
3,115,14,0.128631235046842,1
3,116,14,0.155312013267731,1
3,117,14,0.1731930775556,1
3,118,14,0.164938042253435,1
3,119,14,0.12913563166308,1
3,120,14,0.100192078262524,1
3,126,14,0.102014267545702,1
3,127,14,0.12385857881904,1
3,128,14,0.137637925334578,1
3,129,14,0.130301566145655,1
3,130,14,0.104269613754582,1
4,114,14,0.127081477668904,1
4,115,14,0.166936359144602,1
4,116,14,0.201640404029199,1
4,117,14,0.180749680674631,1
4,118,14,0.138372696295634,1
4,119,14,0.10029638885527,1
4,127,14,0.106999956591207,1
4,128,14,0.122104590101985,1
4,129,14,0.113902537958041,1
5,113,14,0.111566377182787,1
5,114,14,0.151577158115814,1
5,115,14,0.21426553684305,1
5,116,14,0.254263856276693,1
5,117,14,0.19042296314314,1
5,118,14,0.129911828395253,1
5,128,14,0.0998434177098292,1
6,113,14,0.121682064665266,1
6,114,14,0.158722651577283,1
6,115,14,0.222991266069937,1
6,116,14,0.262012142092106,1
6,117,14,0.19733717814751,1
6,118,14,0.139035944350261,1
6,119,14,0.103782798309678,1
7,113,14,0.112428911191287,1
7,114,14,0.139551353707651,1
7,115,14,0.186948601257192,1
7,116,14,0.2226214732543,1
7,117,14,0.19490263252747,1
7,118,14,0.151514414902132,1
7,119,14,0.111024966427645,1
8,114,14,0.106338081044379,1
8,115,14,0.141673054692806,1
8,116,14,0.177086893075096,1
8,117,14,0.176978356029762,1
8,118,14,0.143127041526527,1
8,119,14,0.104467331128113,1
9,116,14,0.11502260235853,1
9,117,14,0.120744914161329,1
1,115,15,0.102673964508721,1
1,116,15,0.117879553593179,1
1,117,15,0.138280498628863,1
1,118,15,0.161008574209914,1
1,119,15,0.158687990308891,1
1,120,15,0.136437068153554,1
1,121,15,0.114682078816359,1
1,122,15,0.103358399290884,1
1,123,15,0.104938896486359,1
1,124,15,0.125733860189628,1
1,125,15,0.169179766714213,1
1,126,15,0.19119283108935,1
1,127,15,0.180478446990487,1
1,128,15,0.164305642945535,1
1,129,15,0.138723241323324,1
1,130,15,0.112411417163306,1
2,115,15,0.104073214424256,1
2,116,15,0.121082975903796,1
2,117,15,0.143783361684643,1
2,118,15,0.168728778080038,1
2,119,15,0.15953427208218,1
2,120,15,0.130645444706891,1
2,121,15,0.107002146067934,1
2,124,15,0.105014068520667,1
2,125,15,0.13678174189788,1
2,126,15,0.15957418373755,1
2,127,15,0.168779778726992,1
2,128,15,0.169386470745953,1
2,129,15,0.147659639604482,1
2,130,15,0.114852454963095,1
3,115,15,0.108923341092284,1
3,116,15,0.131299106992761,1
3,117,15,0.143676088217918,1
3,118,15,0.145216946080998,1
3,119,15,0.124570605365137,1
3,120,15,0.102313485138865,1
3,126,15,0.114042838755301,1
3,127,15,0.138447726721995,1
3,128,15,0.155235675691085,1
3,129,15,0.142237482185884,1
3,130,15,0.10794477571015,1
4,114,15,0.104520564823471,1
4,115,15,0.139694377734672,1
4,116,15,0.17503808750417,1
4,117,15,0.157858647024713,1
4,118,15,0.12601172766147,1
4,127,15,0.109891220520838,1
4,128,15,0.127403363426594,1
4,129,15,0.116768388707547,1
5,114,15,0.131086488105981,1
5,115,15,0.192572223213471,1
5,116,15,0.252148146397011,1
5,117,15,0.193957802515609,1
5,118,15,0.128643859940012,1
5,128,15,0.101851799658191,1
6,113,15,0.126277307920632,1
6,114,15,0.164801739157463,1
6,115,15,0.236129695014884,1
6,116,15,0.3011766739306,1
6,117,15,0.229106093317494,1
6,118,15,0.14722612321245,1
6,119,15,0.104363009642448,1
7,112,15,0.104309057014433,1
7,113,15,0.133696061149187,1
7,114,15,0.16729396278383,1
7,115,15,0.21472489123905,1
7,116,15,0.260814334928414,1
7,117,15,0.227569167798188,1
7,118,15,0.165518242693286,1
7,119,15,0.117965215508525,1
8,113,15,0.102332046672913,1
8,114,15,0.127761359210908,1
8,115,15,0.170672161980476,1
8,116,15,0.225391281136614,1
8,117,15,0.231313804791404,1
8,118,15,0.174779576749466,1
8,119,15,0.121616151612143,1
9,115,15,0.114288648366402,1
9,116,15,0.159781312593133,1
9,117,15,0.176924686617642,1
9,118,15,0.139681023015926,1
1,117,16,0.113430362596329,1
1,118,16,0.13949052764772,1
1,119,16,0.145029413586772,1
1,120,16,0.130539619998398,1
1,121,16,0.112942283572816,1
1,122,16,0.106220034480722,1
1,123,16,0.109237710735835,1
1,124,16,0.131606897313211,1
1,125,16,0.179411540034922,1
1,126,16,0.204339560438606,1
1,127,16,0.193215537226251,1
1,128,16,0.159959989144178,1
1,129,16,0.122889620991501,1
1,130,16,0.101591753001902,1
2,116,16,0.101211328697281,1
2,117,16,0.120627194385243,1
2,118,16,0.143909730438449,1
2,119,16,0.143746053436924,1
2,120,16,0.126172136787281,1
2,121,16,0.107225374657861,1
2,124,16,0.114471529584197,1
2,125,16,0.155565033991237,1
2,126,16,0.184281230385549,1
2,127,16,0.19196803656589,1
2,128,16,0.175831353440481,1
2,129,16,0.141009806638179,1
2,130,16,0.108024348483751,1
3,116,16,0.105621207149309,1
3,117,16,0.116444204543939,1
3,118,16,0.123518589029903,1
3,119,16,0.116068377051154,1
3,120,16,0.102559686895052,1
3,125,16,0.11138989010847,1
3,126,16,0.130600130163677,1
3,127,16,0.149472580799392,1
3,128,16,0.158316607127075,1
3,129,16,0.139388798676788,1
3,130,16,0.102203978623736,1
4,115,16,0.110410311684864,1
4,116,16,0.138654016822812,1
4,117,16,0.131505593166121,1
4,118,16,0.112255212704244,1
4,127,16,0.109166144257729,1
4,128,16,0.122260086521309,1
4,129,16,0.11012520042186,1
5,114,16,0.105774764629043,1
5,115,16,0.155200186560846,1
5,116,16,0.21452387331105,1
5,117,16,0.181466249567969,1
5,118,16,0.1231011070147,1
6,113,16,0.114195709981136,1
6,114,16,0.152119015480637,1
6,115,16,0.218471576101047,1
6,116,16,0.298473813928718,1
6,117,16,0.245499631473912,1
6,118,16,0.152928304900859,1
6,119,16,0.10454377763395,1
7,112,16,0.106501333222061,1
7,113,16,0.138616436252117,1
7,114,16,0.178076177089568,1
7,115,16,0.225768611852228,1
7,116,16,0.284798778005927,1
7,117,16,0.25753218949188,1
7,118,16,0.181412667299201,1
7,119,16,0.127057110209007,1
8,113,16,0.111005500781317,1
8,114,16,0.141212883327878,1
8,115,16,0.189140779428549,1
8,116,16,0.2613179581474,1
8,117,16,0.279429069992516,2
8,118,16,0.209804341849415,1
9,115,16,0.133457560686764,1
9,116,16,0.197556866538749,1
9,117,16,0.234694640074458,1
9,118,16,0.190299894943804,1
10,117,16,0.125963602745142,1
1,118,17,0.119289162674723,1
1,119,17,0.134369319796414,1
1,120,17,0.128150323564059,1
1,121,17,0.113360146840184,1
1,122,17,0.108258154098068,1
1,123,17,0.110493707873049,1
1,124,17,0.130919205548254,1
1,125,17,0.171145807886258,1
1,126,17,0.19914864879835,1
1,127,17,0.200248354333151,1
1,128,17,0.163745409226288,1
1,129,17,0.117511176857018,1
2,117,17,0.105018610867908,1
2,118,17,0.126492508429225,1
2,119,17,0.135103426289409,1
2,120,17,0.125964278106123,1
2,121,17,0.110126954181826,1
2,122,17,0.102618770087935,1
2,123,17,0.102916811245842,1
2,124,17,0.122215251266532,1
2,125,17,0.164558979563694,1
2,126,17,0.200518302652848,1
2,127,17,0.208623549425267,1
2,128,17,0.177811969338205,1
2,129,17,0.133877853075079,1
2,130,17,0.102200895927647,1
3,117,17,0.101689745701603,1
3,118,17,0.11126845584699,1
3,119,17,0.112394413316681,1
3,120,17,0.106672787767782,1
3,124,17,0.100997261052268,1
3,125,17,0.12915097978601,1
3,126,17,0.152335152780267,1
3,127,17,0.158956751300414,1
3,128,17,0.15355910294966,1
3,129,17,0.132601507965094,1
4,116,17,0.113172342022982,1
4,117,17,0.115553653947664,1
4,118,17,0.10532159741106,1
4,126,17,0.10554523993191,1
4,127,17,0.108999689561849,1
4,128,17,0.114201439656552,1
4,129,17,0.102445823212306,1
5,115,17,0.125640453408843,1
5,116,17,0.172196331891584,1
5,117,17,0.165434704897153,1
5,118,17,0.122005290251998,1
6,113,17,0.100016179405835,1
6,114,17,0.132789432604406,1
6,115,17,0.187855545696626,1
6,116,17,0.260818169235916,1
6,117,17,0.241884031999666,1
6,118,17,0.161371602522826,1
6,119,17,0.110223400087023,1
7,112,17,0.106853043792088,1
7,113,17,0.136601420516059,1
7,114,17,0.175662251765274,1
7,115,17,0.227716657922016,1
7,116,17,0.296952988143756,1
7,117,17,0.29083280158003,2
7,118,17,0.212279735915863,1
7,119,17,0.141848452475219,1
7,120,17,0.104689100066888,1
8,112,17,0.0999112043450273,1
8,113,17,0.123809103180752,1
8,114,17,0.156873360711529,1
8,115,17,0.209708004873408,1
8,116,17,0.290377804351648,2
8,117,17,0.326015819007821,2
8,118,17,0.261284582243455,2
8,119,17,0.181336405972989,1
9,114,17,0.114849906020039,1
9,115,17,0.157661703048434,1
9,116,17,0.222917412078832,1
9,117,17,0.278650574854425,2
9,118,17,0.255094201709423,1
9,119,17,0.201605503116588,1
10,116,17,0.128902218193849,1
10,117,17,0.154555903078271,1
10,118,17,0.165656876873933,1
1,119,18,0.121766364965732,1
1,120,18,0.127019769282532,1
1,121,18,0.117803510125348,1
1,122,18,0.11287310264398,1
1,123,18,0.112574625769311,1
1,124,18,0.127067534732531,1
1,125,18,0.156820584518771,1
1,126,18,0.187488083965665,1
1,127,18,0.197625056211951,1
1,128,18,0.163517365966145,1
1,129,18,0.116900901067693,1
2,118,18,0.106916081114584,1
2,119,18,0.125598679064317,1
2,120,18,0.130134653947176,1
2,121,18,0.119961604353022,1
2,122,18,0.112709545464565,1
2,123,18,0.111865692812222,1
2,124,18,0.127253738290634,1
2,125,18,0.16147639240401,1
2,126,18,0.201911899143401,1
2,127,18,0.206251028086252,1
2,128,18,0.165891837137668,1
2,129,18,0.122088130901312,1
3,119,18,0.10883140485557,1
3,120,18,0.113807693311942,1
3,121,18,0.10585928278789,1
3,124,18,0.113352630726045,1
3,125,18,0.142359787880887,1
3,126,18,0.170645332720875,1
3,127,18,0.162416854355335,1
3,128,18,0.138415200465736,1
3,129,18,0.115220461340008,1
4,117,18,0.101643940977032,1
4,124,18,0.101004733594731,1
4,125,18,0.117803782448324,1
4,126,18,0.125556948291468,1
4,127,18,0.114252995842378,1
4,128,18,0.105662306132854,1
5,115,18,0.101726084479527,1
5,116,18,0.136676832194587,1
5,117,18,0.144054660726302,1
5,118,18,0.11814583099916,1
5,125,18,0.104576913893675,1
5,126,18,0.101858237373345,1
6,114,18,0.109804142526017,1
6,115,18,0.15492965002352,1
6,116,18,0.212724079869423,1
6,117,18,0.218657823230826,1
6,118,18,0.166671040315497,1
6,119,18,0.117689080010812,1
6,120,18,0.103073985174699,1
6,121,18,0.102880156573266,1
7,112,18,0.10338653570077,1
7,113,18,0.129872330670807,1
7,114,18,0.1635567547614,1
7,115,18,0.215576978938188,1
7,116,18,0.285317803812438,2
7,117,18,0.30551911432084,2
7,118,18,0.250025552192494,2
7,119,18,0.162017541729095,1
7,120,18,0.122160819350079,1
7,121,18,0.112295745255999,1
7,122,18,0.101067335200465,1
8,112,18,0.1139064049443,1
8,113,18,0.147241209905323,1
8,114,18,0.18144940911513,1
8,115,18,0.233003841180764,2
8,116,18,0.303707425811619,2
8,117,18,0.349793971984518,2
8,118,18,0.315889739680576,2
8,119,18,0.219796067913197,2
8,120,18,0.163779798171703,1
9,113,18,0.123999446048091,1
9,114,18,0.153292901794113,1
9,115,18,0.196157976089542,1
9,116,18,0.242173870789535,2
9,117,18,0.291251765032222,2
9,118,18,0.303354930951421,2
9,119,18,0.252721593227056,1
9,120,18,0.195042867967216,1
10,114,18,0.11176043453552,1
10,116,18,0.157604515223464,1
10,117,18,0.174615834390427,1
10,118,18,0.201545461346829,1
10,119,18,0.198720099577402,1
1,119,19,0.107698181808878,1
1,120,19,0.123861160440853,1
1,121,19,0.121815219707635,1
1,122,19,0.116042996549786,1
1,123,19,0.111921333842689,1
1,124,19,0.11937572870235,1
1,125,19,0.144144440165046,1
1,126,19,0.178668795457127,1
1,127,19,0.194111414459938,1
1,128,19,0.169049225972414,1
1,129,19,0.1272636726328,1
2,119,19,0.1190038117675,1
2,120,19,0.140690851075711,1
2,121,19,0.137021625761022,1
2,122,19,0.127631853296418,1
2,123,19,0.124755556237551,1
2,124,19,0.135801172218642,1
2,125,19,0.161391089954992,1
2,126,19,0.200438631842976,1
2,127,19,0.203215258692609,1
2,128,19,0.161976257565926,1
2,129,19,0.118323810403387,1
3,119,19,0.111115617299912,1
3,120,19,0.12984819196221,1
3,121,19,0.124690667118818,1
3,122,19,0.115528382375486,1
3,123,19,0.117576752229651,1
3,124,19,0.135847488910408,1
3,125,19,0.160884416718674,1
3,126,19,0.187761714091999,1
3,127,19,0.172107173349226,1
3,128,19,0.132829616582752,1
3,129,19,0.102176844362403,1
4,119,19,0.10165362478206,1
4,120,19,0.108204473793029,1
4,121,19,0.106343778041038,1
4,122,19,0.102372601010506,1
4,123,19,0.103662148338369,1
4,124,19,0.120443528877276,1
4,125,19,0.143451225690134,1
4,126,19,0.151299835289924,1
4,127,19,0.128540083100299,1
4,128,19,0.10398232390777,1
5,116,19,0.113273951171805,1
5,117,19,0.123947868076427,1
5,118,19,0.113981250191038,1
5,119,19,0.101662938227841,1
5,120,19,0.100861883854414,1
5,121,19,0.10471090769081,1
5,122,19,0.101335562438954,1
5,124,19,0.108305745261362,1
5,125,19,0.127521638741552,1
5,126,19,0.123075944371714,1
5,127,19,0.100630692540668,1
6,115,19,0.132683749503861,1
6,116,19,0.174279417478735,1
6,117,19,0.185120137652647,1
6,118,19,0.158091744599291,1
6,119,19,0.118624128181374,1
6,120,19,0.110994793041899,1
6,121,19,0.116677530869818,1
6,122,19,0.108018139519897,1
6,124,19,0.100371898570069,1
6,125,19,0.108607348403796,1
7,113,19,0.124137426653596,1
7,114,19,0.157180519242674,1
7,115,19,0.205674988741475,1
7,116,19,0.261347390814651,2
7,117,19,0.286690420540915,2
7,118,19,0.256769184084667,2
7,119,19,0.169063898734363,1
7,120,19,0.135876758183874,1
7,121,19,0.132049302327181,1
7,122,19,0.119153436903461,1
7,123,19,0.103345458503062,1
8,112,19,0.129931457435367,1
8,113,19,0.180113163843334,1
8,114,19,0.221497999370151,1
8,115,19,0.264333314210757,2
8,116,19,0.306436581320068,2
8,117,19,0.336069220779218,2
8,118,19,0.329697277070595,2
8,119,19,0.236248863549203,2
8,120,19,0.186261366994835,1
8,121,19,0.163764994694725,1
8,122,19,0.13939411442128,1
9,112,19,0.125671225905137,1
9,113,19,0.177745598782482,1
9,114,19,0.217719245754494,1
9,115,19,0.251316580957347,1
9,116,19,0.269866655654016,2
9,117,19,0.287311796214745,2
9,118,19,0.314832581887554,2
9,119,19,0.274676576557861,2
9,120,19,0.223205181214083,1
10,113,19,0.126518651434925,1
10,114,19,0.15307007624219,1
10,115,19,0.181280634227494,1
10,116,19,0.192562768159743,1
10,117,19,0.1938558012217,1
10,118,19,0.220419012167368,2
10,119,19,0.221583312712087,1
1,120,20,0.115072415677309,1
1,121,20,0.120433126139591,1
1,122,20,0.115019595912875,1
1,123,20,0.108363793626937,1
1,124,20,0.109958342687975,1
1,125,20,0.131037633364078,1
1,126,20,0.167146864805088,1
1,127,20,0.187206894153515,1
1,128,20,0.169915114999978,1
1,129,20,0.132842404869707,1
1,130,20,0.101844000328157,1
2,119,20,0.10675307947404,1
2,120,20,0.141403781734089,1
2,121,20,0.147604521434129,1
2,122,20,0.138665802961216,1
2,123,20,0.132156782759368,1
2,124,20,0.137804260208349,1
2,125,20,0.153957228247725,1
2,126,20,0.187742172195237,1
2,127,20,0.197838078136736,1
2,128,20,0.161677475689524,1
2,129,20,0.118264999533479,1
3,119,20,0.107650394573041,1
3,120,20,0.136264393600901,1
3,121,20,0.138324919952716,1
3,122,20,0.131329127877641,1
3,123,20,0.132647846442699,1
3,124,20,0.150201720121304,1
3,125,20,0.16602121233713,1
3,126,20,0.187047726820474,1
3,127,20,0.178563526287505,1
3,128,20,0.133075360836338,1
4,119,20,0.103691123503021,1
4,120,20,0.112307476929807,1
4,121,20,0.113562166916736,1
4,122,20,0.114492291487891,1
4,123,20,0.11727375479358,1
4,124,20,0.136864985585199,1
4,125,20,0.16148650103288,1
4,126,20,0.170414283015076,1
4,127,20,0.144434790922109,1
4,128,20,0.105808467320559,1
5,117,20,0.102360542549126,1
5,118,20,0.106044712948741,1
5,119,20,0.102203379513189,1
5,120,20,0.101686238181672,1
5,121,20,0.108960856305465,1
5,122,20,0.110882955442095,1
5,123,20,0.106443753252005,1
5,124,20,0.121515196038462,1
5,125,20,0.150754219868031,1
5,126,20,0.151315826095078,1
5,127,20,0.115162979406224,1
6,115,20,0.105314702193306,1
6,116,20,0.135800649358528,1
6,117,20,0.148599709410722,1
6,118,20,0.139372121617734,1
6,119,20,0.114181385792596,1
6,120,20,0.111656320015317,1
6,121,20,0.122867856939255,1
6,122,20,0.117086701587791,1
6,123,20,0.103665862823763,1
6,124,20,0.109199128016588,1
6,125,20,0.125872516156113,1
6,126,20,0.120750981517236,1
7,113,20,0.104171555697367,1
7,114,20,0.134815450188697,1
7,115,20,0.174801199193764,1
7,116,20,0.217977647580008,1
7,117,20,0.241153531062874,1
7,118,20,0.228005799565065,1
7,119,20,0.161750240388724,1
7,120,20,0.136774759536774,1
7,121,20,0.139657930027557,1
7,122,20,0.127444549553492,1
7,123,20,0.110179752160422,1
7,124,20,0.105887201339395,1
7,125,20,0.106233291163196,1
8,112,20,0.127241799651364,1
8,113,20,0.18260506068213,1
8,114,20,0.230734824358486,1
8,115,20,0.261511852106347,1
8,116,20,0.283166779089222,2
8,117,20,0.296302136230999,2
8,118,20,0.301225648494613,2
8,119,20,0.23208519774628,1
8,120,20,0.185005097534645,1
8,121,20,0.173971550907852,1
8,122,20,0.152671852907854,1
8,123,20,0.123049692436822,1
9,112,20,0.145564310376327,1
9,113,20,0.219219287849925,1
9,114,20,0.273564518452867,1
9,115,20,0.291062228240892,1
9,116,20,0.286286227886944,1
9,117,20,0.274883890593067,1
9,118,20,0.293553569540817,2
9,119,20,0.269114194592436,1
9,120,20,0.221449133735328,1
9,121,20,0.19432844497893,1
10,112,20,0.119655589578376,1
10,113,20,0.167058120193653,1
10,114,20,0.205309814523512,1
10,115,20,0.22230039357262,1
10,116,20,0.221484731794758,1
10,117,20,0.20776712634435,1
10,118,20,0.220390581648669,1
10,119,20,0.223337922325528,1
11,113,20,0.102825332511728,1
1,120,21,0.108140957182095,1
1,121,21,0.113692468014316,1
1,122,21,0.107155812476859,1
1,124,21,0.100551686198857,1
1,125,21,0.116786231308938,1
1,126,21,0.1490727235272,1
1,127,21,0.172227540104639,1
1,128,21,0.164508501776854,1
1,129,21,0.137117712199891,1
1,130,21,0.110154785589978,1
2,119,21,0.1021541326262,1
2,120,21,0.140770107954661,1
2,121,21,0.153800707894011,1
2,122,21,0.145319884165945,1
2,123,21,0.132295264439148,1
2,124,21,0.133920989034485,1
2,125,21,0.144031175592848,1
2,126,21,0.173252171641402,1
2,127,21,0.19301430143987,1
2,128,21,0.170464390442669,1
2,129,21,0.132620156642494,1
2,130,21,0.103300045923577,1
3,119,21,0.109072650333592,1
3,120,21,0.145086699448014,1
3,121,21,0.160874896307431,1
3,122,21,0.159377729942628,1
3,123,21,0.15170625009938,1
3,124,21,0.161690438263184,1
3,125,21,0.168242060671405,1
3,126,21,0.184606874200309,1
3,127,21,0.186706255594347,1
3,128,21,0.148708072169351,1
3,129,21,0.107055554049997,1
4,119,21,0.109762520682358,1
4,120,21,0.12262448734202,1
4,121,21,0.132462198423466,1
4,122,21,0.14131029870287,1
4,123,21,0.143097728681385,1
4,124,21,0.15972995247985,1
4,125,21,0.177323944779287,1
4,126,21,0.185309151583863,1
4,127,21,0.160356491397306,1
4,128,21,0.116513744939103,1
5,118,21,0.103848232074363,1
5,119,21,0.106137259188922,1
5,120,21,0.104986095504567,1
5,121,21,0.113660181402276,1
5,122,21,0.125038205700851,1
5,123,21,0.128061981990628,1
5,124,21,0.148682092557436,1
5,125,21,0.178717388768973,1
5,126,21,0.181636429642161,1
5,127,21,0.133162504188674,1
6,116,21,0.108309655819298,1
6,117,21,0.125369993121951,1
6,118,21,0.127435486644849,1
6,119,21,0.1117615673991,1
6,120,21,0.110794613868664,1
6,121,21,0.123314041796133,1
6,122,21,0.126141440541421,1
6,123,21,0.117203669752464,1
6,124,21,0.12986569688311,1
6,125,21,0.155541178498535,1
6,126,21,0.156282550568531,1
6,127,21,0.111938250545961,1
7,114,21,0.112554386725731,1
7,115,21,0.143117619151555,1
7,116,21,0.176539229784423,1
7,117,21,0.196168171861765,1
7,118,21,0.186163243580105,1
7,119,21,0.146893355428637,1
7,120,21,0.136383485884787,1
7,121,21,0.145114095139404,1
7,122,21,0.137190444220334,1
7,123,21,0.119225003381566,1
7,124,21,0.118479350394387,1
7,125,21,0.127094701672621,1
7,126,21,0.122736651729395,1
8,112,21,0.116614853013651,1
8,113,21,0.162291640250948,1
8,114,21,0.20972811320196,1
8,115,21,0.234353604565092,1
8,116,21,0.252082745311083,1
8,117,21,0.255889014440239,1
8,118,21,0.249288297645896,1
8,119,21,0.211627315422764,1
8,120,21,0.180586798856197,1
8,121,21,0.178426504258876,1
8,122,21,0.16430069756029,1
8,123,21,0.13635252820887,1
8,124,21,0.118041052010896,1
9,110,21,0.101065625012175,1
9,111,21,0.123301471367558,1
9,112,21,0.160660403838576,1
9,113,21,0.236126579640038,1
9,114,21,0.296063755590685,1
9,115,21,0.301206912673861,1
9,116,21,0.28944815906893,3
9,117,21,0.267554502872332,1
9,118,21,0.263350271838896,1
9,119,21,0.253167832548528,1
9,120,21,0.219023237093008,1
9,121,21,0.21013982197007,1
9,122,21,0.188660445270475,1
9,123,21,0.146461418509866,1
10,111,21,0.120750284370417,1
10,112,21,0.153100238735018,1
10,113,21,0.214336885462775,1
10,114,21,0.261883061001459,1
10,115,21,0.262032424707362,3
10,116,21,0.245693699719563,1
10,117,21,0.221536407802693,1
10,118,21,0.214137675759336,1
10,119,21,0.215983241246777,1
10,120,21,0.195022519994446,1
11,112,21,0.105988919417408,1
11,113,21,0.132953098713012,1
11,114,21,0.156928228344743,1
11,115,21,0.163564085695916,1
11,116,21,0.162405231610718,1
1,121,22,0.100115697114202,1
1,125,22,0.104864683028926,1
1,126,22,0.126433468808017,1
1,127,22,0.147961471498215,1
1,128,22,0.146671619168619,1
1,129,22,0.131457903966555,1
1,130,22,0.113696890539447,1
2,120,22,0.124161728755978,1
2,121,22,0.141057593874016,1
2,122,22,0.13611716490713,1
2,123,22,0.122642700302658,1
2,124,22,0.121979724571007,1
2,125,22,0.129181970140685,1
2,126,22,0.151019081194537,1
2,127,22,0.174344045167411,1
2,128,22,0.168387960429053,1
2,129,22,0.145391733859946,1
2,130,22,0.117777279976295,1
3,119,22,0.101919520935875,1
3,120,22,0.136367375257524,1
3,121,22,0.165065467620388,1
3,122,22,0.168867684583661,1
3,123,22,0.153343227080087,1
3,124,22,0.152364193302433,1
3,125,22,0.156354236868746,1
3,126,22,0.170171436277955,1
3,127,22,0.177660557763522,1
3,128,22,0.157690100888376,1
3,129,22,0.126648266278606,1
4,119,22,0.10855806883805,1
4,120,22,0.123819560383032,1
4,121,22,0.142032542807029,1
4,122,22,0.154100513704803,1
4,123,22,0.153820402291639,1
4,124,22,0.164862445395284,1
4,125,22,0.177160725280362,1
4,126,22,0.182963230753148,1
4,127,22,0.160743146451619,1
4,128,22,0.123654750517927,1
5,118,22,0.101244432278249,1
5,119,22,0.106595916438103,1
5,120,22,0.105927940856611,1
5,121,22,0.11527990399922,1
5,122,22,0.130115482409662,1
5,123,22,0.141936031544317,1
5,124,22,0.165840564167738,1
5,125,22,0.189059540038334,1
5,126,22,0.188030355261411,1
5,127,22,0.137026037393234,1
6,117,22,0.112711462618316,1
6,118,22,0.122207038005574,1
6,119,22,0.110339366103144,1
6,120,22,0.108354534645751,1
6,121,22,0.11954820718246,1
6,122,22,0.126733024081671,1
6,123,22,0.127725772044398,1
6,124,22,0.14804851681428,1
6,125,22,0.177128547597512,1
6,126,22,0.179555076029138,1
6,127,22,0.123030488220551,1
7,115,22,0.118468642654969,1
7,116,22,0.147132879825451,1
7,117,22,0.166049915178805,1
7,118,22,0.15545983017913,1
7,119,22,0.132186934359276,1
7,120,22,0.132483003898837,1
7,121,22,0.143517236779529,1
7,122,22,0.137672651960484,1
7,123,22,0.124034728212868,1
7,124,22,0.128061175914619,1
7,125,22,0.146063097139259,1
7,126,22,0.148139777690013,1
7,127,22,0.107993009555667,1
8,112,22,0.100602294700725,1
8,113,22,0.133723228089278,1
8,114,22,0.175963451869703,1
8,115,22,0.205183456662625,1
8,116,22,0.235041906333515,3
8,117,22,0.237729276604519,1
8,118,22,0.206099246152321,1
8,119,22,0.182412484766387,1
8,120,22,0.171453532849194,1
8,121,22,0.170512918397001,1
8,122,22,0.158179432597579,1
8,123,22,0.138349973666513,1
8,124,22,0.126610751065425,1
8,125,22,0.125092125650109,1
9,110,22,0.118396705817616,1
9,111,22,0.139817489505684,1
9,112,22,0.15903286012576,1
9,113,22,0.226909470835168,1
9,114,22,0.290933931440416,1
9,115,22,0.300474712441698,3
9,116,22,0.30739720606454,3
9,117,22,0.28617246224047,3
9,118,22,0.240650779277411,1
9,119,22,0.227246693822869,1
9,120,22,0.212187995751691,1
9,121,22,0.205998682723726,1
9,122,22,0.188470145974812,1
9,123,22,0.152506868756045,1
10,110,22,0.14237305545628,1
10,111,22,0.170667706776588,1
10,112,22,0.183071844048916,1
10,113,22,0.256185018622285,1
10,114,22,0.321047384346078,3
10,115,22,0.307639747799929,3
10,116,22,0.281981041279828,3
10,117,22,0.245752957199152,1
10,118,22,0.206502807016987,1
10,119,22,0.201441259683274,1
10,120,22,0.196244139079164,1
11,110,22,0.105861733694674,1
11,111,22,0.127786979356495,1
11,112,22,0.133469749863172,1
11,113,22,0.171291478892606,1
11,114,22,0.206932968389954,1
11,115,22,0.20152907839659,3
11,116,22,0.186638414494554,1
11,117,22,0.171161275831298,1
1,126,23,0.105595750397508,1
1,127,23,0.119605776259597,1
1,128,23,0.120272008974041,1
1,129,23,0.113427595794892,1
1,130,23,0.106166114531464,1
2,120,23,0.104709807505987,1
2,121,23,0.121001398833091,1
2,122,23,0.121298721058341,1
2,123,23,0.110377589356062,1
2,124,23,0.107004564295962,1
2,125,23,0.112243840496764,1
2,126,23,0.128837329075116,1
2,127,23,0.147293800918458,1
2,128,23,0.150567068625972,1
2,129,23,0.14041468289924,1
2,130,23,0.118518238115367,1
3,120,23,0.122762217410386,1
3,121,23,0.155392664440317,1
3,122,23,0.162458203876019,1
3,123,23,0.144523938571549,1
3,124,23,0.134594846792259,1
3,125,23,0.139311807524999,1
3,126,23,0.15500184829093,1
3,127,23,0.162402998562314,1
3,128,23,0.158582132921641,1
3,129,23,0.14175942464789,1
3,130,23,0.10625723379925,1
4,119,23,0.106070169700542,1
4,120,23,0.124365655093363,1
4,121,23,0.148387994636222,1
4,122,23,0.162050590845468,1
4,123,23,0.161612771750415,1
4,124,23,0.164835474527736,1
4,125,23,0.172638922085178,1
4,126,23,0.178097745069271,1
4,127,23,0.159039461234699,1
4,128,23,0.131713713277336,1
4,129,23,0.10756922054034,1
5,118,23,0.0998812379247429,1
5,119,23,0.109102910862691,1
5,120,23,0.112015470449049,1
5,121,23,0.122569608815886,1
5,122,23,0.139291710089367,1
5,123,23,0.161637858142968,1
5,124,23,0.185464397466049,1
5,125,23,0.196415484695694,1
5,126,23,0.186711832768896,1
5,127,23,0.141619134743548,1
6,117,23,0.10414400750511,1
6,118,23,0.118243987092647,1
6,119,23,0.111446271857431,1
6,120,23,0.110987266034841,1
6,121,23,0.12130760968028,1
6,122,23,0.132131500294272,1
6,123,23,0.149447091368834,1
6,124,23,0.177437536139057,1
6,125,23,0.198612281464724,1
6,126,23,0.190200442592951,1
6,127,23,0.131560754908149,1
7,116,23,0.121949583864018,1
7,117,23,0.140389552935011,1
7,118,23,0.134656675000741,1
7,119,23,0.120431993276011,1
7,120,23,0.127160690976177,1
7,121,23,0.141578558620117,1
7,122,23,0.139042883139691,1
7,123,23,0.136858242868312,1
7,124,23,0.148880583328219,1
7,125,23,0.171622427558939,1
7,126,23,0.171380212611122,1
7,127,23,0.119013092534524,1
8,113,23,0.107966180296067,1
8,114,23,0.137760906390562,1
8,115,23,0.167802280850924,1
8,116,23,0.205593487921203,3
8,117,23,0.210233174286259,1
8,118,23,0.170832505748773,1
8,119,23,0.153173123256327,1
8,120,23,0.1629241267022,1
8,121,23,0.170365744167825,1
8,122,23,0.15666710328947,1
8,123,23,0.143232877127938,1
8,124,23,0.139046270837513,1
8,125,23,0.149799749622818,1
8,126,23,0.142028185639412,1
9,110,23,0.117429784965937,1
9,111,23,0.13922606935922,1
9,112,23,0.146663471265175,1
9,113,23,0.19986450965195,1
9,114,23,0.258909577318898,3
9,115,23,0.280874255347651,3
9,116,23,0.313666320617408,3
9,117,23,0.292511509333587,3
9,118,23,0.218845225010024,1
9,119,23,0.196911548228865,1
9,120,23,0.205004899933689,1
9,121,23,0.203795110559051,1
9,122,23,0.181108384498683,1
9,123,23,0.150343447890959,1
9,124,23,0.124510520023702,1
10,110,23,0.165707234838664,1
10,111,23,0.204758981393398,1
10,112,23,0.199364611811276,1
10,113,23,0.27750021724608,3
10,114,23,0.354513263801933,3
10,115,23,0.338403333685691,3
10,116,23,0.31653505799046,3
10,117,23,0.264967696029923,3
10,118,23,0.198626006542717,1
10,119,23,0.183701258696998,1
10,120,23,0.192684964925556,1
10,121,23,0.197624315493456,1
10,122,23,0.179518486714076,1
11,110,23,0.13793170736114,1
11,111,23,0.174137787745352,1
11,112,23,0.163038436994627,1
11,113,23,0.211450152987465,1
11,114,23,0.260282629764138,3
11,115,23,0.243591017771056,3
11,116,23,0.216038206916263,3
11,117,23,0.183508432244117,1
11,118,23,0.155509589033314,1
11,119,23,0.146093303203762,1
12,113,23,0.110680009467424,1
12,114,23,0.128703934388528,1
12,115,23,0.129028129445055,1
2,121,24,0.100111481554533,1
2,122,24,0.103826152127465,1
2,126,24,0.104844258805722,1
2,127,24,0.115552521084083,1
2,128,24,0.121583407497503,1
2,129,24,0.119515735390796,1
2,130,24,0.103878209387567,1
3,120,24,0.10543086428197,1
3,121,24,0.132266942849639,1
3,122,24,0.138719276300792,1
3,123,24,0.125488911119132,1
3,124,24,0.113770788102228,1
3,125,24,0.117813989113466,1
3,126,24,0.13181850315852,1
3,127,24,0.137644983946117,1
3,128,24,0.141612980244289,1
3,129,24,0.13459142641568,1
3,130,24,0.102168162705926,1
4,120,24,0.119463416700638,1
4,121,24,0.142778457224265,1
4,122,24,0.154033032071338,1
4,123,24,0.15766243287401,1
4,124,24,0.157614710995687,1
4,125,24,0.162082670492047,1
4,126,24,0.166490610004486,1
4,127,24,0.150193539539104,1
4,128,24,0.128275875348936,1
4,129,24,0.109943321352616,1
5,119,24,0.106770889396674,1
5,120,24,0.115613009463523,1
5,121,24,0.128116686230057,1
5,122,24,0.144246811818202,1
5,123,24,0.174134803085534,1
5,124,24,0.198455053071273,1
5,125,24,0.201165734189026,1
5,126,24,0.184449624021019,1
5,127,24,0.144955722989453,1
5,128,24,0.10379994376425,1
6,118,24,0.109961686814121,1
6,119,24,0.110927801589791,1
6,120,24,0.112261497918531,1
6,121,24,0.12196251375892,1
6,122,24,0.133113932662666,1
6,123,24,0.161566923454167,1
6,124,24,0.196992874762432,1
6,125,24,0.208026377817548,1
6,126,24,0.185884101636736,1
6,127,24,0.134396497629424,1
7,117,24,0.117811156954515,1
7,118,24,0.121373130588317,1
7,119,24,0.115223337070635,1
7,120,24,0.121408009715089,1
7,121,24,0.139321937939708,1
7,122,24,0.141975300517463,1
7,123,24,0.149889507275724,1
7,124,24,0.171328678211135,1
7,125,24,0.189950319385909,1
7,126,24,0.176284095834622,1
7,127,24,0.120566542612017,1
8,114,24,0.106837292631153,1
8,115,24,0.135583727768726,1
8,116,24,0.173765337057469,1
8,117,24,0.180443622328309,1
8,118,24,0.150701672426573,1
8,119,24,0.13616730501348,1
8,120,24,0.154407301876701,1
8,121,24,0.182587043794034,1
8,122,24,0.172978399907121,1
8,123,24,0.157324861312899,1
8,124,24,0.15884274600972,1
8,125,24,0.176064189585003,1
8,126,24,0.164861955213927,1
8,127,24,0.105907930564331,1
9,110,24,0.105063064870518,1
9,111,24,0.126937941674688,1
9,112,24,0.132667116016484,1
9,113,24,0.164766565921877,1
9,114,24,0.209849808893496,3
9,115,24,0.252147667108573,3
9,116,24,0.303309659979883,3
9,117,24,0.277464488471622,1
9,118,24,0.198603240341919,1
9,119,24,0.170761810704191,1
9,120,24,0.19576914245142,1
9,121,24,0.220958690948383,1
9,122,24,0.193236778418383,1
9,123,24,0.152628858556396,1
9,124,24,0.128405185190883,1
9,125,24,0.127889525296356,1
10,110,24,0.158087725112165,1
10,111,24,0.206352005445771,1
10,112,24,0.200221732039012,1
10,113,24,0.259931877770986,3
10,114,24,0.328763034976042,3
10,115,24,0.340758186710021,3
10,116,24,0.341167934752703,3
10,117,24,0.277980420689125,3
10,118,24,0.193871007736682,1
10,119,24,0.167609389040529,1
10,120,24,0.182958013044927,1
10,121,24,0.196188301976155,1
10,122,24,0.173221758611437,1
11,110,24,0.15390054149703,1
11,111,24,0.211339524501675,1
11,112,24,0.196292002565434,1
11,113,24,0.230940569813351,1
11,114,24,0.272751950264013,3
11,115,24,0.262617962677544,3
11,116,24,0.238716066140531,3
11,117,24,0.197473927853163,1
11,118,24,0.155941242736189,1
11,119,24,0.138031682572107,1
12,111,24,0.118291436647994,1
12,112,24,0.115642714453751,1
12,113,24,0.128332235312059,1
12,114,24,0.146634844673933,1
12,115,24,0.147840810633988,1
12,116,24,0.138087323602573,1
2,128,25,0.103452405182216,1
2,129,25,0.104349981711274,1
3,121,25,0.1072697306242,1
3,122,25,0.111456315128787,1
3,123,25,0.106711675488762,1
3,124,25,0.100174475305352,1
3,125,25,0.102317548197668,1
3,126,25,0.111513001879482,1
3,127,25,0.11624260929123,1
3,128,25,0.121881938836767,1
3,129,25,0.118484252207956,1
4,120,25,0.110907900226701,1
4,121,25,0.129708936885178,1
4,122,25,0.138875829333264,1
4,123,25,0.147756052830922,1
4,124,25,0.149398171269417,1
4,125,25,0.149703064073401,1
4,126,25,0.150585978733428,1
4,127,25,0.136795619476739,1
4,128,25,0.118309518893604,1
4,129,25,0.104718990236739,1
5,119,25,0.102837042399698,1
5,120,25,0.117163376844928,1
5,121,25,0.134376127870815,1
5,122,25,0.152078068997958,1
5,123,25,0.183389862820346,1
5,124,25,0.206991136577639,1
5,125,25,0.203821602138161,1
5,126,25,0.183993886074141,1
5,127,25,0.146662458223705,1
5,128,25,0.105368905358459,1
6,118,25,0.103574427661324,1
6,119,25,0.113327533440573,1
6,120,25,0.11860665593923,1
6,121,25,0.129458062066722,1
6,122,25,0.141834226322951,1
6,123,25,0.172727372587799,1
6,124,25,0.210556541480939,1
6,125,25,0.211920727090078,1
6,126,25,0.182293730162991,1
6,127,25,0.139469940030731,1
7,117,25,0.104720820247139,1
7,118,25,0.118278757290229,1
7,119,25,0.121931120366242,1
7,120,25,0.124127503204348,1
7,121,25,0.137977686372416,1
7,122,25,0.144843863603811,1
7,123,25,0.158089010476612,1
7,124,25,0.187966609899178,1
7,125,25,0.194451905323352,1
7,126,25,0.166301334643213,1
7,127,25,0.119363299881723,1
8,115,25,0.116777255543647,1
8,116,25,0.145449411866273,1
8,117,25,0.152113982952039,1
8,118,25,0.142453684843029,1
8,119,25,0.135063547312796,1
8,120,25,0.14793481652532,1
8,121,25,0.186311365493238,1
8,122,25,0.186013923445878,1
8,123,25,0.165710644322324,1
8,124,25,0.175571208747921,1
8,125,25,0.188823163695123,1
8,126,25,0.16570830234473,1
8,127,25,0.103999915972023,1
9,111,25,0.116300428905505,1
9,112,25,0.124354435386749,1
9,113,25,0.135917671987795,1
9,114,25,0.163946263760503,1
9,115,25,0.218349793266157,1
9,116,25,0.265220803896782,3
9,117,25,0.236615562775831,1
9,118,25,0.179992840659596,1
9,119,25,0.155024788778432,1
9,120,25,0.179628341802614,1
9,121,25,0.227719076150043,1
9,122,25,0.204271762910489,1
9,123,25,0.149048889820336,1
9,124,25,0.127666525457729,1
9,125,25,0.131344301713866,1
10,110,25,0.1309953143736,1
10,111,25,0.185943010542915,1
10,112,25,0.197144177407925,1
10,113,25,0.222748876835415,1
10,114,25,0.264489191882248,3
10,115,25,0.311802389668462,3
10,116,25,0.329798167286761,3
10,117,25,0.270964139033332,3
10,118,25,0.194753660966652,1
10,119,25,0.15824889674231,1
10,120,25,0.164588945983978,1
10,121,25,0.180796117188507,1
10,122,25,0.156881290756592,1
11,110,25,0.141845130134912,1
11,111,25,0.219294187561257,1
11,112,25,0.229141626019409,1
11,113,25,0.234410269529948,1
11,114,25,0.248837461512587,1
11,115,25,0.257913136656616,1
11,116,25,0.249046888774088,3
11,117,25,0.215551990581906,1
11,118,25,0.170485195918039,1
11,119,25,0.13686803560253,1
12,111,25,0.13252105286505,1
12,112,25,0.141769380775894,1
12,113,25,0.143755824385305,1
12,114,25,0.152553534021221,1
12,115,25,0.157500106594446,1
12,116,25,0.148412884956233,1
12,117,25,0.137153593475215,1
3,128,26,0.100892732601141,1
4,121,26,0.111476782923667,1
4,122,26,0.119973619242725,1
4,123,26,0.128808223195436,1
4,124,26,0.132450118176249,1
4,125,26,0.129771625634264,1
4,126,26,0.127515800136945,1
4,127,26,0.118617341892811,1
4,128,26,0.104976673129596,1
5,120,26,0.115183240235642,1
5,121,26,0.134829600090532,1
5,122,26,0.155343504696681,1
5,123,26,0.180587136536687,1
5,124,26,0.200769950868556,1
5,125,26,0.192516168252081,1
5,126,26,0.171353056563951,1
5,127,26,0.138360038723708,1
5,128,26,0.102749572259791,1
6,119,26,0.113809839216993,1
6,120,26,0.123576572037963,1
6,121,26,0.137430044867581,1
6,122,26,0.15575783865828,1
6,123,26,0.185472240367759,1
6,124,26,0.221813196875549,1
6,125,26,0.213436716418986,1
6,126,26,0.177756753131581,1
6,127,26,0.13833112891657,1
6,128,26,0.100238710848943,1
7,118,26,0.11906282960287,1
7,119,26,0.132605625488492,1
7,120,26,0.134744221391081,1
7,121,26,0.144387907798553,1
7,122,26,0.156505180047911,1
7,123,26,0.172578575313685,1
7,124,26,0.207941957694973,1
7,125,26,0.202749891405299,1
7,126,26,0.162662947182331,1
7,127,26,0.12110601442757,1
8,115,26,0.104849019011343,1
8,116,26,0.123749333733969,1
8,117,26,0.131961331112998,1
8,118,26,0.140933076916447,1
8,119,26,0.14534109267932,1
8,120,26,0.152855899667987,1
8,121,26,0.186170498264187,1
8,122,26,0.195812169481636,1
8,123,26,0.173456544588467,1
8,124,26,0.187379285490273,1
8,125,26,0.188798044623813,1
8,126,26,0.152460486706764,1
9,111,26,0.107222150353825,1
9,112,26,0.117249485369954,1
9,113,26,0.114804700406015,1
9,114,26,0.132324381211748,1
9,115,26,0.18504449722282,1
9,116,26,0.217879938096201,1
9,117,26,0.192770735770092,1
9,118,26,0.164441586575179,1
9,119,26,0.15177003903329,1
9,120,26,0.170528876523398,1
9,121,26,0.219066242337385,1
9,122,26,0.209658049946682,1
9,123,26,0.149743890733971,1
9,124,26,0.130166853415864,1
9,125,26,0.129132135036068,1
10,110,26,0.106792958450653,1
10,111,26,0.161537512572754,1
10,112,26,0.193432044885129,1
10,113,26,0.185449212736905,1
10,114,26,0.202537958772418,1
10,115,26,0.265935553672639,1
10,116,26,0.289886599060369,3
10,117,26,0.242486671852743,1
10,118,26,0.190564876092419,1
10,119,26,0.154488192693506,1
10,120,26,0.149943122223248,1
10,121,26,0.161632520612638,1
10,122,26,0.143462314681719,1
11,110,26,0.118076791678272,1
11,111,26,0.200513204766737,1
11,112,26,0.247004313952854,1
11,113,26,0.220614343991629,1
11,114,26,0.208129337688333,1
11,115,26,0.234133066526168,1
11,116,26,0.242353712882917,1
11,117,26,0.219288566815032,1
11,118,26,0.184355803309311,1
12,111,26,0.129544628094349,1
12,112,26,0.159158738698209,1
12,113,26,0.148532009918876,1
12,114,26,0.144737036746767,1
12,115,26,0.154002041716663,1
12,116,26,0.151586384418242,1
4,122,27,0.107404879070754,1
4,123,27,0.112529420155287,1
4,124,27,0.115639359434686,1
4,125,27,0.11253973574962,1
4,126,27,0.108881958892844,1
4,127,27,0.101872474418532,1
5,120,27,0.108370329378362,1
5,121,27,0.128183089464537,1
5,122,27,0.148930777899164,1
5,123,27,0.162413673622975,1
5,124,27,0.174902644948802,1
5,125,27,0.166814249522142,1
5,126,27,0.14930683414325,1
5,127,27,0.124388018256156,1
6,119,27,0.111736056182704,1
6,120,27,0.126567647784776,1
6,121,27,0.144279185573595,1
6,122,27,0.168283911266364,1
6,123,27,0.191587525117916,1
6,124,27,0.219935671563638,1
6,125,27,0.208535752497789,1
6,126,27,0.171573169779031,1
6,127,27,0.132700622635457,1
7,118,27,0.117948494877796,1
7,119,27,0.136864942013522,1
7,120,27,0.145272804969845,1
7,121,27,0.155904195918528,1
7,122,27,0.171966567550232,1
7,123,27,0.190026395532498,1
7,124,27,0.224793935242191,1
7,125,27,0.217240196960867,1
7,126,27,0.171005321909374,1
7,127,27,0.122895601204055,1
8,115,27,0.102223618556769,1
8,116,27,0.114748710802139,1
8,117,27,0.122861952977134,1
8,118,27,0.142306303648391,1
8,119,27,0.156035727915959,1
8,120,27,0.164298203081829,1
8,121,27,0.183155773990134,1
8,122,27,0.190942337523061,1
8,123,27,0.175523846335927,1
8,124,27,0.187048816112378,1
8,125,27,0.179928006005458,1
8,126,27,0.139766859217977,1
9,112,27,0.106356904008484,1
9,113,27,0.101500034623569,1
9,114,27,0.116364348554443,1
9,115,27,0.158102016621948,1
9,116,27,0.178424630676801,1
9,117,27,0.162979255765472,1
9,118,27,0.156709683710005,1
9,119,27,0.157338248710402,1
9,120,27,0.1680856601398,1
9,121,27,0.193103340160119,1
9,122,27,0.189217225934385,1
9,123,27,0.146006094493912,1
9,124,27,0.127416053677278,1
9,125,27,0.118165667004736,1
10,111,27,0.1405556699504,1
10,112,27,0.177530866669408,1
10,113,27,0.153043660913514,1
10,114,27,0.15718704410118,1
10,115,27,0.21201360011783,1
10,116,27,0.234963520888089,1
10,117,27,0.206709402119537,1
10,118,27,0.181491695426851,1
10,119,27,0.155036335272617,1
10,120,27,0.140969274086424,1
10,121,27,0.14143855193167,1
11,111,27,0.16808429852492,1
11,112,27,0.228421909072468,1
11,113,27,0.187698448018203,1
11,114,27,0.163213192094817,1
11,115,27,0.195096243270522,1
11,116,27,0.216232667307,1
11,117,27,0.20583467893463,1
11,118,27,0.187103868925216,1
5,121,28,0.115079583218039,1
5,122,28,0.132280036138328,1
5,123,28,0.138225195278887,1
5,124,28,0.142324200714377,1
5,125,28,0.137373608654025,1
5,126,28,0.125002073888389,1
5,127,28,0.108482177871085,1
6,119,28,0.106238715836879,1
6,120,28,0.125220073877176,1
6,121,28,0.144966147512976,1
6,122,28,0.167724995590321,1
6,123,28,0.184755725939017,1
6,124,28,0.200227919217028,1
6,125,28,0.190435511785876,1
6,126,28,0.156469516630967,1
6,127,28,0.121305365738957,1
7,118,28,0.113036169642038,1
7,119,28,0.133887112056264,1
7,120,28,0.151268365646812,1
7,121,28,0.167295182790763,1
7,122,28,0.186626955143721,1
7,123,28,0.207798062234429,1
7,124,28,0.231540617151696,1
7,125,28,0.222015935884758,1
7,126,28,0.173013551356869,1
7,127,28,0.118288495559853,1
8,115,28,0.105505262919026,1
8,116,28,0.111111172988943,1
8,117,28,0.117055602303927,1
8,118,28,0.14001889957877,1
8,119,28,0.159793109624455,1
8,120,28,0.173147773905304,1
8,121,28,0.181556072578389,1
8,122,28,0.187418347497958,1
8,123,28,0.183737096400646,1
8,124,28,0.1828264265829,1
8,125,28,0.166010994779068,1
8,126,28,0.127755705785926,1
9,113,28,0.100428716035792,1
9,114,28,0.120172382336484,1
9,115,28,0.147962963828124,1
9,116,28,0.154947645125777,1
9,117,28,0.146234649721251,1
9,118,28,0.155118674847655,1
9,119,28,0.167875557517319,1
9,120,28,0.170644777182004,1
9,121,28,0.168068710757771,1
9,122,28,0.162440034487057,1
9,123,28,0.141189082299771,1
10,111,28,0.12278923184961,1
10,112,28,0.155069438853585,1
10,113,28,0.135227747174435,1
10,114,28,0.137280397945783,1
10,115,28,0.171037597628495,1
10,116,28,0.18597250856768,1
10,117,28,0.174021625656688,1
10,118,28,0.168253857702727,1
10,119,28,0.156553827824352,1
10,120,28,0.135193837517457,1
11,112,28,0.189340490206264,1
11,113,28,0.154554672178419,1
11,114,28,0.130702893961918,1
11,115,28,0.153239591848321,1
11,116,28,0.174841056384539,1
5,121,29,0.0998248452828627,1
5,122,29,0.114717829376655,1
5,123,29,0.119351034454882,1
5,124,29,0.118079057405433,1
5,125,29,0.113865796142112,1
5,126,29,0.105269507472201,1
6,119,29,0.101506189122827,1
6,120,29,0.118613464013632,1
6,121,29,0.134969345348921,1
6,122,29,0.150355756889477,1
6,123,29,0.161504027739619,1
6,124,29,0.166025329860528,1
6,125,29,0.161494333041672,1
6,126,29,0.136343966374503,1
6,127,29,0.106228389349627,1
7,118,29,0.110570546523971,1
7,119,29,0.130685062253447,1
7,120,29,0.152291047351067,1
7,121,29,0.17164857056464,1
7,122,29,0.188519381968881,1
7,123,29,0.208914673579582,1
7,124,29,0.213784004463881,1
7,125,29,0.206660078982115,1
7,126,29,0.16354698381302,1
7,127,29,0.108661911035277,1
8,114,29,0.100763226686651,1
8,115,29,0.108792201239938,1
8,116,29,0.110624836832476,1
8,117,29,0.115250830798297,1
8,118,29,0.136327812175563,1
8,119,29,0.160188435442326,1
8,120,29,0.180881201779144,1
8,121,29,0.189226920632333,1
8,122,29,0.194997531638164,1
8,123,29,0.199064032603232,1
8,124,29,0.176695586744352,1
8,125,29,0.154748315600228,1
8,126,29,0.121278580051033,1
9,113,29,0.113878682465339,1
9,114,29,0.13955272621545,1
9,115,29,0.153033661213833,1
9,116,29,0.147904654032493,1
9,117,29,0.14002787534406,1
9,118,29,0.154905859888332,1
9,119,29,0.176147062913075,1
9,120,29,0.176022938100591,1
9,121,29,0.158272959200474,1
9,122,29,0.146629016962246,1
9,123,29,0.137713184512239,1
10,112,29,0.13012811819575,1
10,113,29,0.131063264402584,1
10,114,29,0.140971049632228,1
10,115,29,0.155888357614241,1
10,116,29,0.159543552849204,1
10,118,29,0.158695016241673,1
10,119,29,0.157251127143904,1
10,120,29,0.132680677700691,1
11,115,29,0.122564783252751,1
5,122,30,0.106302635485817,1
5,123,30,0.116808746972598,1
5,124,30,0.109775417898503,1
5,125,30,0.101584944927501,1
6,120,30,0.107284381600312,1
6,121,30,0.122685171794002,1
6,122,30,0.138505982053032,1
6,123,30,0.150243026070311,1
6,124,30,0.144984284223181,1
6,125,30,0.140337081743985,1
6,126,30,0.12222607882806,1
7,118,30,0.108628556917171,1
7,119,30,0.131300457714722,1
7,120,30,0.153148842939783,1
7,121,30,0.173312463948299,1
7,122,30,0.195295104400552,1
7,123,30,0.214226496621204,1
7,124,30,0.195852190066196,1
7,125,30,0.184478708114861,1
7,126,30,0.150930510869807,1
8,114,30,0.103261179988435,1
8,115,30,0.104422179978684,1
8,116,30,0.107813341748989,1
8,117,30,0.114931951486263,1
8,118,30,0.135576985051839,1
8,119,30,0.167962700869655,1
8,120,30,0.195534835762828,1
8,121,30,0.207697738450052,1
8,122,30,0.224160381284872,1
8,123,30,0.229926983696496,1
8,124,30,0.179622655698874,1
9,112,30,0.0999853960166221,1
9,113,30,0.132393725534369,1
9,114,30,0.15525766849463,1
9,115,30,0.151499404459692,1
9,116,30,0.142080199327837,1
9,117,30,0.136020381321442,1
9,118,30,0.151209304239767,1
9,119,30,0.178447429556356,1
9,120,30,0.181693170857451,1
9,121,30,0.163479175391983,1
9,122,30,0.153564048334905,1
10,112,30,0.112666485755592,1
10,113,30,0.137658316879025,1
10,114,30,0.155737327291724,1
10,115,30,0.153289808205105,1
10,118,30,0.149851185986534,1
10,119,30,0.153601988371928,1
5,122,31,0.102980327856776,1
5,123,31,0.11969761446004,1
5,124,31,0.111756720050127,1
6,121,31,0.110753242562143,1
6,122,31,0.133103747783362,1
6,123,31,0.150988668164572,1
6,124,31,0.140161378959839,1
6,125,31,0.127028636118632,1
6,126,31,0.111662485407495,1
7,118,31,0.107325589513047,1
7,119,31,0.130853096422588,1
7,120,31,0.145148462298981,1
7,121,31,0.160402426836905,1
7,122,31,0.194099170818935,1
7,123,31,0.214869570989765,1
7,124,31,0.182274122908716,1
7,125,31,0.15969959391448,1
8,116,31,0.105877310568904,1
8,117,31,0.117207101021962,1
8,118,31,0.138943507039271,1
8,119,31,0.174279646230035,1
8,120,31,0.19696163387062,1
8,121,31,0.205983694067124,1
8,122,31,0.234834875514204,1
8,123,31,0.237834720060846,1
8,124,31,0.175666783219596,1
9,112,31,0.114372992238544,1
9,113,31,0.143994869493681,1
9,114,31,0.155036444201807,1
9,115,31,0.141564909792557,1
9,116,31,0.138456125162577,1
9,117,31,0.135608890411713,1
9,118,31,0.146416441647142,1
9,119,31,0.17000753052513,1
9,120,31,0.175250728176788,1
9,121,31,0.162173855117347,1
9,122,31,0.160611026236559,1
10,118,31,0.140965875495683,1
5,122,32,0.10035131095308,1
5,123,32,0.119827599662968,1
5,124,32,0.116083714281165,1
6,121,32,0.106924327054299,1
6,122,32,0.130205109347539,1
6,123,32,0.153344621373724,1
6,124,32,0.139507291850126,1
6,125,32,0.114643561454627,1
7,118,32,0.102572693040388,1
7,119,32,0.127757067400806,1
7,120,32,0.13785063136471,1
7,121,32,0.148424649308799,1
7,122,32,0.183804218567783,1
7,123,32,0.206410435063512,1
7,124,32,0.166655005938667,1
8,117,32,0.113536252662336,1
8,118,32,0.137215421683697,1
8,119,32,0.172787948110591,1
8,120,32,0.184606645449009,1
8,121,32,0.186075054507541,1
8,122,32,0.212921851707548,1
8,123,32,0.213672722402949,1
9,112,32,0.122170448690512,1
9,113,32,0.136996310617168,1
9,115,32,0.12180049248109,1
9,116,32,0.126356760872124,1
9,117,32,0.131811281153195,1
9,118,32,0.139924327255647,1
9,119,32,0.159133183910136,1
9,120,32,0.161215583243388,1
4,124,33,0.100824205247448,1
5,122,33,0.103623881513775,1
5,123,33,0.120627913317899,1
5,124,33,0.124833778289191,1
5,125,33,0.103721569211743,1
6,120,33,0.102629074789349,1
6,121,33,0.120009304445507,1
6,122,33,0.139345139857267,1
6,123,33,0.157349958598372,1
6,124,33,0.146083488683705,1
6,125,33,0.112448213443829,1
7,119,33,0.126681751111741,1
7,120,33,0.145274722123597,1
7,121,33,0.158201784867453,1
7,122,33,0.179628243766343,1
7,123,33,0.192339136531811,1
7,124,33,0.156526486597557,1
8,117,33,0.102659226389257,1
8,118,33,0.127809723771455,1
8,119,33,0.160906104520487,1
8,120,33,0.171022565400217,1
8,121,33,0.170423117172419,1
8,122,33,0.182278338468385,1
9,113,33,0.116109661214323,1
9,114,33,0.106793089165681,1
9,119,33,0.145921216868737,1
9,120,33,0.14584261356493,1
4,124,34,0.107301886521212,1
5,122,34,0.113267230240756,1
5,123,34,0.128638685803467,1
5,124,34,0.136671265912956,1
5,125,34,0.115283150089095,1
6,120,34,0.111234666012122,1
6,121,34,0.13528306141733,1
6,122,34,0.152969491027757,1
6,123,34,0.157778496926402,1
6,124,34,0.147418710021112,1
7,119,34,0.124730763953811,1
7,120,34,0.157306517637233,1
7,121,34,0.174181555494062,1
7,122,34,0.176211603458398,1
7,123,34,0.17007825824847,1
8,118,34,0.111001546651705,1
8,119,34,0.138520229991139,1
8,120,34,0.155342894693215,1
8,121,34,0.157267477415386,1
8,122,34,0.154716486490788,1
9,120,34,0.124824388592977,1
4,123,35,0.107652856372744,1
4,124,35,0.116878461654466,1
4,125,35,0.104930334651992,1
5,122,35,0.129859052202495,1
5,123,35,0.146296663109356,1
5,124,35,0.148396120753828,1
5,125,35,0.125765493226526,1
6,120,35,0.112444956461036,1
6,121,35,0.141990158459036,1
6,122,35,0.164273988122799,1
6,123,35,0.155217473623365,1
6,124,35,0.14024948088905,1
6,125,35,0.113807693311942,1
7,119,35,0.122934815712606,1
7,120,35,0.162716583915694,1
7,121,35,0.181845846010743,1
7,122,35,0.169752897649606,1
7,123,35,0.143146234849879,1
8,119,35,0.120931444507004,1
8,120,35,0.146376290347553,1
8,121,35,0.150557842323543,1
8,122,35,0.135477532700986,1
4,123,36,0.113819174448612,1
4,124,36,0.119187934778067,1
4,125,36,0.107965406898815,1
5,122,36,0.137340537751813,1
5,123,36,0.156122500909048,1
5,124,36,0.147270195962894,1
5,125,36,0.128501554845648,1
6,120,36,0.112614929569767,1
6,121,36,0.141778421898699,1
6,122,36,0.163325922913982,1
6,123,36,0.147603344998873,1
6,124,36,0.124628403193574,1
7,119,36,0.118076835249948,1
7,120,36,0.155743470898064,1
7,121,36,0.173546498313916,1
7,122,36,0.155737022289991,1
7,123,36,0.120433529177596,1
8,119,36,0.107420869875907,1
8,120,36,0.135211799940957,1
8,121,36,0.140033212874391,1
8,122,36,0.118163150740437,1
1,128,37,0.111400935528378,1
4,123,37,0.115084278066146,1
4,124,37,0.116824367418504,1
4,125,37,0.10650794522392,1
5,121,37,0.104871382174136,1
5,122,37,0.138300704993686,1
5,123,37,0.154683535410686,1
5,124,37,0.135688604793262,1
5,125,37,0.120328347151327,1
6,120,37,0.114367055597666,1
6,121,37,0.138315236147688,1
6,122,37,0.155638506730175,1
6,123,37,0.139922791354063,1
6,124,37,0.111577673139834,1
7,119,37,0.110618257509375,1
7,120,37,0.136570974807337,1
7,121,37,0.151708962436221,1
7,122,37,0.140014477053639,1
8,119,37,0.10024886304949,1
8,120,37,0.120698455861615,1
4,123,38,0.108212240444306,1
4,124,38,0.10993179664427,1
4,125,38,0.102027393513147,1
5,121,38,0.111382646317307,1
5,122,38,0.129000690181988,1
5,123,38,0.138177484293483,1
5,124,38,0.119285655154792,1
5,125,38,0.10744040087975,1
6,119,38,0.0998483195233981,1
6,120,38,0.123842032475016,1
6,121,38,0.135357623448172,1
6,122,38,0.141421264869151,1
6,123,38,0.128844834296336,1
7,120,38,0.116979624193609,1
7,121,38,0.126250053837189,1
7,122,38,0.120452559107162,1
5,120,39,0.103821261206815,1
5,121,39,0.106697732552388,1
5,122,39,0.108499846185771,1
5,123,39,0.111115334084017,1
6,120,39,0.125262610726035,1
6,121,39,0.124903275112679,1
6,122,39,0.120731744622207,1
6,123,39,0.112362235633831,1
7,121,39,0.103373529555434,1
6,120,40,0.113225695540449,1
6,121,40,0.107247759606493,1
