x,y,z,signal,mito.p
165,64,38,0.140748997477557,1
166,63,38,0.196518989212431,1
166,64,38,0.246867869248934,2
166,65,38,0.218338116056944,2
166,66,38,0.180316098925085,1
166,67,38,0.193683867387541,1
166,68,38,0.234038820990617,1
167,60,38,0.270381847153025,1
167,61,38,0.203325669320019,1
167,62,38,0.225049809910487,2
167,63,38,0.353564490553378,2
167,64,38,0.453922326194762,2
167,65,38,0.390013831605635,2
167,66,38,0.308589479625359,2
167,67,38,0.318061765951705,2
167,68,38,0.344051137922243,2
167,69,38,0.296856564024397,1
168,59,38,0.260515302514874,1
168,60,38,0.266925959657772,1
168,61,38,0.312007416190669,2
168,62,38,0.363333216778532,2
168,63,38,0.4567919132155,2
168,64,38,0.51517704427521,2
168,65,38,0.46587416768263,2
168,66,38,0.41549624712396,2
168,67,38,0.377005725544106,2
168,68,38,0.309040032542773,2
168,69,38,0.230554502976665,1
169,59,38,0.254848697100055,1
169,60,38,0.313193807575205,2
169,61,38,0.423198368748474,2
169,62,38,0.458762442270191,2
169,63,38,0.428539733386537,2
169,64,38,0.403732286703728,2
169,65,38,0.417687161716708,2
169,66,38,0.43960659055976,2
169,67,38,0.378938565098912,2
169,68,38,0.2637286264889,2
169,69,38,0.208149685661103,1
170,59,38,0.29599456376893,2
170,60,38,0.352793838316997,2
170,61,38,0.424495584691343,2
170,62,38,0.451551678437822,2
170,63,38,0.392476023454204,2
170,64,38,0.347167623845987,2
170,65,38,0.353634662737846,2
170,66,38,0.34131816989213,2
170,67,38,0.284445389926367,2
170,68,38,0.226731197322128,1
171,60,38,0.317953555693943,2
171,61,38,0.377218486038834,2
171,62,38,0.425842603060072,2
171,63,38,0.362835933238429,2
171,64,38,0.289941586515693,2
171,65,38,0.255857141759122,2
171,66,38,0.222032972410139,1
171,67,38,0.199136731944918,1
172,57,38,0.191200194702622,1
172,58,38,0.192172627371336,1
172,60,38,0.275217497131646,2
172,61,38,0.340934194495901,2
172,62,38,0.377784961400692,2
172,63,38,0.292880300000672,2
172,64,38,0.213731979882537,1
173,56,38,0.236331301160512,2
173,57,38,0.26702456236094,2
173,58,38,0.277669275349611,2
173,59,38,0.293776438664416,2
173,60,38,0.303409417332469,2
173,61,38,0.313987923159202,2
173,62,38,0.299089198497075,2
173,63,38,0.23618851677771,2
173,64,38,0.226271668639423,1
173,65,38,0.257376290034552,1
173,66,38,0.261564334190291,1
174,55,38,0.252867100839618,2
174,56,38,0.357943247935703,2
174,57,38,0.422837246696395,2
174,58,38,0.418328057501461,2
174,59,38,0.385898443219906,2
174,60,38,0.323062487225489,2
174,64,38,0.291879763600829,1
174,65,38,0.353347852179471,1
174,66,38,0.296057808056888,1
174,67,38,0.241848935014513,1
175,49,38,0.172433045915285,1
175,50,38,0.166520794283151,1
175,51,38,0.184582376025383,1
175,52,38,0.221433818291155,1
175,53,38,0.223745731428621,1
175,54,38,0.22072155210084,1
175,55,38,0.325222465928157,2
175,56,38,0.45196330006258,2
175,57,38,0.484641882901757,2
175,58,38,0.422213561723728,2
175,59,38,0.343470414622278,2
175,60,38,0.262274944656912,1
175,65,38,0.292170168822488,1
175,66,38,0.235589166586183,1
176,48,38,0.276170409689437,3
176,49,38,0.3330688751583,3
176,50,38,0.284418854775581,3
176,51,38,0.293802777742659,3
176,52,38,0.325637595072846,3
176,53,38,0.313013072262461,3
176,54,38,0.264391242754222,1
176,55,38,0.300473143861356,1
176,56,38,0.336450255087306,2
176,57,38,0.318523843577465,2
176,58,38,0.263395303166216,2
176,59,38,0.212899978726112,1
177,47,38,0.254756259789065,3
177,48,38,0.389020571675713,3
177,49,38,0.44032608964832,3
177,50,38,0.388852515720734,3
177,51,38,0.415656416605553,3
177,52,38,0.418274420768098,3
177,53,38,0.373967603279951,3
177,54,38,0.29825151123691,3
177,55,38,0.270260717893278,1
177,56,38,0.218004553090041,1
177,57,38,0.173351515063065,1
178,46,38,0.218233892607551,1
178,47,38,0.307355943687209,3
178,48,38,0.41988496063429,3
178,49,38,0.470440000056582,3
178,50,38,0.428633412490298,3
178,51,38,0.433735742912905,3
178,52,38,0.413149868790646,3
178,53,38,0.384292783381445,3
178,54,38,0.335649625537722,3
178,55,38,0.279427479626336,1
179,46,38,0.287543401459415,3
179,47,38,0.345952322654313,3
179,48,38,0.416055576730927,3
179,49,38,0.433886893057531,3
179,50,38,0.379289709237148,3
179,51,38,0.361036444798535,3
179,52,38,0.356318220487186,3
179,53,38,0.35725971726582,3
179,54,38,0.32932007707001,3
179,55,38,0.259172728457114,1
180,43,38,0.213521637615837,1
180,45,38,0.295329812491475,3
180,46,38,0.331528333189872,3
180,47,38,0.356921971418005,3
180,48,38,0.374152826475341,3
180,49,38,0.361149012223914,3
180,50,38,0.321674838268733,3
180,51,38,0.28571493785487,3
180,52,38,0.254931722928993,3
180,53,38,0.233053077174834,1
180,54,38,0.210230080697251,1
181,42,38,0.260077842886149,1
181,43,38,0.310814314768003,3
181,44,38,0.335302511779531,3
181,45,38,0.347188581822223,3
181,46,38,0.372881274249734,3
181,47,38,0.362296733745852,3
181,48,38,0.344529358854024,3
181,49,38,0.326271257959355,3
181,50,38,0.288275057045626,3
181,51,38,0.226315436388134,1
182,41,38,0.288617443276952,1
182,42,38,0.30014962416581,3
182,43,38,0.380805829281085,3
182,44,38,0.371801480970943,3
182,45,38,0.336750071791017,3
182,46,38,0.337317571087265,3
182,47,38,0.310736430396853,3
182,48,38,0.291001772540209,3
182,49,38,0.278197799781527,3
183,40,38,0.353751892332576,3
183,41,38,0.352557854118872,3
183,42,38,0.319741541211328,3
183,43,38,0.384729633006704,3
183,44,38,0.354400652804877,3
183,45,38,0.294321215331542,3
183,46,38,0.282323057151908,3
183,47,38,0.266351728537556,3
183,48,38,0.262660401490131,1
184,40,38,0.352135535647615,3
184,41,38,0.340954498896995,3
184,42,38,0.303848750543269,3
184,43,38,0.354579318463003,3
184,44,38,0.336806584255007,3
184,45,38,0.280468886258423,3
185,41,38,0.303945152876791,1
185,43,38,0.279742415701677,1
188,33,38,0.305321081052657,4
188,34,38,0.266995478267098,4
189,33,38,0.357236428204909,4
189,34,38,0.306298045175692,4
165,64,39,0.153963960071693,1
165,65,39,0.13640959621173,1
166,62,39,0.125874858133707,1
166,63,39,0.176299716280529,2
166,64,39,0.225786301952752,2
166,65,39,0.212600227379915,2
166,66,39,0.18060666754053,2
166,67,39,0.198935212942642,2
166,68,39,0.249250673503525,2
166,69,39,0.274507910599415,1
167,61,39,0.182978709591107,1
167,62,39,0.194762244586857,2
167,63,39,0.292637278976845,2
167,64,39,0.394884709284438,2
167,65,39,0.380217611652819,2
167,66,39,0.305206966832773,2
167,67,39,0.310961173102527,2
167,68,39,0.342796774722885,2
167,69,39,0.293941488173739,2
167,70,39,0.217437010222117,1
168,60,39,0.234246897530157,1
168,61,39,0.274080821029618,2
168,62,39,0.318333108565041,2
168,63,39,0.40142812932462,2
168,64,39,0.46608087171437,2
168,65,39,0.457865737174656,2
168,66,39,0.411864635058723,2
168,67,39,0.374568325979277,2
168,68,39,0.306839423252078,2
168,69,39,0.22185753105605,2
169,59,39,0.214266299347383,1
169,60,39,0.25868875606408,2
169,61,39,0.348116549595408,2
169,62,39,0.401191142977943,2
169,63,39,0.393959203310957,2
169,64,39,0.363883832050265,2
169,65,39,0.393486886341298,2
169,66,39,0.437089759829277,2
169,67,39,0.385836920013157,2
169,68,39,0.255982192469724,2
169,69,39,0.188782075604497,1
170,59,39,0.284551966246274,2
170,60,39,0.327496972781633,2
170,61,39,0.36789318876204,2
170,62,39,0.391527598779058,2
170,63,39,0.353987898316539,2
170,64,39,0.300906812754255,2
170,65,39,0.314860794547873,2
170,66,39,0.333417296066777,2
170,67,39,0.287892214512977,2
170,68,39,0.212929346035849,1
171,59,39,0.27677355061679,2
171,60,39,0.335807638221345,2
171,61,39,0.366604469296023,2
171,62,39,0.381658483412013,2
171,63,39,0.32667438310726,2
171,64,39,0.266172104302554,2
171,65,39,0.246597681285018,2
171,66,39,0.231511358771149,2
171,67,39,0.211093431674679,1
172,58,39,0.168453524908766,1
172,59,39,0.216343579008685,2
172,60,39,0.281680810645194,2
172,61,39,0.370921245969,2
172,62,39,0.418352588355143,2
172,63,39,0.322129770139602,2
172,64,39,0.232802518251031,2
172,65,39,0.207394501369762,1
172,66,39,0.207515543486157,1
173,56,39,0.198181662589157,2
173,57,39,0.22777709183686,2
173,58,39,0.243566225487316,2
173,59,39,0.277426385040813,2
173,60,39,0.295416019052773,2
173,61,39,0.337539263775607,2
173,62,39,0.366168839677697,2
173,63,39,0.295236024458524,2
173,64,39,0.251308084480495,2
173,65,39,0.251396447839763,1
173,66,39,0.238541213004069,1
173,67,39,0.239588305739897,1
174,55,39,0.225383525378256,2
174,56,39,0.337117598879493,2
174,57,39,0.397622274126388,2
174,58,39,0.38627747323089,2
174,59,39,0.384011528211781,2
174,60,39,0.318450948163237,2
174,61,39,0.248934974923851,2
174,62,39,0.224333774770182,2
174,63,39,0.216305453792038,2
174,64,39,0.266551243242729,1
174,65,39,0.297034401820676,1
174,66,39,0.254077478431885,1
174,67,39,0.232607665715208,1
175,48,39,0.14377759933047,1
175,49,39,0.179616468520858,3
175,50,39,0.162930411916488,3
175,51,39,0.159624748667743,1
175,52,39,0.183811614859812,3
175,53,39,0.202455194373538,3
175,54,39,0.196951547027587,1
175,55,39,0.290557385014973,2
175,56,39,0.440233717694844,2
175,57,39,0.471328034388559,2
175,58,39,0.392965812666006,2
175,59,39,0.336120243212011,2
175,60,39,0.255455454476531,2
175,64,39,0.218651352836915,1
175,65,39,0.248613917028008,1
175,66,39,0.216377150985173,1
176,47,39,0.166229321555426,1
176,48,39,0.290583680521541,3
176,49,39,0.382190319291318,3
176,50,39,0.302180587135345,3
176,51,39,0.270480754857926,3
176,52,39,0.31306300540335,3
176,53,39,0.324856049917424,3
176,54,39,0.260784139756829,3
176,55,39,0.272991028051146,2
176,56,39,0.3228385941675,2
176,57,39,0.311054786848774,2
176,58,39,0.254150330274437,2
176,59,39,0.210874680074478,2
177,46,39,0.141226684656304,1
177,47,39,0.232379415489603,3
177,48,39,0.390635904426283,3
177,49,39,0.479454979855709,3
177,50,39,0.394601536961023,3
177,51,39,0.403459745869298,3
177,52,39,0.44658812380381,3
177,53,39,0.412417385342588,3
177,54,39,0.308902106401863,3
177,55,39,0.261547798739185,3
177,56,39,0.21278107162185,2
177,57,39,0.169172130777964,2
178,46,39,0.211370874322678,3
178,47,39,0.293561107440794,3
178,48,39,0.407803275551442,3
178,49,39,0.463183660250942,3
178,50,39,0.40950470593412,3
178,51,39,0.425457298727719,3
178,52,39,0.421574757379431,3
178,53,39,0.37871687241057,3
178,54,39,0.329784442208769,3
178,55,39,0.29574579128385,3
178,56,39,0.201569948628836,1
179,45,39,0.260290690524229,3
179,46,39,0.298352575739781,3
179,47,39,0.344670356798103,3
179,48,39,0.389712707751639,3
179,49,39,0.40514396543989,3
179,50,39,0.362559950241582,3
179,51,39,0.351060883826612,3
179,52,39,0.338505313193762,3
179,53,39,0.327200445739473,3
179,54,39,0.302979800605454,3
179,55,39,0.255521661638468,3
180,43,39,0.194124115603541,1
180,44,39,0.240929289431476,3
180,45,39,0.285150205360058,3
180,46,39,0.32716977127945,3
180,47,39,0.343854803949431,3
180,48,39,0.349654063332343,3
180,49,39,0.355958950231344,3
180,50,39,0.33459508204527,3
180,51,39,0.290652828771619,3
180,52,39,0.249551666642493,3
180,53,39,0.221891930894384,3
180,54,39,0.193314989577104,3
181,42,39,0.222682909317697,1
181,43,39,0.271832849326928,3
181,44,39,0.298977415361866,3
181,45,39,0.316227681600934,3
181,46,39,0.352306118759813,3
181,47,39,0.354448058788548,3
181,48,39,0.346467492367484,3
181,49,39,0.344821746586948,3
181,50,39,0.316498392424965,3
181,51,39,0.244917012806033,3
181,52,39,0.193121531334919,1
181,53,39,0.185625939455441,1
182,40,39,0.259302092763656,3
182,41,39,0.278040004956285,3
182,42,39,0.274395125315654,3
182,43,39,0.327874957072389,3
182,44,39,0.342884571650364,3
182,45,39,0.317878416338391,3
182,46,39,0.326325787912079,3
182,47,39,0.325152664102936,3
182,48,39,0.307338210015009,3
182,49,39,0.284842480397123,3
182,50,39,0.24400346725766,3
182,51,39,0.19720040665602,1
183,39,39,0.236049697417439,3
183,40,39,0.321373757986414,3
183,41,39,0.342766383478758,3
183,42,39,0.290549302469044,3
183,43,39,0.328553629500379,3
183,44,39,0.350044814124216,3
183,45,39,0.30575901996982,3
183,46,39,0.298947002331901,3
183,47,39,0.300262213377027,3
183,48,39,0.268556825710897,3
183,49,39,0.249978276923852,3
184,39,39,0.266262711603145,3
184,40,39,0.323366530381788,3
184,41,39,0.324581461214214,3
184,42,39,0.282482006626568,3
184,43,39,0.328132901395303,3
184,44,39,0.352010702795395,3
184,45,39,0.302234812086336,3
184,46,39,0.277931162909218,3
184,47,39,0.265381779454384,3
185,40,39,0.289117994692769,3
185,41,39,0.275258454507244,3
185,42,39,0.259763887173521,3
185,43,39,0.269477451656647,3
185,44,39,0.269158201985365,3
185,45,39,0.244994548603774,3
187,33,39,0.200403360571118,4
187,34,39,0.222304184308446,4
187,35,39,0.24727792229335,4
188,32,39,0.21271421088477,4
188,33,39,0.342794073278963,4
188,34,39,0.320562453376168,4
188,35,39,0.273920607976349,4
189,32,39,0.237087945103005,4
189,33,39,0.360680442418405,4
189,34,39,0.319895850302477,4
189,35,39,0.250360858026444,4
190,33,39,0.240741735151412,4
190,34,39,0.212607961352435,4
192,31,39,0.288470628514105,4
192,32,39,0.262950305637514,4
193,31,39,0.3167053796726,4
193,32,39,0.264557926201402,4
166,63,40,0.153185562969873,1
166,64,40,0.193669140160997,2
166,65,40,0.193285622267367,2
166,66,40,0.176481715171882,2
166,67,40,0.192297482009395,2
166,68,40,0.23653120801077,1
167,62,40,0.166816918287307,1
167,63,40,0.23268485293954,2
167,64,40,0.312488774283134,2
167,65,40,0.337310948192487,2
167,66,40,0.294698132116232,2
167,67,40,0.287560786558206,2
167,68,40,0.301671909601924,2
167,69,40,0.256753585424599,1
168,61,40,0.215713946502222,1
168,62,40,0.257967862681883,2
168,63,40,0.32513329649288,2
168,64,40,0.379104224611702,2
168,65,40,0.411502118713006,2
168,66,40,0.387905398195873,2
168,67,40,0.347631771126364,2
168,68,40,0.285376407716884,2
168,69,40,0.203408390147223,1
169,60,40,0.205361185529714,1
169,61,40,0.264530301758712,2
169,62,40,0.319911448962545,2
169,63,40,0.336656545188123,2
169,64,40,0.315649594387377,2
169,65,40,0.350586954704934,2
169,66,40,0.38740162247602,2
169,67,40,0.34309972858728,2
169,68,40,0.236258275031255,2
170,60,40,0.278182005048916,2
170,61,40,0.300319793347083,2
170,62,40,0.315580925425737,2
170,63,40,0.298547319346413,2
170,64,40,0.256164234932753,2
170,65,40,0.26934904592698,2
170,66,40,0.295389984976263,2
170,67,40,0.267090028804382,2
170,68,40,0.198196150171483,1
171,59,40,0.248864693810192,2
171,60,40,0.310715080275531,2
171,61,40,0.327862277714624,2
171,62,40,0.320329911340461,2
171,63,40,0.275670272204544,2
171,64,40,0.234971080573905,2
171,65,40,0.227967303989171,1
171,66,40,0.228201283890192,2
171,67,40,0.218422405464491,1
172,60,40,0.25682225438624,2
172,61,40,0.348345235537775,2
172,62,40,0.403676645673262,2
172,63,40,0.323630313309308,2
172,64,40,0.243247672962853,2
173,56,40,0.155861680855507,1
173,57,40,0.184548248510025,2
173,58,40,0.201881943616035,2
173,59,40,0.23529392490847,2
173,60,40,0.259099288396933,2
173,61,40,0.317481783370235,2
173,62,40,0.383079442915199,2
173,63,40,0.326292717009868,2
173,64,40,0.254934707588811,2
173,65,40,0.227687900615745,1
173,66,40,0.208141515971822,1
174,55,40,0.181092829410291,1
174,56,40,0.276238795435182,2
174,57,40,0.333475573183651,2
174,58,40,0.322438627966118,2
174,59,40,0.335725723470149,2
174,60,40,0.289251149735138,2
174,61,40,0.227787875826712,2
174,62,40,0.22160647105797,2
174,63,40,0.2112266738604,2
174,64,40,0.216928790191296,1
174,65,40,0.22493902892383,1
174,66,40,0.207844683927929,1
175,48,40,0.137953547663819,1
175,49,40,0.177253336878057,3
175,50,40,0.157048693136428,3
175,51,40,0.139481301345292,1
175,52,40,0.152924132912866,3
175,53,40,0.173852131836395,3
175,54,40,0.171693667249474,1
175,55,40,0.236829151132406,2
175,56,40,0.372235237007194,2
175,57,40,0.409210509976635,2
175,58,40,0.335728228841529,2
175,59,40,0.301243447524327,2
175,60,40,0.236242327797778,2
176,47,40,0.151073425967637,1
176,48,40,0.276900605624496,3
176,49,40,0.388396363842932,3
176,50,40,0.307893552813606,3
176,51,40,0.252466938565693,3
176,52,40,0.297971301787475,3
176,53,40,0.321588326705702,3
176,54,40,0.257716737326289,3
176,55,40,0.243490519699974,1
176,56,40,0.290141580509304,2
176,57,40,0.286422520089997,2
176,58,40,0.232975018516979,2
176,59,40,0.202323324695616,2
177,47,40,0.207467135353934,3
177,48,40,0.375731646161282,3
177,49,40,0.487948188832725,3
177,50,40,0.400020241324285,3
177,51,40,0.388096852140955,3
177,52,40,0.462022780082802,3
177,53,40,0.450425873468997,3
177,54,40,0.336350301662177,3
177,55,40,0.255678062170072,3
177,56,40,0.202165813086269,1
177,57,40,0.16069174276666,1
178,46,40,0.203962251508831,3
178,47,40,0.270681533141707,3
178,48,40,0.374636210650747,3
178,49,40,0.427747513170454,3
178,50,40,0.384538527635032,3
178,51,40,0.399751142652272,3
178,52,40,0.415997800688328,3
178,53,40,0.379256246189852,3
178,54,40,0.327206240772403,3
178,55,40,0.288165953568501,3
178,56,40,0.203179203130581,1
179,45,40,0.246750705011719,3
179,46,40,0.308487238687231,3
179,47,40,0.335089969143184,3
179,48,40,0.354008224503471,3
179,49,40,0.372218331196841,3
179,50,40,0.357501213280981,3
179,51,40,0.34158979572136,3
179,52,40,0.314047049923762,3
179,53,40,0.286403871412598,3
179,54,40,0.26198151120376,3
179,55,40,0.230445355927865,1
180,44,40,0.218381295588027,1
180,45,40,0.274608909744772,3
180,46,40,0.33076497920925,3
180,47,40,0.33515733095454,3
180,48,40,0.336490776746142,3
180,49,40,0.364754524855127,3
180,50,40,0.358996898208794,3
180,51,40,0.301095238467842,3
180,52,40,0.244587959507614,3
180,53,40,0.211537623127372,3
180,54,40,0.185588838173184,1
181,43,40,0.233294442474966,1
181,44,40,0.266471006001066,3
181,45,40,0.290339613777486,3
181,46,40,0.325743474245934,3
181,47,40,0.34314532634639,3
181,48,40,0.354975276070178,3
181,49,40,0.360823923948026,3
181,50,40,0.332765463791306,3
181,51,40,0.261808335576831,3
181,52,40,0.199334939499806,1
182,41,40,0.266267351986657,3
182,42,40,0.246533282347641,1
182,43,40,0.271668453392747,3
182,44,40,0.307188628450725,3
182,45,40,0.307593147892267,3
182,46,40,0.321902195274977,3
182,47,40,0.35396900999492,3
182,48,40,0.342625189462137,3
182,49,40,0.296467360027027,3
182,50,40,0.257027150193419,3
182,51,40,0.222501128284725,1
183,40,40,0.293337824386272,3
183,41,40,0.317746612017983,3
183,42,40,0.265905402072731,3
183,43,40,0.277533309934129,3
183,44,40,0.329421185144557,3
183,45,40,0.321504320514051,3
183,46,40,0.323752466503445,3
183,47,40,0.344298842901258,3
183,48,40,0.292412536271172,3
183,49,40,0.241720572856522,3
183,50,40,0.232007095516749,1
184,39,40,0.268785250223207,3
184,40,40,0.303350203424557,3
184,41,40,0.302339188036596,3
184,42,40,0.264518798836204,3
184,43,40,0.289939734719456,3
184,44,40,0.332340661734507,3
184,45,40,0.306270290017973,3
184,46,40,0.282734504489961,3
184,47,40,0.268733792073652,3
184,48,40,0.222748658977034,3
185,40,40,0.2752610034503,3
185,41,40,0.249495372036884,3
185,43,40,0.25241284432973,3
185,44,40,0.252183809813954,3
185,45,40,0.231982608234743,3
186,35,40,0.264593851048403,4
186,36,40,0.288909765652363,4
187,33,40,0.225152007276938,4
187,34,40,0.274600304338729,4
187,35,40,0.305987313767101,4
187,36,40,0.282347348361371,4
188,32,40,0.218151629282946,4
188,33,40,0.344318166939638,4
188,34,40,0.38206261070847,4
188,35,40,0.34651529049624,4
188,36,40,0.268614035321705,4
189,32,40,0.231592206016279,4
189,33,40,0.323953244787226,4
189,34,40,0.32753054475812,4
189,35,40,0.287632069820417,4
190,33,40,0.243031753521603,4
190,34,40,0.214126804626132,4
191,31,40,0.290453379423961,4
191,32,40,0.308474886117038,4
192,30,40,0.221952408380905,4
192,31,40,0.316447979995639,4
192,32,40,0.304358560940271,4
192,33,40,0.209482499663402,4
193,30,40,0.211375449348675,4
193,31,40,0.313529178766669,4
193,32,40,0.298777159938199,4
193,33,40,0.207838257105694,4
194,31,40,0.301938546474233,4
194,32,40,0.287881103735554,4
166,64,41,0.162057464277384,1
166,65,41,0.172128011503353,1
166,66,41,0.174299471342691,1
166,67,41,0.180800343641096,1
167,63,41,0.18359788489529,1
167,64,41,0.236838802258677,2
167,65,41,0.284662333302007,2
167,66,41,0.29529939946151,2
167,67,41,0.272923688025628,2
167,68,41,0.25621338378347,1
168,62,41,0.198180856513148,1
168,63,41,0.252422931172763,2
168,64,41,0.300244283632284,2
168,65,41,0.351668882995858,2
168,66,41,0.367166957849512,2
168,67,41,0.322305080778663,2
168,68,41,0.263788515757793,2
169,61,41,0.19244046246474,1
169,62,41,0.241390996697989,2
169,63,41,0.279772676230775,2
169,64,41,0.287205328824029,2
169,65,41,0.310037976427883,2
169,66,41,0.329036076884748,2
169,67,41,0.287052936886632,2
169,68,41,0.2188998421061,1
170,61,41,0.23283959774745,2
170,62,41,0.244091874188605,2
170,63,41,0.244119171843724,2
170,64,41,0.228094402568553,1
170,65,41,0.235803931378015,2
170,66,41,0.257601054526064,2
170,67,41,0.241876842673098,1
171,60,41,0.254158739607938,2
171,61,41,0.269992621369817,2
171,62,41,0.258789166991809,2
171,63,41,0.22809420649601,2
171,64,41,0.210686907936033,1
171,65,41,0.213110952782117,1
171,66,41,0.222332854471365,1
172,61,41,0.293224494456559,2
172,62,41,0.345781325611192,2
172,63,41,0.301655417722494,2
172,64,41,0.251846826470472,2
173,61,41,0.273298622299053,2
173,62,41,0.34995926113806,2
173,63,41,0.319514445635141,2
173,64,41,0.244394762695486,2
174,56,41,0.20540898365847,1
174,57,41,0.255457720203691,2
174,58,41,0.25791047878437,2
174,59,41,0.266410463157031,2
174,62,41,0.206964906428586,2
174,63,41,0.196446594872478,2
175,49,41,0.168565101078513,3
175,50,41,0.147957942192446,1
175,52,41,0.128915518447999,1
175,53,41,0.142858236963328,3
175,54,41,0.14303035597711,1
175,56,41,0.279817816487285,2
175,57,41,0.324287395971757,2
175,58,41,0.29231136283911,2
175,59,41,0.268213807690265,2
176,48,41,0.245257155096038,3
176,49,41,0.350300492719969,3
176,50,41,0.290151427708118,3
176,51,41,0.227217282941456,3
176,52,41,0.266770757347263,3
176,53,41,0.300957268755257,3
176,54,41,0.245093783096246,3
176,55,41,0.211329720874537,1
176,56,41,0.249471233328287,1
176,57,41,0.254422762179677,2
176,58,41,0.222102926736227,1
177,47,41,0.188166146390189,3
177,48,41,0.332128097312323,3
177,49,41,0.437955746893113,3
177,50,41,0.377010300570104,3
177,51,41,0.351048531256418,3
177,52,41,0.444338866736673,3
177,53,41,0.479448444104283,3
177,54,41,0.363453757820651,3
177,55,41,0.242785355692874,3
178,46,41,0.201308823573562,1
178,47,41,0.244664427799288,3
178,48,41,0.322319524789313,3
178,49,41,0.370162880945299,3
178,50,41,0.352585434989887,3
178,51,41,0.362290132636912,3
178,52,41,0.405616064551169,3
178,53,41,0.4018974834203,3
178,54,41,0.333371741879343,3
178,55,41,0.25637791043268,3
179,45,41,0.231281605322716,1
179,46,41,0.30528101689642,3
179,47,41,0.309549537938041,3
179,48,41,0.318541402962961,3
179,49,41,0.352794579035492,3
179,50,41,0.363810108774189,3
179,51,41,0.338863646658567,3
179,52,41,0.301677530348149,3
179,53,41,0.262401019301904,3
179,54,41,0.230828830249818,3
179,55,41,0.200503117923704,1
180,44,41,0.20319615251261,1
180,45,41,0.263874330174005,3
180,46,41,0.324898183728278,3
180,47,41,0.322444924073324,3
180,48,41,0.344119480096313,3
180,49,41,0.392208449790857,3
180,50,41,0.391267693730717,3
180,51,41,0.320413307528646,3
180,52,41,0.247152806225234,3
180,53,41,0.202056949253363,1
180,54,41,0.181975253888961,1
181,45,41,0.269997305325006,3
181,46,41,0.298503442668512,3
181,47,41,0.330743454801223,3
181,48,41,0.375325863141131,3
181,49,41,0.376264789190872,3
181,50,41,0.346055696456021,3
181,51,41,0.280344053406202,3
181,52,41,0.208310639432867,1
182,44,41,0.274865220129829,3
182,45,41,0.310322216257364,3
182,46,41,0.338093037993862,3
182,47,41,0.389601251404002,3
182,48,41,0.384180194170227,3
182,49,41,0.312327166936227,3
182,50,41,0.282188834603473,3
182,51,41,0.254872814022814,3
182,52,41,0.204755561016819,1
183,41,41,0.288224470329595,3
183,43,41,0.245093587023704,3
183,44,41,0.30167206210279,3
183,45,41,0.340702349607012,3
183,46,41,0.362999370595734,3
183,47,41,0.381638004724214,3
183,48,41,0.316230818761618,3
183,49,41,0.242889404855563,3
183,50,41,0.240577469932259,3
183,51,41,0.235437471795605,1
184,40,41,0.292456696164968,3
184,41,41,0.286642426339617,3
184,43,41,0.261261772470981,3
184,44,41,0.297918754346016,3
184,45,41,0.299901505255872,3
184,46,41,0.285453965300462,3
184,47,41,0.26266325543492,3
184,48,41,0.213702307571067,3
185,35,41,0.255213195957037,4
185,36,41,0.290411267398945,4
185,44,41,0.242601875364531,3
185,45,41,0.221661741729189,3
186,34,41,0.20857564236732,4
186,35,41,0.305292432675576,4
186,36,41,0.342916073972233,4
186,37,41,0.294278732947278,4
187,33,41,0.239106381215642,4
187,34,41,0.330807526951028,4
187,35,41,0.359002039666582,4
187,36,41,0.314123038926999,4
187,37,41,0.254361827190556,4
188,32,41,0.200958834084743,4
188,33,41,0.321710131326429,4
188,34,41,0.434517767356765,4
188,35,41,0.406739080932719,4
188,36,41,0.292148099768509,4
188,37,41,0.227509627102704,4
189,33,41,0.28197783876163,4
189,34,41,0.336038001673244,4
189,35,41,0.319804262639172,4
189,36,41,0.258734070607294,4
190,31,41,0.217004975267075,4
190,32,41,0.259629708196762,4
190,34,41,0.224112692085307,4
190,35,41,0.222935385395252,4
191,30,41,0.209479253573527,4
191,31,41,0.312764365134895,4
191,32,41,0.342448724173657,4
191,33,41,0.266670346419534,4
192,30,41,0.231519005600317,4
192,31,41,0.326588677620238,4
192,32,41,0.336164925965921,4
192,33,41,0.248353380190363,4
193,30,41,0.206530431459678,4
193,31,41,0.303195937905085,4
193,32,41,0.329850061153077,4
193,33,41,0.242316241241413,4
194,31,41,0.284918033683598,4
194,32,41,0.326184593895457,4
194,33,41,0.237305912413035,4
195,32,41,0.231510661624331,4
167,64,42,0.166914704021547,1
167,65,42,0.220834032382867,1
167,66,42,0.272989110897394,2
167,67,42,0.25042331802423,1
168,63,42,0.180540351449402,1
168,64,42,0.22115735600587,2
168,65,42,0.270505895715075,2
168,66,42,0.317491434496506,2
168,67,42,0.28253019690041,2
169,63,42,0.214987323444609,1
169,64,42,0.243156608159662,1
169,65,42,0.251550713359235,2
169,66,42,0.261586686460165,2
169,67,42,0.229589891423824,1
170,63,42,0.190259874359244,1
170,65,42,0.199977992082529,1
170,66,42,0.216672697664619,1
172,62,42,0.261686509170265,2
172,63,42,0.250553466620944,2
173,62,42,0.276050500436623,2
173,63,42,0.265983460730586,2
175,49,42,0.149046133911819,1
175,53,42,0.114824503732833,1
175,57,42,0.237656925836243,2
175,58,42,0.243446446949531,1
176,48,42,0.205166790496491,1
176,49,42,0.288634806589905,3
176,50,42,0.250170972661704,3
176,51,42,0.192210534729602,3
176,52,42,0.222619643243901,3
176,53,42,0.268432493932952,3
176,54,42,0.224674243847758,3
177,47,42,0.167070592585956,1
177,48,42,0.26768641612193,3
177,49,42,0.353921386152869,3
177,50,42,0.326756319644294,3
177,51,42,0.297626431970606,3
177,52,42,0.39437679425535,3
177,53,42,0.476598028621059,3
177,54,42,0.365892725965822,3
177,55,42,0.218518415652927,3
178,46,42,0.198394379512209,1
178,47,42,0.216194629233705,1
178,48,42,0.263593968223703,3
178,49,42,0.311612133944475,3
178,50,42,0.315764993971708,3
178,51,42,0.3234896421528,3
178,52,42,0.387890758112681,3
178,53,42,0.419364714820846,3
178,54,42,0.329016338915444,3
178,55,42,0.21590930011232,3
179,45,42,0.222452981582559,1
179,46,42,0.284265634976337,1
179,47,42,0.27218643347903,3
179,48,42,0.285801580132929,3
179,49,42,0.340713220740215,3
179,50,42,0.354925996504433,3
179,51,42,0.326732246293211,3
179,52,42,0.292223304481575,3
179,53,42,0.254571951598875,3
179,54,42,0.213130189677145,3
180,44,42,0.194403301118587,1
180,45,42,0.252255289148707,1
180,46,42,0.300949621926089,3
180,47,42,0.304643454344895,3
180,48,42,0.356746421134725,3
180,49,42,0.412172425379172,3
180,50,42,0.391699532613217,3
180,51,42,0.319854391852603,3
180,52,42,0.242788732497777,3
180,53,42,0.193093710819686,1
181,45,42,0.251153927890213,3
181,46,42,0.274534903252801,3
181,47,42,0.324473207384775,3
181,48,42,0.39915412354542,3
181,49,42,0.388620365830111,3
181,50,42,0.343719034606492,3
181,51,42,0.286823902370856,3
181,52,42,0.214981070909079,3
182,44,42,0.250291731562203,3
182,45,42,0.30962550515544,3
182,46,42,0.349594043348421,3
182,47,42,0.400985441094755,3
182,48,42,0.402033862766706,3
182,49,42,0.326146947967248,3
182,50,42,0.310493409373027,3
182,51,42,0.284996419129024,3
182,52,42,0.215998382404245,1
183,44,42,0.277119248295506,3
183,45,42,0.349992179539405,3
183,46,42,0.387746100147803,3
183,47,42,0.381346248780595,3
183,48,42,0.310275245990455,3
183,49,42,0.246153359117296,3
183,50,42,0.264981421107916,3
183,51,42,0.262542692606964,1
183,52,42,0.238674825549038,1
184,36,42,0.26321095140435,4
184,44,42,0.266711717726055,3
184,45,42,0.285453616727053,3
184,46,42,0.27835751176052,3
184,47,42,0.241912310017499,3
184,48,42,0.194869300195202,3
184,50,42,0.220300105063106,1
184,51,42,0.239961366431246,1
185,35,42,0.27361610731745,4
185,36,42,0.338018726500158,4
185,37,42,0.274350682205963,4
186,34,42,0.23533224619766,4
186,35,42,0.334976595641795,4
186,36,42,0.379148144861279,4
186,37,42,0.301310003259674,4
186,38,42,0.24864596399583,4
187,33,42,0.245061496484206,4
187,34,42,0.378215493132906,4
187,35,42,0.404549386346904,4
187,36,42,0.338613370950659,4
187,37,42,0.25607672122117,4
188,32,42,0.183070417076521,4
188,33,42,0.295319224574167,4
188,34,42,0.462228917682752,4
188,35,42,0.444162924308308,4
188,36,42,0.308341556787964,4
188,37,42,0.226722439415218,4
189,33,42,0.253456080972217,4
189,34,42,0.33894148745804,4
189,35,42,0.331424109740479,4
189,36,42,0.271834483264785,4
190,31,42,0.225477008409474,4
190,32,42,0.260874158839792,4
190,34,42,0.241030157861805,4
190,35,42,0.229377980576781,4
191,30,42,0.216880556345778,4
191,31,42,0.319829534211349,4
191,32,42,0.353519633512763,4
191,33,42,0.29233683048383,4
192,30,42,0.235649251927619,4
192,31,42,0.344298080396925,4
192,32,42,0.370424528860687,4
192,33,42,0.284021982163206,4
193,30,42,0.20633928251633,4
193,31,42,0.30617436697289,4
193,32,42,0.363322127786948,4
193,33,42,0.281099891272686,4
194,31,42,0.271784288693839,4
194,32,42,0.358644207276054,4
194,33,42,0.290678231058825,4
195,32,42,0.2591540144222,4
168,65,43,0.193317037445884,1
168,66,43,0.247143111527287,2
169,65,43,0.18808802237482,1
169,66,43,0.196984160427199,1
176,49,43,0.220199367347806,1
176,50,43,0.197146748136819,1
176,51,43,0.153539539267061,1
176,52,43,0.178637968496238,3
176,53,43,0.22948157223687,3
176,54,43,0.198891445193932,3
177,48,43,0.197933565465058,1
177,49,43,0.261773696094277,3
177,50,43,0.259680839558745,3
177,51,43,0.238374159197642,3
177,52,43,0.333382286224976,3
177,53,43,0.436064387574019,3
177,54,43,0.336991546020339,3
177,55,43,0.182711724145388,3
178,47,43,0.185275841037433,1
178,48,43,0.208887049136892,1
178,49,43,0.263357156163731,3
178,50,43,0.284255373846599,3
178,51,43,0.293441786405608,3
178,52,43,0.373566395285798,3
178,53,43,0.416993849205525,3
178,54,43,0.31108757453509,3
178,55,43,0.177319511361237,3
179,46,43,0.242035639646892,1
179,47,43,0.228435481649595,1
179,48,43,0.255722679566468,3
179,49,43,0.327211926876143,3
179,50,43,0.339246293118673,3
179,51,43,0.312484286400488,3
179,52,43,0.293376014960433,3
179,53,43,0.25724089105086,3
179,54,43,0.21041349566808,3
180,45,43,0.230803166532555,1
180,46,43,0.258194370040441,1
180,47,43,0.279441291847681,3
180,48,43,0.353630959145372,3
180,49,43,0.40626493395266,3
180,50,43,0.369111844972778,3
180,51,43,0.305315286019727,3
180,52,43,0.240213581078743,3
180,53,43,0.189805399990975,1
181,45,43,0.232255759072639,3
181,46,43,0.257827627242137,3
181,47,43,0.31676485501057,3
181,48,43,0.403655905555406,3
181,49,43,0.392140390832683,3
181,50,43,0.341023560003721,3
181,51,43,0.288972160292635,3
181,52,43,0.224557493541466,3
182,44,43,0.233990020713309,3
182,45,43,0.298740973661141,3
182,46,43,0.342582619934521,3
182,47,43,0.374618346263518,3
182,48,43,0.38705108834125,3
182,49,43,0.341474134706973,3
182,50,43,0.345151758462243,3
182,51,43,0.311454796621833,3
182,52,43,0.232830534838807,3
183,36,43,0.224853933440274,4
183,44,43,0.259951724669481,3
183,45,43,0.33589569657888,3
183,46,43,0.374017884994249,3
183,47,43,0.339548375549544,3
183,48,43,0.282946153906946,3
183,49,43,0.254662493541952,3
183,50,43,0.303752653211481,3
183,51,43,0.300717167033734,3
183,52,43,0.266564358317255,1
184,35,43,0.271360532357269,4
184,36,43,0.319503618073614,4
184,37,43,0.260248731000079,4
184,45,43,0.270060048538687,3
184,46,43,0.266704571971164,3
184,47,43,0.220719700304603,3
184,48,43,0.180657058184018,3
184,50,43,0.208954541663276,1
184,51,43,0.238891747138839,1
185,34,43,0.202646212601857,4
185,35,43,0.286475982536655,4
185,36,43,0.364968156783378,4
185,37,43,0.282437498159363,4
186,34,43,0.271534601203559,4
186,35,43,0.351113627340613,4
186,36,43,0.38138507114406,4
186,37,43,0.284897554995799,4
187,33,43,0.259559165653047,4
187,34,43,0.406910448335087,4
187,35,43,0.439971241917609,4
187,36,43,0.362574982469859,4
187,37,43,0.25499531579036,4
188,33,43,0.277903974183289,4
188,34,43,0.44856126715907,4
188,35,43,0.451472639417253,4
188,36,43,0.326106883811012,4
188,37,43,0.230364813684469,4
189,33,43,0.249463433998253,4
189,34,43,0.332623986558789,4
189,35,43,0.32439447336594,4
189,36,43,0.275151616757281,4
190,31,43,0.249832965383832,4
190,32,43,0.277869879346688,4
190,33,43,0.273930411603486,4
190,34,43,0.265298535767065,4
190,35,43,0.235679316384175,4
191,30,43,0.218179929086617,4
191,31,43,0.326271606532765,4
191,32,43,0.367096197447416,4
191,33,43,0.31705251521663,4
191,34,43,0.239345894719537,4
192,30,43,0.233051312521949,4
192,31,43,0.351827309610404,4
192,32,43,0.398999923383463,4
192,33,43,0.317831489643158,4
192,34,43,0.212018240501342,4
193,30,43,0.212797084212842,4
193,31,43,0.305165094451976,4
193,32,43,0.382839057977781,4
193,33,43,0.321272933127761,4
193,34,43,0.209517269860984,4
194,31,43,0.259600319101187,4
194,32,43,0.371009391469888,4
194,33,43,0.345534993139977,4
194,34,43,0.225223944114291,4
195,32,43,0.27330990736318,4
195,33,43,0.264431001908726,4
176,52,44,0.140492207804062,1
176,53,44,0.186823463403238,3
176,54,44,0.169364695800788,1
177,49,44,0.185666221470059,1
177,50,44,0.193755913154085,1
177,51,44,0.187466036697524,1
177,52,44,0.269663023425446,3
177,53,44,0.364539128273992,3
177,54,44,0.286853509324812,3
177,55,44,0.153691212271801,1
178,48,44,0.16582701337645,1
178,49,44,0.217224336870742,1
178,50,44,0.243796588939215,3
178,51,44,0.2592738583175,3
178,52,44,0.33887998603713,3
178,53,44,0.378602627475658,3
178,54,44,0.275546877217637,3
178,55,44,0.151352807555225,1
179,47,44,0.191260563259953,1
179,48,44,0.224186132145488,3
179,49,44,0.293730884476982,3
179,50,44,0.304973771221923,3
179,51,44,0.286283635372212,3
179,52,44,0.279092152006548,3
179,53,44,0.246785191993406,3
179,54,44,0.197541267878681,1
180,46,44,0.216988004099208,1
180,47,44,0.250916135467527,3
180,48,44,0.322293229282746,3
180,49,44,0.369508782942667,3
180,50,44,0.330537709346358,3
180,51,44,0.278079154107322,3
180,52,44,0.225467074067308,1
180,53,44,0.178475119356561,1
181,45,44,0.21270636798306,1
181,46,44,0.247438244275809,3
181,47,44,0.302046560659453,3
181,48,44,0.380458519450351,3
181,49,44,0.393024198712071,3
181,50,44,0.343129444470427,3
181,51,44,0.288418124644323,3
181,52,44,0.224681106386754,3
182,45,44,0.277767159120122,3
182,46,44,0.31616997091585,3
182,47,44,0.327178267756303,3
182,48,44,0.351229092282458,3
182,49,44,0.358042220998119,3
182,50,44,0.363812592359731,3
182,51,44,0.320184207655355,3
182,52,44,0.237211623305807,3
183,36,44,0.222404900237908,4
183,44,44,0.246233552787283,3
183,45,44,0.308719040004444,3
183,46,44,0.332845701032969,3
183,47,44,0.286788500383969,3
183,48,44,0.249236055206171,3
183,49,44,0.255841455955702,3
183,50,44,0.313181302504145,3
183,51,44,0.315861352733553,3
183,52,44,0.274170752969228,3
184,35,44,0.292870757803591,4
184,36,44,0.33905348845163,4
184,37,44,0.268452471546475,4
184,45,44,0.25794276539641,3
184,46,44,0.250207507512171,3
184,47,44,0.203695832494903,1
184,50,44,0.195919203304142,3
184,51,44,0.235276409094651,3
185,34,44,0.232630083342597,4
185,35,44,0.294262066781144,4
185,36,44,0.351923385156354,4
185,37,44,0.27001499542553,4
186,33,44,0.231036383929244,4
186,34,44,0.307906515387266,4
186,35,44,0.345791477811739,4
186,36,44,0.347343631631867,4
186,37,44,0.257831897266401,4
187,33,44,0.271731675894867,4
187,34,44,0.398701108828303,4
187,35,44,0.43225644093533,4
187,36,44,0.361563988867737,4
187,37,44,0.253145785280388,4
188,33,44,0.26976678937224,4
188,34,44,0.399420956490272,4
188,35,44,0.416777167259943,4
188,36,44,0.3259380653517,4
188,37,44,0.241654038907014,4
189,32,44,0.232225106398455,4
189,33,44,0.26032387035563,4
189,34,44,0.312330391240263,4
189,35,44,0.299366314357502,4
189,36,44,0.266416781050075,4
190,31,44,0.276290297156413,4
190,32,44,0.304383745369096,4
190,33,44,0.292331231523442,4
190,34,44,0.273406462197568,4
190,35,44,0.231763638776161,4
191,30,44,0.214361198458077,4
191,31,44,0.328609009100789,4
191,32,44,0.382402949071017,4
191,33,44,0.333757656215162,4
191,34,44,0.262779766096993,4
192,30,44,0.225035148041456,4
192,31,44,0.338886739646936,4
192,32,44,0.40745640143747,4
192,33,44,0.340843913982881,4
192,34,44,0.244175488235171,4
193,30,44,0.221348003874943,4
193,31,44,0.29722184717155,4
193,32,44,0.383786959792812,4
193,33,44,0.354815803735404,4
193,34,44,0.248328370048242,4
194,31,44,0.25785806205794,4
194,32,44,0.369907812353012,4
194,33,44,0.384948057819333,4
194,34,44,0.264608861490843,4
195,32,44,0.273027083613175,4
195,33,44,0.284373474874852,4
177,52,45,0.215111350220821,1
177,53,45,0.285867329792267,3
177,54,45,0.230956233830933,1
178,49,45,0.173701003477607,1
178,50,45,0.201562432514697,1
178,51,45,0.225023797619814,1
178,52,45,0.294620225959244,3
178,53,45,0.326291366287907,3
178,54,45,0.237706466832046,3
179,47,45,0.15909914353813,1
179,48,45,0.189354651001019,1
179,49,45,0.243883165859761,3
179,50,45,0.263547760461127,3
179,51,45,0.259356579144704,1
179,52,45,0.259014214699215,1
179,53,45,0.232715483827886,3
180,46,45,0.19019135789847,1
180,47,45,0.218365827642987,1
180,48,45,0.270026563705552,3
180,49,45,0.320220502861603,3
180,50,45,0.305366962027662,3
180,51,45,0.265250345493224,3
180,52,45,0.218583250307065,1
181,45,45,0.195811406977303,1
181,46,45,0.245947439375727,1
181,47,45,0.278458075189115,3
181,48,45,0.332648953129233,3
181,49,45,0.384153397589384,3
181,50,45,0.353575644902477,3
181,51,45,0.294659418681957,3
181,52,45,0.22763201994106,3
182,45,45,0.245817530423232,1
182,46,45,0.280287628085565,3
182,47,45,0.279283518808277,3
182,48,45,0.310499030119253,3
182,49,45,0.362979785127297,3
182,50,45,0.360215881207104,3
182,51,45,0.312503588653031,3
182,52,45,0.236917165918265,3
183,45,45,0.277238264328959,3
183,46,45,0.285523178908055,3
183,47,45,0.243862229669362,1
183,48,45,0.222207106613944,3
183,49,45,0.243219874233458,3
183,50,45,0.285688271989055,3
183,51,45,0.296730707237786,3
183,52,45,0.258111148138961,1
184,36,45,0.304717700481085,4
184,50,45,0.177961725189194,1
184,51,45,0.219974733571323,1
185,34,45,0.25571810454047,4
185,35,45,0.28512096876535,4
185,36,45,0.30128867492419,4
185,37,45,0.240988220123493,4
186,33,45,0.258677231355733,4
186,34,45,0.325276298734063,4
186,35,45,0.317151335778178,4
186,36,45,0.29255582172825,4
186,37,45,0.22868464627976,4
187,33,45,0.280008246497977,4
187,34,45,0.369760975804327,4
187,35,45,0.3870007194836,4
187,36,45,0.339189541010464,4
187,37,45,0.256710928753631,4
188,33,45,0.282564487809554,4
188,34,45,0.354784148912668,4
188,35,45,0.366199209135986,4
188,36,45,0.320890722384417,4
188,37,45,0.264430762264507,4
189,32,45,0.261589496833278,4
189,33,45,0.288782754216333,4
189,34,45,0.299131179807063,4
189,35,45,0.275330064557026,4
189,36,45,0.260143352901267,4
190,31,45,0.292098014126754,4
190,32,45,0.330691909508316,4
190,33,45,0.31392234778657,4
190,34,45,0.273007432787223,4
191,30,45,0.210220189926761,4
191,31,45,0.320748308360862,4
191,32,45,0.388518930967993,4
191,33,45,0.353104874727321,4
191,34,45,0.284599045442373,4
192,30,45,0.217015781042765,4
192,31,45,0.313179821067156,4
192,32,45,0.39245946621726,4
192,33,45,0.364052585152063,4
192,34,45,0.28803316888538,4
192,35,45,0.202929188852729,4
193,30,45,0.224586686564499,4
193,31,45,0.289801285718433,4
193,32,45,0.37208417400592,4
193,33,45,0.378395662013861,4
193,34,45,0.290519848015955,4
193,35,45,0.185437056239254,4
194,31,45,0.267600972064965,4
194,32,45,0.360488727043267,4
194,33,45,0.390469112049913,4
194,34,45,0.287007448056713,4
195,32,45,0.277284624592401,4
195,33,45,0.288337517043412,4
163,84,46,0.278610859271598,1
178,52,46,0.232263209829263,1
178,53,46,0.256442854016008,3
179,49,46,0.190929636379458,1
179,50,46,0.221000759401723,3
179,51,46,0.230273029948621,1
180,47,46,0.182224854235889,1
180,48,46,0.215342759392948,1
180,49,46,0.278139849452224,3
180,50,46,0.297804640126133,3
180,51,46,0.268334523019088,3
181,46,46,0.228768173182974,1
181,47,46,0.242638083427427,1
181,48,46,0.279247811819658,3
181,49,46,0.369711304093495,3
181,50,46,0.366896987743976,3
181,51,46,0.305549723423348,3
181,52,46,0.22968339624088,3
182,46,46,0.233574760853592,1
182,47,46,0.235960898341409,1
182,48,46,0.270093881945232,3
182,49,46,0.346413877419959,3
182,50,46,0.335044828886674,3
182,51,46,0.291484023852035,3
182,52,46,0.228666716535017,3
183,47,46,0.209217082798025,1
183,48,46,0.197126073376477,1
183,49,46,0.219807549049867,3
183,50,46,0.239513558529431,3
183,51,46,0.256625833270075,3
185,34,46,0.266224804244879,4
185,36,46,0.240056875545406,4
186,33,46,0.262839742509238,4
186,34,46,0.319501439489805,4
186,35,46,0.282622416353019,4
186,36,46,0.241212744970786,4
187,33,46,0.274723132893846,4
187,34,46,0.330981334367261,4
187,35,46,0.327266391471353,4
187,36,46,0.301726962414762,4
187,37,46,0.252490532628337,4
188,32,46,0.22504135700531,4
188,33,46,0.299983354649553,4
188,34,46,0.326241476718695,4
188,35,46,0.325786021987712,4
188,36,46,0.320384768080756,4
188,37,46,0.286441321268264,4
189,32,46,0.287163412871555,4
189,33,46,0.319427040852749,4
189,34,46,0.29970277484087,4
189,35,46,0.270055321011823,4
189,36,46,0.265837495615424,4
190,31,46,0.295553574834435,4
190,32,46,0.349353288051756,4
190,33,46,0.343461547786178,4
190,34,46,0.28317987237791,4
190,35,46,0.227577424630821,4
191,30,46,0.221429613624405,4
191,31,46,0.310130631597254,4
191,32,46,0.383860290923803,4
191,33,46,0.38918945549254,4
191,34,46,0.319774437826835,4
191,35,46,0.232962208444186,4
192,30,46,0.219248698731338,4
192,31,46,0.29526506498069,4
192,32,46,0.372910423701091,4
192,33,46,0.412625178666233,4
192,34,46,0.35592784005456,4
192,35,46,0.239225811180018,4
193,30,46,0.22424636998779,4
193,31,46,0.293598295866403,4
193,32,46,0.364361312263551,4
193,33,46,0.416993936348877,4
193,34,46,0.347092440918759,4
193,35,46,0.21236572461878,4
194,31,46,0.282002217114446,4
194,32,46,0.345931582536457,4
194,33,46,0.378680838634379,4
194,34,46,0.293323925021574,4
195,31,46,0.252566674132441,4
195,32,46,0.290083499464972,4
195,33,46,0.285420480467327,4
196,32,46,0.259950177874977,4
162,84,47,0.16668146483902,1
162,85,47,0.154991576268273,1
163,82,47,0.191372520681866,1
163,83,47,0.259419801646824,1
163,84,47,0.300947748344014,1
163,85,47,0.266564489032284,1
163,86,47,0.188131746551854,1
164,77,47,0.160832555531115,1
164,78,47,0.175115350978934,1
164,79,47,0.185178480127036,1
164,80,47,0.174864105801232,1
164,81,47,0.170992087012738,1
164,82,47,0.19484897400827,1
164,83,47,0.249511624272094,1
164,84,47,0.27834807849263,1
164,85,47,0.239497850940172,1
164,86,47,0.174780883899751,1
165,79,47,0.172216908615654,1
165,80,47,0.163367479400127,1
165,83,47,0.150567232019757,1
165,84,47,0.155751803981131,1
165,85,47,0.137988165360534,1
179,49,47,0.154018370202307,1
179,50,47,0.194832808916411,3
179,51,47,0.209124514772007,1
180,48,47,0.17123230855637,1
180,49,47,0.251182009835503,3
180,50,47,0.314587665495815,3
180,51,47,0.291527530170688,3
181,46,47,0.193695893170164,1
181,47,47,0.197796358256805,1
181,48,47,0.229974280750976,3
181,49,47,0.339714165777363,3
181,50,47,0.382780454073335,3
181,51,47,0.327384252855387,3
181,52,47,0.240412485780449,3
182,46,47,0.190599167001563,1
182,47,47,0.198935191156804,1
182,48,47,0.230136454529673,1
182,49,47,0.300448264434264,3
182,50,47,0.303344081604055,3
182,51,47,0.273877036300181,3
183,45,47,0.21327578443306,1
183,49,47,0.188320695125556,1
183,50,47,0.196626458751699,3
184,35,47,0.198068245516093,1
185,36,47,0.188647264838434,1
186,34,47,0.293533199782209,4
187,33,47,0.258997984249843,4
187,34,47,0.287657907824384,4
187,35,47,0.268072984032891,4
187,36,47,0.257366813194985,4
188,32,47,0.250808034138954,4
188,33,47,0.309259372360602,4
188,34,47,0.302221718797648,4
188,35,47,0.295216940064362,4
188,36,47,0.315131897516989,4
188,37,47,0.288288607836914,4
189,31,47,0.235054520333766,4
189,32,47,0.304709726864346,4
189,33,47,0.339554214154151,4
189,34,47,0.310886861608823,4
189,35,47,0.286398228880534,4
189,36,47,0.281793552357278,4
190,31,47,0.283811378466449,4
190,32,47,0.3443461181699,4
190,33,47,0.361637821073003,4
190,34,47,0.306480610498835,4
190,35,47,0.251488166218096,4
191,30,47,0.233863205349823,4
191,31,47,0.294026147940533,4
191,32,47,0.365029788919318,4
191,33,47,0.417541806605012,4
191,34,47,0.354307256917011,4
191,35,47,0.25421703851065,4
192,30,47,0.225221155527017,4
192,31,47,0.290437889693083,4
192,32,47,0.364451200631485,4
192,33,47,0.464015094975576,4
192,34,47,0.415282571624033,4
192,35,47,0.268694120062502,4
193,30,47,0.22214007159016,4
193,31,47,0.302691835397661,4
193,32,47,0.364003741303079,4
193,33,47,0.452203728571674,4
193,34,47,0.39302842516466,4
193,35,47,0.235097895937391,4
194,31,47,0.290490742136275,4
194,32,47,0.332012370940421,4
194,33,47,0.361979684444216,4
194,34,47,0.292200756139158,4
194,35,47,0.180914436075141,4
195,31,47,0.280255537546067,4
195,32,47,0.307493107323786,4
195,33,47,0.2835031306434,4
195,34,47,0.22108186807691,4
196,32,47,0.290558517878554,4
162,82,48,0.104751636315108,1
162,83,48,0.132809203252467,1
162,84,48,0.156887554185041,1
162,85,48,0.147519643808955,1
162,86,48,0.116140553532726,1
163,75,48,0.10290342384834,1
163,76,48,0.10989552322386,1
163,77,48,0.120085358806257,1
163,78,48,0.128919341862583,1
163,79,48,0.130131603929844,1
163,80,48,0.127591963426887,1
163,81,48,0.13722005117429,1
163,82,48,0.170036592833134,1
163,83,48,0.232310746527963,1
163,84,48,0.278137344080844,1
163,85,48,0.257500295024926,1
163,86,48,0.193178022013071,1
163,87,48,0.122398513736494,1
164,73,48,0.111884308810865,1
164,74,48,0.122815658071206,1
164,75,48,0.127795911550109,1
164,76,48,0.137703402670939,1
164,77,48,0.151444253610583,1
164,78,48,0.163370300666159,1
164,79,48,0.172010487799809,1
164,80,48,0.167591437509947,1
164,81,48,0.162171905284839,1
164,82,48,0.181157740314862,1
164,83,48,0.23301253373016,1
164,84,48,0.268884615430707,1
164,85,48,0.247772809391264,1
164,86,48,0.190836894066735,1
164,87,48,0.132193775112434,1
164,88,48,0.108934931158145,1
165,72,48,0.107398484927276,1
165,73,48,0.128639949382076,1
165,74,48,0.142772128438302,1
165,75,48,0.136784672093102,1
165,76,48,0.130195240362887,1
165,77,48,0.129830327574981,1
165,78,48,0.137921871055245,1
165,79,48,0.155715497881964,1
165,80,48,0.156860550638736,1
165,81,48,0.14091610574858,1
165,82,48,0.136189352281621,1
165,83,48,0.147968050821317,1
165,84,48,0.156146944619378,1
165,85,48,0.145698587389358,1
165,86,48,0.122385006516882,1
165,87,48,0.101770124551214,1
166,73,48,0.104655288446182,1
166,74,48,0.113679854014066,1
166,75,48,0.10529249153138,1
166,79,48,0.113108542196153,1
166,80,48,0.120383585143788,1
166,81,48,0.116261748149986,1
166,82,48,0.115053821464504,1
166,83,48,0.106259946136091,1
178,51,48,0.103552587358645,1
178,52,48,0.129137352744289,1
178,53,48,0.143365269665974,1
178,54,48,0.126152300781706,1
179,49,48,0.116559952701679,1
179,50,48,0.159223540673589,1
179,51,48,0.177909722393688,1
179,52,48,0.181313487271324,1
179,53,48,0.166585302149718,1
180,33,48,0.120714381309255,1
180,34,48,0.107181062263199,1
180,46,48,0.103867850221558,1
180,47,48,0.105935772865403,1
180,48,48,0.129524835660449,1
180,49,48,0.209057000459785,1
180,50,48,0.295989770884552,3
180,51,48,0.284179428415039,3
181,33,48,0.110251645426099,1
181,34,48,0.100975246462884,1
181,45,48,0.109015429829865,1
181,46,48,0.138489359458574,1
181,47,48,0.145298501365865,1
181,48,48,0.178383782230394,1
181,49,48,0.278736323913123,3
181,50,48,0.354839898872325,3
181,51,48,0.317197434611564,3
181,52,48,0.231691985154703,3
182,45,48,0.128353977578467,1
182,46,48,0.145720754479608,1
182,47,48,0.157725502875263,1
182,48,48,0.183699199935299,1
182,49,48,0.234353844209311,1
182,50,48,0.257523976230923,3
182,51,48,0.246393722268876,3
183,34,48,0.108089858498869,1
183,35,48,0.110397011430714,1
183,36,48,0.10753919965546,1
183,37,48,0.102311938344361,1
183,43,48,0.102936233320494,1
183,44,48,0.141565476224347,1
183,45,48,0.175982808586841,1
183,46,48,0.170174660581991,1
184,34,48,0.162190924321486,1
184,35,48,0.150904302506592,1
184,36,48,0.132177359483438,1
184,37,48,0.125209562210301,1
184,38,48,0.105273439815975,1
184,42,48,0.108954680020368,1
184,43,48,0.134056420696934,1
184,44,48,0.170468192071415,1
184,45,48,0.19588580561436,1
185,33,48,0.220542603226818,1
185,34,48,0.238612256622061,1
185,35,48,0.190842689099665,1
185,36,48,0.141785142829748,1
185,37,48,0.126907724717266,1
185,38,48,0.108000460312292,1
185,40,48,0.101065821084718,1
185,41,48,0.116111425867207,1
185,42,48,0.132526728075871,1
186,34,48,0.247638826487048,1
186,35,48,0.200314975426011,1
186,36,48,0.15422163207163,1
186,37,48,0.137394218056852,1
186,40,48,0.121656956486874,1
187,36,48,0.210329859835676,1
188,32,48,0.269258286125523,4
188,33,48,0.293641148609914,4
188,34,48,0.267662124912466,4
188,35,48,0.264814105871431,4
188,36,48,0.292777797632487,4
189,31,48,0.240932971238112,4
189,32,48,0.313826054382239,4
189,33,48,0.334664644226272,4
189,34,48,0.313805771766983,4
189,35,48,0.305990559856976,4
189,36,48,0.294161590495901,4
190,31,48,0.267942051146006,4
190,32,48,0.324806879280868,4
190,33,48,0.358833134063917,4
190,34,48,0.333783494219129,4
190,35,48,0.292870452801858,4
190,36,48,0.248103714485921,4
191,30,48,0.241091201780116,4
191,31,48,0.283663931914297,4
191,32,48,0.346422722470221,4
191,33,48,0.422187244431323,4
191,34,48,0.36904531102327,4
191,35,48,0.273419686201285,4
192,30,48,0.238550842344502,4
192,31,48,0.299757348365271,4
192,32,48,0.374438613099326,4
192,33,48,0.494267563314052,4
192,34,48,0.434847430658651,4
192,35,48,0.280695197544439,4
193,30,48,0.228725908657091,4
193,31,48,0.305930060584617,4
193,32,48,0.36447239825194,4
193,33,48,0.46770178163949,4
193,34,48,0.41616537735487,4
193,35,48,0.254588574193333,4
194,31,48,0.285123517708405,4
194,32,48,0.315489054546537,4
194,33,48,0.344540556774799,4
194,34,48,0.292639348631463,4
194,35,48,0.189223108110668,4
195,31,48,0.291920895263132,4
195,32,48,0.31081252832928,4
195,33,48,0.274846418951563,4
195,34,48,0.216100841200754,4
196,32,48,0.292770673663433,4
162,83,49,0.119771915060825,1
162,84,49,0.138721945065958,1
162,85,49,0.133614789080215,1
162,86,49,0.111346307539383,1
163,77,49,0.109007695857345,1
163,78,49,0.118400137087114,1
163,79,49,0.12170556069164,1
163,80,49,0.121444784209775,1
163,81,49,0.12601979931448,1
163,82,49,0.145887688463926,1
163,83,49,0.19242033235035,1
163,84,49,0.230875451943318,1
163,85,49,0.228467615760768,1
163,86,49,0.188039047810807,1
163,87,49,0.123600688960722,1
164,74,49,0.110383820105754,1
164,75,49,0.115812415239506,1
164,76,49,0.126826398183699,1
164,77,49,0.141452287902582,1
164,78,49,0.15217060434522,1
164,79,49,0.158546828971027,1
164,80,49,0.158912689442889,1
164,81,49,0.15433954792026,1
164,82,49,0.164555624544629,1
164,83,49,0.203725395877183,1
164,84,49,0.239528677901061,1
164,85,49,0.23967320515091,1
164,86,49,0.197538936794006,1
164,87,49,0.139042708852986,1
164,88,49,0.10952974989535,1
164,89,49,0.114021216311003,1
165,73,49,0.111140572977437,1
165,74,49,0.124167708968532,1
165,75,49,0.123352657194137,1
165,76,49,0.123626211070037,1
165,77,49,0.124447341093258,1
165,78,49,0.128296136178354,1
165,79,49,0.140863634557555,1
165,80,49,0.148607279989456,1
165,81,49,0.140562358202692,1
165,82,49,0.134931034952651,1
165,83,49,0.143072337287098,1
165,84,49,0.153723128524594,1
165,85,49,0.151095124662369,1
165,86,49,0.129742007787389,1
165,87,49,0.110002034186252,1
165,88,49,0.103010403206251,1
165,89,49,0.108709676485276,1
166,74,49,0.0998740159194181,1
166,79,49,0.101323449512979,1
166,80,49,0.112115151551202,1
166,81,49,0.11050962242777,1
166,82,49,0.104139105691541,1
178,52,49,0.10576093062186,1
178,53,49,0.115802382861068,1
178,54,49,0.108841132232274,1
179,32,49,0.103590091678907,1
179,33,49,0.106086726937486,1
179,50,49,0.133974288087357,1
179,51,49,0.155819830260548,1
179,52,49,0.165771884313178,1
179,53,49,0.153688009753603,1
179,54,49,0.126020278602917,1
180,32,49,0.132892392475191,1
180,33,49,0.11863577271183,1
180,48,49,0.101535512860888,1
180,49,49,0.167198431883832,1
180,50,49,0.251914013995123,1
180,51,49,0.257782813773198,1
180,52,49,0.215251215301319,1
180,53,49,0.167019221579754,1
181,32,49,0.118908313546259,1
181,33,49,0.104945867954545,1
181,47,49,0.102716741001799,1
181,48,49,0.134091343395382,1
181,49,49,0.212133465798967,1
181,50,49,0.299641011989903,3
181,51,49,0.289233764636347,3
182,46,49,0.107926519177835,1
182,47,49,0.118761019494974,1
182,48,49,0.140375904107451,1
182,49,49,0.17614506950889,1
183,44,49,0.110542007076081,1
183,45,49,0.135374104434683,1
183,46,49,0.133146001416326,1
183,47,49,0.125377966738689,1
184,33,49,0.133665942228036,1
184,34,49,0.133349263285649,1
184,35,49,0.11633902251767,1
184,36,49,0.101197505583016,1
184,43,49,0.113608766824398,1
184,44,49,0.142170980915133,1
184,45,49,0.163259236463607,1
184,46,49,0.150511612775129,1
185,32,49,0.147416978046984,1
185,33,49,0.198838287749007,1
185,34,49,0.198983969648274,1
185,35,49,0.152924154698704,1
185,36,49,0.112538014668411,1
185,41,49,0.102356773599138,1
185,42,49,0.117471842526358,1
185,43,49,0.134004679331484,1
185,44,49,0.141102821273878,1
185,45,49,0.139614794068151,1
186,33,49,0.194446872794755,1
186,34,49,0.202097971986476,1
186,35,49,0.162693730571544,1
186,36,49,0.125753903160665,1
186,37,49,0.111768517081449,1
186,40,49,0.106997810686156,1
186,41,49,0.118649835470313,1
186,42,49,0.125273318465453,1
187,33,49,0.189368485008202,1
187,34,49,0.185044366507791,1
187,35,49,0.171109850360501,1
187,36,49,0.168370041577229,1
187,37,49,0.153841599912094,1
187,40,49,0.1189958599366,1
188,33,49,0.248352181969268,4
188,34,49,0.224046354208341,4
188,35,49,0.23035023895879,4
188,36,49,0.246932224614634,1
189,32,49,0.302987055289536,4
189,33,49,0.303562375701656,4
189,34,49,0.300866247523742,4
189,35,49,0.313344369502203,4
189,36,49,0.287271644915156,4
190,31,49,0.250804744477404,4
190,32,49,0.300227138177712,4
190,33,49,0.33620324725511,4
190,34,49,0.355392758085381,4
190,35,49,0.340624334520833,4
190,36,49,0.267762731912738,4
191,31,49,0.275250742320562,4
191,32,49,0.330601999354544,4
191,33,49,0.398589086048876,4
191,34,49,0.369829470479263,4
191,35,49,0.29462846100604,4
191,36,49,0.217416684035185,4
192,30,49,0.244283044917791,4
192,31,49,0.305098211929058,4
192,32,49,0.382341077290859,4
192,33,49,0.479105317154462,4
192,34,49,0.418663602979629,4
192,35,49,0.282047967374422,4
192,36,49,0.187080057004191,4
193,30,49,0.238812294187347,4
193,31,49,0.296585722485337,4
193,32,49,0.353778732485095,4
193,33,49,0.44395857314708,4
193,34,49,0.41414116799514,4
193,35,49,0.271859123047658,4
194,31,49,0.272795718012723,4
194,32,49,0.295521440723261,4
194,33,49,0.319804458711714,4
194,34,49,0.295281578645957,4
194,35,49,0.202836620826711,4
195,32,49,0.287891277721939,4
195,33,49,0.249767128581143,4
195,34,49,0.203768531836589,4
162,83,50,0.103157817079646,1
162,84,50,0.115563468467721,1
162,85,50,0.114732240708548,1
162,86,50,0.100415459353318,1
163,78,50,0.104233852301368,1
163,79,50,0.109412247977644,1
163,80,50,0.111827905276066,1
163,81,50,0.113305780281246,1
163,82,50,0.123727733075508,1
163,83,50,0.152493219928485,1
163,84,50,0.182311093475944,1
163,85,50,0.19215552548844,1
163,86,50,0.168397404589862,1
163,87,50,0.115293574612618,1
164,75,50,0.102491693294392,1
164,76,50,0.112400415315073,1
164,77,50,0.12357171379607,1
164,78,50,0.132391459807208,1
164,79,50,0.139194403643565,1
164,80,50,0.145111764054729,1
164,81,50,0.145663065580362,1
164,82,50,0.149746200032807,1
164,83,50,0.170769631820063,1
164,84,50,0.202298989914476,1
164,85,50,0.216208245382508,1
164,86,50,0.187460568452165,1
164,87,50,0.135498261925923,1
164,88,50,0.105233539053525,1
164,89,50,0.101629257322163,1
165,74,50,0.101592591756668,1
165,75,50,0.105511624383747,1
165,76,50,0.111491728008593,1
165,77,50,0.113731682522867,1
165,78,50,0.115718692564069,1
165,79,50,0.124543710748023,1
165,80,50,0.13706929317475,1
165,81,50,0.141337727073018,1
165,82,50,0.137510020679187,1
165,83,50,0.135385552892596,1
165,84,50,0.144279653969114,1
165,85,50,0.147309443150202,1
165,86,50,0.129864259017797,1
165,87,50,0.11238202806773,1
165,88,50,0.106585404771227,1
165,89,50,0.108299667012537,1
166,81,50,0.10088945383251,1
179,32,50,0.101281206772935,1
179,33,50,0.118447085568185,1
179,50,50,0.100924049743387,1
179,51,50,0.124659132118191,1
179,52,50,0.141806079020146,1
179,53,50,0.137420110525415,1
179,54,50,0.113715680824795,1
180,32,50,0.114142378249506,1
180,33,50,0.110500210945717,1
180,49,50,0.119997649022132,1
180,50,50,0.183841406993392,1
180,51,50,0.209855996071512,1
180,52,50,0.201435878581267,1
180,53,50,0.170269973623608,1
180,54,50,0.128650722479008,1
181,32,50,0.102479863584312,1
181,49,50,0.149927207668528,1
181,50,50,0.224959681898333,1
181,51,50,0.241106059721689,1
181,52,50,0.212710049789696,1
182,48,50,0.102015618267663,1
182,49,50,0.131182258650198,1
182,50,50,0.172149328945918,1
184,33,50,0.105315943986077,1
184,34,50,0.099851925079601,1
184,44,50,0.106561233383873,1
184,45,50,0.123116640317254,1
184,46,50,0.116814781649747,1
185,32,50,0.130229901631278,1
185,33,50,0.157162077530736,1
185,34,50,0.145338576415021,1
185,35,50,0.110770845519315,1
185,43,50,0.108769315217031,1
185,44,50,0.118895906511471,1
185,45,50,0.123334378875984,1
186,31,50,0.107822154120494,1
186,32,50,0.143142509471566,1
186,33,50,0.160943663305343,1
186,34,50,0.149052157696049,1
186,35,50,0.119882434617425,1
186,41,50,0.104115500735977,1
186,42,50,0.112904550501254,1
186,43,50,0.111724400759329,1
187,32,50,0.150781691809855,1
187,33,50,0.146914422334064,1
187,34,50,0.135492695644292,1
187,35,50,0.128359260644202,1
187,36,50,0.123465965338011,1
187,37,50,0.112061438567406,1
187,40,50,0.10097869951822,1
187,41,50,0.103708290743431,1
188,33,50,0.194882328126376,1
188,34,50,0.176928793248121,1
188,35,50,0.185605569696833,1
188,36,50,0.187649800241762,1
188,37,50,0.15350350549087,1
189,32,50,0.280749357137916,4
189,33,50,0.270201896130452,4
189,34,50,0.277323207311648,4
189,35,50,0.2998573017904,4
189,36,50,0.26094263172889,1
190,31,50,0.241061333396103,4
190,32,50,0.291647787996912,4
190,33,50,0.319594900735185,4
190,34,50,0.372608907702009,4
190,35,50,0.382923369171166,4
190,36,50,0.281796362730391,4
191,31,50,0.272362070905663,4
191,32,50,0.32344075473214,4
191,33,50,0.368471297761435,4
191,34,50,0.379711003774015,4
191,35,50,0.330002583805503,4
191,36,50,0.224398239065073,4
192,30,50,0.24293583047652,4
192,31,50,0.29967889756233,4
192,32,50,0.371600571972133,4
192,33,50,0.425320527236228,4
192,34,50,0.391586856258647,4
192,35,50,0.282943888179785,4
192,36,50,0.183043925497411,4
193,31,50,0.278976643493027,4
193,32,50,0.327997720269992,4
193,33,50,0.388596357836543,4
193,34,50,0.391873993604593,4
193,35,50,0.277205106283395,4
194,32,50,0.267198282633821,4
194,33,50,0.282894978973287,4
194,34,50,0.2867294825486,4
195,33,50,0.211581390876083,4
162,85,51,0.100261433478064,1
163,80,51,0.103716645612336,1
163,81,51,0.104912078119677,1
163,82,51,0.109960815380598,1
163,83,51,0.124791927694232,1
163,84,51,0.14693505352273,1
163,85,51,0.163312546409399,1
163,86,51,0.14797188512882,1
163,87,51,0.10598071704937,1
164,77,51,0.107906704958098,1
164,78,51,0.116502764876709,1
164,79,51,0.127932791970791,1
164,80,51,0.1374857730414,1
164,81,51,0.144169428521328,1
164,82,51,0.143327819810308,1
164,83,51,0.145791994170142,1
164,84,51,0.168036293430702,1
164,85,51,0.188584281980533,1
164,86,51,0.17032646430176,1
164,87,51,0.128642574575565,1
164,88,51,0.101125176600578,1
165,77,51,0.104959701961729,1
165,78,51,0.109097311902303,1
165,79,51,0.119716023493221,1
165,80,51,0.135591124060755,1
165,81,51,0.150777029640505,1
165,82,51,0.144016742475117,1
165,83,51,0.127226985281467,1
165,84,51,0.131239239509707,1
165,85,51,0.138249094343265,1
165,86,51,0.125348468713924,1
165,87,51,0.111819550407161,1
165,88,51,0.107800912928362,1
179,33,51,0.121939834701475,1
179,51,51,0.102411826411976,1
179,52,51,0.128502992710961,1
179,53,51,0.131729954619628,1
179,54,51,0.108516860925314,1
180,50,51,0.130110809347393,1
180,51,51,0.168865593143205,1
180,52,51,0.196625325888118,1
180,53,51,0.183849598468512,1
180,54,51,0.13260405690815,1
181,49,51,0.111039976870085,1
181,50,51,0.1642457863554,1
181,51,51,0.196920654709184,1
181,52,51,0.206133798491522,1
181,53,51,0.18610429110225,1
182,49,51,0.106170079553995,1
182,50,51,0.14003004303495,1
182,51,51,0.157372866407117,1
185,32,51,0.107987432381118,1
185,33,51,0.11966316015711,1
185,34,51,0.105125513975385,1
185,44,51,0.104159497235987,1
185,45,51,0.109432487021224,1
186,31,51,0.106357317939407,1
186,32,51,0.134488695296195,1
186,33,51,0.134946927721533,1
186,34,51,0.114312612788294,1
186,43,51,0.102154557450043,1
187,31,51,0.115790030290874,1
187,32,51,0.132645678751809,1
187,33,51,0.122941471286141,1
187,34,51,0.11136396496115,1
187,35,51,0.104757224382577,1
188,32,51,0.172957801397212,1
188,33,51,0.161882709177194,1
188,34,51,0.15102041013066,1
188,35,51,0.151580088311036,1
188,36,51,0.142810765622143,1
188,37,51,0.116711157310901,1
189,32,51,0.254458469168296,4
189,33,51,0.251341612885306,4
189,34,51,0.251272813208637,4
189,35,51,0.259851117669209,4
189,36,51,0.218757057723298,1
190,31,51,0.242513817006996,4
190,32,51,0.306775699675682,4
190,33,51,0.324902628039247,4
190,34,51,0.369459459805245,4
190,35,51,0.373282743673945,4
190,36,51,0.266599738518304,4
191,31,51,0.283490887002396,4
191,32,51,0.33534606166986,4
191,33,51,0.356752760813608,4
191,34,51,0.393140622230792,4
191,35,51,0.349852009457173,4
191,36,51,0.223122830746126,4
192,30,51,0.230009268806939,4
192,31,51,0.290925173533506,4
192,32,51,0.348128640735544,4
192,33,51,0.368924661051961,4
192,34,51,0.372060427442408,4
192,35,51,0.286870306205974,4
192,36,51,0.177009291919841,4
193,31,51,0.269047791357956,4
193,32,51,0.303361945991284,4
193,33,51,0.330382114890763,4
193,34,51,0.350017560040773,4
193,35,51,0.26093786063035,4
194,32,51,0.25243046907274,4
194,33,51,0.249359014476317,4
194,34,51,0.258922844894291,4
163,82,52,0.100718598397337,1
163,83,52,0.107201704344783,1
163,84,52,0.123160103064232,1
163,85,52,0.138686608436586,1
163,86,52,0.126242407008021,1
164,78,52,0.10007705993036,1
164,79,52,0.114565742440991,1
164,80,52,0.129008315225318,1
164,81,52,0.140769802952927,1
164,82,52,0.138181743424829,1
164,83,52,0.12837031695703,1
164,84,52,0.139482891711472,1
164,85,52,0.158326574147998,1
164,86,52,0.147348897302972,1
164,87,52,0.11576006387059,1
165,78,52,0.100954571702542,1
165,79,52,0.114394560218247,1
165,80,52,0.135707111862714,1
165,81,52,0.157340144078315,1
165,82,52,0.146792770214204,1
165,83,52,0.120346930471212,1
165,84,52,0.11825804985113,1
165,85,52,0.125366550959533,1
165,86,52,0.117649658536799,1
165,87,52,0.106355139355599,1
179,33,52,0.113849827122796,1
179,52,52,0.111546040102936,1
179,53,52,0.121885054211613,1
179,54,52,0.101144380816849,1
180,51,52,0.131949653903785,1
180,52,52,0.180992189731263,1
180,53,52,0.185932901914044,1
180,54,52,0.131167771067872,1
181,50,52,0.115741306264,1
181,51,52,0.152554634206044,1
181,52,52,0.184293909743314,1
181,53,52,0.185152032119602,1
182,50,52,0.107573436100009,1
182,51,52,0.125059305285036,1
186,32,52,0.11240567659497,1
186,33,52,0.101818957507279,1
187,31,52,0.10215720442937,1
187,32,52,0.109218168839074,1
188,31,52,0.109830873749346,1
188,32,52,0.128508243097939,1
188,33,52,0.126916711375476,1
188,34,52,0.118118239235227,1
188,35,52,0.112262892212168,1
188,36,52,0.101818761434736,1
189,31,52,0.153357845377441,1
189,32,52,0.212212090888612,4
189,33,52,0.21986902868494,4
189,34,52,0.206618489817213,4
189,35,52,0.196486724386228,1
189,36,52,0.163749308891305,1
189,37,52,0.114248159386323,1
190,31,52,0.242044942199754,4
190,32,52,0.317028921153985,4
190,33,52,0.318712857508682,4
190,34,52,0.325875801426456,4
190,35,52,0.30728964938192,4
190,36,52,0.220668743229324,1
191,30,52,0.193062992787988,4
191,31,52,0.309042995416752,4
191,32,52,0.36294939388317,4
191,33,52,0.349345183719989,4
191,34,52,0.378002209778065,4
191,35,52,0.332011412363545,4
191,36,52,0.207291977215739,4
192,31,52,0.284055009493741,4
192,32,52,0.318801133724598,4
192,33,52,0.317472764033269,4
192,34,52,0.346554613933981,4
192,35,52,0.28290552331892,4
193,32,52,0.267564241141955,4
193,33,52,0.270633386439542,4
193,34,52,0.292288792710855,4
163,83,53,0.0997875806068201,1
163,84,53,0.110006336889274,1
163,85,53,0.120878548492136,1
163,86,53,0.107594633720465,1
164,79,53,0.111337865527125,1
164,80,53,0.129776876021242,1
164,81,53,0.144466979497878,1
164,82,53,0.142736759130172,1
164,83,53,0.126245663990815,1
164,84,53,0.123368332104638,1
164,85,53,0.133129879896143,1
164,86,53,0.125026877065048,1
164,87,53,0.103380261379402,1
165,78,53,0.1018696531525,1
165,79,53,0.121336007520222,1
165,80,53,0.146770167407191,1
165,81,53,0.166984843527258,1
165,82,53,0.155286948661015,1
165,83,53,0.126610032132768,1
165,84,53,0.115365206448238,1
165,85,53,0.117537973437862,1
165,86,53,0.111989686909677,1
179,53,53,0.114157181726484,1
180,51,53,0.111091903415158,1
180,52,53,0.160980143691215,1
180,53,53,0.176460158085098,1
180,54,53,0.128580277971564,1
181,51,53,0.129282794999337,1
181,52,53,0.164359268785979,1
181,53,53,0.172741979992234,1
182,51,53,0.109565042953046,1
188,32,53,0.109170882677513,1
188,33,53,0.112954919358904,1
188,34,53,0.102802152380007,1
189,31,53,0.134114371026237,1
189,32,53,0.184416738298431,4
189,33,53,0.199021593790645,4
189,34,53,0.171906264350416,1
189,35,53,0.144527631271104,1
189,36,53,0.12005656882123,1
190,31,53,0.236961238668709,4
190,32,53,0.313697866510953,4
190,33,53,0.306277108985294,4
190,34,53,0.270567375350148,4
190,35,53,0.225364484555771,1
190,36,53,0.164947638915111,1
191,30,53,0.192816507815906,4
191,31,53,0.326314219632057,4
191,32,53,0.376728173966917,4
191,33,53,0.340003459921279,4
191,34,53,0.338616529897181,4
191,35,53,0.285516272797382,4
192,31,53,0.282107399140715,4
192,32,53,0.297249253755859,4
192,33,53,0.285942861292904,4
192,34,53,0.320404549621736,4
192,35,53,0.273775971797309,4
193,32,53,0.240905281437908,4
193,33,53,0.227541543355497,4
193,34,53,0.240495424466035,4
180,52,54,0.131703724470575,1
180,53,54,0.151553956198254,1
181,51,54,0.107464909947594,1
181,52,54,0.140409497869776,1
189,31,54,0.11566467457854,1
189,32,54,0.155481104050019,1
189,33,54,0.168533391791182,1
189,34,54,0.133635616341424,1
189,35,54,0.0999968662603733,1
190,30,54,0.125826341072294,1
190,31,54,0.209694737298015,1
190,32,54,0.276859365033003,4
190,33,54,0.270126495344843,4
190,34,54,0.211498953264773,1
190,35,54,0.157504659834606,1
190,36,54,0.113840219568201,1
191,31,54,0.299948845882028,4
191,32,54,0.339405155449981,4
191,33,54,0.303858510598731,4
191,34,54,0.276978860354893,4
191,35,54,0.228077867117447,1
192,32,54,0.263957268859591,4
192,33,54,0.2498672127213,4
192,34,54,0.272870051292266,4
180,52,55,0.110464721815479,1
180,53,55,0.129189203038929,1
180,54,55,0.109353153891842,1
181,52,55,0.129702030774505,1
181,53,55,0.133991008718087,1
182,52,55,0.109384972108363,1
189,31,55,0.106903521578929,1
189,32,55,0.135534698740118,1
189,33,55,0.14061150705341,1
189,34,55,0.106377393589202,1
190,30,55,0.118682928158362,1
190,31,55,0.178816917370259,1
190,32,55,0.22914149530438,1
190,33,55,0.224556251748695,1
190,34,55,0.165066916378621,1
190,35,55,0.117180707479123,1
191,30,55,0.162915532189076,1
191,31,55,0.249744057378612,1
191,32,55,0.275433133357001,4
191,33,55,0.25624283823656,4
191,34,55,0.218901388900604,1
191,35,55,0.177339674154384,1
191,36,55,0.119158523896653,1
192,31,55,0.25377986209782,1
192,32,55,0.239403126116183,1
192,33,55,0.224022825503211,1
192,34,55,0.224903387292725,1
192,35,55,0.203186087455415,1
180,53,56,0.103508089784359,1
181,52,56,0.112202371153971,1
181,53,56,0.116036547941713,1
189,32,56,0.108396810064553,1
189,33,56,0.105718644310139,1
190,30,56,0.104560356656731,1
190,31,56,0.139537530593386,1
190,32,56,0.170901534176742,1
190,33,56,0.166548756406332,1
190,34,56,0.119888218757436,1
191,29,56,0.107237531155512,1
191,30,56,0.141181675114823,1
191,31,56,0.189142173722186,1
191,32,56,0.205001610272139,1
191,33,56,0.197218859260877,1
191,34,56,0.160454146416517,1
191,35,56,0.128113625319806,1
192,30,56,0.184256448994729,1
192,31,56,0.220304941519161,1
192,32,56,0.200104153870873,1
192,33,56,0.184769636196634,1
192,34,56,0.169326178439056,1
192,35,56,0.151185666605445,1
181,53,57,0.105976632204729,1
190,31,57,0.107225559837485,1
190,32,57,0.123965198710623,1
190,33,57,0.119320991784164,1
191,29,57,0.102352285716493,1
191,30,57,0.119417100008871,1
191,31,57,0.141545258966605,1
191,32,57,0.153958263075034,1
191,33,57,0.150109881920861,1
191,34,57,0.117320833989679,1
192,29,57,0.136148373120185,1
192,30,57,0.162201425095442,1
192,31,57,0.179444207899129,1
192,32,57,0.163932636718781,1
192,33,57,0.150872876435156,1
192,34,57,0.12882704615954,1
192,35,57,0.111457502456963,1
193,30,57,0.176210241843518,1
193,31,57,0.177335382344281,1
193,32,57,0.146053892622668,1
193,33,57,0.125796821261691,1
193,34,57,0.110191124367902,1
191,31,58,0.104067550106354,1
191,32,58,0.109961153061088,1
191,33,58,0.102767752541672,1
192,30,58,0.133497101982886,1
192,31,58,0.136348051219143,1
192,32,58,0.125927372896409,1
192,33,58,0.112264602400458,1
193,31,58,0.141602196254438,1
193,32,58,0.116658882192418,1
192,29,59,0.101532517308152,1
192,30,59,0.105070570091738,1
192,31,59,0.103723105113328,1
193,30,59,0.116894735675515,1
193,31,59,0.109774916824227,1
