x,y,z,signal,mito.p
239,94,18,0.289552948950114,2
239,95,18,0.280654414455546,2
239,96,18,0.239226029038399,2
240,96,18,0.265501906565579,2
240,97,18,0.298747204410833,2
241,97,18,0.289585562349726,2
241,98,18,0.248242424917001,2
238,94,19,0.288024737766041,2
238,95,19,0.300449005152759,2
238,96,19,0.229225545067708,2
239,93,19,0.203685549579327,2
239,94,19,0.343804369734267,2
239,95,19,0.363769826759572,2
239,96,19,0.302314983970485,2
239,97,19,0.24287875158074,2
240,94,19,0.240786679335379,2
240,95,19,0.263339553206559,2
240,96,19,0.311659692429012,2
240,97,19,0.374001632759038,2
240,98,19,0.300390226961609,2
241,96,19,0.233744254673885,2
241,97,19,0.359314927873143,2
241,98,19,0.320110331878413,2
241,99,19,0.220223614985594,2
242,97,19,0.307180066616358,2
242,98,19,0.269019949056885,2
237,94,20,0.251990264428416,2
237,95,20,0.249119152399013,2
237,96,20,0.200361662477025,2
238,93,20,0.225236231326971,2
238,94,20,0.319618015509392,2
238,95,20,0.381992591024868,2
238,96,20,0.290958571223289,2
238,97,20,0.198361199680807,2
239,93,20,0.230938543730409,2
239,94,20,0.354883928051093,2
239,95,20,0.439373177090529,2
239,96,20,0.357663365273839,2
239,97,20,0.280034433075354,2
239,98,20,0.208379373752022,2
240,94,20,0.232612981459701,2
240,95,20,0.290366170714111,2
240,96,20,0.324603072765593,2
240,97,20,0.391718268433969,2
240,98,20,0.339300975572263,2
240,99,20,0.219309372290402,2
241,95,20,0.157607096845277,2
241,96,20,0.235215822678939,2
241,97,20,0.377807705815652,2
241,98,20,0.386958934246155,2
241,99,20,0.272826632116964,2
242,97,20,0.30996614851972,2
242,98,20,0.305724620131485,2
237,94,21,0.26032217106026,2
237,95,21,0.281440207849395,2
237,96,21,0.252875314100576,2
238,93,21,0.284102459049088,2
238,94,21,0.334855706026268,2
238,95,21,0.433163167516383,2
238,96,21,0.359629885734323,2
238,97,21,0.259403113694852,2
239,93,21,0.284405848630245,2
239,94,21,0.354077133109331,2
239,95,21,0.484570773926251,2
239,96,21,0.419496301282873,2
239,97,21,0.335585074099479,2
239,98,21,0.25370152022407,2
240,94,21,0.239893721403995,2
240,95,21,0.323300846079965,2
240,96,21,0.343978046435472,2
240,97,21,0.384766146071332,2
240,98,21,0.369609346371263,2
240,99,21,0.239549788378164,2
241,95,21,0.191204987587,2
241,96,21,0.249394024318117,2
241,97,21,0.358104528495039,2
241,98,21,0.421776189238355,2
241,99,21,0.30808759927342,2
241,100,21,0.195308764121031,2
242,97,21,0.281187012839184,2
242,98,21,0.32069114232173,2
242,99,21,0.23156353585336,2
243,98,21,0.17203753491779,2
236,95,22,0.197310250851639,2
236,96,22,0.199296138922179,2
237,93,22,0.294239060936128,2
237,94,22,0.266241993271128,2
237,95,22,0.292419682026063,2
237,96,22,0.298614833658636,2
237,97,22,0.258211362994147,2
238,92,22,0.257154619132048,2
238,93,22,0.335264778707969,2
238,94,22,0.349502804258526,2
238,95,22,0.431552496935163,2
238,96,22,0.401441462257528,2
238,97,22,0.315748676378983,2
238,98,22,0.20306789928381,2
239,92,22,0.271478328383789,2
239,93,22,0.328354811942025,2
239,94,22,0.356165806763951,2
239,95,22,0.481372133607094,2
239,96,22,0.456200253424817,2
239,97,22,0.385658537570926,2
239,98,22,0.30525759712048,2
239,99,22,0.191414501991854,2
240,93,22,0.262800026926411,2
240,94,22,0.257863617446651,2
240,95,22,0.345756402612424,2
240,96,22,0.362855366206,2
240,97,22,0.377994410448031,2
240,98,22,0.400007039106406,2
240,99,22,0.270178018851912,2
240,105,22,0.275730880406094,3
241,95,22,0.230709944931394,2
241,96,22,0.274844196796078,2
241,97,22,0.341420105828524,2
241,98,22,0.446082343786853,2
241,99,22,0.336782423760572,2
241,100,22,0.211264036572714,2
242,97,22,0.252358009375273,2
242,98,22,0.331442017699384,2
242,99,22,0.25341318465703,2
243,98,22,0.170574234638288,2
236,92,23,0.280075847953551,2
236,93,23,0.271103742683774,2
236,94,23,0.214844560847645,2
236,95,23,0.211245039321905,2
236,96,23,0.228023402522237,2
237,92,23,0.274367174085393,2
237,93,23,0.304506682853404,2
237,94,23,0.280192118971405,2
237,95,23,0.293531260842619,2
237,96,23,0.329292692271538,2
237,97,23,0.300047208940977,2
238,91,23,0.240411505417736,2
238,92,23,0.292226986288211,2
238,93,23,0.367464443468548,2
238,94,23,0.367899375940056,2
238,95,23,0.394460539016944,2
238,96,23,0.411399333128926,2
238,97,23,0.363287248660175,2
238,98,23,0.26594259049834,2
239,92,23,0.274552527995811,2
239,93,23,0.353744724791846,2
239,94,23,0.365856169329517,2
239,95,23,0.437442908264617,2
239,96,23,0.451320617839104,2
239,97,23,0.413562753994012,2
239,98,23,0.35396833463394,2
239,99,23,0.238043123387956,2
239,105,23,0.264880116960826,3
240,93,23,0.295635598514821,2
240,94,23,0.282171035573758,2
240,95,23,0.353861976172414,2
240,96,23,0.373018437886311,2
240,97,23,0.372099946952693,2
240,98,23,0.406225588729081,2
240,99,23,0.303628822507812,2
240,100,23,0.20059230914482,2
240,104,23,0.285215497516796,3
240,105,23,0.348080341532512,3
240,106,23,0.238610426611662,3
241,94,23,0.181906955286568,2
241,95,23,0.259003735711097,2
241,96,23,0.29677955108677,2
241,97,23,0.328591427929455,2
241,98,23,0.427132411817992,2
241,99,23,0.347416418116905,2
241,100,23,0.220050352215312,2
241,105,23,0.290996609296583,3
242,96,23,0.187006420871467,2
242,97,23,0.230321525224196,2
242,98,23,0.319143890315172,2
242,99,23,0.27689862311323,2
243,98,23,0.171741781272882,2
235,92,24,0.284853177243622,2
236,91,24,0.2589422996477,2
236,92,24,0.29583356642549,2
236,93,24,0.282626555662255,2
236,94,24,0.228292675480955,2
236,95,24,0.217817129525006,2
236,96,24,0.241463499967132,2
236,97,24,0.224549302066347,2
237,91,24,0.286648308515899,2
237,92,24,0.316032589420893,2
237,93,24,0.317359216245175,2
237,94,24,0.302040220980571,2
237,95,24,0.296014388881586,2
237,96,24,0.333072622322451,2
237,97,24,0.310041788949548,2
237,98,24,0.2591073927287,2
238,89,24,0.253008469142945,2
238,90,24,0.242200144510264,2
238,91,24,0.28840019489958,2
238,92,24,0.337634467888034,2
238,93,24,0.385991338033496,2
238,94,24,0.38972691211807,2
238,95,24,0.374100627607292,2
238,96,24,0.409232121528014,2
238,97,24,0.395853569075706,2
238,98,24,0.352152005741207,2
238,99,24,0.261701454255191,2
239,92,24,0.272967085415092,2
239,93,24,0.345041456764024,2
239,94,24,0.364747531601102,2
239,95,24,0.392693141116548,2
239,96,24,0.428204275051721,2
239,97,24,0.413651553070042,2
239,98,24,0.378308431518173,2
239,99,24,0.288328083775522,2
239,100,24,0.208684026911788,2
239,105,24,0.269798683839194,3
240,93,24,0.282543399118289,2
240,94,24,0.295433033792317,2
240,95,24,0.357934293956251,2
240,96,24,0.388282598196458,2
240,97,24,0.367162862111952,2
240,98,24,0.37017412243775,2
240,99,24,0.316553815597051,2
240,100,24,0.228126667394755,2
240,104,24,0.268148820535261,3
240,105,24,0.366299663635391,3
240,106,24,0.299378122281744,3
241,94,24,0.197981712167223,2
241,95,24,0.269607447752494,2
241,96,24,0.31097387424613,2
241,97,24,0.314477124153377,2
241,98,24,0.363316920971645,2
241,99,24,0.338770577558272,2
241,100,24,0.237473990153852,2
241,105,24,0.328977189764407,3
242,96,24,0.185764148812246,2
242,97,24,0.211959200880134,2
242,98,24,0.285854868292883,2
242,99,24,0.310784838529076,2
235,92,25,0.280738006716274,2
235,93,25,0.279811193592508,2
236,91,25,0.286640247755808,2
236,92,25,0.316717187596842,2
236,93,25,0.306013827132049,2
236,94,25,0.24818331993828,2
236,95,25,0.220450013414962,2
236,96,25,0.234830649061616,2
236,97,25,0.218793287572032,2
237,89,25,0.262242854117415,2
237,90,25,0.264409935003298,2
237,91,25,0.332413775007117,2
237,92,25,0.369343515574963,2
237,93,25,0.358611354232223,2
237,94,25,0.332352077513663,2
237,95,25,0.303013742941189,2
237,96,25,0.310394588811479,2
237,97,25,0.291356990630168,2
237,98,25,0.278597722411233,2
237,99,25,0.218751959837187,2
238,88,25,0.269668905601729,2
238,89,25,0.320404375335031,2
238,90,25,0.296663323640592,2
238,91,25,0.339327314650507,2
238,92,25,0.400587936693076,2
238,93,25,0.417691693171029,2
238,94,25,0.405720810860676,2
238,95,25,0.375598316832209,2
238,96,25,0.398274062830182,2
238,97,25,0.397261457076042,2
238,98,25,0.402813011479939,2
238,99,25,0.324108577812764,2
238,100,25,0.216045004097745,2
239,89,25,0.288951964820731,2
239,90,25,0.260468375819641,2
239,91,25,0.258802870283963,2
239,92,25,0.291309366788116,2
239,93,25,0.329227051541391,2
239,94,25,0.350164178731078,2
239,95,25,0.365700269872188,2
239,96,25,0.403016621922671,2
239,97,25,0.383048463453444,2
239,98,25,0.365033165724221,2
239,99,25,0.329561943444417,2
239,100,25,0.264610016140261,2
239,105,25,0.253398609931351,3
239,106,25,0.22559325764149,3
240,92,25,0.205809625220833,2
240,93,25,0.257503824330695,2
240,94,25,0.302134226871903,2
240,95,25,0.35535354357683,2
240,96,25,0.39018546043806,2
240,97,25,0.343021038140121,2
240,98,25,0.305734096971052,2
240,99,25,0.304763015024299,2
240,100,25,0.2594105208798,2
240,104,25,0.237857943764243,3
240,105,25,0.325156498410439,3
240,106,25,0.329941017027078,3
240,107,25,0.232776026671921,3
241,94,25,0.237251447817825,2
241,95,25,0.275922094706957,2
241,96,25,0.305596889762799,2
241,97,25,0.284844245050008,2
241,98,25,0.276592684589018,2
241,99,25,0.299057826890234,2
241,100,25,0.254948454452642,2
241,105,25,0.299443937298595,3
241,106,25,0.325061642871422,3
242,96,25,0.184244967858059,2
242,98,25,0.236659591954599,2
242,99,25,0.309946105548683,2
242,100,25,0.295546276578677,2
242,101,25,0.289803682160622,2
242,102,25,0.280082536205843,2
235,91,26,0.2577871055833,2
235,92,26,0.264390610964918,2
235,93,26,0.250483185507285,2
236,90,26,0.239917467967507,2
236,91,26,0.298733021830241,2
236,92,26,0.327217569408207,2
236,93,26,0.308906790357051,2
236,94,26,0.251264186016755,2
236,95,26,0.21147215668393,2
236,96,26,0.212478793118436,2
237,89,26,0.264120836931925,2
237,90,26,0.285192426314265,2
237,91,26,0.340455102130597,2
237,92,26,0.387424105460923,2
237,93,26,0.375701799563107,2
237,94,26,0.338340416185305,2
237,95,26,0.297491076558591,2
237,96,26,0.282415821250469,2
237,97,26,0.277594114208221,2
237,98,26,0.280737157068589,2
237,99,26,0.222430977886095,2
238,88,26,0.259285274096656,2
238,89,26,0.344951524824414,2
238,90,26,0.353368766584032,2
238,91,26,0.367937936873464,2
238,92,26,0.427358330958922,2
238,93,26,0.416980341985913,2
238,94,26,0.389062269769806,2
238,95,26,0.375780882155352,2
238,96,26,0.388946064109466,2
238,97,26,0.391049573919821,2
238,98,26,0.423469036000828,2
238,99,26,0.373828435346271,2
238,100,26,0.259443744282878,2
239,89,26,0.31236487822195,2
239,90,26,0.314854171653095,2
239,91,26,0.29209293802648,2
239,92,26,0.30857196381154,2
239,93,26,0.307599727215368,2
239,94,26,0.322787310304651,2
239,95,26,0.358484626012089,2
239,96,26,0.400049652205698,2
239,97,26,0.360018349013197,2
239,98,26,0.359938634631648,2
239,99,26,0.383310677800622,2
239,100,26,0.340109665881938,2
239,101,26,0.296461063919821,2
239,106,26,0.227349109047702,3
240,90,26,0.214761970735469,2
240,91,26,0.202315351078877,2
240,92,26,0.204073446426411,2
240,93,26,0.241820221279918,2
240,94,26,0.300821695484861,2
240,95,26,0.355089651720119,2
240,96,26,0.39596097325746,2
240,97,26,0.320535286436078,2
240,98,26,0.266268158062666,2
240,99,26,0.293418954847296,2
240,100,26,0.291045169929672,2
240,101,26,0.245437541835373,2
240,105,26,0.278896471608878,3
240,106,26,0.346253010791547,3
240,107,26,0.287169186118648,3
241,94,26,0.272749118105062,2
241,95,26,0.284597498647869,2
241,96,26,0.303982058086505,2
241,97,26,0.268267117636057,2
241,98,26,0.235108767070595,2
241,99,26,0.265530925301907,2
241,100,26,0.282484969500547,2
241,101,26,0.273053052332171,2
241,102,26,0.246167389197022,2
241,105,26,0.250518304278276,3
241,106,26,0.339428488082568,3
241,107,26,0.285820054523625,3
242,96,26,0.188432739690821,2
242,99,26,0.305813114205782,2
242,100,26,0.362041556224375,2
242,101,26,0.380489324625402,2
242,102,26,0.359428606376265,2
242,103,26,0.244927143220742,2
242,106,26,0.172203238002257,3
243,100,26,0.276164026438878,2
243,101,26,0.272384292460508,2
243,102,26,0.258971732314952,2
235,91,27,0.253145545636169,2
235,92,27,0.248358151288903,2
235,93,27,0.21854044113523,2
236,90,27,0.244883288328679,2
236,91,27,0.293873320286375,2
236,92,27,0.325690338586848,2
236,93,27,0.292260863266431,2
236,94,27,0.238797566960803,2
237,89,27,0.251259175273996,2
237,90,27,0.295864240885512,2
237,91,27,0.330105696177154,2
237,92,27,0.377495122610824,2
237,93,27,0.359648534411722,2
237,94,27,0.318798323351485,2
237,95,27,0.275780486759411,2
237,96,27,0.249617372730154,2
237,97,27,0.256841295208725,2
237,98,27,0.257682773204717,2
237,99,27,0.203724219441926,2
238,88,27,0.233028154176066,2
238,89,27,0.323309974346122,2
238,90,27,0.383643913979953,2
238,91,27,0.371646627233842,2
238,92,27,0.410691554821256,2
238,93,27,0.381944182892646,2
238,94,27,0.351028575428733,2
238,95,27,0.353612245110458,2
238,96,27,0.356499936162644,2
238,97,27,0.364430547656981,2
238,98,27,0.389299430403187,2
238,99,27,0.358879777543255,2
238,100,27,0.272579079638817,2
239,89,27,0.290028817011381,2
239,90,27,0.33282931808273,2
239,91,27,0.304385379306952,2
239,92,27,0.322775240950352,2
239,93,27,0.30695798178293,2
239,94,27,0.308219229307123,2
239,95,27,0.352668918321424,2
239,96,27,0.383162403386623,2
239,97,27,0.336772707276786,2
239,98,27,0.335671738163377,2
239,99,27,0.385172146949864,2
239,100,27,0.361917725520706,2
239,101,27,0.283169850892392,2
239,106,27,0.226518676471619,3
239,107,27,0.232386888032066,3
240,90,27,0.218814594121678,2
240,91,27,0.208767248813268,2
240,92,27,0.219758291269959,2
240,93,27,0.26085747088782,2
240,94,27,0.309445706633733,2
240,95,27,0.357086824854786,2
240,96,27,0.382077686508424,2
240,97,27,0.295533924008484,2
240,98,27,0.235378671818617,2
240,99,27,0.268088386620416,2
240,100,27,0.291822641133373,2
240,101,27,0.240874258404476,2
240,105,27,0.241688395173672,3
240,106,27,0.339220542258057,3
240,107,27,0.342188949840344,3
240,108,27,0.219240768686276,3
241,94,27,0.301844300938682,2
241,95,27,0.307066083111503,2
241,96,27,0.306976477959464,2
241,97,27,0.263902194260914,2
241,99,27,0.235687965361894,2
241,100,27,0.293578492539585,2
241,101,27,0.292930625286645,2
241,102,27,0.258174000281833,2
241,105,27,0.212478902047626,3
241,106,27,0.329425084809574,3
241,107,27,0.319464577851767,3
242,95,27,0.18615056422234,2
242,96,27,0.196831550631421,2
242,99,27,0.276799780765843,2
242,100,27,0.370807567465878,2
242,101,27,0.40198628249633,2
242,102,27,0.367449629098651,2
242,103,27,0.275373614447356,2
242,106,27,0.177089420232314,3
243,100,27,0.276050849010033,2
243,101,27,0.279249816116761,2
243,102,27,0.263721698592389,2
235,92,28,0.238294662674473,2
236,90,28,0.250964456456397,2
236,91,28,0.284528546470334,2
236,92,28,0.322132558726877,2
236,93,28,0.276954198786182,2
237,89,28,0.243960069868197,2
237,90,28,0.308696012373589,2
237,91,28,0.331733730071327,2
237,92,28,0.359966368003529,2
237,93,28,0.321866706144738,2
237,94,28,0.282061452808196,2
237,95,28,0.249537418704386,2
237,96,28,0.218737297968156,2
237,97,28,0.228204050691629,2
237,98,28,0.224617077808626,2
237,99,28,0.176664748890544,2
238,88,28,0.218685709103573,2
238,89,28,0.295803741613153,2
238,90,28,0.399582694552207,2
238,91,28,0.384066907812191,2
238,92,28,0.377949357334873,2
238,93,28,0.333484897522351,2
238,94,28,0.312525701278686,2
238,95,28,0.320676850811947,2
238,96,28,0.310220846752759,2
238,97,28,0.332809100824988,2
238,98,28,0.344393044865133,2
238,99,28,0.310107669323913,2
238,100,28,0.257951349016615,2
239,89,28,0.267714672353925,2
239,90,28,0.335128878650002,2
239,91,28,0.316491922031054,2
239,92,28,0.328057674896399,2
239,93,28,0.314232469191695,2
239,94,28,0.306112233762674,2
239,95,28,0.333893708773996,2
239,96,28,0.339819783520394,2
239,97,28,0.31306219932734,2
239,98,28,0.308695816301047,2
239,99,28,0.346200986210203,2
239,100,28,0.335746027871243,2
239,101,28,0.249254965313628,2
239,107,28,0.241365420124078,3
240,90,28,0.231120499050086,2
240,91,28,0.217801923010023,2
240,92,28,0.23684274549537,2
240,93,28,0.282718361183941,2
240,94,28,0.320940764454496,2
240,95,28,0.353251733061845,2
240,96,28,0.350803680222193,2
240,97,28,0.27092675453518,2
240,98,28,0.216863890179644,2
240,99,28,0.248761646796055,2
240,100,28,0.28326241891841,2
240,101,28,0.235504397890199,2
240,106,28,0.296487250497198,3
240,107,28,0.356655160258992,3
240,108,28,0.279273736966977,3
241,94,28,0.302063510041482,2
241,95,28,0.318048803378045,2
241,96,28,0.307507812764492,2
241,97,28,0.259883643925469,2
241,99,28,0.220882484086766,2
241,100,28,0.292830454003136,2
241,101,28,0.294686367763667,2
241,102,28,0.258375562855785,2
241,106,28,0.288310175816617,3
241,107,28,0.299133946608499,3
242,95,28,0.199535935641968,2
242,96,28,0.206775892497369,2
242,99,28,0.250543314420397,2
242,100,28,0.34160491509299,2
242,101,28,0.377560349410047,2
242,102,28,0.329384693865767,2
242,103,28,0.262548814427465,2
243,100,28,0.265698850541857,2
243,101,28,0.288334946314518,2
243,102,28,0.260494213823609,2
225,92,29,0.158514901825315,1
226,92,29,0.143383373697422,1
226,94,29,0.158477702506786,1
226,95,29,0.165140160366259,1
227,91,29,0.139778503748433,1
227,92,29,0.140932739235957,1
228,91,29,0.15842910919494,1
228,92,29,0.158009492167606,1
229,91,29,0.157121926231148,1
231,115,29,0.234306939299916,1
231,116,29,0.236376310701994,1
232,115,29,0.258389179004588,1
232,116,29,0.25217770977929,1
233,116,29,0.181425324871128,1
234,90,29,0.180137106479388,1
234,91,29,0.162454249746406,1
235,91,29,0.217274553227525,1
235,92,29,0.223350209538208,1
235,93,29,0.196200240615425,1
235,94,29,0.1679662737471,1
236,90,29,0.251337059645146,2
236,91,29,0.268597652371466,2
236,92,29,0.300520462701674,2
236,93,29,0.256952468340467,1
236,94,29,0.20554076619304,1
236,95,29,0.176576309280842,1
237,89,29,0.239953000669421,2
237,90,29,0.303467236946744,2
237,91,29,0.325666744524203,2
237,92,29,0.321965940637211,2
237,93,29,0.267581234095661,2
237,94,29,0.231475542853339,1
237,95,29,0.22058351703074,1
237,96,29,0.1987144352595,1
237,97,29,0.202276071212812,1
237,98,29,0.195843127157553,1
238,89,29,0.259108155233033,2
238,90,29,0.364979899350105,2
238,91,29,0.37419626743648,2
238,92,29,0.322366298983679,2
238,93,29,0.270953790760242,2
238,94,29,0.261136983190437,2
238,95,29,0.27168228739993,2
238,96,29,0.261571174943449,2
238,97,29,0.298132451631781,2
238,98,29,0.303631676452601,2
238,99,29,0.258922387391692,2
238,100,29,0.22783621860142,1
238,101,29,0.180460985641262,1
239,89,29,0.245025026991253,2
239,90,29,0.307202614958775,2
239,91,29,0.315461822248932,2
239,92,29,0.3053487926387,2
239,93,29,0.298510043777452,2
239,94,29,0.295482139071358,2
239,95,29,0.303106180252179,2
239,96,29,0.291690161451985,2
239,97,29,0.297619482288257,2
239,98,29,0.289344414907975,2
239,99,29,0.288289914987199,2
239,100,29,0.281904747274858,2
239,101,29,0.217335030714046,1
239,102,29,0.174802321164426,1
239,104,29,0.196509643087893,1
239,105,29,0.183597405606852,1
239,107,29,0.228103029760434,3
239,108,29,0.23978644793727,1
239,109,29,0.192500613163689,1
240,90,29,0.240578101721563,2
240,91,29,0.225753601409788,2
240,92,29,0.240321115975525,2
240,93,29,0.282838945797735,2
240,94,29,0.320534698218449,2
240,95,29,0.338666855183155,2
240,96,29,0.31880326873673,2
240,97,29,0.266659911003092,2
240,101,29,0.234992125693494,1
240,102,29,0.208206851700236,1
240,103,29,0.219015633835516,1
240,104,29,0.209861159315138,1
240,105,29,0.188483849266966,1
240,106,29,0.24104442758575,3
240,107,29,0.331629702694477,3
240,108,29,0.330332595680798,3
241,94,29,0.28368709026018,2
241,95,29,0.316629107453469,2
241,96,29,0.313707539423062,2
241,97,29,0.269253057524383,2
241,100,29,0.278884119038685,2
241,101,29,0.277696943363977,2
241,107,29,0.254497051887543,3
242,95,29,0.222780292013932,2
242,96,29,0.235019902637051,2
242,100,29,0.288553153268767,2
242,101,29,0.329273695020729,2
242,102,29,0.274845503946363,2
243,101,29,0.287653332798387,2
224,91,30,0.131317701205566,1
224,92,30,0.127025172170376,1
224,93,30,0.106935557653831,1
225,91,30,0.153523134530984,1
225,92,30,0.156651166948911,1
225,93,30,0.127600503475416,1
225,94,30,0.119130768738934,1
225,95,30,0.122566210225145,1
225,96,30,0.113184552985228,1
226,90,30,0.11885247644325,1
226,91,30,0.144918556349682,1
226,92,30,0.151387828289945,1
226,93,30,0.138054481451662,1
226,94,30,0.149577403359333,1
226,95,30,0.161618414282479,1
226,96,30,0.136428092388264,1
227,90,30,0.129265965439417,1
227,91,30,0.144644751936643,1
227,92,30,0.148299043059326,1
227,93,30,0.137280082051131,1
227,94,30,0.142929095401696,1
227,95,30,0.146636315218004,1
227,96,30,0.126241709861202,1
228,89,30,0.141597185511679,1
228,90,30,0.141015372919809,1
228,91,30,0.161362496042507,1
228,92,30,0.158228951807544,1
228,93,30,0.128125367886534,1
228,94,30,0.111412187913748,1
228,95,30,0.103322496229722,1
229,89,30,0.132108167661684,1
229,90,30,0.142291837851903,1
229,91,30,0.158723392295778,1
229,92,30,0.14364774484257,1
229,93,30,0.11118522305259,1
230,89,30,0.120724947440725,1
230,90,30,0.136248446367424,1
230,91,30,0.137357214810867,1
230,92,30,0.116717464311026,1
231,89,30,0.119547553607318,1
231,90,30,0.121740505175926,1
231,91,30,0.114536941563044,1
231,92,30,0.100051701214831,1
231,114,30,0.141216684956624,1
231,115,30,0.221251252968012,1
231,116,30,0.231554364015527,1
232,89,30,0.131950590694823,1
232,90,30,0.113330964710071,1
232,114,30,0.151557202288129,1
232,115,30,0.229190644155098,1
232,116,30,0.222967345219721,1
232,117,30,0.189342429145854,1
233,89,30,0.15960272318544,1
233,90,30,0.13221383986931,1
233,91,30,0.108107461456041,1
233,115,30,0.132985799255975,1
233,116,30,0.142281173684161,1
233,117,30,0.150868029086182,1
234,89,30,0.191418053083461,1
234,90,30,0.167262743677856,1
234,91,30,0.142270302550957,1
234,92,30,0.131127532624931,1
234,93,30,0.121434599330471,1
234,94,30,0.110814373623807,1
234,116,30,0.107243293509685,1
234,117,30,0.125529280277101,1
235,90,30,0.200641479781375,1
235,91,30,0.18501038060038,1
235,92,30,0.187752869041737,1
235,93,30,0.169336548497984,1
235,94,30,0.1436094344463,1
235,95,30,0.119902052764619,1
235,96,30,0.101793457183802,1
236,91,30,0.235727158084607,1
236,92,30,0.24989723360618,1
236,93,30,0.213797990971931,1
236,94,30,0.172884448480384,1
236,95,30,0.154526949699457,1
236,96,30,0.135951211285526,1
236,97,30,0.118319050197765,1
236,98,30,0.105737685132625,1
237,90,30,0.27091220159534,2
237,91,30,0.287250011577939,2
237,92,30,0.262507421335106,2
237,93,30,0.206374118071426,1
237,94,30,0.176247724377941,1
237,95,30,0.176735280541341,1
237,96,30,0.168029474463382,1
237,97,30,0.166394436422264,1
237,98,30,0.16125876277447,1
237,99,30,0.144664555263461,1
237,100,30,0.131054157922265,1
237,101,30,0.109288373702299,1
238,90,30,0.296697549192222,2
238,91,30,0.327381159266379,2
238,92,30,0.261985105867044,2
238,93,30,0.209722318169029,1
238,94,30,0.199219627058828,1
238,95,30,0.205515603550053,1
238,96,30,0.204666239080675,1
238,97,30,0.240944082015535,1
238,98,30,0.243847110297732,1
238,99,30,0.206719314675865,1
238,100,30,0.184560165363457,1
238,101,30,0.147934609559858,1
238,102,30,0.107815356939012,1
238,104,30,0.106563716969415,1
238,105,30,0.110665707064722,1
239,90,30,0.263311100902022,2
239,91,30,0.291042185269855,2
239,92,30,0.265639941635679,2
239,93,30,0.255674402149274,2
239,94,30,0.253732390756635,2
239,95,30,0.248844193336555,2
239,96,30,0.238241352728682,2
239,97,30,0.270027696569133,2
239,98,30,0.261602045476014,1
239,99,30,0.230558533356711,1
239,100,30,0.223445587937339,1
239,101,30,0.181450411263682,1
239,102,30,0.137505598154056,1
239,103,30,0.135576669157187,1
239,104,30,0.159154686532325,1
239,105,30,0.153641910920217,1
239,106,30,0.14768456260325,1
239,107,30,0.186580899882012,1
239,108,30,0.222002995096936,1
239,109,30,0.178459575161088,1
239,110,30,0.107762210387006,1
240,94,30,0.280946562544251,2
240,95,30,0.2893695993368,2
240,96,30,0.273462931089882,2
240,97,30,0.264404401400425,1
240,98,30,0.238499493124138,1
240,99,30,0.233663385642917,1
240,100,30,0.260053704177552,1
240,101,30,0.226117555620818,1
240,102,30,0.185923839005401,1
240,103,30,0.185940396242345,1
240,104,30,0.187104217498626,1
240,105,30,0.162485370816109,1
240,106,30,0.184053296054596,1
240,107,30,0.270621186370215,3
240,108,30,0.340365191976825,1
240,109,30,0.262048655156734,1
241,95,30,0.286486919027373,2
241,96,30,0.30016326210045,2
241,101,30,0.253088575669579,1
241,102,30,0.214795695212823,1
241,103,30,0.199976009571263,1
241,104,30,0.181459855424491,1
241,105,30,0.152761980920008,1
241,106,30,0.172793035103784,1
241,107,30,0.20311144917414,1
242,101,30,0.287373123348951,2
223,91,31,0.110271165537022,1
224,90,31,0.108352203561076,1
224,91,31,0.119369007771301,1
224,92,31,0.114391782523891,1
225,90,31,0.111646265851041,1
225,91,31,0.135333266881194,1
225,92,31,0.139254456306243,1
225,93,31,0.116154997543375,1
225,94,31,0.107052057422985,1
225,95,31,0.110157661320605,1
225,96,31,0.101875393720836,1
226,89,31,0.110971765411044,1
226,90,31,0.118575807192504,1
226,91,31,0.13829292744949,1
226,92,31,0.147418851629059,1
226,93,31,0.13157905501214,1
226,94,31,0.136534243884327,1
226,95,31,0.1453051569394,1
226,96,31,0.118631687867189,1
227,89,31,0.126717011490679,1
227,90,31,0.128770642624741,1
227,91,31,0.14214724524454,1
227,92,31,0.146206404382175,1
227,93,31,0.132127284734602,1
227,94,31,0.134512278465921,1
227,95,31,0.134463009793094,1
227,96,31,0.109005114235532,1
228,88,31,0.145273796225478,1
228,89,31,0.139916429889342,1
228,90,31,0.13659515708761,1
228,91,31,0.151232222941431,1
228,92,31,0.145389707777004,1
228,93,31,0.119129831947897,1
228,94,31,0.105117442322375,1
229,88,31,0.131866235929762,1
229,89,31,0.13079850111235,1
229,90,31,0.136789661050023,1
229,91,31,0.14914878878087,1
229,92,31,0.13225340295127,1
229,93,31,0.103408190823825,1
230,88,31,0.115056207013775,1
230,89,31,0.122573846161393,1
230,90,31,0.132997563608541,1
230,91,31,0.136088451172535,1
230,92,31,0.114594249210124,1
231,88,31,0.116692301668039,1
231,89,31,0.120950855688736,1
231,90,31,0.11959323850978,1
231,91,31,0.114679322907842,1
231,114,31,0.106972593578574,1
231,115,31,0.173863090112952,1
232,88,31,0.137716212743733,1
232,89,31,0.132308597372056,1
232,90,31,0.112210954774176,1
232,114,31,0.114524676136203,1
232,115,31,0.181873742776409,1
232,116,31,0.185193904500399,1
233,88,31,0.167263005107913,1
233,89,31,0.16272447038908,1
233,90,31,0.129741484927275,1
233,91,31,0.101782803908979,1
233,115,31,0.103721057244548,1
233,116,31,0.115276298443017,1
233,117,31,0.113597568903623,1
233,118,31,0.148226975506944,1
234,87,31,0.163491527962177,1
234,88,31,0.18491999115817,1
234,89,31,0.1876950712133,1
234,90,31,0.156106825998546,1
234,91,31,0.125725069603961,1
234,92,31,0.111462480520965,1
234,93,31,0.102395715784713,1
234,117,31,0.107980722342988,1
234,118,31,0.123961015829711,1
235,87,31,0.169296212018771,1
235,88,31,0.194247902735534,1
235,89,31,0.200285281328703,1
235,90,31,0.179686542669055,1
235,91,31,0.158591675118722,1
235,92,31,0.150716279831008,1
235,93,31,0.136946540870066,1
235,94,31,0.118760278776479,1
235,95,31,0.100708871020632,1
235,117,31,0.119243412414747,1
235,118,31,0.118996382796714,1
236,88,31,0.195717488229323,1
236,89,31,0.215160629786566,1
236,90,31,0.210434497215993,1
236,91,31,0.197739824006977,1
236,92,31,0.192171625222784,1
236,93,31,0.166781930231344,1
236,94,31,0.140400097280643,1
236,95,31,0.130032968547919,1
236,96,31,0.116324022968149,1
236,97,31,0.103275253639837,1
237,89,31,0.204605979452535,1
237,90,31,0.22568774282126,1
237,91,31,0.228598831863548,1
237,92,31,0.199891502305336,1
237,93,31,0.158427104897836,1
237,94,31,0.135212802089509,1
237,95,31,0.137217197229501,1
237,96,31,0.136191694259215,1
237,97,31,0.133589909653124,1
237,98,31,0.129437833916061,1
237,99,31,0.127494733231518,1
237,100,31,0.117792301311653,1
238,90,31,0.22434573519529,1
238,91,31,0.252616585487491,2
238,92,31,0.205991907328081,1
238,93,31,0.164143752382733,1
238,94,31,0.148677975034039,1
238,95,31,0.149773258043708,1
238,96,31,0.153419150725809,1
238,97,31,0.17684876297192,1
238,98,31,0.172463818411578,1
238,99,31,0.150172930136276,1
238,100,31,0.136495911702219,1
238,101,31,0.115188403479268,1
239,91,31,0.249275095428017,1
239,92,31,0.221350356745456,1
239,93,31,0.203690320677867,1
239,94,31,0.196729723624216,1
239,95,31,0.192591699752718,1
239,96,31,0.189168534586268,1
239,97,31,0.230838154588518,1
239,98,31,0.219008618795653,1
239,99,31,0.17189825805492,1
239,100,31,0.164137957349803,1
239,101,31,0.148055804177119,1
239,102,31,0.115578380873889,1
239,103,31,0.10535400384521,1
239,104,31,0.119213729210358,1
239,105,31,0.121320136537178,1
239,106,31,0.116947337581568,1
239,107,31,0.137256912812328,1
239,108,31,0.170462756504813,1
239,109,31,0.151482335255553,1
240,93,31,0.205059495243928,1
240,94,31,0.219082342071729,1
240,95,31,0.226614011299074,1
240,96,31,0.22611616132718,1
240,97,31,0.262508815628743,1
240,98,31,0.249717108296902,1
240,99,31,0.213253192518967,1
240,100,31,0.231321081261324,1
240,101,31,0.215184267420887,1
240,102,31,0.163812662108453,1
240,103,31,0.145282968063312,1
240,104,31,0.154539846915603,1
240,105,31,0.136365000601173,1
240,106,31,0.138430668410776,1
240,107,31,0.199297642145006,1
240,108,31,0.28657438916728,1
240,109,31,0.257325463674302,1
240,110,31,0.138753120600256,1
241,96,31,0.264846196410929,1
241,97,31,0.241743535129863,1
241,98,31,0.205364780192998,1
241,99,31,0.202117296024856,1
241,100,31,0.239827056739458,1
241,101,31,0.236931108854639,1
241,102,31,0.193171856620893,1
241,103,31,0.178099727580537,1
241,104,31,0.191694275724527,1
241,105,31,0.149368891103032,1
241,106,31,0.134569488076729,1
241,107,31,0.162910663054264,1
241,108,31,0.20514212892778,1
241,109,31,0.182665854063303,1
242,101,31,0.237307677065919,1
242,102,31,0.205125811335055,1
242,103,31,0.183195892610966,1
242,104,31,0.191503192138693,1
242,105,31,0.149622630759195,1
242,106,31,0.128586715686718,1
242,107,31,0.121353447083608,1
217,88,32,0.154450154620212,1
217,89,32,0.123139471875566,1
217,90,32,0.10064430868947,1
218,88,32,0.151160133603211,1
218,89,32,0.123955286154295,1
218,90,32,0.104996356634305,1
218,91,32,0.108261073400371,1
218,92,32,0.120060000090728,1
218,93,32,0.106131997909025,1
219,88,32,0.143515069088639,1
219,89,32,0.125564856550692,1
219,90,32,0.118476627164626,1
219,91,32,0.124378388915723,1
219,92,32,0.128335100149767,1
219,93,32,0.110824438681001,1
220,88,32,0.136296037530718,1
220,89,32,0.140078113486682,1
220,90,32,0.148075858041075,1
220,91,32,0.138190218115843,1
220,92,32,0.112970714091515,1
221,87,32,0.127255012762162,1
221,88,32,0.129246815687741,1
221,89,32,0.147791977677923,1
221,90,32,0.153310646359232,1
221,91,32,0.126801812865421,1
222,87,32,0.11991841392902,1
222,88,32,0.115728016902769,1
222,89,32,0.128645504770787,1
222,90,32,0.128157491104788,1
222,91,32,0.11006255524445,1
223,88,32,0.102350967673289,1
223,89,32,0.109672719457776,1
223,90,32,0.109131504775176,1
223,91,32,0.104323697097626,1
224,89,32,0.100892351348975,1
224,90,32,0.10435582031588,1
224,91,32,0.106911723946967,1
224,92,32,0.101006661641401,1
225,89,32,0.102940056735078,1
225,90,32,0.107084583679244,1
225,91,32,0.115325523544168,1
225,92,32,0.118717219067506,1
225,93,32,0.105408991300533,1
226,88,32,0.106563804112767,1
226,89,32,0.111909242702552,1
226,90,32,0.113579083620009,1
226,91,32,0.12443527173896,1
226,92,32,0.135107837921621,1
226,93,32,0.123107359550231,1
226,94,32,0.119933173834322,1
226,95,32,0.122410365232412,1
226,96,32,0.100872101412476,1
227,87,32,0.101201535963062,1
227,88,32,0.121584224466431,1
227,89,32,0.122171418160307,1
227,90,32,0.12123426765637,1
227,91,32,0.13014540525827,1
227,92,32,0.13495992297395,1
227,93,32,0.122345203790703,1
227,94,32,0.119155212449264,1
227,95,32,0.116247957714479,1
228,86,32,0.101019929216794,1
228,87,32,0.110479122254452,1
228,88,32,0.136823788565382,1
228,89,32,0.133111601577991,1
228,90,32,0.12730619858874,1
228,91,32,0.130674550586571,1
228,92,32,0.123934099426758,1
228,93,32,0.10630214530446,1
229,86,32,0.107115334389699,1
229,87,32,0.110127858294106,1
229,88,32,0.127249152371717,1
229,89,32,0.128988021717143,1
229,90,32,0.126903977553116,1
229,91,32,0.128558622848508,1
229,92,32,0.1141729219945,1
230,86,32,0.10926494303344,1
230,87,32,0.111012123676094,1
230,88,32,0.118098392336732,1
230,89,32,0.122596492540082,1
230,90,32,0.122902071597966,1
230,91,32,0.124233142733217,1
230,92,32,0.108137809128492,1
231,86,32,0.105044209227656,1
231,87,32,0.112099389497349,1
231,88,32,0.117255432903751,1
231,89,32,0.117436854470395,1
231,90,32,0.112661475012833,1
231,91,32,0.107890833975054,1
231,115,32,0.110718189148666,1
231,116,32,0.135011675232318,1
232,86,32,0.11104116419826,1
232,87,32,0.125107833239368,1
232,88,32,0.13277233072151,1
232,89,32,0.128446556497405,1
232,90,32,0.113603015363144,1
232,115,32,0.118050343670838,1
232,116,32,0.132816850081635,1
232,117,32,0.105274964824641,1
232,118,32,0.124476359829586,1
232,119,32,0.180845331396739,1
233,86,32,0.127016991588176,1
233,87,32,0.145043465452336,1
233,88,32,0.156918065251277,1
233,89,32,0.152551649546226,1
233,90,32,0.12640625829625,1
233,118,32,0.103659653859909,1
233,119,32,0.174677934921885,1
234,86,32,0.143489427157215,1
234,87,32,0.155838555188381,1
234,88,32,0.167370017144581,1
234,89,32,0.165441251541498,1
234,90,32,0.138808140734337,1
234,91,32,0.110170493179236,1
234,118,32,0.100217785551463,1
234,119,32,0.138136211023233,1
235,86,32,0.152539906979499,1
235,87,32,0.15996178647582,1
235,88,32,0.166592785585099,1
235,89,32,0.167283309509007,1
235,90,32,0.151557267645643,1
235,91,32,0.131645414674943,1
235,92,32,0.116880182735675,1
235,93,32,0.10445678678248,1
235,118,32,0.100125860207668,1
235,119,32,0.101114948149597,1
236,87,32,0.149649340196686,1
236,88,32,0.168160309313995,1
236,89,32,0.180882127677263,1
236,90,32,0.172478632781475,1
236,91,32,0.154873311846235,1
236,92,32,0.138674266759311,1
236,93,32,0.120454868405999,1
236,94,32,0.106013221519791,1
236,118,32,0.112737191693093,1
237,88,32,0.158388685572375,1
237,89,32,0.177306363607953,1
237,90,32,0.178148560536602,1
237,91,32,0.167657601100208,1
237,92,32,0.143512280501365,1
237,93,32,0.117650355683618,1
237,94,32,0.102504601403456,1
237,95,32,0.101629595002654,1
237,96,32,0.102022480806659,1
238,89,32,0.155511626009175,1
238,90,32,0.167446430971661,1
238,91,32,0.177851979029846,1
238,92,32,0.153389380378067,1
238,93,32,0.125765242689388,1
238,94,32,0.110235131760831,1
238,95,32,0.10819172907775,1
238,96,32,0.111519853525559,1
238,97,32,0.119974991750524,1
238,98,32,0.111290339721345,1
239,90,32,0.18703321745231,1
239,91,32,0.195457234607573,1
239,92,32,0.173870889442986,1
239,93,32,0.153219124053442,1
239,94,32,0.140495083534689,1
239,95,32,0.137511186221525,1
239,96,32,0.142124892974666,1
239,97,32,0.175242645630859,1
239,98,32,0.166336344485014,1
239,99,32,0.12163119473334,1
239,100,32,0.114909751717255,1
239,101,32,0.113167461995251,1
239,108,32,0.120269078778819,1
239,109,32,0.117912602709553,1
240,91,32,0.2336692678192,1
240,92,32,0.185804256540158,1
240,93,32,0.159500983321588,1
240,94,32,0.156284816295692,1
240,95,32,0.161759107224825,1
240,96,32,0.174147994410494,1
240,97,32,0.224156176618122,1
240,98,32,0.225253006422295,1
240,99,32,0.175297153797745,1
240,100,32,0.184977462199035,1
240,101,32,0.185122141949751,1
240,102,32,0.137584778782572,1
240,103,32,0.111050205321065,1
240,104,32,0.122009440454153,1
240,105,32,0.111716013211667,1
240,106,32,0.107069191984638,1
240,107,32,0.140181040678709,1
240,108,32,0.207941718050754,1
240,109,32,0.211787680976899,1
240,110,32,0.127301002666357,1
241,93,32,0.145556020864936,1
241,94,32,0.159061334216135,1
241,95,32,0.195026267158597,1
241,96,32,0.218196312036856,1
241,97,32,0.196643647777947,1
241,98,32,0.174684427101634,1
241,99,32,0.167021846773243,1
241,100,32,0.201526856241106,1
241,101,32,0.209500538337335,1
241,102,32,0.169606485924763,1
241,103,32,0.155263278347937,1
241,104,32,0.186485129337795,1
241,105,32,0.150887233302453,1
241,106,32,0.117607394010916,1
241,107,32,0.132259404949662,1
241,108,32,0.173603293993801,1
241,109,32,0.169541760199815,1
241,110,32,0.116828343333954,1
242,96,32,0.298771822407868,1
242,97,32,0.19742950652931,1
242,98,32,0.139268856745217,1
242,99,32,0.147183847793648,1
242,100,32,0.167371160901081,1
242,101,32,0.184007513115863,1
242,102,32,0.167768011727618,1
242,103,32,0.159692252087046,1
242,104,32,0.190642760463569,1
242,105,32,0.164984914484073,1
242,106,32,0.130526319744248,1
242,107,32,0.118492650648537,1
242,108,32,0.116871653580065,1
242,109,32,0.107264066306298,1
243,102,32,0.159590490437356,1
243,103,32,0.123044768837415,1
215,88,33,0.109667948359235,1
215,89,33,0.10266157925977,1
216,88,33,0.141043912367699,1
216,89,33,0.12169305562058,1
216,90,33,0.102642897903613,1
217,87,33,0.16716252882267,1
217,88,33,0.171421148200882,1
217,89,33,0.136908546368447,1
217,90,33,0.106414723622759,1
218,87,33,0.154899825211183,1
218,88,33,0.158568233556944,1
218,89,33,0.128764128659154,1
218,90,33,0.101147267440395,1
218,92,33,0.115021523959545,1
218,93,33,0.105467366453679,1
219,86,33,0.148735870898747,1
219,87,33,0.136837350249589,1
219,88,33,0.139431324632727,1
219,89,33,0.12360969740477,1
219,90,33,0.103522893261337,1
219,91,33,0.100696834345091,1
219,92,33,0.115276080584637,1
219,93,33,0.103169788397673,1
220,86,33,0.155167910841725,1
220,87,33,0.134192636649553,1
220,88,33,0.133005820441175,1
220,89,33,0.134609214552475,1
220,90,33,0.120063605646931,1
220,91,33,0.101123531769802,1
221,86,33,0.160745172534561,1
221,87,33,0.130402423683065,1
221,88,33,0.121892548539914,1
221,89,33,0.137411548691048,1
221,90,33,0.13173106569737,1
221,91,33,0.103189068864377,1
222,86,33,0.14721406475107,1
222,87,33,0.118577539166631,1
222,88,33,0.105580859777177,1
222,89,33,0.116937141809345,1
222,90,33,0.117288678092667,1
223,86,33,0.112944440370786,1
226,89,33,0.102236167199505,1
226,91,33,0.100041102404603,1
226,92,33,0.110633877955281,1
226,93,33,0.107319031975784,1
227,88,33,0.1053084060861,1
227,89,33,0.105299735322543,1
227,90,33,0.102818633366517,1
227,91,33,0.106513446148036,1
227,92,33,0.11182115166626,1
227,93,33,0.103996299522901,1
228,85,33,0.101726367695423,1
228,86,33,0.102145766864376,1
228,87,33,0.102150429033726,1
228,88,33,0.111038582576447,1
228,89,33,0.112622358540553,1
228,90,33,0.108562327969395,1
228,91,33,0.104189670621733,1
229,85,33,0.110242070550261,1
229,86,33,0.105487551032664,1
229,87,33,0.101792825394498,1
229,88,33,0.111426642817317,1
229,89,33,0.11719029324788,1
229,90,33,0.108487896653582,1
229,91,33,0.100592131607259,1
230,85,33,0.109486134647506,1
230,86,33,0.105264583872794,1
230,87,33,0.104480457095559,1
230,88,33,0.112910585178403,1
230,89,33,0.11508707754634,1
230,90,33,0.105169488689558,1
230,91,33,0.102039593582474,1
231,85,33,0.105311216459213,1
231,86,33,0.104155662928484,1
231,87,33,0.107265449707017,1
231,88,33,0.11131563307936,1
231,89,33,0.10933645504695,1
231,90,33,0.103204591274012,1
231,119,33,0.107002712499725,1
232,85,33,0.103550125558942,1
232,86,33,0.106182029086184,1
232,87,33,0.113528823691549,1
232,88,33,0.119057786181353,1
232,89,33,0.120389118746662,1
232,90,33,0.116612946752818,1
232,119,33,0.123290643806031,1
232,120,33,0.148335174871788,1
233,85,33,0.104770470172132,1
233,86,33,0.113831309160425,1
233,87,33,0.127448383860995,1
233,88,33,0.13638128551514,1
233,89,33,0.136491641677954,1
233,90,33,0.125773967917541,1
233,119,33,0.117464380876814,1
233,120,33,0.180141605254952,1
233,121,33,0.192392424691765,1
234,85,33,0.113679875799904,1
234,86,33,0.129910673745835,1
234,87,33,0.14200069191175,1
234,88,33,0.144971321649521,1
234,89,33,0.137712639866287,1
234,90,33,0.121519139275156,1
234,119,33,0.108260441611067,1
234,120,33,0.165290972830395,1
235,86,33,0.145985452412328,1
235,87,33,0.148421555719791,1
235,88,33,0.142684277046228,1
235,89,33,0.136877076725335,1
235,90,33,0.125094652807327,1
235,91,33,0.108434532243195,1
236,86,33,0.132006514941184,1
236,87,33,0.130314234610501,1
236,88,33,0.137648545930644,1
236,89,33,0.146807780656643,1
236,90,33,0.137043487849539,1
236,91,33,0.117992927094568,1
236,92,33,0.101343721235317,1
237,87,33,0.128051720860891,1
237,88,33,0.134518073498851,1
237,89,33,0.145794652042389,1
237,90,33,0.136074497343242,1
237,91,33,0.119996516158551,1
237,92,33,0.105008033843518,1
238,87,33,0.180424614184581,1
238,88,33,0.145750252504374,1
238,89,33,0.131056979188296,1
238,90,33,0.125336094357892,1
238,91,33,0.122163215792269,1
238,92,33,0.112038813974556,1
239,88,33,0.206476075793658,1
239,89,33,0.161458277479643,1
239,90,33,0.151127934134523,1
239,91,33,0.14748672540761,1
239,92,33,0.129833715272803,1
239,93,33,0.110623736647653,1
239,96,33,0.102036293028004,1
239,97,33,0.124266682030947,1
239,98,33,0.125455251999292,1
240,90,33,0.212234312443458,1
240,91,33,0.201218368773837,1
240,92,33,0.156546496889837,1
240,93,33,0.119889395192693,1
240,94,33,0.107969382814265,1
240,95,33,0.111075291713619,1
240,96,33,0.123854254330181,1
240,97,33,0.160535222412946,1
240,98,33,0.172117783052372,1
240,99,33,0.134855296486552,1
240,100,33,0.135642309887334,1
240,101,33,0.144263772093151,1
240,102,33,0.114364299689148,1
240,107,33,0.102311818522252,1
240,108,33,0.136516880571375,1
240,109,33,0.142913333347842,1
240,110,33,0.103437318489343,1
241,91,33,0.228754077745734,1
241,92,33,0.172934904481386,1
241,93,33,0.123550646890643,1
241,94,33,0.122556537313036,1
241,95,33,0.151515765624093,1
241,96,33,0.162464227660249,1
241,97,33,0.141621280648599,1
241,98,33,0.131879078681312,1
241,99,33,0.12429029787943,1
241,100,33,0.147430365444487,1
241,101,33,0.164060214586601,1
241,102,33,0.139862030651647,1
241,103,33,0.134211078361491,1
241,104,33,0.16466931394067,1
241,105,33,0.16277461049543,1
241,106,33,0.128171782614571,1
241,107,33,0.118992047414935,1
241,108,33,0.139526506959316,1
241,109,33,0.138112235708422,1
241,110,33,0.104788944562827,1
242,94,33,0.147658484955063,1
242,95,33,0.222260721561469,1
242,96,33,0.2406083840365,1
242,97,33,0.145311899656287,1
242,98,33,0.100996019259497,1
242,99,33,0.108996465257813,1
242,100,33,0.127313398808227,1
242,101,33,0.135534720525956,1
242,102,33,0.129794609693443,1
242,103,33,0.137105610166835,1
242,104,33,0.174598547327908,1
242,105,33,0.191076407570629,1
242,106,33,0.155895623191242,1
242,107,33,0.127249882197293,1
242,108,33,0.114696457469495,1
242,109,33,0.10668292907541,1
243,96,33,0.223020698737188,1
243,97,33,0.143849634204094,1
243,100,33,0.170168048580133,1
243,101,33,0.166121732194049,1
243,104,33,0.120412996025202,1
243,105,33,0.153143559874047,1
243,106,33,0.153984166436516,1
213,89,34,0.110834176950625,1
214,88,34,0.121018250178849,1
214,89,34,0.100757246474097,1
215,87,34,0.121756092943075,1
215,88,34,0.112219974111143,1
215,89,34,0.105275520363512,1
216,87,34,0.138495971460432,1
216,88,34,0.138157081856118,1
216,89,34,0.122565992366764,1
216,90,34,0.103582989495691,1
217,86,34,0.141595769432203,1
217,87,34,0.166792648863681,1
217,88,34,0.172709834988141,1
217,89,34,0.14085072644849,1
217,90,34,0.107226420378089,1
218,86,34,0.146345975353859,1
218,87,34,0.153201074486589,1
218,88,34,0.158298252558489,1
218,89,34,0.127692112924559,1
218,92,34,0.102221211221661,1
219,85,34,0.161524321247794,1
219,86,34,0.147225992497421,1
219,87,34,0.132105498896518,1
219,88,34,0.131382731932246,1
219,89,34,0.11664874088479,1
220,85,34,0.167612515308294,1
220,86,34,0.159246622769039,1
220,87,34,0.13088866180326,1
220,88,34,0.12215001357439,1
220,89,34,0.121918005291715,1
221,85,34,0.164853349807884,1
221,86,34,0.161956519596622,1
221,87,34,0.125339285983171,1
221,88,34,0.109381355659241,1
221,89,34,0.118293517195531,1
221,90,34,0.107775445283642,1
222,85,34,0.146133541646703,1
222,86,34,0.139318659171076,1
222,87,34,0.109726105654,1
223,85,34,0.114145450052676,1
223,86,34,0.101510393789578,1
228,85,34,0.0997627338584854,1
229,84,34,0.108211227402835,1
229,85,34,0.106076237056449,1
229,86,34,0.0998689942837397,1
230,84,34,0.115347821349447,1
230,85,34,0.108075566989086,1
230,86,34,0.0999675425223123,1
230,88,34,0.101488052412623,1
230,89,34,0.101524445655142,1
231,84,34,0.118775866543628,1
231,85,34,0.106999749625745,1
231,86,34,0.100406047871266,1
232,84,34,0.121549574090959,1
232,85,34,0.106690554118739,1
232,86,34,0.10025273003575,1
232,88,34,0.100273513725282,1
232,89,34,0.102697536785528,1
232,90,34,0.105450199213269,1
233,84,34,0.120093953319382,1
233,85,34,0.106618693531819,1
233,86,34,0.103110116987161,1
233,87,34,0.107780739242297,1
233,88,34,0.109923441775365,1
233,89,34,0.109641718210182,1
233,90,34,0.109035886731826,1
233,120,34,0.103538557278919,1
233,121,34,0.137824629966957,1
234,84,34,0.121681716091857,1
234,85,34,0.112170945082535,1
234,86,34,0.11673390172586,1
234,87,34,0.125191109605443,1
234,88,34,0.120303195401259,1
234,89,34,0.106854514336159,1
234,120,34,0.113181154394487,1
234,121,34,0.136779258312338,1
235,85,34,0.118986492026224,1
235,86,34,0.128408235208215,1
235,87,34,0.13005263026679,1
235,88,34,0.118513837376074,1
235,89,34,0.107152239599414,1
236,85,34,0.11857118859483,1
236,86,34,0.115432971297598,1
236,87,34,0.109263668561912,1
236,88,34,0.107936714950059,1
236,89,34,0.112148102631304,1
236,90,34,0.104040677275078,1
237,85,34,0.143370727018414,1
237,86,34,0.126544304259269,1
237,87,34,0.109023708448337,1
237,88,34,0.106460288703111,1
237,89,34,0.110798056031082,1
237,90,34,0.10016154541045,1
238,85,34,0.200641022278775,1
238,86,34,0.201379344331439,1
238,87,34,0.162358914918951,1
238,88,34,0.121585204829145,1
238,89,34,0.103980853363699,1
239,86,34,0.297580986712363,1
239,87,34,0.264597925000125,1
239,88,34,0.178367802318159,1
239,89,34,0.13137643582504,1
239,90,34,0.116565094159467,1
239,91,34,0.107956115238872,1
240,88,34,0.220954921998395,1
240,89,34,0.172005466164131,1
240,90,34,0.155395267847968,1
240,91,34,0.150301194257995,1
240,92,34,0.120041917845118,1
240,98,34,0.107916661086102,1
241,90,34,0.151378994132602,1
241,91,34,0.163471888029144,1
241,92,34,0.139306840353916,1
241,95,34,0.110777163412359,1
241,96,34,0.113772977578955,1
241,101,34,0.109378174926881,1
241,102,34,0.102649466333795,1
241,103,34,0.106330238142669,1
241,104,34,0.12289496941475,1
241,105,34,0.142740223078428,1
241,106,34,0.122713471597673,1
241,107,34,0.100253601469273,1
241,108,34,0.103920974987725,1
241,109,34,0.102486235941952,1
242,92,34,0.124880465340205,1
242,94,34,0.112011418283166,1
242,95,34,0.167125612720037,1
242,96,34,0.168813056594665,1
242,97,34,0.10232616449663,1
242,103,34,0.110636971544289,1
242,104,34,0.139597223789736,1
242,105,34,0.18138800573049,1
242,106,34,0.164021871511573,1
242,107,34,0.125438259045586,1
242,108,34,0.10600867917255,1
242,109,34,0.100587360508719,1
243,95,34,0.17466446038103,1
243,96,34,0.174314961073569,1
243,97,34,0.114628768870568,1
243,100,34,0.120830390897051,1
243,101,34,0.128761514358584,1
243,103,34,0.102946886595317,1
243,104,34,0.105130056322626,1
243,105,34,0.136063364779982,1
243,106,34,0.146089643182964,1
212,89,35,0.129445655031933,1
213,88,35,0.166585040719661,1
213,89,35,0.113358240579352,1
214,87,35,0.168309564090708,1
214,88,35,0.139712623374067,1
214,89,35,0.110288419920785,1
215,86,35,0.149240866625532,1
215,87,35,0.145369425161748,1
215,88,35,0.125796200365305,1
215,89,35,0.110270653569827,1
216,86,35,0.145911042882352,1
216,87,35,0.142573223736595,1
216,88,35,0.130003797310724,1
216,89,35,0.115027220956204,1
217,85,35,0.135498120317975,1
217,86,35,0.144069453310361,1
217,87,35,0.1520159684665,1
217,88,35,0.150123585213016,1
217,89,35,0.125523191135357,1
218,85,35,0.140458200110813,1
218,86,35,0.143073993010792,1
218,87,35,0.146610564357389,1
218,88,35,0.141996465459162,1
218,89,35,0.11318407369679,1
219,84,35,0.154698970676968,1
219,85,35,0.150919650629522,1
219,86,35,0.149349349206271,1
219,87,35,0.135911005521342,1
219,88,35,0.120847939389628,1
219,89,35,0.101000910180147,1
220,84,35,0.167927745492449,1
220,85,35,0.159703275721116,1
220,86,35,0.155595599522069,1
220,87,35,0.12715373040091,1
220,88,35,0.10809212422603,1
221,84,35,0.165317497088262,1
221,85,35,0.155130297592273,1
221,86,35,0.145074041876087,1
221,87,35,0.112138124717462,1
222,85,35,0.132511630490079,1
222,86,35,0.119787067111212,1
223,84,35,0.120544963739395,1
223,85,35,0.103642094474413,1
224,84,35,0.109504826896582,1
225,84,35,0.102579740759008,1
229,84,35,0.100213232311304,1
229,85,35,0.100348457008291,1
230,83,35,0.111435694833041,1
230,84,35,0.108506981047743,1
230,85,35,0.104220715441003,1
231,83,35,0.127467816828566,1
231,84,35,0.121622110038859,1
231,85,35,0.111808406950981,1
231,86,35,0.0998992003482431,1
232,83,35,0.137085948447965,1
232,84,35,0.133832658353974,1
232,85,35,0.12025769567842,1
232,86,35,0.101881493755499,1
233,83,35,0.137017726096005,1
233,84,35,0.136433299203566,1
233,85,35,0.122265914232996,1
233,86,35,0.104492940380781,1
234,83,35,0.141039054125807,1
234,84,35,0.134362076005251,1
234,85,35,0.118187060697734,1
234,86,35,0.108079292367399,1
234,87,35,0.109079600015941,1
234,121,35,0.107758517687451,1
235,83,35,0.148022047021008,1
235,84,35,0.131223749778829,1
235,85,35,0.112840881389454,1
235,86,35,0.107106151658947,1
235,87,35,0.107105127724557,1
236,83,35,0.165344304562024,1
236,84,35,0.133127145773464,1
236,85,35,0.108782005467715,1
237,84,35,0.162426821376259,1
237,85,35,0.13671203810893,1
237,86,35,0.114306534539469,1
238,84,35,0.214076065409235,1
238,85,35,0.213581788314786,1
238,86,35,0.189659325946622,1
238,87,35,0.141178679562086,1
238,88,35,0.102357601460985,1
239,85,35,0.276718693876495,1
239,86,35,0.29175536646537,1
239,87,35,0.233032097412759,1
239,88,35,0.146020396896614,1
239,89,35,0.103218327244924,1
240,86,35,0.243254317643468,1
240,87,35,0.239591028969657,1
240,88,35,0.173327267425277,1
240,89,35,0.124287389470046,1
240,90,35,0.107611245422004,1
240,91,35,0.104687052198108,1
241,88,35,0.130666685899023,1
241,89,35,0.111839059625165,1
241,90,35,0.103882893342755,1
241,91,35,0.109503988141816,1
241,92,35,0.104371048616701,1
241,105,35,0.10732635201738,1
241,106,35,0.107307866733766,1
241,114,35,0.129284450723031,1
242,92,35,0.099908001826829,1
242,95,35,0.112070871835297,1
242,96,35,0.109497681141691,1
242,104,35,0.106951090956385,1
242,105,35,0.1451316545249,1
242,106,35,0.150927537102908,1
242,107,35,0.121163332967569,1
242,108,35,0.102781368690475,1
243,95,35,0.127090366290843,1
243,96,35,0.121489347141576,1
243,102,35,0.105745321068873,1
243,105,35,0.112770012058167,1
243,106,35,0.12774928985661,1
211,90,36,0.122227647408402,1
212,89,36,0.127137151378128,1
213,87,36,0.19650888058356,1
213,88,36,0.167230369922464,1
213,89,36,0.115779703803623,1
214,87,36,0.190408126987405,1
214,88,36,0.164458002204175,1
214,89,36,0.121107517650398,1
215,86,36,0.167293581531664,1
215,87,36,0.175135622701271,1
215,88,36,0.14713436126244,1
215,89,36,0.116863189781969,1
216,85,36,0.175065003907122,1
216,86,36,0.168309662126979,1
216,87,36,0.148909373313247,1
216,88,36,0.125466253847524,1
216,89,36,0.108702672338332,1
217,85,36,0.166680920193068,1
217,86,36,0.152650611715723,1
217,87,36,0.137836699321256,1
217,88,36,0.125255573900334,1
217,89,36,0.108135467150898,1
218,84,36,0.153875977964591,1
218,85,36,0.144037809380544,1
218,86,36,0.141218166393614,1
218,87,36,0.139412174881052,1
218,88,36,0.122520416393493,1
219,84,36,0.151157835197293,1
219,85,36,0.142013981272981,1
219,86,36,0.147387981096494,1
219,87,36,0.138184041830747,1
219,88,36,0.109669876405906,1
220,84,36,0.157080456888355,1
220,85,36,0.150773761764793,1
220,86,36,0.142483487869528,1
220,87,36,0.119057187070806,1
221,84,36,0.158751692099449,1
221,85,36,0.144877620759922,1
221,86,36,0.122874153046461,1
222,84,36,0.13516208465845,1
222,85,36,0.117623014456822,1
223,83,36,0.132548611950226,1
223,84,36,0.111743419795976,1
224,83,36,0.119461815441539,1
225,83,36,0.111898861750705,1
230,83,36,0.103854168715241,1
230,84,36,0.100937164817913,1
230,85,36,0.101093412848651,1
231,82,36,0.12492043146017,1
231,83,36,0.121047268915177,1
231,84,36,0.120407179206433,1
231,85,36,0.11633970877157,1
232,82,36,0.130363165602838,1
232,83,36,0.133668807065744,1
232,84,36,0.140890191494179,1
232,85,36,0.134192495041606,1
232,86,36,0.105538094177019,1
233,82,36,0.143348102425564,1
233,83,36,0.13819469510557,1
233,84,36,0.143183652026788,1
233,85,36,0.135190689463854,1
233,86,36,0.107561639068687,1
233,122,36,0.100091754478148,1
234,82,36,0.166280376666976,1
234,83,36,0.144348649718325,1
234,84,36,0.134824720062801,1
234,85,36,0.119648955790679,1
234,86,36,0.100970366435153,1
235,82,36,0.166486089443083,1
235,83,36,0.150858933498782,1
235,84,36,0.131209480054884,1
235,85,36,0.104960203036005,1
235,121,36,0.109763326758367,1
236,82,36,0.195219485756563,1
236,83,36,0.184884763457988,1
236,84,36,0.142158769952887,1
236,85,36,0.101305410839046,1
237,83,36,0.232090273846553,1
237,84,36,0.180282069445998,1
237,85,36,0.130110547917336,1
237,86,36,0.100445229701059,1
238,83,36,0.248562654950997,1
238,84,36,0.247427612786825,1
238,85,36,0.213824874696127,1
238,86,36,0.166499008445067,1
238,87,36,0.117628504488019,1
239,84,36,0.267141857313184,1
239,85,36,0.285213841793101,1
239,86,36,0.254297036108094,1
239,87,36,0.186010917000222,1
239,88,36,0.114722012257567,1
240,85,36,0.196428164053459,1
240,86,36,0.214698530374968,1
240,87,36,0.192802782737913,1
240,88,36,0.130419373065094,1
241,86,36,0.126632939941514,1
241,87,36,0.126238736094304,1
241,88,36,0.103110944849008,1
242,105,36,0.10748826436602,1
242,106,36,0.124973501761742,1
242,107,36,0.118184740505978,1
242,108,36,0.106604195056574,1
243,106,36,0.11219715344575,1
243,107,36,0.126569390651823,1
209,92,37,0.116458681233346,1
209,93,37,0.110708080519795,1
210,90,37,0.148546159820712,1
210,91,37,0.114178183274397,1
211,88,37,0.14222104477105,1
211,89,37,0.150374721461529,1
211,90,37,0.12370144846186,1
212,87,37,0.151921341678782,1
212,88,37,0.140426534395158,1
212,89,37,0.118340781571254,1
213,86,37,0.151742240303894,1
213,87,37,0.171815047046358,1
213,88,37,0.153547708956342,1
213,89,37,0.113557036351868,1
214,86,37,0.160681198421027,1
214,87,37,0.198014129494292,1
214,88,37,0.177656189702986,1
214,89,37,0.12585629659966,1
215,86,37,0.175280389595339,1
215,87,37,0.190854976312344,1
215,88,37,0.161995004279597,1
215,89,37,0.118129034117997,1
216,85,37,0.208268636337042,1
216,86,37,0.180942997308869,1
216,87,37,0.150123007888307,1
216,88,37,0.121596479000354,1
217,84,37,0.190962097278203,1
217,85,37,0.196877823751511,1
217,86,37,0.157825380049958,1
217,87,37,0.124762908957904,1
217,88,37,0.105548921738546,1
218,84,37,0.172429211607782,1
218,85,37,0.146074512918415,1
218,86,37,0.133824717415992,1
218,87,37,0.123565472153459,1
218,88,37,0.102092032094742,1
219,83,37,0.196819829850532,1
219,84,37,0.146870981372925,1
219,85,37,0.128078800657629,1
219,86,37,0.13432752366605,1
219,87,37,0.126218192048991,1
220,83,37,0.162108421352662,1
220,84,37,0.140393300099161,1
220,85,37,0.132379325095395,1
220,86,37,0.120782723483324,1
220,87,37,0.104229658527537,1
221,83,37,0.151173499214876,1
221,84,37,0.143315075095029,1
221,85,37,0.125675648430268,1
222,82,37,0.157527513178756,1
222,83,37,0.140442013233117,1
222,84,37,0.124492633850635,1
222,85,37,0.100456307799725,1
223,82,37,0.147007230004302,1
223,83,37,0.126475112437515,1
223,84,37,0.101895730800687,1
224,82,37,0.13524155939578,1
224,83,37,0.108918635351258,1
225,82,37,0.130143455425761,1
225,83,37,0.100443682906555,1
226,82,37,0.126036585302723,1
227,82,37,0.112664993425683,1
231,82,37,0.116670592080388,1
231,83,37,0.111235831554459,1
231,84,37,0.115650491997947,1
231,85,37,0.115870278425457,1
232,82,37,0.125419675725701,1
232,83,37,0.127618291612211,1
232,84,37,0.139618595696897,1
232,85,37,0.137487777338504,1
232,86,37,0.102536321583707,1
233,81,37,0.136294207520319,1
233,82,37,0.146346443749378,1
233,83,37,0.137052637901534,1
233,84,37,0.140121423732793,1
233,85,37,0.135833611331549,1
233,86,37,0.103959220026482,1
234,81,37,0.167491799979471,1
234,82,37,0.169007451627888,1
234,83,37,0.141575366994837,1
234,84,37,0.125584463804968,1
234,85,37,0.111806576940582,1
234,122,37,0.135731217892554,1
235,81,37,0.165910017419549,1
235,82,37,0.153958480933415,1
235,83,37,0.140694521989428,1
235,84,37,0.120909114022968,1
235,121,37,0.101799099715866,1
235,122,37,0.192084155082877,1
236,81,37,0.154684711845942,1
236,82,37,0.169885137686775,1
236,83,37,0.174834466168518,1
236,84,37,0.136056033845466,1
236,121,37,0.116867056768229,1
237,82,37,0.2291869841343,1
237,83,37,0.244012486594627,1
237,84,37,0.182764021049709,1
237,85,37,0.122275467322996,1
238,82,37,0.241483455794817,1
238,83,37,0.285937240546678,1
238,84,37,0.26262107805239,1
238,85,37,0.195347194339411,1
238,86,37,0.134610924740765,1
239,83,37,0.225815930692546,1
239,84,37,0.276978076064722,1
239,85,37,0.255762024790048,1
239,86,37,0.194257466718453,1
239,87,37,0.133106372976851,1
240,84,37,0.166194518679087,1
240,85,37,0.178815719149165,1
240,86,37,0.170055579191025,1
240,87,37,0.139676578704957,1
241,86,37,0.115936398444041,1
241,87,37,0.106522966559279,1
242,106,37,0.101814687483015,1
242,107,37,0.114469721359636,1
242,108,37,0.116620942155395,1
243,106,37,0.102219457461695,1
243,107,37,0.130054198847132,1
208,92,38,0.129022377983801,1
208,93,38,0.123106858475955,1
209,90,38,0.149165923342523,1
209,91,38,0.128884669701272,1
209,92,38,0.114424973248212,1
209,93,38,0.108260822863233,1
210,88,38,0.118547801497647,1
210,89,38,0.143994215918538,1
210,90,38,0.140563556423787,1
210,91,38,0.113695278387429,1
211,87,38,0.114756422988821,1
211,88,38,0.124115836888054,1
211,89,38,0.136139277532785,1
211,90,38,0.119831052718304,1
212,87,38,0.130613648276208,1
212,88,38,0.121561480051472,1
212,89,38,0.10978011274661,1
213,87,38,0.154947710483291,1
213,88,38,0.138870350194985,1
213,89,38,0.106567888957408,1
214,87,38,0.192733307700264,1
214,88,38,0.175818281937631,1
214,89,38,0.12028510226273,1
215,87,38,0.185600994670835,1
215,88,38,0.165111457524583,1
215,89,38,0.112295756148918,1
216,86,38,0.177107829265495,1
216,87,38,0.141394969362584,1
216,88,38,0.115231430509484,1
217,85,38,0.206053583035697,1
217,86,38,0.153770349328641,1
217,87,38,0.111401491067249,1
218,85,38,0.141386331277783,1
218,86,38,0.121983504413914,1
218,87,38,0.104400710035252,1
219,84,38,0.13551648577948,1
219,85,38,0.112852220918177,1
219,86,38,0.114205197713621,1
219,87,38,0.10516366097787,1
220,84,38,0.122779134113658,1
220,85,38,0.112256193066958,1
221,84,38,0.125074893052185,1
221,85,38,0.106419167933728,1
222,83,38,0.126349233865066,1
222,84,38,0.110451192810029,1
223,82,38,0.139368461596936,1
223,83,38,0.116703129229567,1
224,82,38,0.131238814685864,1
224,83,38,0.101413882526866,1
225,81,38,0.158755101583109,1
225,82,38,0.124156892299924,1
226,81,38,0.154795427475085,1
226,82,38,0.11630594072254,1
227,81,38,0.128831566720943,1
227,82,38,0.104555160734348,1
230,82,38,0.101037292529747,1
231,82,38,0.108277107777201,1
231,83,38,0.100769882260186,1
231,84,38,0.105282470045861,1
231,85,38,0.106620414613028,1
232,82,38,0.120720960632356,1
232,83,38,0.122267929423019,1
232,84,38,0.129742879220912,1
232,85,38,0.12810312454585,1
233,82,38,0.143011129975001,1
233,83,38,0.136422918251719,1
233,84,38,0.131264108043879,1
233,85,38,0.124773257230994,1
234,81,38,0.149356331567377,1
234,82,38,0.156917760249544,1
234,83,38,0.134527779089717,1
234,84,38,0.113761866801533,1
234,122,38,0.127120594141184,1
234,123,38,0.174845544267184,1
235,82,38,0.137719981693721,1
235,83,38,0.125198549469149,1
235,84,38,0.105813042346557,1
235,122,38,0.172830038349769,1
236,81,38,0.156163338462536,1
236,82,38,0.145511152931403,1
236,83,38,0.151211635324441,1
236,84,38,0.120890835704815,1
237,82,38,0.202082656542303,1
237,83,38,0.230819288052737,1
237,84,38,0.175069491789768,1
237,85,38,0.11056601506965,1
238,82,38,0.230485921158377,1
238,83,38,0.297786340022142,1
238,84,38,0.259538447321029,1
238,85,38,0.168696589504269,1
238,86,38,0.104478006188774,1
239,83,38,0.22941767437377,1
239,84,38,0.257110219594033,1
239,85,38,0.206113646591294,1
239,86,38,0.138787324366048,1
240,84,38,0.157422679725896,1
240,85,38,0.153183112063089,1
240,86,38,0.12878315858872,1
241,85,38,0.103661788872041,1
241,86,38,0.10240586798526,1
242,107,38,0.105419176179838,1
242,108,38,0.120916967817597,1
242,109,38,0.107489680445495,1
243,107,38,0.123692570732841,1
208,91,39,0.129706050261632,1
208,92,39,0.128901793370006,1
208,93,39,0.135198837367297,1
208,94,39,0.111195625790275,1
209,89,39,0.138678308032276,1
209,90,39,0.147976405690222,1
209,91,39,0.131980197648779,1
209,92,39,0.116520215333014,1
209,93,39,0.109410722968979,1
210,88,39,0.110619161621656,1
210,89,39,0.137453214106383,1
210,90,39,0.136218556197572,1
210,91,39,0.115016785539762,1
211,88,39,0.113356301639762,1
211,89,39,0.12562730565556,1
211,90,39,0.113550762030499,1
212,87,39,0.117181121410047,1
212,88,39,0.114565764226829,1
212,89,39,0.107471565521129,1
213,88,39,0.131655196516243,1
213,89,39,0.105679495159102,1
214,88,39,0.16573332337977,1
214,89,39,0.115278248275526,1
215,88,39,0.163112138484865,1
215,89,39,0.110897050879335,1
216,87,39,0.134818162525538,1
216,88,39,0.117738577434938,1
217,86,39,0.142842235265256,1
217,87,39,0.106063078410246,1
218,86,39,0.109440133850392,1
220,84,39,0.107234927747861,1
221,84,39,0.10461744644543,1
222,83,39,0.109192614051001,1
223,83,39,0.103313967074112,1
224,82,39,0.122270358543965,1
225,80,39,0.183797127277487,1
225,81,39,0.143199370508965,1
225,82,39,0.113634528577932,1
226,81,39,0.136788593543957,1
226,82,39,0.103030969037402,1
227,81,39,0.120854812821544,1
228,81,39,0.108275092587178,1
229,81,39,0.108133299460009,1
231,81,39,0.119057851538867,1
231,82,39,0.100203548506275,1
232,81,39,0.11507604301935,1
232,82,39,0.110951548153302,1
232,83,39,0.10889496503818,1
232,84,39,0.109943571889754,1
232,85,39,0.107219263730279,1
233,81,39,0.121092855781367,1
233,82,39,0.12867060205626,1
233,83,39,0.124152371738521,1
233,84,39,0.113659004967019,1
233,85,39,0.104031636152273,1
234,82,39,0.133701093677785,1
234,83,39,0.118470690523749,1
234,122,39,0.114738438779483,1
234,123,39,0.175850448727562,1
235,82,39,0.122550829423458,1
235,83,39,0.107674544174557,1
235,122,39,0.146308525498193,1
236,82,39,0.131336066667071,1
236,83,39,0.121743032333144,1
236,84,39,0.101524097081732,1
237,82,39,0.169367658674768,1
237,83,39,0.190912142351476,1
237,84,39,0.150472539874525,1
238,82,39,0.197306765117545,1
238,83,39,0.266029014918019,1
238,84,39,0.223014838346744,1
238,85,39,0.133535238092452,1
239,83,39,0.211832843019247,1
239,84,39,0.213191429667999,1
239,85,39,0.153760872489074,1
239,86,39,0.100210792297438,1
240,84,39,0.151670608468275,1
240,85,39,0.134570141651872,1
240,86,39,0.104382529753371,1
242,108,39,0.124138635767609,1
242,109,39,0.13208274358864,1
242,110,39,0.108224157297738,1
207,93,40,0.139350945783117,1
207,94,40,0.130174075421188,1
208,90,40,0.137801297334369,1
208,91,40,0.13238257118527,1
208,92,40,0.126852715476104,1
208,93,40,0.138783457379788,1
208,94,40,0.117025526954452,1
209,89,40,0.131839167025943,1
209,90,40,0.142312839399816,1
209,91,40,0.132512098885598,1
209,92,40,0.11641543634475,1
209,93,40,0.108041570188756,1
210,88,40,0.101420276670343,1
210,89,40,0.129284635902655,1
210,90,40,0.126196929071021,1
210,91,40,0.110225785636293,1
211,88,40,0.101345398744849,1
211,89,40,0.112964908165666,1
211,90,40,0.101098042339244,1
212,88,40,0.105614965506698,1
212,89,40,0.102311687807223,1
213,88,40,0.120229973199459,1
213,89,40,0.102117739383681,1
214,88,40,0.146406213196161,1
214,89,40,0.106728940765443,1
215,88,40,0.154034306542866,1
215,89,40,0.105793772772772,1
216,87,40,0.132630897060669,1
216,88,40,0.120151217394785,1
224,82,40,0.106795322214085,1
225,81,40,0.128913721116357,1
225,82,40,0.100358413136295,1
226,80,40,0.160337200037682,1
226,81,40,0.121241043052014,1
227,80,40,0.153122253324401,1
227,81,40,0.115801653035492,1
228,80,40,0.142328960919998,1
228,81,40,0.109526547377152,1
229,81,40,0.108252108527999,1
229,124,40,0.108351277662957,1
229,125,40,0.101096201435926,1
230,81,40,0.117281292693557,1
231,81,40,0.117593374824109,1
232,81,40,0.110965469303838,1
233,81,40,0.113263385040334,1
233,82,40,0.110033852402774,1
233,83,40,0.10482040331302,1
234,81,40,0.116885770803143,1
234,82,40,0.109855666033086,1
234,123,40,0.147828577885904,1
235,81,40,0.126571896023202,1
235,82,40,0.104964059129346,1
235,122,40,0.126153978291239,1
235,123,40,0.176827663387735,1
236,82,40,0.118303887254459,1
236,121,40,0.104989537666985,1
236,122,40,0.153511664287232,1
237,82,40,0.14145675399939,1
237,83,40,0.148629142077973,1
237,84,40,0.120435892941028,1
238,82,40,0.163638070402049,1
238,83,40,0.214667311268994,1
238,84,40,0.173415663463303,1
238,85,40,0.101427618497778,1
239,83,40,0.183692435432574,1
239,84,40,0.167636860982352,1
239,85,40,0.113052193125949,1
240,84,40,0.149462624671388,1
240,85,40,0.122171080479817,1
241,85,40,0.118068099128877,1
242,108,40,0.122168182963352,1
242,109,40,0.146747194240932,1
207,92,41,0.111234034222817,1
207,93,41,0.128440042531818,1
207,94,41,0.128175148526555,1
208,90,41,0.133336420534098,1
208,91,41,0.135350717337499,1
208,92,41,0.123548969381111,1
208,93,41,0.12567119322638,1
208,94,41,0.111942215568492,1
209,89,41,0.117645541013401,1
209,90,41,0.132395435722658,1
209,91,41,0.12758465427821,1
209,92,41,0.11199419657816,1
209,93,41,0.101039787008208,1
210,89,41,0.118111256874121,1
210,90,41,0.11638154847361,1
210,91,41,0.101817116603961,1
211,89,41,0.100723249673767,1
214,88,41,0.125020842387899,1
215,88,41,0.13750714494856,1
216,87,41,0.132028115599644,1
216,88,41,0.117369558016554,1
217,86,41,0.104086068068725,1
226,81,41,0.113088194223383,1
227,80,41,0.148167794277789,1
227,81,41,0.114372894202272,1
228,80,41,0.141725776420969,1
228,81,41,0.108470838342362,1
228,124,41,0.112185323735671,1
228,125,41,0.132781230236367,1
229,80,41,0.12618249595329,1
229,81,41,0.102993334002112,1
229,125,41,0.102792849827145,1
230,80,41,0.123606788995385,1
230,81,41,0.108122079753396,1
231,81,41,0.109334091283518,1
232,81,41,0.104411156344614,1
233,81,41,0.104612773383161,1
234,81,41,0.104732116204185,1
234,123,41,0.10704278754888,1
234,124,41,0.102811803506278,1
235,81,41,0.114106965369701,1
235,122,41,0.113807279381019,1
235,123,41,0.141627620327482,1
236,81,41,0.149272292696968,1
236,82,41,0.106525406573144,1
236,121,41,0.103522610045442,1
236,122,41,0.156257496854735,1
237,82,41,0.1210022049091,1
237,83,41,0.113072780742938,1
237,120,41,0.104470490074635,1
237,121,41,0.144616027309129,1
238,82,41,0.139771859067817,1
238,83,41,0.158796952178068,1
238,84,41,0.126651348974694,1
239,83,41,0.15489917163604,1
239,84,41,0.136522098279596,1
240,84,41,0.150750047880038,1
240,85,41,0.120328891797279,1
241,85,41,0.12748538710698,1
207,92,42,0.111965471950647,1
207,93,42,0.114773840766369,1
207,94,42,0.117006878277052,1
208,90,42,0.122620249996512,1
208,91,42,0.135232997561413,1
208,92,42,0.125114826493393,1
208,93,42,0.113206055607417,1
208,94,42,0.104497962016459,1
209,90,42,0.119764682162581,1
209,91,42,0.121506852062476,1
209,92,42,0.107952411646398,1
210,89,42,0.100081743885548,1
210,90,42,0.106211145858783,1
214,88,42,0.104862275693817,1
215,87,42,0.142729482660252,1
215,88,42,0.11673356404537,1
216,87,42,0.127266668185537,1
216,88,42,0.106109329744498,1
226,81,42,0.104798377830717,1
227,80,42,0.135413068406096,1
227,81,42,0.109279942582961,1
228,80,42,0.129515870788078,1
228,81,42,0.102000803897766,1
228,125,42,0.11789467296481,1
229,80,42,0.116471948808739,1
230,80,42,0.117020941035535,1
231,80,42,0.126192898690975,1
231,81,42,0.099905932172211,1
235,81,42,0.100747922135397,1
235,122,42,0.101407793385121,1
235,123,42,0.120600038338071,1
236,122,42,0.15077720392721,1
237,82,42,0.109461277006252,1
237,120,42,0.108539779626979,1
238,82,42,0.124691386051474,1
238,83,42,0.11513584514489,1
239,83,42,0.125203135388066,1
239,84,42,0.11085014596994,1
240,84,42,0.140125018396077,1
240,85,42,0.11289357043886,1
241,85,42,0.125118595443381,1
207,91,43,0.113474206595473,1
207,92,43,0.115737047132654,1
207,93,43,0.103734531785403,1
208,90,43,0.105816658795679,1
208,91,43,0.123046293846081,1
208,92,43,0.122521974080916,1
208,93,43,0.102501769244505,1
209,90,43,0.104069118686696,1
209,91,43,0.107813374427746,1
215,87,43,0.117870959080055,1
216,87,43,0.115075073549555,1
218,85,43,0.105685627872523,1
228,80,43,0.108998273482374,1
229,80,43,0.105165185986536,1
230,80,43,0.108060273330751,1
231,80,43,0.112254166984016,1
235,123,43,0.104631062594233,1
236,81,43,0.102261460557521,1
236,122,43,0.133363554795432,1
236,123,43,0.130488978817772,1
237,81,43,0.135780170670729,1
237,82,43,0.106764037750596,1
237,120,43,0.117943081097032,1
238,82,43,0.11938516197024,1
239,83,43,0.102000346395166,1
240,83,43,0.109745800051628,1
240,84,43,0.12402709227662,1
240,85,43,0.101053239763225,1
241,84,43,0.133070154021036,1
241,85,43,0.118304344757059,1
207,91,44,0.109651728802782,1
207,92,44,0.115712243955996,1
208,91,44,0.106339072300012,1
208,92,44,0.11368242474296,1
216,86,44,0.107781185851977,1
217,86,44,0.105209095343194,1
218,85,44,0.107835399910049,1
232,80,44,0.116693793997948,1
233,80,44,0.141696681434208,1
234,80,44,0.112987837760249,1
236,122,44,0.108329938434554,1
237,81,44,0.132404215415406,1
237,82,44,0.10287386046606,1
237,120,44,0.128377223067703,1
238,82,44,0.116163058303466,1
240,83,44,0.110238791781629,1
240,84,44,0.109324494621842,1
241,84,44,0.134256523619734,1
241,85,44,0.109458826099468,1
242,85,44,0.109413184768682,1
207,92,45,0.106541430057055,1
217,86,45,0.109868497891717,1
218,85,45,0.104951869952938,1
232,79,45,0.115354520494658,1
232,80,45,0.101109185795424,1
233,79,45,0.147598475864061,1
233,80,45,0.124145934023367,1
234,79,45,0.121643405695586,1
234,80,45,0.102690728711126,1
237,81,45,0.123497402302366,1
237,120,45,0.129829793821948,1
238,81,45,0.175292066804552,1
238,82,45,0.1111837416156,1
239,82,45,0.108164289814683,1
240,83,45,0.11892820401643,1
217,86,46,0.103045140725076,1
228,126,46,0.114517029307036,1
229,126,46,0.115460868063264,1
233,78,46,0.130287111242087,1
233,79,46,0.117210216396808,1
234,78,46,0.130496571182345,1
234,79,46,0.107720479614157,1
237,80,46,0.121600171699909,1
237,81,46,0.109322424967224,1
237,120,46,0.12719943708921,1
238,80,46,0.180475309829803,1
238,81,46,0.155931471787809,1
238,82,46,0.104680342159979,1
239,81,46,0.151423143133479,1
239,82,46,0.11915184653728,1
240,82,46,0.14652947746804,1
240,83,46,0.126716739167703,1
241,83,46,0.158881415872319,1
241,84,46,0.130318711600228,1
226,126,47,0.11922951305005,1
227,126,47,0.12810630527821,1
228,126,47,0.126647699846815,1
229,126,47,0.138553998040169,1
230,125,47,0.104653371292431,1
230,126,47,0.146866504383199,1
233,77,47,0.115050303051654,1
233,78,47,0.109102540503443,1
234,77,47,0.12331555591188,1
234,78,47,0.10969745727692,1
235,78,47,0.107617301884991,1
237,79,47,0.119873742068029,1
237,80,47,0.110969467005126,1
237,120,47,0.11501816894048,1
238,80,47,0.15049853037936,1
238,81,47,0.125238657197062,1
239,81,47,0.145202916001272,1
239,82,47,0.13066626107518,1
240,82,47,0.167831462981037,1
240,83,47,0.130155317814598,1
241,83,47,0.152636755922701,1
241,84,47,0.131090801701922,1
242,84,47,0.164020695076316,1
242,85,47,0.151336686035043,1
242,86,47,0.100666334171773,1
243,100,47,0.100370983564869,1
243,101,47,0.113205423818112,1
226,126,48,0.117953200618822,1
227,126,48,0.137078018402902,1
228,126,48,0.150102126162504,1
229,125,48,0.103941486354281,1
229,126,48,0.175493182768824,1
229,127,48,0.170752529937167,1
230,125,48,0.119504406754993,1
230,126,48,0.173833450480238,1
234,77,48,0.10073970887444,1
236,78,48,0.108944734785283,1
236,79,48,0.101155872846438,1
237,78,48,0.123572247549103,1
237,79,48,0.123799125266909,1
237,80,48,0.101275891028442,1
238,79,48,0.14897050437491,1
238,80,48,0.129172972589556,1
238,81,48,0.104556903601395,1
239,80,48,0.154723991712007,1
239,81,48,0.146002107685543,1
239,82,48,0.149465086471092,1
239,83,48,0.107693073029847,1
240,81,48,0.181685208133631,1
240,82,48,0.195647207115664,1
240,83,48,0.140459975656617,1
240,111,48,0.119646613813085,1
240,112,48,0.127797992097646,1
241,82,48,0.181478340708105,1
241,83,48,0.14707945005755,1
241,84,48,0.126284050637519,1
241,85,48,0.103800575553555,1
241,110,48,0.107975798743581,1
241,111,48,0.184109710482315,1
242,83,48,0.129213679428016,1
242,84,48,0.154889836404421,1
242,85,48,0.153908918151774,1
242,86,48,0.105465340370737,1
243,101,48,0.115896737325809,1
243,102,48,0.104630452590766,1
243,103,48,0.101314756963584,1
226,126,49,0.107222335533449,1
227,126,49,0.140684326217205,1
228,126,49,0.168438122321241,1
228,127,49,0.179620139434575,1
229,125,49,0.127666645279838,1
229,126,49,0.214154537998013,1
229,127,49,0.17445446668774,1
230,125,49,0.133150532870647,1
230,126,49,0.204124447073366,1
235,77,49,0.100269581381508,1
236,77,49,0.11459986995635,1
236,78,49,0.111395870321024,1
236,79,49,0.1050707770572,1
237,78,49,0.13030196918366,1
237,79,49,0.12560842822686,1
238,78,49,0.154481591584567,1
238,79,49,0.148394976997328,1
238,80,49,0.120693183688799,1
239,79,49,0.196270761373302,1
239,80,49,0.165179298624377,1
239,81,49,0.141429641523894,1
239,82,49,0.143982244600511,1
239,83,49,0.100496186776338,1
240,80,49,0.188137781229003,1
240,81,49,0.181068069805309,1
240,82,49,0.190085064794458,1
240,83,49,0.131328147514927,1
240,111,49,0.119512881446007,1
240,112,49,0.151610370625972,1
241,82,49,0.177197684954672,1
241,83,49,0.132423245344972,1
241,84,49,0.114521538975519,1
241,85,49,0.10485007562449,1
241,110,49,0.105667218839342,1
241,111,49,0.180245153343365,1
242,84,49,0.135311241398891,1
242,85,49,0.140633739501174,1
242,86,49,0.106764898291201,1
243,101,49,0.109727369232609,1
243,102,49,0.115062644728928,1
243,103,49,0.121878540246026,1
243,104,49,0.111392929232882,1
226,126,50,0.103220396899542,1
227,126,50,0.141732105206932,1
228,125,50,0.125751223502581,1
228,126,50,0.185159526447903,1
228,127,50,0.173939068223269,1
229,125,50,0.175037041783942,1
229,126,50,0.254155994592339,1
230,125,50,0.142810406155815,1
236,77,50,0.110240480184081,1
236,78,50,0.115736317307078,1
236,79,50,0.105541405624408,1
237,78,50,0.134786104664797,1
237,79,50,0.12267416994577,1
238,78,50,0.157969972657321,1
238,79,50,0.147526353847084,1
238,80,50,0.120325111954371,1
239,79,50,0.203923581646232,1
239,80,50,0.180882541608186,1
239,81,50,0.149914462953249,1
239,82,50,0.136760685885372,1
240,80,50,0.215125467443899,1
240,81,50,0.19293221240197,1
240,82,50,0.182828746774656,1
240,83,50,0.121355985133745,1
240,111,50,0.100797114557791,1
241,82,50,0.171021879146318,1
241,83,50,0.120990244483992,1
241,84,50,0.0997785285910962,1
242,86,50,0.103289610507134,1
243,102,50,0.115245079337043,1
243,103,50,0.121325844426756,1
228,125,51,0.167460471944306,1
228,126,51,0.199702728018339,1
229,124,51,0.104941630609038,1
229,125,51,0.232378740128623,1
229,126,51,0.280447470779587,1
230,125,51,0.149167992997141,1
236,77,51,0.104536435806515,1
236,78,51,0.10995498766891,1
237,78,51,0.130965391524992,1
237,79,51,0.113522407762233,1
238,79,51,0.140382254679252,1
238,80,51,0.11812582070688,1
239,79,51,0.19064831585228,1
239,80,51,0.178395633726311,1
239,81,51,0.160457708401043,1
239,82,51,0.125302587738919,1
240,80,51,0.216047618398315,1
240,81,51,0.207206402443746,1
240,82,51,0.168205242605043,1
240,83,51,0.105478771339916,1
241,82,51,0.155147867870687,1
241,83,51,0.107256234297507,1
242,105,51,0.100115882293826,1
227,125,52,0.10255879367569,1
228,124,52,0.10998603248818,1
228,125,52,0.202625690342382,1
228,126,52,0.206131619907714,1
229,124,52,0.129178745836648,1
229,125,52,0.26550495658291,1
229,126,52,0.275352678256957,1
230,125,52,0.159442531918009,1
233,122,52,0.100422093141014,1
237,78,52,0.121971805418863,1
237,79,52,0.104148288422293,1
238,79,52,0.1319481180022,1
238,80,52,0.11270767188249,1
239,80,52,0.164404419935408,1
239,81,52,0.17001095090171,1
239,82,52,0.122258267403829,1
240,81,52,0.224809904261506,1
240,82,52,0.169266103990539,1
241,82,52,0.147936232604795,1
242,105,52,0.10818524779092,1
227,125,53,0.115207564123863,1
228,124,53,0.140158710194673,1
228,125,53,0.217038939388648,1
228,126,53,0.203184584232587,1
229,124,53,0.145925083854997,1
229,125,53,0.265248297624444,1
230,124,53,0.121236969100293,1
233,121,53,0.105972667182198,1
233,122,53,0.131392742524846,1
234,121,53,0.1087373771784,1
234,122,53,0.119838775797905,1
238,79,53,0.128064705220389,1
238,80,53,0.11377428472924,1
238,81,53,0.10555058835516,1
239,80,53,0.155705933899045,1
239,81,53,0.17075705049857,1
239,82,53,0.125801102178874,1
240,81,53,0.223610659232501,1
240,82,53,0.179747608373204,1
240,83,53,0.106377567875906,1
241,82,53,0.166563592562067,1
241,83,53,0.110273888766783,1
226,125,54,0.115551736793912,1
227,124,54,0.125942699233501,1
227,125,54,0.148972879031262,1
228,124,54,0.170937295629957,1
228,125,54,0.211179246090892,1
229,124,54,0.157113658505595,1
229,125,54,0.245483074236968,1
230,124,54,0.146359177571738,1
233,121,54,0.137243503628988,1
233,122,54,0.157088386933417,1
234,120,54,0.103838711663121,1
234,121,54,0.155463206984033,1
235,120,54,0.102985491100402,1
238,79,54,0.130205599528896,1
238,80,54,0.135125212127493,1
238,81,54,0.130021400267896,1
239,80,54,0.166922982640018,1
239,81,54,0.177989338738965,1
239,82,54,0.132219689366835,1
240,81,54,0.21075664440374,1
240,82,54,0.186090936383505,1
240,83,54,0.118622058526756,1
226,124,55,0.108590497058038,1
226,125,55,0.148274381490615,1
227,123,55,0.106661992885011,1
227,124,55,0.168541626837978,1
227,125,55,0.193517075011171,1
228,123,55,0.116203187817217,1
228,124,55,0.188296055342683,1
228,125,55,0.197070345202659,1
229,124,55,0.159683200071322,1
229,125,55,0.215377442447178,1
230,124,55,0.160002210098385,1
232,122,55,0.10858945133781,1
233,120,55,0.11162877182306,1
233,121,55,0.164635262675745,1
233,122,55,0.16823540509787,1
234,120,55,0.143813774714608,1
234,121,55,0.207571576661708,1
238,79,55,0.131330816280092,1
238,80,55,0.151106562227363,1
238,81,55,0.148105911604712,1
239,80,55,0.183796277629801,1
239,81,55,0.184152181973659,1
239,82,55,0.141035219818304,1
240,81,55,0.198590234196583,1
240,82,55,0.184016216558178,1
240,83,55,0.132151358085685,1
226,123,56,0.115137718726966,1
226,124,56,0.13432729491475,1
227,122,56,0.101169412744807,1
227,123,56,0.159100526938848,1
227,124,56,0.20358409293137,1
227,125,56,0.215467657602683,1
228,123,56,0.149433115753703,1
228,124,56,0.192388481455071,1
228,125,56,0.179857365425471,1
229,123,56,0.115120061305199,1
229,124,56,0.163375910519466,1
232,121,56,0.107590069587386,1
232,122,56,0.116083104277698,1
233,120,56,0.149257042610309,1
233,121,56,0.196078174564641,1
234,118,56,0.099952924224958,1
234,119,56,0.149978339030511,1
234,120,56,0.200017402663623,1
235,118,56,0.116731875642918,1
235,119,56,0.158286902136847,1
238,79,56,0.134948060585113,1
238,80,56,0.157367321911325,1
238,81,56,0.153675036287024,1
238,82,56,0.106595175719608,1
239,80,56,0.205959577144365,1
239,81,56,0.194620810926017,1
239,82,56,0.158092964606224,1
239,83,56,0.12047292886577,1
240,81,56,0.205712416811303,1
240,82,56,0.18991210702591,1
240,83,56,0.149510052440897,1
240,84,56,0.10151480542179,1
241,83,56,0.164545232699863,1
243,97,56,0.100477102382176,1
226,122,57,0.144227749209879,1
226,123,57,0.174866883495587,1
226,124,57,0.156748473394713,1
226,125,57,0.147416073934704,1
227,122,57,0.145245267670507,1
227,123,57,0.221237876463429,1
227,124,57,0.231373781203649,1
228,122,57,0.111533295387657,1
228,123,57,0.181937662425348,1
228,124,57,0.203872798857658,1
229,122,57,0.104580116411874,1
229,123,57,0.145743760324625,1
229,124,57,0.17596576116854,1
230,122,57,0.112788203232967,1
230,123,57,0.135765900946784,1
231,122,57,0.111430782126553,1
232,121,57,0.125977981398278,1
232,122,57,0.127224893841011,1
233,119,57,0.128364881390428,1
233,120,57,0.182830446070027,1
233,121,57,0.226637561790043,1
234,118,57,0.132017081072655,1
234,119,57,0.211825457620137,1
234,120,57,0.250137073897646,1
235,118,57,0.134297633496199,1
235,119,57,0.19973318461998,1
238,79,57,0.13382144954028,1
238,80,57,0.142872474008516,1
238,81,57,0.137602915492777,1
238,82,57,0.108572120703614,1
239,80,57,0.206875083418165,1
239,81,57,0.190803300304409,1
239,82,57,0.171409264026207,1
239,83,57,0.133943417554792,1
240,81,57,0.213892410794187,1
240,82,57,0.19747874252338,1
240,83,57,0.164542455005507,1
240,84,57,0.123478132728581,1
241,83,57,0.171908094360815,1
225,121,58,0.1055010146806,1
225,122,58,0.160415193338023,1
225,123,58,0.135752110511277,1
226,121,58,0.120486359834949,1
226,122,58,0.225761727527393,1
226,123,58,0.250946483139978,1
226,124,58,0.176738831632948,1
227,122,58,0.186939821564445,1
227,123,58,0.275123208024419,1
227,124,58,0.252677956193373,1
228,122,58,0.132218894183745,1
228,123,58,0.20093659074406,1
228,124,58,0.219460086718266,1
229,121,58,0.113299778282854,1
229,122,58,0.143225262977528,1
229,123,58,0.164312026196094,1
230,121,58,0.140852905032298,1
230,122,58,0.163934052798257,1
230,123,58,0.167726662206934,1
231,120,58,0.100603547386415,1
231,121,58,0.128258610072255,1
231,122,58,0.139314922899845,1
232,120,58,0.116728618660125,1
232,121,58,0.144181301803084,1
233,118,58,0.107253914105751,1
233,119,58,0.164389758066377,1
233,120,58,0.202069258251881,1
234,118,58,0.166589757353606,1
234,119,58,0.273201021744437,1
235,118,58,0.13978911345158,1
238,79,58,0.128681320688597,1
238,80,58,0.115866509475468,1
238,81,58,0.11328878732754,1
238,82,58,0.107496717271197,1
239,80,58,0.18592669295019,1
239,81,58,0.174832189548439,1
239,82,58,0.177209449307237,1
239,83,58,0.146839925660736,1
239,84,58,0.108333947028762,1
240,81,58,0.216240335922006,1
240,82,58,0.201886714714576,1
240,83,58,0.179678667088588,1
240,84,58,0.146943419284554,1
241,83,58,0.175645367740759,1
201,96,59,0.116465718059047,1
201,97,59,0.114944968524518,1
224,122,59,0.100192938803129,1
225,121,59,0.153145270062337,1
225,122,59,0.207932611570435,1
225,123,59,0.165451883030483,1
226,121,59,0.163283146420904,1
226,122,59,0.278253745813726,1
226,123,59,0.301547425323112,1
227,121,59,0.122847683253189,1
227,122,59,0.209851617118057,1
227,123,59,0.299000900495321,1
228,121,59,0.122212473572176,1
228,122,59,0.158184094766929,1
228,123,59,0.207310756608168,1
229,120,59,0.104694513847652,1
229,121,59,0.165579733221278,1
229,122,59,0.185239698332052,1
230,120,59,0.141633426253331,1
230,121,59,0.207503060200935,1
230,122,59,0.214103798781115,1
231,119,59,0.11022389026838,1
231,120,59,0.150790885433527,1
231,121,59,0.188861681056856,1
232,119,59,0.115208675201605,1
232,120,59,0.14041662183883,1
233,118,59,0.153390044846129,1
233,119,59,0.208540000736215,1
234,118,59,0.203725286947992,1
238,79,59,0.133252762915856,1
238,80,59,0.102120462613442,1
238,81,59,0.1011735847328,1
238,82,59,0.111002178441009,1
239,80,59,0.16300849236018,1
239,81,59,0.158745886173599,1
239,82,59,0.176098327993281,1
239,83,59,0.160828841045722,1
239,84,59,0.122503880942387,1
240,81,59,0.204839480065118,1
240,82,59,0.195138725654786,1
240,83,59,0.187888878028894,1
240,84,59,0.164652843847079,1
240,85,59,0.112675004018283,1
241,83,59,0.179267089035506,1
241,84,59,0.16787122213554,1
201,96,60,0.113200543790381,1
201,97,60,0.113604344299267,1
224,121,60,0.120310406513664,1
224,122,60,0.111068298459594,1
225,120,60,0.136450390193542,1
225,121,60,0.194416851909875,1
225,122,60,0.217780725389567,1
226,120,60,0.132473744917651,1
226,121,60,0.189938620390858,1
226,122,60,0.273329296759075,1
227,120,60,0.116359065488707,1
227,121,60,0.145720808944203,1
227,122,60,0.210895071618925,1
228,120,60,0.116425828189516,1
228,121,60,0.154185674545873,1
228,122,60,0.182100380849996,1
229,119,60,0.105014613166619,1
229,120,60,0.145986389203365,1
229,121,60,0.203866611679643,1
230,119,60,0.14332131673764,1
230,120,60,0.20212770965546,1
230,121,60,0.256487994272518,1
231,119,60,0.141464346363962,1
231,120,60,0.190509779707904,1
232,118,60,0.127379388111783,1
232,119,60,0.149652738787427,1
233,117,60,0.108001669426306,1
233,118,60,0.210293738916133,1
238,82,60,0.117619419793538,1
238,83,60,0.105782498601563,1
239,81,60,0.148139418223685,1
239,82,60,0.170613656112301,1
239,83,60,0.172403722177224,1
239,84,60,0.133493343925817,1
240,82,60,0.177864549458421,1
240,83,60,0.187963472738494,1
240,84,60,0.177676603033271,1
240,85,60,0.130182375825498,1
241,84,60,0.205222758314529,1
201,97,61,0.103233468402392,1
223,120,61,0.102500592809249,1
224,120,61,0.132878798112226,1
224,121,61,0.139555841590296,1
225,119,61,0.111023125524327,1
225,120,61,0.185508208786436,1
225,121,61,0.211769468016261,1
226,119,61,0.123245340155735,1
226,120,61,0.178459335516869,1
226,121,61,0.200236437479719,1
227,119,61,0.129130261453993,1
227,120,61,0.153652803839259,1
227,121,61,0.167211492493764,1
228,119,61,0.122839774993965,1
228,120,61,0.143873620411825,1
228,121,61,0.174874868005245,1
229,119,61,0.148872435424776,1
229,120,61,0.182162219951398,1
230,118,61,0.122021749452671,1
230,119,61,0.192090189760026,1
230,120,61,0.246570427201575,1
231,118,61,0.117154085184985,1
231,119,61,0.16235074522967,1
232,118,61,0.170015013960512,1
233,117,61,0.122940131457098,1
238,80,61,0.107901149569387,1
238,81,61,0.103115073265325,1
238,82,61,0.118257167524688,1
238,83,61,0.110475266161111,1
239,81,61,0.137149541309332,1
239,82,61,0.154464108449504,1
239,83,61,0.164539829812018,1
239,84,61,0.133325473150461,1
240,82,61,0.157489300818757,1
240,83,61,0.176656328664124,1
240,84,61,0.180528075129642,1
240,85,61,0.143363472334332,1
219,117,62,0.104170422833786,1
222,119,62,0.107105421833371,1
223,119,62,0.126261426044668,1
223,120,62,0.12063916570327,1
224,119,62,0.124039390382218,1
224,120,62,0.160199894793158,1
225,119,62,0.14100013372607,1
225,120,62,0.214180419573656,1
226,119,62,0.157443975382623,1
226,120,62,0.212129827564007,1
227,119,62,0.158739502923041,1
227,120,62,0.184263224390373,1
228,118,62,0.101439666066238,1
228,119,62,0.154584671277461,1
228,120,62,0.166579093185864,1
229,118,62,0.126003111362507,1
229,119,62,0.202849605186209,1
230,118,62,0.139959010309877,1
230,119,62,0.233331413042194,1
231,118,62,0.129177079220035,1
238,81,62,0.108163603560784,1
238,82,62,0.111915026842563,1
238,83,62,0.106780453379592,1
239,82,62,0.133422213164473,1
239,83,62,0.145140586718514,1
239,84,62,0.130500133166871,1
240,86,62,0.11140364786522,1
218,117,63,0.123601538608407,1
218,118,63,0.101879543922991,1
219,117,63,0.142978276931171,1
219,118,63,0.128198764375038,1
222,119,63,0.117838879433477,1
223,118,63,0.102512150196352,1
223,119,63,0.14485229472315,1
224,119,63,0.14578485930817,1
225,119,63,0.163600468045516,1
225,120,63,0.22185923035142,1
226,118,63,0.105371574123624,1
226,119,63,0.180654694420586,1
227,118,63,0.121546894432874,1
227,119,63,0.175538943921719,1
228,118,63,0.137398302901493,1
228,119,63,0.185150441753422,1
229,118,63,0.167513574924635,1
238,82,63,0.0999943064243984,1
238,91,63,0.105158083803321,1
239,85,63,0.119003691945391,1
239,90,63,0.130837639370468,1
239,91,63,0.140127218765723,1
239,92,63,0.104293578176475,1
218,116,64,0.123945645920943,1
218,117,64,0.155283953108279,1
219,116,64,0.101817378034018,1
219,117,64,0.161715110724814,1
219,118,64,0.144055858947397,1
222,118,64,0.101867147781121,1
222,119,64,0.115719193638345,1
223,118,64,0.107570255367649,1
223,119,64,0.150242307137655,1
225,118,64,0.102424494876822,1
225,119,64,0.183924824967415,1
226,118,64,0.113924302010286,1
227,118,64,0.138190305259196,1
228,117,64,0.101549150795529,1
228,118,64,0.179745201038096,1
237,95,64,0.0999238183452779,1
238,90,64,0.130193508388759,1
238,91,64,0.158712662770521,1
238,92,64,0.132782733459195,1
239,89,64,0.101031399460545,1
239,90,64,0.160553522516937,1
239,91,64,0.182589407557466,1
239,92,64,0.134006073625122,1
239,98,64,0.114052675061196,1
218,116,65,0.131382198179213,1
218,117,65,0.159206678434912,1
219,116,65,0.104595399177289,1
219,117,65,0.148761883189419,1
222,117,65,0.115586888243661,1
222,118,65,0.102371337431897,1
223,76,65,0.103631506557104,1
223,117,65,0.10536650891627,1
223,118,65,0.107939568894848,1
224,75,65,0.116283751846451,1
224,76,65,0.114333995588374,1
225,118,65,0.114054254534457,1
237,94,65,0.11972728677151,1
237,95,65,0.135302309205277,1
238,89,65,0.106698331662935,1
238,90,65,0.152646178297673,1
238,91,65,0.190396645850735,1
238,92,65,0.161594831112753,1
238,93,65,0.116509823488248,1
238,94,65,0.107588860473373,1
238,95,65,0.111753430388576,1
239,89,65,0.107701700221728,1
239,90,65,0.165855051750064,1
239,91,65,0.195495033036648,1
239,92,65,0.146841570491512,1
218,116,66,0.111180549990321,1
222,76,66,0.103434333829526,1
222,116,66,0.102653888858926,1
222,117,66,0.128915758092218,1
223,75,66,0.109523813254472,1
223,76,66,0.120512524626488,1
223,117,66,0.127989217291428,1
224,75,66,0.122017348713378,1
224,76,66,0.130010028060416,1
237,93,66,0.104316224555163,1
237,94,66,0.135341883180156,1
237,95,66,0.143260784786524,1
238,87,66,0.11313609038841,1
238,88,66,0.103415445507907,1
238,89,66,0.108629798709941,1
238,90,66,0.144250101479753,1
238,91,66,0.182031199921161,1
238,92,66,0.161899037662838,1
238,93,66,0.122860939935663,1
238,94,66,0.114088033476406,1
238,95,66,0.116747180194172,1
221,76,67,0.111567869512696,1
222,75,67,0.105659898797746,1
222,76,67,0.119196246075296,1
223,75,67,0.121060732563113,1
223,76,67,0.133908353248396,1
223,116,67,0.106085376215525,1
224,75,67,0.119747493136333,1
224,76,67,0.131135876600917,1
237,93,67,0.102566494969453,1
237,94,67,0.120972554383468,1
237,95,67,0.119322963402511,1
238,93,67,0.110382992243907,1
221,76,68,0.119805868289479,1
222,76,68,0.127383799743995,1
222,77,68,0.101166123083256,1
223,76,68,0.135318300010431,1
224,76,68,0.118042326482423,1
221,76,69,0.111086729278613,1
222,76,69,0.116929854446506,1
223,76,69,0.118957059358972,1
