x,y,z,signal,mito.p
11,997,40,0.116569211682865,1
11,996,41,0.103744956308926,1
11,997,41,0.116499246463858,1
1,992,42,0.101044732393453,1
2,991,42,0.106519284752642,1
2,992,42,0.102831073080063,1
5,993,42,0.104639700679033,1
6,992,42,0.10663187396386,1
6,993,42,0.107202477742035,1
16,996,42,0.114095081195026,1
1,992,43,0.110047163549843,1
2,991,43,0.115988096237814,1
2,992,43,0.126411312610686,1
2,993,43,0.102291394299048,1
3,992,43,0.104907993275037,1
5,992,43,0.10031617039625,1
5,993,43,0.124217064784711,1
5,994,43,0.109611555717355,1
6,992,43,0.112938786945803,1
6,993,43,0.123847718578756,1
16,996,43,0.131425748069543,1
1,991,44,0.126871124509285,1
1,992,44,0.11270448025721,1
2,991,44,0.123919197913509,1
2,992,44,0.140567739304699,1
2,993,44,0.116014587816924,1
3,992,44,0.119143404525023,1
3,993,44,0.100353206320993,1
5,992,44,0.104293621748151,1
5,993,44,0.133411080601212,1
5,994,44,0.115504298131485,1
6,992,44,0.112827493991951,1
6,993,44,0.130191046589056,1
6,994,44,0.10141338145259,1
16,996,44,0.126803828055444,1
1,992,45,0.107117752617727,1
2,991,45,0.127099559914514,1
2,992,45,0.139258857045536,1
2,993,45,0.119352744643171,1
3,991,45,0.104461841096916,1
3,992,45,0.126911983848611,1
3,993,45,0.105906329305232,1
5,991,45,0.104891446931012,1
5,992,45,0.106258660771644,1
5,993,45,0.128433681067097,1
5,994,45,0.11229789116105,1
6,991,45,0.120455859661632,1
6,992,45,0.109554781823308,1
6,993,45,0.12402276778776,1
6,994,45,0.102922105204497,1
16,996,45,0.107195440916334,1
1,992,46,0.102358581823699,1
1,993,46,0.100527296953122,1
2,992,46,0.125807354714404,1
2,993,46,0.11535824587297,1
3,991,46,0.104275637538813,1
3,992,46,0.123492369773769,1
3,993,46,0.108228318392812,1
4,992,46,0.106092718042959,1
4,993,46,0.101419623095201,1
5,991,46,0.118556232616985,1
5,992,46,0.105841396614823,1
5,993,46,0.114887922307495,1
5,994,46,0.103198251595129,1
6,991,46,0.133318675968979,1
6,992,46,0.102122575839736,1
6,993,46,0.109413380841225,1
1,992,47,0.104643153734369,1
1,993,47,0.100628840744431,1
2,992,47,0.108218591016107,1
2,993,47,0.10368624347529,1
3,992,47,0.112248459094438,1
3,993,47,0.107676853473393,1
4,992,47,0.112402931579372,1
4,993,47,0.107754029804806,1
5,991,47,0.122237952109816,1
5,992,47,0.105842649300513,1
5,993,47,0.103697833541151,1
6,991,47,0.130274159561346,1
1,992,48,0.112633240566676,1
1,993,48,0.101413512167618,1
2,993,48,0.100391592967697,1
3,992,48,0.105186111284016,1
3,993,48,0.12086951826225,1
3,994,48,0.102241079905993,1
4,992,48,0.121119227538368,1
4,993,48,0.128980298637542,1
5,991,48,0.11203387948223,1
5,992,48,0.106251133764586,1
5,993,48,0.10179439397484,1
6,991,48,0.110492073935193,1
2,993,49,0.101867583497883,1
2,994,49,0.105558638222332,1
3,992,49,0.103418604454429,1
3,993,49,0.137777093268258,1
3,994,49,0.129782464088711,1
4,992,49,0.124999394230305,1
4,993,49,0.154833933943898,1
4,994,49,0.120226792467098,1
5,992,49,0.105289626693672,1
5,993,49,0.11131575290147,1
22,998,49,0.108304329181887,1
23,998,49,0.111809289277423,1
25,1000,49,0.103918676581808,1
25,1001,49,0.106132074159458,1
26,1001,49,0.120308467574075,1
30,1010,49,0.101177767613712,1
30,1011,49,0.106786596985932,1
31,1011,49,0.190914560579504,1
31,1012,49,0.126056704524194,1
33,1019,49,0.125759251583915,1
33,1020,49,0.115059431317811,1
33,1021,49,0.10331557922613,1
1,994,50,0.100791232381508,1
2,993,50,0.101944716257619,1
2,994,50,0.117277970353249,1
3,993,50,0.140585287797276,1
3,994,50,0.146142016337718,1
4,992,50,0.11242614438985,1
4,993,50,0.155709779099467,1
4,994,50,0.131164928016002,1
5,993,50,0.10754886167465,1
22,997,50,0.11051700782688,1
22,998,50,0.136989796651581,1
22,999,50,0.105194760261735,1
23,997,50,0.107844353889502,1
23,998,50,0.141737780417753,1
23,999,50,0.118532050336712,1
24,998,50,0.11355587080953,1
24,999,50,0.105261533855462,1
24,1000,50,0.111206518709317,1
24,1001,50,0.105115644990733,1
25,1000,50,0.107242988507952,1
25,1001,50,0.115163306193795,1
26,1001,50,0.113357935577619,1
30,1009,50,0.102918597684565,1
30,1010,50,0.124226683232225,1
30,1011,50,0.132983086919134,1
31,1010,50,0.228614190879397,1
31,1011,50,0.265268972384785,1
31,1012,50,0.157780316043882,1
32,1011,50,0.291596809135795,1
33,1018,50,0.0998852465189503,1
33,1019,50,0.114945262633332,1
1,994,51,0.100629908250497,1
2,994,51,0.121076538188643,1
3,993,51,0.132006242618208,1
3,994,51,0.152423755783755,1
3,995,51,0.10231365942557,1
4,993,51,0.140767471868252,1
4,994,51,0.137116285227497,1
10,993,51,0.102648180969348,1
11,993,51,0.104219462755313,1
21,997,51,0.102473077295749,1
22,997,51,0.132339642191325,1
22,998,51,0.153871500974865,1
22,999,51,0.117692315207767,1
23,997,51,0.135328800784387,1
23,998,51,0.160964839139961,1
23,999,51,0.136927216831685,1
23,1000,51,0.109079349478803,1
24,998,51,0.126473315105873,1
24,999,51,0.123690631793251,1
24,1000,51,0.137507471736131,1
24,1001,51,0.119632278731626,1
25,1000,51,0.119077088433896,1
25,1001,51,0.121532559351415,1
26,1000,51,0.101516537395917,1
26,1001,51,0.110678190349944,1
29,1007,51,0.100677847987201,1
30,1007,51,0.108538047652851,1
30,1008,51,0.113699668233803,1
30,1009,51,0.120091654913464,1
30,1010,51,0.132777080034212,1
30,1011,51,0.141522536337484,1
31,1009,51,0.179792726843876,1
31,1010,51,0.260167143036455,1
31,1011,51,0.302949082573756,1
31,1012,51,0.183240945724123,1
32,1010,51,0.298478519669744,1
32,1011,51,0.33397586316941,2
32,1012,51,0.201702864026986,1
2,994,52,0.114998910259614,1
2,995,52,0.100153615365387,1
3,993,52,0.114455789316182,1
3,994,52,0.146050221708951,1
3,995,52,0.113896013099534,1
4,993,52,0.116053628038771,1
4,994,52,0.132755882413757,1
10,993,52,0.111022733379241,1
10,994,52,0.10282712984337,1
11,993,52,0.12222687401115,1
11,994,52,0.116461099461373,1
12,993,52,0.116197893858563,1
12,994,52,0.113878116033548,1
13,993,52,0.10040804127545,1
21,997,52,0.113997687605872,1
21,998,52,0.100059685724488,1
22,996,52,0.10015699217029,1
22,997,52,0.154351334058663,1
22,998,52,0.154711606463057,1
22,999,52,0.122252374334627,1
23,997,52,0.179975967528,1
23,998,52,0.175971033341357,1
23,999,52,0.153587402753331,1
23,1000,52,0.127944730610061,1
24,998,52,0.136540529098615,1
24,999,52,0.146084556189771,1
24,1000,52,0.160317592783407,1
24,1001,52,0.125997654010067,1
25,999,52,0.112305298345999,1
25,1000,52,0.136894004321526,1
25,1001,52,0.126438130977367,1
26,1000,52,0.10930531219141,1
26,1001,52,0.111112654425933,1
28,1006,52,0.111149123918885,1
28,1007,52,0.10254128875479,1
29,1006,52,0.124464203331935,1
29,1007,52,0.130990467024626,1
29,1008,52,0.104479433161169,1
30,1007,52,0.152221136596655,1
30,1008,52,0.14687342138679,1
30,1009,52,0.139023874995963,1
30,1010,52,0.139268301206345,1
30,1011,52,0.140165866842484,1
30,1012,52,0.099952651901982,1
31,1008,52,0.167972972892311,1
31,1009,52,0.203063781760412,1
31,1010,52,0.261208353596,1
31,1011,52,0.297578677413526,2
31,1012,52,0.202468984809045,1
31,1013,52,0.105613745499765,1
32,1010,52,0.315151679057969,2
32,1011,52,0.342695819149205,2
32,1012,52,0.240858115098456,2
32,1013,52,0.139552203355336,1
33,1011,52,0.185348736451662,2
2,994,53,0.109485034462683,1
2,995,53,0.11112803522762,1
3,993,53,0.100625431260771,1
3,994,53,0.142104893575305,1
3,995,53,0.129467364619584,1
4,993,53,0.100034032900144,1
4,994,53,0.132419618002931,1
4,995,53,0.106528031766633,1
9,994,53,0.108059521719338,1
10,993,53,0.112588655849037,1
10,994,53,0.114750562598376,1
11,993,53,0.13725097617145,1
11,994,53,0.13284055307347,1
12,993,53,0.154152102569385,1
12,994,53,0.144127991857292,1
13,993,53,0.125827550186308,1
13,994,53,0.116218873620637,1
20,996,53,0.134238408695368,1
20,997,53,0.116487133537884,1
21,996,53,0.121425471064314,1
21,997,53,0.126689397940908,1
22,996,53,0.116911565235435,1
22,997,53,0.173774933719145,1
22,998,53,0.149670178350814,1
22,999,53,0.125195041949218,1
23,997,53,0.226211125795388,1
23,998,53,0.187087093829892,1
23,999,53,0.168417872384742,1
23,1000,53,0.143882737785063,1
24,998,53,0.144201181380335,1
24,999,53,0.162851808612681,1
24,1000,53,0.169892370585019,1
24,1001,53,0.122332687826723,1
25,999,53,0.131914654954903,1
25,1000,53,0.151186461788536,1
25,1001,53,0.128758584163362,1
26,1000,53,0.122497944301509,1
26,1001,53,0.11306309693791,1
28,1005,53,0.116454160671944,1
28,1006,53,0.126673733923326,1
28,1007,53,0.103721939570991,1
29,1005,53,0.127203707113474,1
29,1006,53,0.163515448812393,1
29,1007,53,0.161633609904542,1
29,1008,53,0.121132680293385,1
30,1006,53,0.171374352220678,1
30,1007,53,0.218663923265489,1
30,1008,53,0.194996529489612,1
30,1009,53,0.164342689763197,1
30,1010,53,0.148721317958907,1
30,1011,53,0.1345618630334,1
30,1012,53,0.101136842916872,1
31,1007,53,0.189914372753071,1
31,1008,53,0.209379605150131,1
31,1009,53,0.226911235488053,1
31,1010,53,0.252499769823685,1
31,1011,53,0.270380104285978,2
31,1012,53,0.21666574798227,1
31,1013,53,0.126407870448269,1
32,1010,53,0.300050825390099,2
32,1011,53,0.325551497440739,2
32,1012,53,0.286839936747685,2
32,1013,53,0.191133638967276,1
32,1014,53,0.114728428186883,1
33,1011,53,0.185789616456966,2
33,1012,53,0.186943546942757,1
33,1013,53,0.176366620589284,1
2,994,54,0.103197979272153,1
2,995,54,0.117883398793601,1
3,994,54,0.135105855410355,1
3,995,54,0.139498730015759,1
4,994,54,0.130561035477235,1
4,995,54,0.117257557022964,1
8,994,54,0.109398631828842,1
9,994,54,0.120588252199668,1
10,993,54,0.110447184215821,1
10,994,54,0.1199486635652,1
11,993,54,0.145989079754369,1
11,994,54,0.136708508803161,1
12,992,54,0.104535422765044,1
12,993,54,0.186747583329192,1
12,994,54,0.158890446102205,1
13,993,54,0.146992960280357,1
13,994,54,0.122921308492994,1
19,996,54,0.100026484107248,1
20,995,54,0.106967277834081,1
20,996,54,0.165333030390816,1
20,997,54,0.130076148079001,1
21,996,54,0.141961107043951,1
21,997,54,0.13100110940653,1
22,996,54,0.128494790342923,1
22,997,54,0.172646416413479,1
22,998,54,0.13965471661644,1
22,999,54,0.12735303814062,1
22,1000,54,0.101103042189084,1
23,997,54,0.234625426466865,1
23,998,54,0.18636648366359,1
23,999,54,0.180284258922726,1
23,1000,54,0.161485586027681,1
24,998,54,0.151293462932285,1
24,999,54,0.177424617137073,1
24,1000,54,0.183605716904081,1
24,1001,54,0.120607401951343,1
25,999,54,0.157319643604678,1
25,1000,54,0.177530779526056,1
25,1001,54,0.135800191855928,1
26,1000,54,0.141872406004193,1
26,1001,54,0.116010350471417,1
28,1005,54,0.132409563838656,1
28,1006,54,0.132507665467548,1
29,1005,54,0.167393763708093,1
29,1006,54,0.206569711325743,1
29,1007,54,0.191628199277619,1
29,1008,54,0.135321251991491,1
30,1006,54,0.240136568141117,1
30,1007,54,0.299347229963341,3
30,1008,54,0.251583392116361,3
30,1009,54,0.202871587096836,1
30,1010,54,0.164596233346817,1
30,1011,54,0.128808953021012,1
31,1007,54,0.241995335846437,1
31,1008,54,0.264170879002003,3
31,1009,54,0.274514228492459,3
31,1010,54,0.258206591895606,1
31,1011,54,0.243026307062082,1
31,1012,54,0.222939110773564,1
31,1013,54,0.145315102174485,1
32,1009,54,0.252763182391958,1
32,1010,54,0.272302835211913,1
32,1011,54,0.29862171798347,2
32,1012,54,0.327294364487452,4
32,1013,54,0.248461939021535,1
32,1014,54,0.156618313905081,1
32,1015,54,0.108998295268212,1
33,1012,54,0.216511046746036,1
33,1013,54,0.227343074370553,1
33,1014,54,0.211442854731707,1
33,1015,54,0.167108761374279,1
33,1016,54,0.126643963575584,1
33,1017,54,0.100564016983212,1
2,995,55,0.111480246871923,1
3,994,55,0.125573156955002,1
3,995,55,0.135991994374419,1
4,994,55,0.126960402873753,1
4,995,55,0.120805184682388,1
8,994,55,0.116345808806233,1
9,994,55,0.123460213876757,1
10,993,55,0.111136400989444,1
10,994,55,0.123009203456743,1
11,993,55,0.148602280139616,1
11,994,55,0.131071227126403,1
12,992,55,0.118417881652233,1
12,993,55,0.198048921477712,1
12,994,55,0.149890901569361,1
13,992,55,0.0999162150877866,1
13,993,55,0.155766901566923,1
13,994,55,0.116924636738285,1
19,996,55,0.101243539058888,1
20,995,55,0.114435953310606,1
20,996,55,0.174918428788494,1
20,997,55,0.13205851773669,1
21,995,55,0.101842017816891,1
21,996,55,0.160772078044594,1
21,997,55,0.138919368330674,1
22,996,55,0.136759041054596,1
22,997,55,0.160828971760751,1
22,998,55,0.135599217499604,1
22,999,55,0.136000185849538,1
22,1000,55,0.117858432223157,1
23,997,55,0.206989916570706,1
23,998,55,0.179761921668825,1
23,999,55,0.191097931978656,1
23,1000,55,0.179069426126571,1
24,998,55,0.16064206016291,1
24,999,55,0.19186172167604,1
24,1000,55,0.197827599148618,1
24,1001,55,0.122711478193489,1
25,999,55,0.18496513141468,1
25,1000,55,0.199445088697158,1
25,1001,55,0.139476737212213,1
26,1000,55,0.152867718485148,1
26,1001,55,0.114298125205968,1
28,1004,55,0.101994366182612,1
28,1005,55,0.142396497018059,1
28,1006,55,0.132763649065034,1
29,1004,55,0.117371181061491,1
29,1005,55,0.205974674730157,1
29,1006,55,0.251504374881631,1
29,1007,55,0.219151098176722,3
29,1008,55,0.149078485881373,3
29,1009,55,0.106258235947802,1
30,1005,55,0.190707573331868,1
30,1006,55,0.322994558982343,3
30,1007,55,0.379171847853114,3
30,1008,55,0.31328334736973,3
30,1009,55,0.245977634547311,3
30,1010,55,0.176768209835604,1
30,1011,55,0.123462348888889,1
31,1007,55,0.299471888528857,3
31,1008,55,0.343224430724473,3
31,1009,55,0.345905461316594,3
31,1010,55,0.271188859953168,3
31,1011,55,0.224201992235613,1
31,1012,55,0.224606032388717,4
31,1013,55,0.157439629107925,1
32,1008,55,0.212866820680548,3
32,1009,55,0.2638107155268,3
32,1010,55,0.249447334263909,1
32,1011,55,0.279340423417352,4
32,1012,55,0.353752611265233,4
32,1013,55,0.290551764268748,4
32,1014,55,0.201274336591875,1
32,1015,55,0.142114207021086,1
32,1016,55,0.102435812619706,1
33,1012,55,0.242437109071103,4
33,1013,55,0.272663194759659,5
33,1014,55,0.291950066500326,5
33,1015,55,0.242384648772996,5
33,1016,55,0.164993334710492,1
33,1017,55,0.117396016916907,1
3,994,56,0.107601267508161,1
3,995,56,0.119041239837328,1
4,994,56,0.113952024489248,1
4,995,56,0.117421647955413,1
7,994,56,0.106337057109989,1
7,995,56,0.107318520008589,1
8,994,56,0.115672898732416,1
8,995,56,0.106210775499536,1
9,994,56,0.120432766673263,1
9,995,56,0.107926628107026,1
10,993,56,0.108013194134652,1
10,994,56,0.125111122900918,1
10,995,56,0.112443573060317,1
11,993,56,0.137984505339736,1
11,994,56,0.122627254143456,1
12,992,56,0.122357294930839,1
12,993,56,0.178325821008171,1
12,994,56,0.126972897051894,1
13,992,56,0.105875447879748,1
13,993,56,0.14439680731341,1
13,994,56,0.101355376658691,1
20,995,56,0.108865957194771,1
20,996,56,0.158627937646213,1
20,997,56,0.121386572450415,1
21,996,56,0.168113567798386,1
21,997,56,0.13949905680333,1
22,997,56,0.145080272625779,1
22,998,56,0.130158890692044,1
22,999,56,0.138621882711638,1
22,1000,56,0.130935544926817,1
23,998,56,0.168998149075026,1
23,999,56,0.192292035549874,1
23,1000,56,0.186282586401129,1
23,1001,56,0.111232345820366,1
24,999,56,0.210714968095485,1
24,1000,56,0.204029896536082,1
24,1001,56,0.132005774222689,1
25,1000,56,0.208678711167295,1
25,1001,56,0.140496053004484,1
25,1002,56,0.111918349182871,1
26,1001,56,0.109227090139769,1
28,1004,56,0.116857688857853,1
28,1005,56,0.145004708446385,1
28,1006,56,0.128457885133208,1
29,1005,56,0.227302378425012,1
29,1006,56,0.272204995013078,3
29,1007,56,0.222248434348789,3
29,1008,56,0.154499510436391,3
29,1009,56,0.119916496775269,1
30,1005,56,0.221159665304707,3
30,1006,56,0.35892008134371,3
30,1007,56,0.388778487442924,3
30,1008,56,0.328575393552625,3
30,1009,56,0.265986271103699,3
30,1010,56,0.178805392661913,1
30,1011,56,0.11930557830372,1
31,1006,56,0.210046948942318,3
31,1007,56,0.313481729211323,3
31,1008,56,0.394334399014438,3
31,1009,56,0.396462918966914,3
31,1010,56,0.27112731496058,3
31,1011,56,0.205361381602257,1
31,1012,56,0.210590875961759,4
31,1013,56,0.154899422173178,1
31,1014,56,0.101814600339662,1
32,1007,56,0.153719566540067,3
32,1008,56,0.24339551166009,3
32,1009,56,0.282356367698338,3
32,1010,56,0.233268691614351,1
32,1011,56,0.259706132916761,4
32,1012,56,0.344157736027988,4
32,1013,56,0.300946724409624,4
32,1014,56,0.24628167770361,5
32,1015,56,0.180770399006649,5
32,1016,56,0.115205287503783,1
33,1012,56,0.259586267235623,4
33,1013,56,0.314619952107855,5
33,1014,56,0.389322697678261,5
33,1015,56,0.332914239279581,5
33,1016,56,0.205384627091492,5
34,1013,56,0.188934010039294,5
34,1014,56,0.294684298109049,5
34,1015,56,0.305764967503617,5
3,995,57,0.100079478158388,1
4,994,57,0.100669057401534,1
4,995,57,0.112205649922603,1
5,995,57,0.113541797158128,1
5,996,57,0.104260986562701,1
6,995,57,0.108127667820864,1
7,994,57,0.105860568152337,1
7,995,57,0.11115111732307,1
8,994,57,0.111808515880171,1
8,995,57,0.115176268767455,1
9,994,57,0.117819773253477,1
9,995,57,0.127858110117839,1
10,993,57,0.103178437375392,1
10,994,57,0.125841242585544,1
10,995,57,0.140596670897674,1
10,996,57,0.105999115189632,1
11,993,57,0.120836109679548,1
11,994,57,0.115228729065561,1
11,995,57,0.115708148218436,1
12,992,57,0.116600605075544,1
12,993,57,0.145138680457682,1
12,994,57,0.104816579898436,1
13,992,57,0.10752612815261,1
13,993,57,0.126008971752952,1
20,996,57,0.126651207366747,1
20,997,57,0.104066210277312,1
21,996,57,0.152453754882796,1
21,997,57,0.130978343205733,1
22,997,57,0.135265926855677,1
22,998,57,0.128104867412897,1
22,999,57,0.138946077768165,1
22,1000,57,0.140893807943301,1
22,1001,57,0.104058966486149,1
23,998,57,0.165372767759481,1
23,999,57,0.192957004685709,1
23,1000,57,0.187465230621515,1
23,1001,57,0.134102639352429,1
24,999,57,0.237251861748748,1
24,1000,57,0.203366169193017,1
24,1001,57,0.148236158237697,1
24,1002,57,0.107940200684152,1
25,1000,57,0.203044457722032,1
25,1001,57,0.138016508735881,1
25,1002,57,0.117591479456196,1
26,1001,57,0.103163437825871,1
28,1005,57,0.13607804843485,1
28,1006,57,0.118912888572257,1
29,1006,57,0.257291935269491,1
29,1007,57,0.205400247537398,3
29,1008,57,0.164721697988343,3
29,1009,57,0.149076808371841,1
29,1010,57,0.113712630807463,1
30,1006,57,0.330253382373525,3
30,1007,57,0.329699869585327,3
30,1008,57,0.296238216582061,3
30,1009,57,0.254700618758599,3
30,1010,57,0.17238852655516,1
30,1011,57,0.117630650393071,1
31,1007,57,0.275478404328539,3
31,1008,57,0.372979092662731,3
31,1009,57,0.372627425664381,3
31,1010,57,0.245324930838317,3
31,1011,57,0.185755129475279,1
31,1012,57,0.182241694688728,1
31,1013,57,0.143055856300587,1
31,1014,57,0.109717532926714,1
32,1008,57,0.253039666463081,3
32,1009,57,0.281825991470185,3
32,1012,57,0.294204573954441,4
32,1013,57,0.27560108038279,5
32,1014,57,0.266260228017604,5
32,1015,57,0.201968084819819,5
32,1016,57,0.122948497218923,1
33,1012,57,0.259256560362061,5
33,1013,57,0.327718709041651,5
33,1014,57,0.438282011604258,5
33,1015,57,0.379579155881931,5
33,1016,57,0.229960381386279,5
34,1013,57,0.204071463915146,5
34,1014,57,0.32373092030958,5
34,1015,57,0.354219024272771,5
34,1016,57,0.289067582263442,5
35,1014,57,0.142899205231845,5
35,1015,57,0.200087858063986,5
4,995,58,0.107482425761414,1
4,996,58,0.116362453186529,1
5,995,58,0.133923646906731,1
5,996,58,0.140637889703329,1
6,995,58,0.120855586218795,1
6,996,58,0.112099531105296,1
7,995,58,0.106849449128804,1
8,994,58,0.107515463984868,1
8,995,58,0.126521178592143,1
8,996,58,0.113715462966414,1
9,994,58,0.117168768839853,1
9,995,58,0.155184152184016,1
9,996,58,0.132971801855007,1
10,994,58,0.121442148123367,1
10,995,58,0.168641809014407,1
10,996,58,0.139902879098054,1
11,994,58,0.107875017456605,1
11,995,58,0.14325616618885,1
11,996,58,0.131105997323985,1
12,992,58,0.105699799560197,1
12,993,58,0.110118250739511,1
13,992,58,0.104668251019842,1
13,993,58,0.103979034246219,1
16,996,58,0.113082279368343,1
18,994,58,0.116576357437756,1
18,995,58,0.107048658832244,1
21,996,58,0.122038001687881,1
21,997,58,0.115265427309814,1
22,997,58,0.12599682614822,1
22,998,58,0.121634680467434,1
22,999,58,0.130644758452992,1
22,1000,58,0.145913493789136,1
22,1001,58,0.133640027973636,1
23,998,58,0.156855474538462,1
23,999,58,0.183621021455335,1
23,1000,58,0.180653561557005,1
23,1001,58,0.16423566683361,1
23,1002,58,0.101077204185117,1
24,999,58,0.258696903967523,1
24,1000,58,0.196463195681098,1
24,1001,58,0.165974078676435,1
24,1002,58,0.125632392648752,1
25,1000,58,0.189935221800117,1
25,1001,58,0.132713356457817,1
25,1002,58,0.114622200440386,1
28,1005,58,0.119370325814505,1
28,1006,58,0.108606422505677,1
28,1008,58,0.109716661493191,1
28,1009,58,0.114890471250551,1
29,1006,58,0.224667729882171,1
29,1007,58,0.195602524361754,1
29,1008,58,0.1996858875655,1
29,1009,58,0.200007446535619,1
29,1010,58,0.140768103657557,1
30,1007,58,0.260841872227752,3
30,1008,58,0.264012888104219,3
30,1009,58,0.244510619782416,1
30,1010,58,0.166851416161913,1
30,1011,58,0.113363850432658,1
31,1008,58,0.312844558804882,3
31,1009,58,0.312326208359351,3
31,1010,58,0.211222883124574,1
31,1012,58,0.15184291266168,1
31,1013,58,0.141424107921021,1
31,1014,58,0.135080965090344,1
31,1015,58,0.106539632725413,1
32,1013,58,0.252071351317765,5
32,1014,58,0.284787667228504,5
32,1015,58,0.219190530543654,5
33,1012,58,0.244526044155779,5
33,1013,58,0.315858934505526,5
33,1014,58,0.432961299940698,5
33,1015,58,0.383634589641253,5
33,1016,58,0.242131758764518,5
34,1013,58,0.210799889292336,5
34,1014,58,0.323259605488472,5
34,1015,58,0.3781080018078,5
34,1016,58,0.329216855769168,5
34,1017,58,0.23033864889293,5
35,1014,58,0.147824569291696,5
35,1015,58,0.226118318125151,5
35,1016,58,0.266034417805864,5
2,998,59,0.100883898443798,1
3,997,59,0.10081508787421,1
4,995,59,0.112505891450157,1
4,996,59,0.13462837519707,1
4,997,59,0.101756573759926,1
5,995,59,0.149844323447537,1
5,996,59,0.16728191521537,1
6,995,59,0.131307919364266,1
6,996,59,0.129969920332504,1
7,993,59,0.11032007474352,1
7,994,59,0.100804619779011,1
7,995,59,0.105086288573915,1
8,992,59,0.12521706743152,1
8,993,59,0.134336630146369,1
8,994,59,0.115802916614101,1
8,995,59,0.136501281911307,1
8,996,59,0.137577251775514,1
9,992,59,0.114563465820912,1
9,993,59,0.112809738533913,1
9,994,59,0.123028505709286,1
9,995,59,0.176315935836982,1
9,996,59,0.168736196157905,1
9,997,59,0.10729611327412,1
10,994,59,0.118061890165023,1
10,995,59,0.179818684669953,1
10,996,59,0.164304978477474,1
11,994,59,0.104542198160688,1
11,995,59,0.158363326856846,1
11,996,59,0.161071099565215,1
12,996,59,0.107744966896163,1
15,995,59,0.102101999115666,1
15,996,59,0.146489391525966,1
16,995,59,0.128674185826625,1
16,996,59,0.186691985870402,1
16,997,59,0.118569663586164,1
17,995,59,0.113348567667243,1
17,996,59,0.11897242926774,1
18,994,59,0.131986254111766,1
18,995,59,0.118077859184338,1
21,997,59,0.103558425963252,1
21,999,59,0.102223999808935,1
21,1000,59,0.119006502318504,1
22,998,59,0.117827561690592,1
22,999,59,0.121655268084423,1
22,1000,59,0.148059246339536,1
22,1001,59,0.154770929300159,1
23,999,59,0.168377426976339,1
23,1000,59,0.169995036346989,1
23,1001,59,0.194936030217253,1
23,1002,59,0.136282813527001,1
24,1000,59,0.187460241664593,1
24,1001,59,0.185556900134553,1
24,1002,59,0.150010473141684,1
25,1001,59,0.128862371895994,1
25,1002,59,0.111600504698146,1
28,1006,59,0.104625725063902,1
28,1007,59,0.115945494031441,1
28,1008,59,0.141933210278285,1
28,1009,59,0.144752526477644,1
28,1010,59,0.112241694591713,1
28,1011,59,0.101860949710186,1
28,1012,59,0.127061380233272,1
28,1013,59,0.122862617445196,1
29,1007,59,0.212434437152097,1
29,1008,59,0.254167671801552,1
29,1009,59,0.246393003336219,1
29,1010,59,0.164636482682678,1
29,1011,59,0.11260317611012,1
29,1012,59,0.11475563869865,1
29,1013,59,0.109875142572333,1
30,1008,59,0.249072203917942,1
30,1009,59,0.235749096423558,1
30,1010,59,0.163535862142678,1
30,1011,59,0.111695109700025,1
30,1013,59,0.101321826468042,1
30,1014,59,0.100343566087641,1
31,1013,59,0.162503256989176,1
31,1014,59,0.188231830692012,5
32,1013,59,0.252489748338166,5
32,1014,59,0.316963476496381,5
32,1015,59,0.246365574966071,5
33,1013,59,0.288539537119964,5
33,1014,59,0.391404465222208,5
33,1015,59,0.37309860977046,5
33,1016,59,0.25786601388884,5
34,1013,59,0.211018510177508,5
34,1014,59,0.300068994779061,5
34,1015,59,0.380328283710285,5
34,1016,59,0.351078399640431,5
34,1017,59,0.242972016753577,5
35,1014,59,0.155045681397155,5
35,1015,59,0.244563907942369,5
35,1016,59,0.296609948337287,5
1,999,60,0.0999807338472722,1
2,998,60,0.10748167415,1
2,999,60,0.102027088511414,1
3,997,60,0.112701168809822,1
3,998,60,0.100505630937147,1
4,995,60,0.11105242747655,1
4,996,60,0.137737758937598,1
4,997,60,0.115633989225598,1
5,995,60,0.145461296040948,1
5,996,60,0.166575258878361,1
5,997,60,0.104755699373911,1
6,995,60,0.128979623276561,1
6,996,60,0.133138779411001,1
7,993,60,0.122279301630499,1
7,994,60,0.101082236713714,1
7,995,60,0.10332569874792,1
7,996,60,0.105570925435011,1
8,992,60,0.148643912876194,1
8,993,60,0.155694289368589,1
8,994,60,0.114183629733918,1
8,995,60,0.133593351815541,1
8,996,60,0.152920287712444,1
8,997,60,0.117144641024176,1
9,992,60,0.128942783424361,1
9,993,60,0.119087425814066,1
9,994,60,0.114980849799842,1
9,995,60,0.176866006462763,1
9,996,60,0.20364219576154,1
9,997,60,0.146540599138382,1
10,994,60,0.103948730145444,1
10,995,60,0.170301889876401,1
10,996,60,0.184838544802493,1
10,997,60,0.118649650290689,1
11,995,60,0.151692819130201,1
11,996,60,0.171765876409803,1
11,997,60,0.105592972703152,1
12,995,60,0.102184676371194,1
12,996,60,0.121164465831149,1
15,995,60,0.123608335789889,1
15,996,60,0.185515812043927,1
15,997,60,0.111452557071718,1
16,995,60,0.159744004345414,1
16,996,60,0.237419133413557,1
16,997,60,0.140748681582905,1
17,995,60,0.122374843423416,1
17,996,60,0.13582336109473,1
18,995,60,0.113362020422259,1
20,1000,60,0.104416265123644,1
21,999,60,0.116975452205616,1
21,1000,60,0.146807628155777,1
21,1001,60,0.104663545278816,1
22,998,60,0.108610169669828,1
22,999,60,0.110995076257794,1
22,1000,60,0.140669500954389,1
22,1001,60,0.14979335547934,1
23,999,60,0.144674097460542,1
23,1000,60,0.149747474504335,1
23,1001,60,0.195700952778217,1
23,1002,60,0.155854513314777,1
24,1000,60,0.169082874199335,1
24,1001,60,0.18031514034821,1
24,1002,60,0.161519114432492,1
25,1001,60,0.116422266204989,1
25,1002,60,0.105930740336805,1
27,1012,60,0.102814472271443,1
28,1007,60,0.122836365510305,1
28,1008,60,0.152726273931388,1
28,1009,60,0.153518733791691,1
28,1010,60,0.135594816760311,1
28,1011,60,0.140531563920561,1
28,1012,60,0.164730739111148,1
28,1013,60,0.145173995301216,1
29,1008,60,0.274157681466378,1
29,1009,60,0.245494381086933,1
29,1010,60,0.172915809194305,1
29,1011,60,0.133763847784386,1
29,1012,60,0.13314389908295,1
29,1013,60,0.119846128518258,1
30,1010,60,0.153764194829382,1
30,1012,60,0.101805886004429,1
30,1013,60,0.121191709021673,1
30,1014,60,0.135488207761647,1
31,1014,60,0.26630552077498,5
32,1013,60,0.276362735068042,5
32,1014,60,0.354891139163498,5
32,1015,60,0.267491737872812,5
33,1013,60,0.256778421280015,5
33,1014,60,0.33765736480386,5
33,1015,60,0.349000509975663,5
33,1016,60,0.266945675841238,5
34,1014,60,0.260257183905255,5
34,1015,60,0.350535126196133,5
34,1016,60,0.345618389328163,5
34,1017,60,0.253546513986103,5
35,1015,60,0.240988634054417,5
35,1016,60,0.301950615828531,5
2,998,61,0.105987732089233,1
2,999,61,0.100045034748377,1
3,997,61,0.116319949016428,1
3,998,61,0.105396540694068,1
4,995,61,0.10571658554844,1
4,996,61,0.12858736926186,1
4,997,61,0.121345255608489,1
5,995,61,0.125017846835162,1
5,996,61,0.141679960803478,1
5,997,61,0.106001729490202,1
6,995,61,0.114355650711429,1
6,996,61,0.119262627523937,1
7,993,61,0.124008868423062,1
7,994,61,0.102238106139095,1
7,995,61,0.100050993175093,1
7,996,61,0.105877724499828,1
8,993,61,0.157586737979587,1
8,994,61,0.110867280531593,1
8,995,61,0.122889773492367,1
8,996,61,0.155241307330229,1
8,997,61,0.128299992271695,1
9,993,61,0.117876775898824,1
9,994,61,0.10523915979975,1
9,995,61,0.163991567410798,1
9,996,61,0.225786476239456,1
9,997,61,0.180063187130769,1
10,995,61,0.159651741321129,1
10,996,61,0.204097258347437,1
10,997,61,0.148722124034916,1
11,995,61,0.138432411277822,1
11,996,61,0.164654957073373,1
11,997,61,0.111929754069108,1
12,995,61,0.103173622705176,1
12,996,61,0.120876282764975,1
15,995,61,0.135215144067103,1
15,996,61,0.191782508368767,1
15,997,61,0.133792746698604,1
16,995,61,0.178283850591103,1
16,996,61,0.239688956311844,1
16,997,61,0.151098207358458,1
17,995,61,0.127123437193054,1
17,996,61,0.136739989339192,1
20,999,61,0.111868568542849,1
20,1000,61,0.124853276614276,1
21,999,61,0.118742850106012,1
21,1000,61,0.152632540363032,1
21,1001,61,0.100251150562489,1
22,999,61,0.100087680526426,1
22,1000,61,0.125559813129176,1
22,1001,61,0.128004783272739,1
23,999,61,0.124192348751405,1
23,1000,61,0.131416641589224,1
23,1001,61,0.171552429661176,1
23,1002,61,0.152750913714261,1
24,1000,61,0.154421092312208,1
24,1001,61,0.162671694196322,1
24,1002,61,0.15678386448868,1
24,1003,61,0.107595167473498,1
25,1001,61,0.108756853717647,1
25,1002,61,0.101214095498717,1
26,1016,61,0.114221656914294,1
26,1017,61,0.124208187055692,1
27,1010,61,0.103442449054212,1
27,1011,61,0.128043790815828,1
27,1012,61,0.138246839509024,1
27,1013,61,0.122670542603729,1
27,1017,61,0.10562732896981,1
28,1008,61,0.1427662353691,1
28,1009,61,0.147866812031741,1
28,1010,61,0.15498297086223,1
28,1011,61,0.179085373360048,1
28,1012,61,0.186247772631871,1
28,1013,61,0.149047234096642,1
28,1014,61,0.100208907822444,1
29,1010,61,0.164907160827951,1
29,1011,61,0.148640252855396,1
29,1012,61,0.140201965976189,1
29,1013,61,0.120750741873017,1
29,1014,61,0.100252926108293,1
31,1014,61,0.329843873975061,5
32,1013,61,0.297056383731302,5
32,1014,61,0.362921290152041,5
32,1015,61,0.266166396412976,5
33,1014,61,0.282646533275778,5
33,1015,61,0.309103995763387,5
33,1016,61,0.266471746719561,5
34,1015,61,0.297928340114773,5
34,1016,61,0.318797430132123,5
34,1017,61,0.260861414124513,5
35,1016,61,0.282185719228627,5
1,1001,62,0.110099427775407,1
1,1002,62,0.124635875736037,1
2,998,62,0.101445047168245,1
2,1002,62,0.110898074813725,1
3,997,62,0.107850334102056,1
3,998,62,0.105251675763729,1
4,996,62,0.110592670042546,1
4,997,62,0.116443017215764,1
5,995,62,0.100752943771076,1
5,996,62,0.113219976757952,1
5,997,62,0.103035609420914,1
8,993,62,0.133292271533221,1
8,994,62,0.101259148611875,1
8,995,62,0.109312479732139,1
8,996,62,0.141975267838706,1
8,997,62,0.122561232161143,1
9,993,62,0.103575429809876,1
9,995,62,0.143994215918538,1
9,996,62,0.216557254508612,1
9,997,62,0.182719567047099,1
10,995,62,0.148619567202136,1
10,996,62,0.204247842060273,1
10,997,62,0.160185962749704,1
11,995,62,0.124956007733761,1
11,996,62,0.147162715530707,1
11,997,62,0.108355373400517,1
12,995,62,0.100116437832697,1
12,996,62,0.111704826183811,1
14,997,62,0.101516580967593,1
15,995,62,0.129801439553682,1
15,996,62,0.168383058615484,1
15,997,62,0.158579268083933,1
15,998,62,0.129099695923161,1
16,995,62,0.171102552104743,1
16,996,62,0.195556512671721,1
16,997,62,0.151545939009839,1
16,998,62,0.114086660968607,1
17,995,62,0.122364081219402,1
17,996,62,0.118701914516252,1
20,999,62,0.1128253480869,1
20,1000,62,0.12348268596874,1
21,999,62,0.108373564575317,1
21,1000,62,0.133511164741369,1
22,1000,62,0.101755037858341,1
22,1001,62,0.101204989018398,1
23,1000,62,0.103532130456685,1
23,1001,62,0.128995080328682,1
23,1002,62,0.124896238286978,1
24,1000,62,0.123987300443359,1
24,1001,62,0.12860204202381,1
24,1002,62,0.128495716241041,1
24,1003,62,0.101360234900584,1
25,1016,62,0.1114875560206,1
25,1017,62,0.13074869868649,1
25,1018,62,0.102656089228573,1
26,1011,62,0.0999525647586297,1
26,1012,62,0.120500967239384,1
26,1013,62,0.122967461790975,1
26,1014,62,0.106005291474728,1
26,1015,62,0.10894180459006,1
26,1016,62,0.153872622945526,1
26,1017,62,0.179227678454413,1
26,1018,62,0.122446388115683,1
27,1010,62,0.128961573709709,1
27,1011,62,0.166369088599654,1
27,1012,62,0.175700703769492,1
27,1013,62,0.157009576664149,1
27,1014,62,0.126621742020738,1
27,1015,62,0.110269564277923,1
27,1016,62,0.122162551324207,1
27,1017,62,0.137832777870401,1
27,1018,62,0.111212607851062,1
27,1019,62,0.105921503141458,1
28,1009,62,0.142951491243246,1
28,1010,62,0.171778969698491,1
28,1011,62,0.209308256530406,1
28,1012,62,0.192364909178265,1
28,1013,62,0.145064281820625,1
28,1014,62,0.110921026194146,1
28,1019,62,0.105098782752056,1
29,1010,62,0.158170304331422,1
29,1011,62,0.163378285175817,1
29,1012,62,0.144748964493118,1
29,1013,62,0.124968610841092,1
30,1014,62,0.204025626511817,5
31,1013,62,0.300694618691317,5
31,1014,62,0.347320691144364,5
31,1015,62,0.228033293292727,5
32,1013,62,0.292820911806055,5
32,1014,62,0.33403078526722,5
32,1015,62,0.249020985412606,5
33,1014,62,0.23419365294188,5
33,1015,62,0.260838560780363,5
34,1016,62,0.292488416345218,5
1,1001,63,0.133284602918216,1
1,1002,63,0.174157427678384,1
2,1001,63,0.133235628354203,1
2,1002,63,0.174468507660385,1
3,998,63,0.103255177990043,1
4,997,63,0.109133106034275,1
5,997,63,0.101118292275743,1
7,996,63,0.101557374949406,1
8,995,63,0.104081830723218,1
8,996,63,0.131344704751871,1
8,997,63,0.11431198099899,1
9,995,63,0.129856481473601,1
9,996,63,0.18874168466069,1
9,997,63,0.162727868979821,1
10,995,63,0.14081662071897,1
10,996,63,0.18563766023633,1
10,997,63,0.151585414948447,1
10,1024,63,0.102412153199547,1
11,995,63,0.116368444292003,1
11,996,63,0.127259021356369,1
12,996,63,0.101394460452214,1
14,996,63,0.103349064059265,1
14,997,63,0.122731346877821,1
14,998,63,0.105937243409473,1
15,995,63,0.114931581127016,1
15,996,63,0.141088399049067,1
15,997,63,0.185031164289912,1
15,998,63,0.167009330809264,1
16,995,63,0.149998567181172,1
16,996,63,0.149229156737562,1
16,997,63,0.154643090002283,1
16,998,63,0.132761721018363,1
17,995,63,0.115575690322886,1
17,996,63,0.100561173931342,1
19,1021,63,0.108845674579515,1
19,1022,63,0.142652731152683,1
19,1023,63,0.115386632819993,1
20,1000,63,0.101123978379483,1
20,1021,63,0.103530147945419,1
20,1022,63,0.129421374715389,1
20,1023,63,0.112246770691986,1
21,1000,63,0.101405593015475,1
22,1021,63,0.100277206424837,1
24,1017,63,0.114820135672297,1
24,1018,63,0.129082365288965,1
24,1019,63,0.115321623879151,1
25,1015,63,0.112041853098969,1
25,1016,63,0.148885986216064,1
25,1017,63,0.17970001720991,1
25,1018,63,0.142797868405998,1
25,1019,63,0.108427179522842,1
26,1011,63,0.133033259704241,1
26,1012,63,0.159725998350238,1
26,1013,63,0.165299109840919,1
26,1014,63,0.142449567319631,1
26,1015,63,0.138266174440323,1
26,1016,63,0.189174983194341,1
26,1017,63,0.223816186828985,1
26,1018,63,0.15981590850401,1
26,1019,63,0.129637196120367,1
26,1020,63,0.110160395443284,1
27,1008,63,0.101247896226504,1
27,1009,63,0.121058248977571,1
27,1010,63,0.156806554439045,1
27,1011,63,0.197389377015559,1
27,1012,63,0.202789541630612,1
27,1013,63,0.186226727512282,1
27,1014,63,0.153151217596134,1
27,1015,63,0.131682265420062,1
27,1016,63,0.146398304936937,1
27,1017,63,0.169342201922967,1
27,1018,63,0.154767770353637,1
27,1019,63,0.164107675034867,1
28,1010,63,0.195278568949446,1
28,1011,63,0.223328706916019,1
28,1012,63,0.181108733072093,1
28,1013,63,0.13890930327348,1
28,1014,63,0.124220299981667,1
28,1015,63,0.116997739117976,1
28,1016,63,0.109329189469949,1
30,1014,63,0.244256008692729,5
31,1013,63,0.32137641585866,5
31,1014,63,0.332014527738391,5
31,1015,63,0.22639223146738,5
32,1014,63,0.289073725869782,5
1,1001,64,0.150402857871414,1
1,1002,64,0.208402662812934,1
1,1003,64,0.113252274262912,1
2,1001,64,0.165242172553087,1
2,1002,64,0.226150822595572,1
2,1003,64,0.11532583943882,1
3,1001,64,0.100524562830442,1
3,1002,64,0.120128952268263,1
4,997,64,0.102924283788305,1
5,997,64,0.100115076217817,1
7,996,64,0.105512201708456,1
8,995,64,0.102489482031826,1
8,996,64,0.121046822305496,1
8,997,64,0.107836815989525,1
9,995,64,0.118369342804982,1
9,996,64,0.152311689432651,1
9,997,64,0.135621384589854,1
10,995,64,0.130613103630256,1
10,996,64,0.15344313693354,1
10,997,64,0.131459483439816,1
10,1023,64,0.100230944197666,1
11,995,64,0.113108945234158,1
11,996,64,0.112103332734042,1
11,1021,64,0.103496510611417,1
14,996,64,0.109423064646253,1
14,997,64,0.140347931091351,1
14,998,64,0.125920031068974,1
15,995,64,0.102493294553491,1
15,996,64,0.127581854798016,1
15,997,64,0.199367269683523,1
15,998,64,0.185592824981554,1
16,996,64,0.12369428092113,1
16,997,64,0.155561798794282,1
16,998,64,0.137354197472292,1
18,1021,64,0.100580007788366,1
18,1022,64,0.110991056770667,1
19,1021,64,0.151035344322666,1
19,1022,64,0.186452080221422,1
19,1023,64,0.140590396576306,1
20,1021,64,0.147634411603981,1
20,1022,64,0.181402885457902,1
20,1023,64,0.153088038665691,1
21,1020,64,0.126709375554431,1
21,1021,64,0.1460014541104,1
21,1022,64,0.146179270120841,1
22,1019,64,0.118899882426921,1
22,1020,64,0.167045658694269,1
22,1021,64,0.163119175310566,1
22,1022,64,0.122983223844828,1
23,1017,64,0.100044250458206,1
23,1018,64,0.128866217096415,1
23,1019,64,0.136218218517082,1
23,1020,64,0.141474324277804,1
23,1021,64,0.127734813167203,1
24,1015,64,0.110508587600461,1
24,1016,64,0.121537254199522,1
24,1017,64,0.155685204674108,1
24,1018,64,0.175907767267561,1
24,1019,64,0.149274514852452,1
24,1020,64,0.112873015500628,1
25,1013,64,0.104357704790875,1
25,1014,64,0.122841376253064,1
25,1015,64,0.141860903081684,1
25,1016,64,0.179225358262657,1
25,1017,64,0.214291723420427,1
25,1018,64,0.177877642747109,1
25,1019,64,0.136360011644251,1
25,1020,64,0.111915081307159,1
26,1010,64,0.115902521465821,1
26,1011,64,0.164743647220212,1
26,1012,64,0.18386655874346,1
26,1013,64,0.183634092958186,1
26,1014,64,0.165768333221571,1
26,1015,64,0.160094342407642,1
26,1016,64,0.206171379062217,1
26,1017,64,0.239207075359266,1
26,1018,64,0.190133494712519,1
26,1019,64,0.171631958863101,1
27,1010,64,0.17135579068663,1
27,1011,64,0.214571693225644,1
27,1012,64,0.214683258502471,1
27,1013,64,0.197494864043562,1
27,1014,64,0.165911335462753,1
27,1015,64,0.145644623868424,1
27,1016,64,0.161806643923524,1
31,1014,64,0.297879496265789,5
1,1002,65,0.197708648472679,1
2,1002,65,0.22737573134184,1
15,997,65,0.18695430914677,1
19,1022,65,0.196935098719834,1
20,1022,65,0.216639343546513,1
22,1021,65,0.228115491259818,1
24,1017,65,0.198453985565206,1
24,1018,65,0.217375639516235,1
24,1019,65,0.188327230876981,1
25,1015,65,0.17647241261902,1
25,1016,65,0.201639227593942,1
25,1017,65,0.230331677424743,1
25,1018,65,0.206098135074579,1
25,1019,65,0.173264001351482,1
26,1012,65,0.171435581318612,1
26,1013,65,0.167244193036728,1
26,1014,65,0.176275446856903,1
26,1015,65,0.179705964743707,1
26,1016,65,0.203770035059416,1
