x,y,z,signal,mito.p
833,229,24,0.106096290920405,1
834,228,24,0.113943440869043,1
834,229,24,0.133749937526769,1
833,229,25,0.114940720286092,1
834,228,25,0.121644734631709,1
834,229,25,0.151690509831364,1
853,195,25,0.104736898195644,1
839,180,26,0.112068213963051,1
840,180,26,0.109426550380347,1
841,179,26,0.101707196157909,1
841,180,26,0.11125651720772,1
842,179,26,0.119369465273901,1
842,180,26,0.131784310285647,1
843,179,26,0.10273059679482,1
843,180,26,0.109475132799274,1
853,195,26,0.113925685411005,1
853,196,26,0.124916510009315,1
818,217,27,0.103890714458627,1
818,218,27,0.100769980296457,1
839,180,27,0.118724528216183,1
840,178,27,0.105738284243172,1
840,179,27,0.111393659058458,1
840,180,27,0.120243883457075,1
841,177,27,0.125786113522272,1
841,178,27,0.132514310148163,1
841,179,27,0.130637580019343,1
841,180,27,0.129740003490285,1
842,177,27,0.127503850604756,1
842,178,27,0.131623291156369,1
842,179,27,0.147925437722025,1
842,180,27,0.153259057494649,1
843,178,27,0.105265520663832,1
843,179,27,0.124713934393891,1
843,180,27,0.131029256709335,1
844,180,27,0.104963078766632,1
853,195,27,0.105719940567505,1
853,196,27,0.121298187305308,1
817,222,28,0.140263881328023,1
817,223,28,0.125310354390196,1
817,224,28,0.102378439615112,1
818,215,28,0.110031357924313,1
818,220,28,0.109956523570495,1
818,221,28,0.109822573345036,1
818,222,28,0.103295361968388,1
819,227,28,0.102060954596715,1
839,179,28,0.116542099207369,1
839,180,28,0.125673861991545,1
839,181,28,0.101886079674416,1
840,178,28,0.133317891678808,1
840,179,28,0.151974411980355,1
840,180,28,0.148406490812756,1
840,181,28,0.1199206905491,1
841,177,28,0.149749119335111,1
841,181,28,0.129397530115606,1
842,177,28,0.168924469370626,1
842,180,28,0.188593540961719,1
842,181,28,0.12267268850878,1
843,177,28,0.143473087778652,1
843,179,28,0.167416943839814,1
843,180,28,0.160226789410273,1
843,181,28,0.110338701635082,1
844,178,28,0.127891202805889,1
844,179,28,0.13169820176062,1
844,180,28,0.146760015206644,1
844,181,28,0.114143325933463,1
845,179,28,0.101667110215834,1
845,180,28,0.116412909187532,1
853,196,28,0.106337634434699,1
817,224,29,0.11699007050297,1
817,225,29,0.101499054260855,1
818,221,29,0.131653312041249,1
818,222,29,0.115307909694077,1
819,217,29,0.11801530115028,1
819,218,29,0.130081202393437,1
819,219,29,0.107477338768221,1
819,226,29,0.100730678644554,1
819,227,29,0.131851149236889,1
819,228,29,0.126638255686006,1
820,227,29,0.123984686142789,1
820,228,29,0.120618000761571,1
838,179,29,0.102456585416319,1
839,179,29,0.127012176917959,1
839,180,29,0.135629891959626,1
839,181,29,0.118446083419633,1
840,181,29,0.168902454781243,1
840,182,29,0.114532083321152,1
841,182,29,0.117795329543147,1
842,181,29,0.150880730229785,1
843,180,29,0.182218340270302,1
843,181,29,0.139188063964682,1
844,177,29,0.163356259693514,1
844,179,29,0.165025850073832,1
844,180,29,0.179498193205901,1
844,181,29,0.148995721482493,1
845,178,29,0.124022931181545,1
845,179,29,0.115958118924611,1
845,180,29,0.1295467739994,1
845,181,29,0.106239903165054,1
854,186,29,0.100602915597111,1
854,187,29,0.110990642839744,1
854,188,29,0.110684638958017,1
854,193,29,0.10468089769885,1
817,224,30,0.122718101088266,1
817,225,30,0.10646916643213,1
818,188,30,0.101323765407632,1
818,221,30,0.146840459413769,1
818,222,30,0.122706717987867,1
819,216,30,0.100549115469963,1
819,217,30,0.13224203074379,1
819,218,30,0.159857857135241,1
819,219,30,0.135452413629675,1
819,220,30,0.105047106744121,1
819,226,30,0.101045331504,1
819,227,30,0.136277966178027,1
819,228,30,0.135088775313297,1
820,226,30,0.102714845633885,1
820,227,30,0.154359710713406,1
820,228,30,0.158807594559972,1
820,229,30,0.105251512369944,1
821,227,30,0.100165216324167,1
821,228,30,0.110108218361073,1
839,179,30,0.129740504564561,1
839,181,30,0.139597038610113,1
839,182,30,0.104903450927796,1
840,182,30,0.15249918924812,1
841,182,30,0.146304451546471,1
842,182,30,0.102980676430185,1
843,181,30,0.157472983226032,1
844,180,30,0.18855179929595,1
844,181,30,0.155535394358524,1
845,179,30,0.131136443032708,1
845,180,30,0.125816570123914,1
845,181,30,0.102611373795906,1
853,186,30,0.102299988812172,1
853,187,30,0.109421114813745,1
853,188,30,0.0996999361802085,1
854,186,30,0.128661364860912,1
854,187,30,0.14233723953847,1
854,188,30,0.134330127073701,1
854,189,30,0.115658509186362,1
854,193,30,0.104523560376208,1
855,188,30,0.187072497318376,1
817,223,31,0.154411147077122,1
818,221,31,0.156535342540738,1
818,222,31,0.124381907328573,1
819,216,31,0.115067699043364,1
819,217,31,0.138392107477367,1
819,220,31,0.121244703072812,1
819,227,31,0.127840027872229,1
819,228,31,0.132519429820113,1
820,226,31,0.103200441071857,1
820,227,31,0.164920047151178,1
820,228,31,0.185617508336103,1
820,229,31,0.135594773188635,1
821,227,31,0.118639933806904,1
821,228,31,0.145188417526027,1
821,229,31,0.116100750806546,1
839,179,31,0.120381733347551,1
839,182,31,0.131393962531779,1
840,183,31,0.116840619653714,1
842,182,31,0.11859960822061,1
844,181,31,0.14561441780392,1
845,178,31,0.197766163085221,1
845,179,31,0.158290159119641,1
845,180,31,0.123512380066049,1
846,179,31,0.116828495834821,1
853,186,31,0.116915660972994,1
853,187,31,0.136419879127306,1
853,188,31,0.128101131141665,1
854,186,31,0.168990948855539,1
854,188,31,0.165654611146772,1
854,189,31,0.138538758846429,1
854,190,31,0.128760294351651,1
854,191,31,0.117722041983833,1
854,192,31,0.107212684407177,1
818,214,32,0.109616206993786,1
818,215,32,0.16532581927841,1
818,222,32,0.119706383259869,1
819,216,32,0.118603333598923,1
819,221,32,0.0999878033517304,1
819,227,32,0.110809482703157,1
819,228,32,0.124355513785735,1
819,229,32,0.105030800044316,1
820,227,32,0.149810381111803,1
820,228,32,0.19141193126296,1
820,229,32,0.158910576216595,1
820,230,32,0.105299059961562,1
821,227,32,0.116159223995964,1
821,228,32,0.15778000014923,1
821,229,32,0.136155192087505,1
839,182,32,0.158063542831892,1
839,183,32,0.119793820721018,1
840,183,32,0.147243334024536,1
841,183,32,0.110473316328603,1
843,182,32,0.107962291523969,1
844,181,32,0.129290202184286,1
845,180,32,0.129351365924706,1
846,180,32,0.115020576275588,1
847,180,32,0.106972735186521,1
853,186,32,0.115626320610593,1
853,188,32,0.155486038542345,1
853,189,32,0.116396395522264,1
818,215,33,0.134204335644604,1
818,222,33,0.113768413445877,1
819,216,33,0.108556652758575,1
819,221,33,0.105360550489554,1
819,228,33,0.119526192593077,1
819,229,33,0.113709765969755,1
820,227,33,0.127263476560257,1
820,228,33,0.188882791533959,1
820,229,33,0.177865823929948,1
820,230,33,0.122890688497567,1
821,227,33,0.100680876218694,1
821,228,33,0.147729855360626,1
821,229,33,0.137730700326058,1
838,181,33,0.108398258822785,1
838,182,33,0.106239990308407,1
839,182,33,0.174324067553888,1
839,183,33,0.146093139809976,1
839,184,33,0.111141520661394,1
839,185,33,0.103192685313499,1
840,183,33,0.154060122760995,1
840,184,33,0.110057762360071,1
841,183,33,0.106470157687763,1
843,182,33,0.115267311784808,1
844,181,33,0.1282442205262,1
844,182,33,0.100191500937815,1
845,181,33,0.111333704432051,1
846,181,33,0.108078791293123,1
847,180,33,0.141783508891891,1
853,186,33,0.104169573186101,1
853,188,33,0.162512428827009,1
853,189,33,0.125850240136672,1
818,215,34,0.102027001368062,1
818,222,34,0.111987105287864,1
819,221,34,0.100747039808955,1
819,228,34,0.107707582398011,1
819,229,34,0.111274512309977,1
820,227,34,0.101720224089083,1
820,228,34,0.163068359843235,1
820,229,34,0.16856877199223,1
820,230,34,0.119680730435525,1
820,235,34,0.103903230422606,1
821,228,34,0.115367777177132,1
821,229,34,0.115191758498333,1
838,182,34,0.114145537196029,1
838,183,34,0.117899607457136,1
838,184,34,0.105143487291805,1
838,185,34,0.101625216049199,1
839,182,34,0.157056557823977,1
839,183,34,0.148479222833199,1
839,184,34,0.12294943400996,1
839,185,34,0.116391733352914,1
840,182,34,0.160936060047852,1
840,183,34,0.133856394024566,1
840,184,34,0.105920370277877,1
843,182,34,0.128186978236635,1
843,183,34,0.104838398415277,1
844,181,34,0.145789761121739,1
844,182,34,0.125385286780285,1
844,183,34,0.112107951331716,1
845,182,34,0.113186208708922,1
846,181,34,0.128104551518244,1
847,181,34,0.104733782820798,1
853,187,34,0.125473911569611,1
853,188,34,0.145128484685458,1
853,189,34,0.120317421553527,1
853,191,34,0.100990311369919,1
853,192,34,0.103949100504692,1
853,193,34,0.100115087110736,1
818,216,35,0.118994498321719,1
818,221,35,0.180744800646901,1
818,222,35,0.111679630862067,1
819,229,35,0.103471042966697,1
820,228,35,0.126051258064673,1
820,229,35,0.140758550567557,1
820,230,35,0.107191780895536,1
820,235,35,0.123438417145754,1
821,235,35,0.114688701711137,1
837,183,35,0.128723683250751,1
837,184,35,0.111876509480831,1
838,183,35,0.154009655867074,1
838,184,35,0.138267906414451,1
838,185,35,0.120706995910144,1
839,182,35,0.129272773513818,1
839,183,35,0.138322207615875,1
839,184,35,0.131488523961982,1
839,185,35,0.13002351349419,1
839,186,35,0.102886321965444,1
840,182,35,0.120689785098058,1
840,183,35,0.111693748085145,1
840,184,35,0.106504622883612,1
840,185,35,0.10713716379946,1
841,182,35,0.128984917235216,1
842,182,35,0.150329014773229,1
842,183,35,0.114003656925507,1
842,184,35,0.108457821304107,1
842,185,35,0.101966796204517,1
843,181,35,0.192123739950676,1
843,182,35,0.164403134570961,1
843,183,35,0.134345910913393,1
843,184,35,0.11564397803236,1
844,182,35,0.168134024700346,1
844,183,35,0.137783160624164,1
844,184,35,0.104882656345345,1
845,182,35,0.13642870239173,1
845,183,35,0.104773138937297,1
847,181,35,0.112764837921622,1
853,187,35,0.105066942749697,1
853,188,35,0.125993885060079,1
853,189,35,0.118011205412721,1
853,190,35,0.103735228932222,1
853,191,35,0.106961635302017,1
853,192,35,0.113149183677099,1
853,193,35,0.11665988434097,1
853,194,35,0.10361699718894,1
817,221,36,0.207391407780754,1
818,217,36,0.101732674695548,1
818,219,36,0.115903948438215,1
818,220,36,0.15409577528502,1
818,221,36,0.149667542264405,1
818,222,36,0.102751805308195,1
820,229,36,0.109799828930076,1
820,235,36,0.130773153289739,1
820,236,36,0.169500051212804,1
821,190,36,0.108354567324508,1
821,191,36,0.123893752054627,1
821,192,36,0.106616482269254,1
821,235,36,0.131752121709878,1
821,236,36,0.16892181149838,1
822,190,36,0.102009376625052,1
822,191,36,0.131214392761372,1
822,192,36,0.113270835796959,1
822,235,36,0.110797151918801,1
837,184,36,0.134426518514303,1
838,183,36,0.164993269352978,1
838,184,36,0.152642289525575,1
838,185,36,0.129368631201388,1
839,183,36,0.12291668989532,1
839,184,36,0.140848079469163,1
839,185,36,0.150416844379464,1
839,186,36,0.115914133317519,1
840,183,36,0.103363856643324,1
840,184,36,0.125466482598824,1
840,185,36,0.132083026804535,1
840,186,36,0.102008635906557,1
841,183,36,0.115196159237626,1
841,184,36,0.133942012368236,1
841,185,36,0.132935898793844,1
842,182,36,0.153635277132521,1
842,183,36,0.151129099676861,1
842,185,36,0.158558527966078,1
843,182,36,0.192838054009771,1
843,183,36,0.165953414809013,1
843,184,36,0.150512451529895,1
843,185,36,0.125683567582411,1
844,183,36,0.155798044422464,1
844,184,36,0.117771354228336,1
845,183,36,0.107860083264598,1
852,194,36,0.103683138993363,1
853,188,36,0.118653865850358,1
853,189,36,0.125213244016937,1
853,190,36,0.117594551259366,1
853,193,36,0.136221094247709,1
853,194,36,0.134925381527668,1
854,188,36,0.180194021981382,1
818,220,37,0.103966953999002,1
818,221,37,0.11138180756254,1
820,192,37,0.100705004034372,1
820,194,37,0.102514938783627,1
820,195,37,0.105837039447206,1
820,196,37,0.105545218146072,1
820,234,37,0.106829591337391,1
820,235,37,0.132830880161361,1
821,191,37,0.149991726428013,1
821,192,37,0.132740893757155,1
821,234,37,0.104669732456832,1
821,235,37,0.13541608574467,1
822,190,37,0.104080534465852,1
822,191,37,0.148554242366641,1
822,192,37,0.138182843609652,1
822,235,37,0.125545946443235,1
823,191,37,0.102787414260543,1
823,235,37,0.144138797632982,1
838,184,37,0.145947937199147,1
838,185,37,0.129186697667549,1
839,184,37,0.142674941814609,1
839,185,37,0.165675885017661,1
839,186,37,0.122418142776608,1
840,183,37,0.105752815397174,1
840,184,37,0.150150000541693,1
840,185,37,0.15824354831906,1
840,186,37,0.109192145655483,1
841,183,37,0.149884921356807,1
841,186,37,0.109648667892531,1
842,186,37,0.12048601126154,1
843,185,37,0.149717203082318,1
844,184,37,0.12025235814809,1
845,183,37,0.105936230368002,1
852,193,37,0.120900432366491,1
852,194,37,0.140123831067901,1
852,195,37,0.11583100945231,1
852,196,37,0.101963364935018,1
853,188,37,0.121644342486624,1
853,189,37,0.140297202767373,1
853,194,37,0.163154315867395,1
853,195,37,0.154269680737524,1
819,234,38,0.102627832996578,1
819,235,38,0.104761646907708,1
820,193,38,0.106911854661996,1
820,194,38,0.106863435636854,1
820,195,38,0.122282591292049,1
820,196,38,0.142581142888739,1
820,197,38,0.119901867584996,1
820,233,38,0.103817372434717,1
820,234,38,0.117912090742358,1
821,192,38,0.162653742665741,1
821,193,38,0.117811832315496,1
821,195,38,0.111511062939892,1
821,196,38,0.131550657172197,1
821,197,38,0.112356157385006,1
821,234,38,0.111144265676992,1
822,191,38,0.152175222942893,1
822,192,38,0.154915946731365,1
822,193,38,0.109837529322881,1
822,234,38,0.100746593199274,1
823,191,38,0.10093095585406,1
823,234,38,0.101169096850155,1
828,191,38,0.105865186750011,1
838,185,38,0.130205348991758,1
838,186,38,0.100847243771222,1
839,184,38,0.138458053209247,1
839,185,38,0.173082514427324,1
839,186,38,0.123660534657938,1
840,186,38,0.115825072811432,1
845,183,38,0.105027466811089,1
851,193,38,0.104368183778993,1
851,194,38,0.102555177226568,1
852,191,38,0.110507389379366,1
852,192,38,0.125423019851847,1
852,193,38,0.152143992944,1
852,194,38,0.174087712996516,1
852,195,38,0.143728003870072,1
818,208,39,0.101555109222245,1
819,196,39,0.104861752833703,1
819,233,39,0.106188989661452,1
819,234,39,0.118160198759377,1
819,235,39,0.115140071597479,1
820,194,39,0.108590104912952,1
820,195,39,0.13145682556757,1
820,196,39,0.170691627626804,1
820,197,39,0.157576433278173,1
820,198,39,0.112252631082431,1
820,233,39,0.110272222150169,1
820,234,39,0.125610312701854,1
821,193,39,0.139044244754571,1
821,194,39,0.118907039074731,1
821,195,39,0.138208627149024,1
821,196,39,0.186888668416624,1
821,197,39,0.183532810596933,1
821,198,39,0.129433738178502,1
822,192,39,0.157965310487971,1
822,193,39,0.12972403447097,1
822,194,39,0.103802024311787,1
822,196,39,0.111536966301374,1
822,197,39,0.110882966335014,1
823,192,39,0.10446895417305,1
827,191,39,0.10033448139316,1
838,185,39,0.139426673356296,1
838,186,39,0.107618761536143,1
839,186,39,0.128067199698849,1
851,191,39,0.100185226616447,1
851,192,39,0.132134299774465,1
851,193,39,0.135641928635167,1
851,194,39,0.11835060698423,1
851,195,39,0.104573232087039,1
851,196,39,0.101761976647771,1
852,190,39,0.110774756077251,1
852,191,39,0.135965535474066,1
852,192,39,0.160659499726296,1
852,193,39,0.177882119736835,1
818,233,40,0.103866466820839,1
818,234,40,0.11163297648981,1
818,235,40,0.106417305244572,1
819,196,40,0.103965167560279,1
819,233,40,0.126711183778992,1
819,234,40,0.137765623024507,1
819,235,40,0.12849072728412,1
820,195,40,0.12970890420642,1
820,196,40,0.165280853308605,1
820,197,40,0.1697093041876,1
820,198,40,0.128831174575857,1
820,202,40,0.102072544662576,1
820,233,40,0.118255522693913,1
820,234,40,0.130117900637689,1
821,194,40,0.135898130091034,1
821,195,40,0.144241910004633,1
821,196,40,0.203381854996437,1
821,197,40,0.230677309745944,1
821,198,40,0.166745417166715,1
821,199,40,0.104712171269419,1
821,201,40,0.104836361439417,1
821,202,40,0.110382556527145,1
821,222,40,0.105307926797662,1
821,223,40,0.127711829108025,1
821,224,40,0.121904552536698,1
821,225,40,0.101064742685733,1
821,233,40,0.111074790639343,1
822,193,40,0.166473758658728,1
822,194,40,0.13176142426274,1
822,195,40,0.109818673680019,1
822,196,40,0.125453585382679,1
822,197,40,0.13966483613823,1
822,198,40,0.10952805059998,1
822,222,40,0.0997158834136859,1
822,223,40,0.120807842554635,1
822,224,40,0.115574230671734,1
822,225,40,0.101233757217588,1
822,226,40,0.103486303946275,1
822,227,40,0.101189455715844,1
822,233,40,0.10988107921321,1
823,192,40,0.122614542106934,1
823,193,40,0.123245775872497,1
823,194,40,0.100082484604043,1
825,191,40,0.130453478794615,1
826,191,40,0.143130254937644,1
826,192,40,0.103668651411037,1
827,191,40,0.107495573514697,1
838,185,40,0.145261007938523,1
838,186,40,0.112577218284043,1
839,186,40,0.139908129485032,1
840,187,40,0.115044508018724,1
843,186,40,0.0997193800406984,1
844,185,40,0.10224612332751,1
845,184,40,0.103001383869284,1
847,184,40,0.101954498098918,1
851,191,40,0.115172630532495,1
851,192,40,0.155534686318786,1
851,193,40,0.156566223966222,1
851,194,40,0.131421064114355,1
851,195,40,0.119057916896382,1
852,188,40,0.100880281994676,1
852,189,40,0.107542358601982,1
852,190,40,0.121846275419824,1
818,233,41,0.118406215335939,1
818,234,41,0.127418689763686,1
819,232,41,0.106542867922368,1
819,233,41,0.136683792769855,1
819,234,41,0.147071694299192,1
819,235,41,0.136834332911014,1
820,196,41,0.147865101843451,1
820,197,41,0.161556063213882,1
820,198,41,0.131937410262782,1
820,202,41,0.10317994059822,1
820,222,41,0.115244447547739,1
820,223,41,0.121067714924219,1
820,224,41,0.110533761136367,1
820,233,41,0.119135289300337,1
820,234,41,0.129100872358417,1
821,195,41,0.145590845527114,1
821,196,41,0.189787165244499,1
821,197,41,0.234783874867249,1
821,198,41,0.176844482054736,1
821,199,41,0.10922753674945,1
821,201,41,0.110055115380744,1
821,202,41,0.113129304099847,1
821,221,41,0.124119224585876,1
821,222,41,0.161318946152177,1
821,223,41,0.184351315426665,1
821,224,41,0.165662247083021,1
821,225,41,0.135264271131982,1
821,226,41,0.123740695649168,1
821,227,41,0.104946009562493,1
821,232,41,0.103777471672267,1
821,233,41,0.119253945867461,1
822,194,41,0.15743752677455,1
822,195,41,0.118865090443501,1
822,196,41,0.126920284252921,1
822,197,41,0.148142195918041,1
822,198,41,0.116007964922147,1
822,221,41,0.106821628613571,1
822,222,41,0.141740416504161,1
822,223,41,0.164489493633125,1
822,224,41,0.149194179574518,1
822,225,41,0.130747162784905,1
822,226,41,0.133851448639321,1
822,227,41,0.125555510426154,1
822,228,41,0.110409189714203,1
822,229,41,0.102925732546538,1
822,232,41,0.107740119547189,1
822,233,41,0.120095075290043,1
823,193,41,0.146339799068763,1
823,194,41,0.11812627820948,1
823,223,41,0.10020872264282,1
823,226,41,0.101357533456662,1
823,227,41,0.114641829480499,1
823,228,41,0.117521699416813,1
823,229,41,0.111551268704076,1
823,230,41,0.106658409114646,1
823,231,41,0.100964506044709,1
823,233,41,0.102299248093677,1
825,192,41,0.111195669361951,1
826,192,41,0.111971223411901,1
827,191,41,0.103384215509014,1
838,186,41,0.119487468265882,1
839,187,41,0.113045788089552,1
842,187,41,0.106633900046802,1
843,186,41,0.103859996426929,1
844,185,41,0.107857316463162,1
851,191,41,0.12697635010723,1
851,194,41,0.143377306341516,1
852,189,41,0.121290420654032,1
819,221,42,0.104498702734954,1
819,222,42,0.116386177964203,1
819,223,42,0.10237323279981,1
819,232,42,0.1139525691352,1
819,233,42,0.144096173640771,1
819,234,42,0.158460665981405,1
820,197,42,0.141331104178241,1
820,198,42,0.12543605867594,1
820,202,42,0.100222632900437,1
820,221,42,0.161846904152303,1
820,222,42,0.189727275975606,1
820,223,42,0.163521646883328,1
820,224,42,0.130060233524281,1
820,225,42,0.106467532494274,1
820,232,42,0.106404723923078,1
820,233,42,0.122594836816387,1
821,196,42,0.16596254307517,1
821,197,42,0.201324966879582,1
821,198,42,0.162358195986294,1
821,199,42,0.1070584733523,1
821,201,42,0.106492074240876,1
821,202,42,0.105360866384206,1
821,220,42,0.121386812094634,1
821,221,42,0.199289951744163,1
821,222,42,0.247807492445494,2
821,223,42,0.237832824692932,1
821,224,42,0.196483674368897,1
821,225,42,0.165217227768481,1
821,226,42,0.149731864951348,1
821,227,42,0.121171818551503,1
821,228,42,0.10930598755239,1
821,229,42,0.113743926163871,1
821,230,42,0.114238715225514,1
821,231,42,0.113214421369241,1
821,232,42,0.116981214559789,1
821,233,42,0.124462874395812,1
822,195,42,0.135574120214131,1
822,196,42,0.128054041052647,1
822,197,42,0.141372780486495,1
822,198,42,0.114215959917635,1
822,220,42,0.11290732819561,1
822,221,42,0.152048701688221,1
822,222,42,0.191103160579796,1
822,223,42,0.199608591411978,1
822,224,42,0.173394542093281,1
822,225,42,0.154893452853543,1
822,226,42,0.154832027683066,1
822,227,42,0.145808311762867,1
822,228,42,0.141661529984459,1
822,229,42,0.137789565660561,1
822,230,42,0.129004219487758,1
822,231,42,0.123328867058949,1
822,232,42,0.121626630600262,1
822,233,42,0.121422715155796,1
823,194,42,0.145990277975463,1
823,195,42,0.10993953061679,1
823,211,42,0.106785660194895,1
823,212,42,0.120327312324018,1
823,221,42,0.101004907881435,1
823,222,42,0.112833975278781,1
823,223,42,0.119197640368933,1
823,224,42,0.11067277656918,1
823,225,42,0.103501249031201,1
823,226,42,0.111933337839473,1
823,227,42,0.13181781690462,1
823,228,42,0.14470447781175,1
823,229,42,0.136251746921893,1
823,230,42,0.12250066753127,1
823,231,42,0.112713140127849,1
823,232,42,0.103015522878201,1
824,194,42,0.110036499382101,1
824,228,42,0.102599032118631,1
839,187,42,0.124667868239263,1
841,188,42,0.09999212784059,1
842,187,42,0.121337674136836,1
842,188,42,0.108658523337455,1
842,189,42,0.113926665773718,1
843,186,42,0.113017934895562,1
843,187,42,0.104121568091883,1
843,188,42,0.130811736008986,1
843,189,42,0.125466656885529,1
844,185,42,0.11576723141132,1
844,186,42,0.103055031495566,1
844,187,42,0.104418029776529,1
844,188,42,0.13054756093638,1
844,189,42,0.107456446149498,1
845,185,42,0.0998297579893506,1
850,192,42,0.109928888234886,1
850,193,42,0.113178191520507,1
850,194,42,0.109465971854359,1
851,189,42,0.111419998136702,1
851,190,42,0.121110916241139,1
852,189,42,0.144476794017935,1
819,212,43,0.113838051877312,1
819,213,43,0.111667953652854,1
819,221,43,0.128561542150812,1
819,222,43,0.156985666706852,1
819,223,43,0.129248852663602,1
820,198,43,0.112529964801239,1
820,220,43,0.116321190809198,1
820,221,43,0.227204865013748,1
820,222,43,0.291583737632945,2
820,223,43,0.218575995622983,1
820,224,43,0.145616476565619,1
820,225,43,0.117037923096321,1
820,226,43,0.104479346017816,1
821,197,43,0.154778608808084,1
821,198,43,0.134528617844484,1
821,199,43,0.101996980483182,1
821,220,43,0.161406732186736,1
821,221,43,0.278398469136118,2
821,222,43,0.34521944706117,2
821,223,43,0.281986770955244,2
821,224,43,0.212795319559957,1
821,225,43,0.188288277798487,1
821,226,43,0.166071951554027,1
821,227,43,0.138490285356692,1
821,228,43,0.141045165053389,1
821,229,43,0.152796271829152,1
821,232,43,0.131652712930701,1
822,196,43,0.127879394881647,1
822,197,43,0.123837392091504,1
822,198,43,0.10725620161875,1
822,201,43,0.100584059954249,1
822,211,43,0.101549259724719,1
822,212,43,0.106392948677594,1
822,219,43,0.129369469956154,1
822,220,43,0.177796076569323,1
822,221,43,0.21675341419472,1
822,222,43,0.248806351335804,2
822,223,43,0.233524043422532,1
822,224,43,0.198451654480531,1
822,225,43,0.178524987139935,1
822,226,43,0.164738048259825,1
822,227,43,0.164933118654028,1
822,228,43,0.185917433969004,1
822,229,43,0.187111472182708,1
822,232,43,0.139116170699005,1
823,195,43,0.133202296021934,1
823,211,43,0.120735720537658,1
823,212,43,0.144455944970889,1
823,213,43,0.110346925788959,1
823,219,43,0.129532852848864,1
823,220,43,0.155709757313629,1
823,221,43,0.145985169196433,1
823,222,43,0.144982846357867,1
823,223,43,0.145848506634132,1
823,224,43,0.13419608970489,1
823,225,43,0.121796984961159,1
823,226,43,0.120194985143496,1
823,227,43,0.14249460953987,1
823,228,43,0.165378933151659,1
823,229,43,0.156574469905937,1
824,195,43,0.108212000800087,1
824,220,43,0.103701341061082,1
824,228,43,0.100961957101653,1
825,194,43,0.11031427971059,1
825,195,43,0.102921015912592,1
832,190,43,0.146426953314017,1
832,191,43,0.105563006282868,1
833,189,43,0.142826364282211,1
833,190,43,0.121627458462109,1
834,189,43,0.103207543255072,1
839,187,43,0.124128832140471,1
841,188,43,0.104333936441525,1
842,187,43,0.130533585321249,1
842,188,43,0.119890920201358,1
842,189,43,0.138774666794121,1
842,190,43,0.102202399150475,1
843,186,43,0.12613327085214,1
843,187,43,0.113241010984622,1
843,188,43,0.148866487890979,1
843,189,43,0.1613746198614,1
844,185,43,0.122568236308087,1
844,186,43,0.119553740785334,1
844,187,43,0.114101834804832,1
844,188,43,0.147470680137861,1
844,189,43,0.13172788496501,1
845,188,43,0.103610984297629,1
850,189,43,0.116472101309606,1
850,190,43,0.124853385543466,1
850,194,43,0.136824071781277,1
850,195,43,0.123364160116645,1
850,196,43,0.109024775954403,1
818,222,44,0.102168206277603,1
819,208,44,0.105982514381012,1
819,209,44,0.117294723662736,1
819,212,44,0.119231615383425,1
819,221,44,0.13656264172427,1
819,222,44,0.18967276780872,2
819,223,44,0.157132111110452,1
819,224,44,0.105561699132583,1
820,208,44,0.108768160567612,1
820,220,44,0.120972587062225,1
820,221,44,0.258547845263353,2
820,222,44,0.382729083067133,2
820,223,44,0.28017272957551,2
820,224,44,0.162021626573736,1
820,225,44,0.12165905882025,1
820,226,44,0.109786430639655,1
821,198,44,0.11188084486261,1
821,207,44,0.127200243165219,1
821,208,44,0.131492042374832,1
821,219,44,0.117958745114615,1
821,220,44,0.195534683261961,2
821,221,44,0.328673821969088,2
821,222,44,0.426621969631686,2
821,223,44,0.321530528877265,2
821,224,44,0.223617086054736,2
821,225,44,0.194600049022323,1
821,226,44,0.16649818058322,1
821,227,44,0.160908893107761,1
822,197,44,0.111427917288845,1
822,198,44,0.10023362385575,1
822,201,44,0.102903064382011,1
822,206,44,0.102257048925309,1
822,207,44,0.149177818410117,1
822,208,44,0.15127338728249,1
822,209,44,0.105331346573602,1
822,211,44,0.10662618786012,1
822,212,44,0.117814893225746,1
822,219,44,0.177724749735436,1
822,220,44,0.255291385329921,2
822,221,44,0.287006707338218,2
822,222,44,0.305654251874474,2
822,223,44,0.263968728210423,2
822,224,44,0.222525985925979,1
822,225,44,0.191236184907137,1
822,226,44,0.161722212908029,1
822,227,44,0.182928111982157,1
822,228,44,0.239810826290086,1
823,196,44,0.110789635804662,1
823,211,44,0.115557422897652,1
823,212,44,0.146566186605212,1
823,213,44,0.11936368113389,1
823,218,44,0.0997543463108231,1
823,219,44,0.17234930115369,1
823,220,44,0.221488086813822,1
823,221,44,0.199275507733513,1
823,222,44,0.177963631450026,2
823,223,44,0.166355123877442,1
823,224,44,0.155552823028991,1
823,225,44,0.139308256433391,1
823,226,44,0.126397543961017,1
823,227,44,0.144296058705191,1
823,228,44,0.171616883063147,1
824,195,44,0.119605612865811,1
824,219,44,0.10951804000738,1
824,220,44,0.134654006235576,1
824,221,44,0.126167986585126,1
824,222,44,0.113940477995064,1
824,223,44,0.110913564544603,1
824,224,44,0.117323415611492,1
824,225,44,0.11851047146409,1
824,226,44,0.106123512325091,1
825,194,44,0.121551109992544,1
825,195,44,0.102371130466435,1
826,194,44,0.105654212694006,1
831,191,44,0.108974799241838,1
832,190,44,0.179664735045133,1
832,191,44,0.122618136770218,1
833,190,44,0.14565148640742,1
839,187,44,0.116873276625002,1
841,188,44,0.108747420449756,1
842,187,44,0.136192838015714,1
842,188,44,0.128423321901088,1
842,189,44,0.148356285348891,1
842,190,44,0.110024756815374,1
843,186,44,0.134231186690043,1
843,187,44,0.123986821154921,1
843,188,44,0.153838342929301,1
843,189,44,0.17722146419694,1
843,190,44,0.109951981223255,1
844,185,44,0.121920118518009,1
844,186,44,0.125269505943788,1
844,187,44,0.119775291865728,1
844,188,44,0.14427673466681,1
844,189,44,0.140727549319964,1
845,188,44,0.102069440180649,1
849,191,44,0.108637576254137,1
849,192,44,0.129813051405381,1
849,193,44,0.131169089111076,1
849,194,44,0.120762571583096,1
849,195,44,0.104608220143002,1
818,208,45,0.116477188302798,1
818,221,45,0.105893835127091,1
818,222,45,0.107786871955717,1
818,223,45,0.103258184435698,1
819,201,45,0.0998143445089062,1
819,202,45,0.103042101600663,1
819,208,45,0.115807665926803,1
819,209,45,0.13211674038897,1
819,210,45,0.113258439655089,1
819,212,45,0.114466050445919,1
819,213,45,0.107314565878977,1
819,221,45,0.141227283766852,1
819,222,45,0.205407611150671,2
819,223,45,0.175193322493437,2
819,224,45,0.11326923453786,1
820,207,45,0.106640010974384,1
820,208,45,0.133193559900863,1
820,209,45,0.116913351674158,1
820,220,45,0.126605990859804,1
820,221,45,0.255293803557948,2
820,222,45,0.418923682314675,2
820,223,45,0.324960033722598,2
820,224,45,0.175056093499346,2
820,225,45,0.120218295990246,1
820,226,45,0.108401450448065,1
821,206,45,0.110657156123274,1
821,207,45,0.169823701623378,1
821,208,45,0.196036127897139,1
821,209,45,0.134525665863423,1
821,219,45,0.136699696431656,1
821,220,45,0.223428159266872,2
821,221,45,0.347662227728006,2
821,222,45,0.466123092668577,2
821,223,45,0.3574091245434,2
821,224,45,0.234347569887943,2
821,225,45,0.187010995897465,1
821,226,45,0.156640546352845,1
821,227,45,0.181480301433533,1
822,197,45,0.110347633828697,1
822,201,45,0.102859351097896,1
822,202,45,0.104979080464704,1
822,206,45,0.12067350018409,1
822,207,45,0.195581413884651,1
822,208,45,0.212945511127707,1
822,209,45,0.136243130622931,1
822,210,45,0.101497463894675,1
822,211,45,0.110480015473814,1
822,212,45,0.134446082196903,1
822,213,45,0.13002192312801,1
822,218,45,0.11080228248367,1
822,219,45,0.216547407309798,2
822,220,45,0.329881803119166,2
822,221,45,0.369239945700712,2
822,222,45,0.370296907421191,2
822,223,45,0.304397666519632,2
822,224,45,0.251174820508935,2
822,225,45,0.203133235012223,1
822,226,45,0.162951936324514,1
822,227,45,0.196611470095097,1
823,207,45,0.106081999410622,1
823,208,45,0.116155770940627,1
823,211,45,0.103668444445576,1
823,212,45,0.139153631447591,1
823,213,45,0.128354718296962,1
823,218,45,0.111313694139771,1
823,219,45,0.206127132025068,1
823,220,45,0.285516447084087,2
823,221,45,0.276416589659785,2
823,222,45,0.22973694583089,2
823,223,45,0.194961672148678,2
823,224,45,0.188042555330738,1
823,225,45,0.176928422888874,1
823,226,45,0.150463967147239,1
823,227,45,0.146081669566225,1
824,196,45,0.0998216318717453,1
824,219,45,0.129549529907918,1
824,220,45,0.169792798412056,1
824,221,45,0.168528032475013,1
824,222,45,0.138276086996651,1
824,223,45,0.124092449790871,1
824,224,45,0.143408874020899,1
824,225,45,0.160491661629697,1
824,226,45,0.132304316454872,1
825,195,45,0.104016582138157,1
832,191,45,0.135143414195212,1
833,190,45,0.160939850783679,1
833,191,45,0.103762286943122,1
834,189,45,0.142404732064854,1
841,188,45,0.115978063859377,1
842,187,45,0.148344564568002,1
842,188,45,0.138867409106844,1
842,189,45,0.139737274049859,1
842,190,45,0.10782504074404,1
843,186,45,0.144390336919499,1
843,187,45,0.140372658017577,1
843,188,45,0.151305270856526,1
843,189,45,0.161369587332803,1
843,190,45,0.111337037665278,1
844,186,45,0.120644535912358,1
844,187,45,0.117836276025826,1
844,188,45,0.125697412482514,1
844,189,45,0.124793528953331,1
848,192,45,0.118613267941089,1
848,193,45,0.120860019636846,1
848,194,45,0.10506781418322,1
849,195,45,0.138247591120437,1
849,196,45,0.11256940806109,1
818,208,46,0.143350847441163,1
818,209,46,0.179718241063467,1
818,221,46,0.107556541182575,1
818,222,46,0.104243645035586,1
819,202,46,0.102776314376039,1
819,208,46,0.123328758129758,1
819,209,46,0.13978751219248,1
819,210,46,0.119703954138922,1
819,212,46,0.104323806026816,1
819,213,46,0.108960355231189,1
819,214,46,0.101600565373407,1
819,220,46,0.104039882091987,1
819,221,46,0.140494462638304,1
819,222,46,0.191808869232849,2
819,223,46,0.175981043933956,2
819,224,46,0.116815119330237,1
820,207,46,0.12073273587784,1
820,208,46,0.165400544703038,1
820,209,46,0.145588198547786,1
820,210,46,0.10380960578344,1
820,220,46,0.127456814980333,1
820,221,46,0.2245941808928,2
820,222,46,0.382173108479232,2
820,223,46,0.345017383412942,2
820,224,46,0.192727599810686,2
820,225,46,0.120091556877192,1
821,202,46,0.100023248910293,1
821,206,46,0.116969395742628,1
821,207,46,0.204918148726439,1
821,208,46,0.279187726478222,1
821,209,46,0.200161908127634,1
821,210,46,0.119888687152955,1
821,212,46,0.10185089554591,1
821,213,46,0.107442688392748,1
821,219,46,0.145786155565536,1
821,220,46,0.224771103683879,2
821,221,46,0.329455476053701,2
821,222,46,0.454561217682411,2
821,223,46,0.40020006163183,2
821,224,46,0.257536546659497,2
821,225,46,0.176267222703026,1
821,226,46,0.142953550004945,1
822,201,46,0.100087266595503,1
822,202,46,0.111220494324448,1
822,206,46,0.126952636222476,1
822,207,46,0.217543913329595,1
822,208,46,0.268073419749653,1
822,209,46,0.179375103220726,1
822,210,46,0.117527243912605,1
822,211,46,0.11531163507239,1
822,212,46,0.147119045818267,1
822,213,46,0.163624018536484,1
822,214,46,0.118993550637763,1
822,218,46,0.12259310484226,1
822,219,46,0.237869882403513,2
822,220,46,0.363675755510726,2
822,221,46,0.427649825472485,2
822,222,46,0.419185548088444,2
822,223,46,0.347267860487011,2
822,224,46,0.277255017638445,2
822,225,46,0.219414597888347,1
822,226,46,0.176915972282409,1
823,197,46,0.109496297740972,1
823,207,46,0.111653237319228,1
823,208,46,0.126532888480113,1
823,212,46,0.124346385519577,1
823,213,46,0.133510554737903,1
823,218,46,0.122407740038923,1
823,219,46,0.228095056143695,2
823,220,46,0.330622543399857,2
823,221,46,0.363722747563473,2
823,222,46,0.291630555398987,2
823,223,46,0.225019505809712,2
823,224,46,0.224866525654687,1
823,225,46,0.238684629176176,1
823,226,46,0.196903661755478,1
824,196,46,0.118196777181519,1
824,219,46,0.146637219330284,1
824,220,46,0.200592352716496,2
824,221,46,0.215581815394243,2
824,222,46,0.163932865470081,2
824,223,46,0.136401263128663,1
824,224,46,0.170610595202051,1
824,225,46,0.21042974790329,1
824,226,46,0.163038916283065,1
825,221,46,0.101222145365889,1
831,192,46,0.114603813193043,1
832,192,46,0.102385008045295,1
833,191,46,0.113152375302378,1
834,190,46,0.109143977167479,1
837,189,46,0.10068660589411,1
839,188,46,0.107296745063424,1
840,187,46,0.13589248755897,1
840,188,46,0.101724592149619,1
841,187,46,0.154233396424196,1
841,188,46,0.12442924795473,1
842,187,46,0.170697411766815,1
842,188,46,0.14849808936898,1
842,189,46,0.124484965235629,1
843,186,46,0.157048573314319,1
843,187,46,0.166070056186114,1
843,188,46,0.14883770879887,1
843,189,46,0.134311783398034,1
843,190,46,0.101946230373365,1
844,186,46,0.11334268549096,1
844,187,46,0.116288479373315,1
844,188,46,0.108336114719651,1
844,189,46,0.102110757022575,1
848,191,46,0.114864077707713,1
848,195,46,0.117352129346087,1
848,196,46,0.100876066435007,1
818,208,47,0.162635083095422,1
818,209,47,0.182920704797208,1
818,210,47,0.155572005459424,1
819,208,47,0.121647523218984,1
819,209,47,0.134329941894077,1
819,210,47,0.115174199112837,1
819,213,47,0.117155087333537,1
819,214,47,0.125791004442922,1
819,215,47,0.111296407077251,1
819,220,47,0.107875376922933,1
819,221,47,0.136422635035824,1
819,222,47,0.166067735994358,2
819,223,47,0.164697788031046,2
820,207,47,0.127380303116982,1
820,208,47,0.191009960764473,1
820,209,47,0.172389583168307,1
820,210,47,0.11585557298475,1
820,220,47,0.127812011284453,1
820,221,47,0.192827771094196,2
820,222,47,0.306161992616858,2
820,223,47,0.329146814299728,2
820,224,47,0.206708857473585,2
821,202,47,0.100509879175573,1
821,206,47,0.117817453061721,1
821,207,47,0.218062939136106,1
821,208,47,0.34806036391899,3
821,209,47,0.274865132986477,3
821,210,47,0.150399677139054,1
821,211,47,0.108226161594841,1
821,212,47,0.113626337102813,1
821,213,47,0.122377773618638,1
821,219,47,0.148394214492995,1
821,220,47,0.213079363316895,2
821,221,47,0.294972568318575,2
821,222,47,0.399282354988382,2
821,223,47,0.41077826245683,2
821,224,47,0.27377823752447,2
821,225,47,0.168140527773015,1
822,198,47,0.10391410155581,1
822,202,47,0.11198225793889,1
822,206,47,0.12531792496893,1
822,207,47,0.212847627357196,1
822,208,47,0.299698178029035,1
822,209,47,0.225509817881629,1
822,210,47,0.137789957805647,1
822,211,47,0.121460426441519,1
822,212,47,0.153478767671726,1
822,213,47,0.183948484387575,1
822,214,47,0.138359341576889,1
822,218,47,0.13402690088633,1
822,219,47,0.245156177736519,2
822,220,47,0.369426171044653,2
822,221,47,0.459852954181319,2
822,222,47,0.43916839021254,2
822,223,47,0.364221817542299,2
822,224,47,0.283003123873535,2
822,225,47,0.237089622612537,1
823,207,47,0.114084863636965,1
823,208,47,0.13315982453059,1
823,209,47,0.109510861573731,1
823,212,47,0.112352279505827,1
823,213,47,0.132579449804034,1
823,214,47,0.10424395003732,1
823,218,47,0.134801975647842,1
823,219,47,0.244480925685108,2
823,220,47,0.374154264340654,2
823,221,47,0.45751367803122,2
823,222,47,0.36067584560657,2
823,223,47,0.252801372966119,2
823,224,47,0.25786067635851,1
823,225,47,0.308071521324914,1
824,219,47,0.158582688460513,1
824,220,47,0.229502334140564,2
824,221,47,0.263442818079077,2
824,222,47,0.195595204320158,2
824,223,47,0.150816048076514,1
824,224,47,0.193667440865626,1
824,225,47,0.249083990056345,1
825,220,47,0.105691858622215,1
825,221,47,0.109735484457296,1
827,200,47,0.102673757543259,1
828,200,47,0.121605465658563,1
829,200,47,0.101275716741738,1
830,193,47,0.118742370817574,1
831,192,47,0.15804514469163,1
831,193,47,0.116571847769273,1
832,192,47,0.124027462635867,1
833,191,47,0.121951511910688,1
837,189,47,0.115280121857601,1
838,188,47,0.169622356907807,1
838,189,47,0.103478264972022,1
840,188,47,0.103386285163632,1
841,187,47,0.146987001853641,1
841,188,47,0.126713754507886,1
842,187,47,0.192891603599782,1
842,188,47,0.157818855191452,1
842,189,47,0.115429376634314,1
843,187,47,0.186452036649746,1
843,188,47,0.154419088015104,1
843,189,47,0.118028797476973,1
844,187,47,0.114262341966916,1
844,188,47,0.102261918060121,1
847,192,47,0.106531680894512,1
847,194,47,0.100364284419659,1
848,191,47,0.136437122618149,1
818,208,48,0.163655869431763,1
818,209,48,0.168672320080643,1
818,210,48,0.137850838330172,1
819,208,48,0.116377300235184,1
819,209,48,0.128563197874506,1
819,210,48,0.112929604215051,1
819,213,48,0.122490787653698,1
819,214,48,0.148569753883357,1
819,215,48,0.137098616912811,1
819,223,48,0.14425843456282,1
820,207,48,0.125505849608242,1
820,208,48,0.203785503004456,3
820,209,48,0.204852573353807,3
820,210,48,0.139331970318146,1
820,219,48,0.100385482040114,1
820,220,48,0.125197819643573,1
820,221,48,0.166370079855287,1
820,222,48,0.231693945880131,2
820,223,48,0.277658513145597,2
820,224,48,0.203151861903785,1
821,206,48,0.110404418615662,1
821,207,48,0.207626063042756,3
821,208,48,0.379259121920479,3
821,209,48,0.353586167462272,3
821,210,48,0.200150405205125,3
821,211,48,0.129152472115919,1
821,212,48,0.123233488659817,1
821,213,48,0.129581348124439,1
821,214,48,0.1089841017947,1
821,218,48,0.105504914345617,1
821,219,48,0.148170375899602,1
821,220,48,0.199880413313751,2
821,221,48,0.266280140273613,2
821,222,48,0.336588072299025,2
821,223,48,0.372164084460012,2
821,224,48,0.267845735955837,2
821,225,48,0.159831561628673,1
822,206,48,0.118940120869862,1
822,207,48,0.195325386715489,1
822,208,48,0.306530173280476,3
822,209,48,0.273469031124545,3
822,210,48,0.169896662395121,1
822,211,48,0.133261324750223,1
822,212,48,0.152583533120262,1
822,213,48,0.182241041113585,1
822,214,48,0.149342682739817,1
822,218,48,0.14177226739944,1
822,219,48,0.238669183016974,2
822,220,48,0.359958634031009,2
822,221,48,0.469005533333784,2
822,222,48,0.438645181525117,2
822,223,48,0.348766508288804,2
822,224,48,0.267910919183385,2
822,225,48,0.2434602155992,1
823,206,48,0.10158813655278,1
823,207,48,0.123387906680156,1
823,208,48,0.141233961126224,1
823,209,48,0.125973591551904,1
823,210,48,0.100758433802273,1
823,212,48,0.109610074280365,1
823,213,48,0.129817746253488,1
823,214,48,0.113118520109995,1
823,218,48,0.145741156916974,1
823,219,48,0.250607081568468,2
823,220,48,0.404968633014991,2
823,221,48,0.524622642949904,2
823,222,48,0.418718982580039,2
823,223,48,0.270527115121368,2
823,224,48,0.268093070575604,2
823,225,48,0.343425100079064,1
824,197,48,0.105736171016878,1
824,218,48,0.108161795336223,1
824,219,48,0.164784974955058,1
824,220,48,0.245309680751658,2
824,221,48,0.291588356230619,2
824,222,48,0.224395559406988,2
824,223,48,0.162871176222737,2
824,224,48,0.196797346865629,1
825,220,48,0.113977317847264,1
826,200,48,0.102938346546788,1
827,199,48,0.120150879714295,1
827,200,48,0.145294253127439,1
827,201,48,0.101870284941805,1
828,195,48,0.109630836184059,1
828,199,48,0.11259533320841,1
828,200,48,0.146707467765186,1
828,201,48,0.10276720789572,1
829,194,48,0.152427873307153,1
829,195,48,0.106237735474165,1
829,200,48,0.10702380119099,1
830,194,48,0.131710881118385,1
831,193,48,0.150564595933349,1
831,194,48,0.105100623655375,1
832,193,48,0.105092116285603,1
834,191,48,0.100050306921193,1
835,190,48,0.121922645675227,1
835,191,48,0.105825046343341,1
836,190,48,0.0999201147528036,1
837,189,48,0.129029752489992,1
838,189,48,0.116200028870695,1
838,190,48,0.102245927254967,1
839,188,48,0.121494924316125,1
839,190,48,0.100047703513542,1
841,188,48,0.122798937440476,1
842,187,48,0.198057635812946,1
842,188,48,0.160826270316828,1
842,189,48,0.112845739631347,1
843,187,48,0.188054646470875,1
843,188,48,0.15503584509126,1
843,189,48,0.109252677606599,1
844,187,48,0.1133385897534,1
847,195,48,0.100208145318111,1
818,208,49,0.141599701775977,1
818,209,49,0.140526749250344,1
818,210,49,0.123707330638143,1
818,213,49,0.137853038699819,1
819,208,49,0.106991416542678,1
819,209,49,0.122237973895654,1
819,210,49,0.115401305581943,1
819,213,49,0.121969768443002,1
819,214,49,0.156427273890923,1
820,207,49,0.113073510568514,1
820,208,49,0.189905309844428,3
820,209,49,0.226317266398533,3
820,210,49,0.172406129512332,1
820,211,49,0.116296093523726,1
820,213,49,0.10394536423346,1
820,214,49,0.103320633540566,1
820,219,49,0.105121995562535,1
820,220,49,0.119722689959674,1
820,221,49,0.14653164515893,1
820,222,49,0.180907824073283,2
820,223,49,0.217432805555367,1
820,224,49,0.18590087673206,1
821,207,49,0.173918872751365,3
821,208,49,0.348260532199305,3
821,209,49,0.39762384270673,3
821,210,49,0.258651131921709,3
821,211,49,0.151758579682457,1
821,212,49,0.128626834307549,1
821,213,49,0.131462435420876,1
821,214,49,0.116517906034177,1
821,218,49,0.117971195721079,1
821,219,49,0.153522132382432,1
821,220,49,0.193413200135187,2
821,221,49,0.244703881952058,2
821,222,49,0.279382666157397,2
821,223,49,0.298676400437061,2
821,224,49,0.24305645866199,1
821,225,49,0.155682895375271,1
822,206,49,0.112761014507038,1
822,207,49,0.169681113313119,1
822,208,49,0.282211644375947,3
822,209,49,0.298997392975389,3
822,210,49,0.201801292443449,1
822,211,49,0.142806702563341,1
822,212,49,0.143194294408692,1
822,213,49,0.162699547390312,1
822,214,49,0.150001453804718,1
822,215,49,0.115884210468911,1
822,217,49,0.102496965467208,1
822,218,49,0.1493390118261,1
822,219,49,0.227926586257792,2
822,220,49,0.345810562205901,2
822,221,49,0.457675851809917,2
822,222,49,0.427070322179453,2
822,223,49,0.322833539853065,2
822,224,49,0.258520612965748,2
822,225,49,0.248021560090506,1
822,226,49,0.217239151240639,1
823,198,49,0.106567703777784,1
823,205,49,0.110346718823497,1
823,206,49,0.121926621590677,1
823,207,49,0.1351301357269,1
823,208,49,0.152625721395712,1
823,209,49,0.145846360729081,1
823,210,49,0.11864497722842,1
823,211,49,0.105878116644914,1
823,212,49,0.109631544223797,1
823,213,49,0.125929235585565,1
823,214,49,0.1244132135779,1
823,215,49,0.10586929338049,1
823,217,49,0.113651848319209,1
823,218,49,0.156695021840974,1
823,219,49,0.24500960261789,2
823,220,49,0.404300679219338,2
823,221,49,0.532584408192701,2
823,222,49,0.447309191472711,2
823,223,49,0.28364855111261,2
823,224,49,0.266305019700704,2
823,225,49,0.338319850354154,1
824,205,49,0.101724755543404,1
824,206,49,0.100377965925975,1
824,217,49,0.108410731215088,1
824,218,49,0.134139664384252,1
824,219,49,0.173054835520038,1
824,220,49,0.247143481886534,2
824,221,49,0.297062592695156,2
824,222,49,0.248163603754814,2
824,223,49,0.173952466513691,2
824,224,49,0.185189503761106,1
825,197,49,0.112208046364792,1
825,198,49,0.102909981385603,1
825,199,49,0.100971281440353,1
825,217,49,0.11523636500181,1
825,218,49,0.132381122427037,1
825,219,49,0.125048183614694,1
825,220,49,0.121559660933992,1
825,221,49,0.119219720315831,2
825,222,49,0.107939296571871,1
826,196,49,0.108000046381368,1
826,197,49,0.101784644812297,1
826,198,49,0.113061408535458,1
826,199,49,0.133927023711634,1
826,200,49,0.140649523340866,1
826,201,49,0.110017240701235,1
826,217,49,0.105957264594672,1
827,195,49,0.132895801958851,1
827,196,49,0.105465122512357,1
827,198,49,0.11958107111921,1
827,201,49,0.12710869907359,1
828,195,49,0.162539432373314,1
828,196,49,0.112222457696685,1
828,198,49,0.10737853999251,1
828,199,49,0.135057272991428,1
828,200,49,0.155453784609062,1
828,201,49,0.108761428743644,1
829,195,49,0.151444482361882,1
829,196,49,0.10126716580029,1
829,200,49,0.102513152344904,1
830,195,49,0.113344885860606,1
831,194,49,0.129205019557377,1
831,195,49,0.102400421525739,1
832,193,49,0.125766408231726,1
832,194,49,0.111181998748554,1
833,192,49,0.105121069664416,1
833,193,49,0.110319257774592,1
833,194,49,0.109591687033023,1
834,191,49,0.109209182180864,1
835,191,49,0.116747931805586,1
835,192,49,0.10185942470152,1
837,190,49,0.100279188936103,1
838,189,49,0.121801734273861,1
838,190,49,0.113080177034968,1
839,189,49,0.101943518036524,1
839,190,49,0.109749732395402,1
841,188,49,0.118210219043617,1
842,188,49,0.163336532617129,1
842,189,49,0.117116003540014,1
843,188,49,0.153754184236783,1
843,189,49,0.108115489537375,1
844,188,49,0.100894965649545,1
847,196,49,0.101146352435195,1
818,209,50,0.110609390673275,1
818,210,50,0.107787961247621,1
819,209,50,0.120631126729017,1
819,210,50,0.122149752144333,1
819,211,50,0.0997628645735139,1
819,213,50,0.111775238012498,1
820,208,50,0.167331347281982,1
820,209,50,0.239889952454007,3
820,210,50,0.209400519554692,1
820,211,50,0.131776467383937,1
820,212,50,0.103787144584376,1
820,213,50,0.104469509711921,1
820,214,50,0.100430143008186,1
820,218,50,0.106785387871918,1
820,221,50,0.139818927370997,1
820,222,50,0.158572198579475,1
820,223,50,0.175577504855128,1
821,207,50,0.139574729911915,1
821,208,50,0.285944713089141,3
821,209,50,0.395041959463728,3
821,210,50,0.301202838722139,3
821,211,50,0.166203832124868,1
821,212,50,0.129496002103745,1
821,213,50,0.127744638580179,1
821,214,50,0.115953380504828,1
821,215,50,0.100124868952035,1
821,217,50,0.101102813437785,1
821,218,50,0.134160001464104,1
821,219,50,0.170829314123494,1
821,220,50,0.2019767120117,2
821,221,50,0.237601502664157,2
821,222,50,0.245628233276121,2
821,223,50,0.237306043128063,2
821,224,50,0.208194629845071,1
821,225,50,0.1523363727872,1
822,205,50,0.105203060666045,1
822,206,50,0.110062566137369,1
822,207,50,0.148705381618348,1
822,208,50,0.252091764648049,1
822,209,50,0.299991110407911,3
822,210,50,0.219426580099293,1
822,211,50,0.142620880257404,1
822,212,50,0.128665493277229,1
822,213,50,0.13827996487583,1
822,214,50,0.142198496428633,1
822,215,50,0.126602472446953,1
822,216,50,0.10863971126627,1
822,217,50,0.11712867200486,1
822,218,50,0.154135763190823,1
822,219,50,0.225360650248268,2
822,220,50,0.338800859873209,2
822,221,50,0.436696481880186,2
822,222,50,0.404930594941696,2
822,223,50,0.297222043244092,2
822,224,50,0.246561734652179,2
822,225,50,0.239723421507693,1
822,226,50,0.202333128322753,1
823,198,50,0.119762656079639,1
823,204,50,0.116784009153453,1
823,205,50,0.14605432833943,1
823,206,50,0.14534938219071,1
823,207,50,0.146674767222222,1
823,208,50,0.179735996521506,1
823,209,50,0.178741146225403,1
823,210,50,0.13763585567996,1
823,211,50,0.110551723559867,1
823,212,50,0.106886387017276,1
823,213,50,0.121276445038901,1
823,214,50,0.134390452059355,1
823,215,50,0.125309177954939,1
823,216,50,0.118343079977172,1
823,217,50,0.133767758342322,1
823,218,50,0.160880364552791,1
823,219,50,0.231143395965912,2
823,220,50,0.376206272429779,2
823,221,50,0.492034776340507,2
823,222,50,0.434254943006121,2
823,223,50,0.282001955684389,2
823,224,50,0.246919828472764,1
823,225,50,0.293763127517346,1
824,198,50,0.129188854465519,1
824,199,50,0.103611986446181,1
824,200,50,0.102054342594857,1
824,201,50,0.10067330563996,1
824,204,50,0.101817116603961,1
824,205,50,0.129601935741428,1
824,206,50,0.125714078648648,1
824,207,50,0.105392978709542,1
824,208,50,0.106414647372325,1
824,209,50,0.101818249467541,1
824,216,50,0.10462256611738,1
824,217,50,0.132985341753376,1
824,218,50,0.162282163411381,1
824,219,50,0.179959214218513,1
824,220,50,0.238408145105052,2
824,221,50,0.287070823059699,2
824,222,50,0.257043707430363,2
824,223,50,0.179535588596972,1
824,224,50,0.164309150465467,1
825,197,50,0.151568955747775,1
825,198,50,0.146505545724905,1
825,199,50,0.13914386049921,1
825,200,50,0.135422044171386,1
825,201,50,0.119932574723775,1
825,216,50,0.107948991269819,1
825,217,50,0.155279073080548,1
825,218,50,0.192243409559271,1
825,219,50,0.154147298792088,1
825,220,50,0.12911028384047,1
825,221,50,0.125572862846188,1
825,222,50,0.116909288615355,1
826,196,50,0.131972834035506,1
826,197,50,0.128899734608307,1
826,198,50,0.162195281489103,1
826,201,50,0.154846253835334,1
826,216,50,0.100072637405229,1
826,217,50,0.13538141358336,1
826,218,50,0.153751766008755,1
826,219,50,0.110926418189072,1
827,196,50,0.138158301863051,1
827,197,50,0.122723754513249,1
828,196,50,0.146604148428073,1
828,197,50,0.128171847972086,1
828,201,50,0.114846627251407,1
829,196,50,0.123961059401387,1
829,197,50,0.120911172784667,1
829,198,50,0.140890834176403,1
829,199,50,0.124018802765229,1
829,200,50,0.106468708929531,1
831,195,50,0.125665191227988,1
831,196,50,0.102445333030949,1
832,193,50,0.147315989794546,1
832,194,50,0.150637970636016,1
832,195,50,0.136023954198888,1
832,196,50,0.103022374524278,1
833,192,50,0.119935668312783,1
833,193,50,0.126801616792878,1
833,194,50,0.135498022281704,1
833,195,50,0.122325073676313,1
834,192,50,0.113776986173163,1
834,193,50,0.106863991175725,1
834,194,50,0.100164279533129,1
835,191,50,0.118642145069469,1
835,192,50,0.11236349921244,1
835,193,50,0.100792288994655,1
836,193,50,0.101342043725784,1
838,190,50,0.113743806341761,1
839,189,50,0.113015418631263,1
839,190,50,0.112309797121563,1
841,189,50,0.104786646156909,1
842,188,50,0.159140580202166,1
842,189,50,0.121817038825115,1
843,188,50,0.145277423567519,1
843,189,50,0.108240877928467,1
847,196,50,0.109864325903724,1
819,209,51,0.123338605328572,1
819,210,51,0.128226323460214,1
819,211,51,0.10348238249542,1
819,213,51,0.100588177477647,1
820,202,51,0.101401813172567,1
820,203,51,0.103846249563098,1
820,208,51,0.149708358032056,1
820,209,51,0.239054465563488,3
820,210,51,0.232634898012813,1
820,211,51,0.145968176242727,1
820,212,51,0.111868056575654,1
820,213,51,0.104872471466041,1
820,220,51,0.131753592253949,1
820,221,51,0.141862471662026,1
820,222,51,0.149309426657982,1
821,207,51,0.115544318716045,1
821,208,51,0.224432638903407,3
821,209,51,0.350125922799402,3
821,210,51,0.309215866041948,3
821,211,51,0.176930830223982,1
821,212,51,0.136451239841228,1
821,213,51,0.129737454547229,1
821,214,51,0.119203631474406,1
821,215,51,0.110635359392271,1
821,216,51,0.104882634559507,1
821,217,51,0.117942786988218,1
821,218,51,0.156064703080611,1
821,219,51,0.203118006711403,1
821,220,51,0.226442404252487,2
821,221,51,0.237901471868735,2
821,222,51,0.221462357739045,2
821,223,51,0.188460908779464,1
822,200,51,0.100192633801395,1
822,204,51,0.109579410713262,1
822,205,51,0.124646474546264,1
822,206,51,0.11839221793497,1
822,207,51,0.136529265820325,1
822,208,51,0.230037394323905,1
822,209,51,0.286551165463883,3
822,210,51,0.221919446407884,1
822,211,51,0.141403901556198,1
822,212,51,0.121956860333938,1
822,213,51,0.12734701435639,1
822,214,51,0.139931658190163,1
822,215,51,0.140326689899219,1
822,216,51,0.129977556268752,1
822,217,51,0.137217534909992,1
822,218,51,0.164733941629346,1
822,219,51,0.236837538680068,2
822,220,51,0.341248368066909,2
822,221,51,0.412621997933872,2
822,222,51,0.370961506197779,2
822,223,51,0.266278528121594,2
822,224,51,0.220036082491367,1
822,225,51,0.214276037617007,1
823,199,51,0.102647396679177,1
823,200,51,0.11858903119622,1
823,201,51,0.121336726452879,1
823,202,51,0.108192644082949,1
823,203,51,0.108782767972048,1
823,204,51,0.143713636109855,1
823,207,51,0.160978281002059,1
823,208,51,0.215712878996156,1
823,209,51,0.221043633931072,1
823,210,51,0.154604256745898,1
823,211,51,0.11175656754926,1
823,212,51,0.104901108950202,1
823,213,51,0.120423191797425,1
823,214,51,0.141410426414704,1
823,215,51,0.142661347451645,1
823,216,51,0.141093671221883,1
823,217,51,0.156198021516766,1
823,218,51,0.169533753904319,1
823,219,51,0.219542851117147,2
823,220,51,0.339772377536723,2
823,221,51,0.438117397811696,2
823,222,51,0.396760731373521,2
823,223,51,0.268173220673915,2
823,224,51,0.216391224636575,1
823,225,51,0.234755575063578,1
824,199,51,0.118954673809702,1
824,200,51,0.12392839153718,1
824,201,51,0.12751051707121,1
824,202,51,0.110897628204044,1
824,203,51,0.102170787899415,1
824,204,51,0.121649320550626,1
824,205,51,0.168967725152142,1
824,206,51,0.164437185835886,1
824,207,51,0.122644203525485,1
824,208,51,0.132934057890526,1
824,209,51,0.132145312515617,1
824,210,51,0.10295720218965,1
824,213,51,0.103648009329453,1
824,214,51,0.114338396327667,1
824,215,51,0.117056081592364,1
824,216,51,0.12449462725482,1
824,217,51,0.157556891381412,1
824,218,51,0.196026454985029,1
824,219,51,0.193189677436446,1
824,220,51,0.227449062472831,2
824,221,51,0.270973419800356,2
824,222,51,0.250557802002722,2
824,223,51,0.178007976523446,1
825,201,51,0.14935891318919,1
825,202,51,0.108695297832141,1
825,214,51,0.104079281780162,1
825,215,51,0.114713646495743,1
825,216,51,0.132329511776616,1
825,217,51,0.189757166145457,1
825,218,51,0.251080945332632,1
825,219,51,0.190032539138838,1
825,220,51,0.142209225953889,1
825,221,51,0.13559539408502,1
825,222,51,0.126162049944249,1
826,197,51,0.159513749822705,1
826,202,51,0.111453689935298,1
826,215,51,0.100871850875338,1
826,216,51,0.118488587589735,1
826,217,51,0.156193381133254,1
826,218,51,0.18671224669982,1
828,201,51,0.117303851928893,1
829,197,51,0.164947747844302,1
829,200,51,0.121826297806301,1
830,196,51,0.12028919800029,1
830,197,51,0.123874242836623,1
830,198,51,0.142357184473236,1
830,199,51,0.112762180049376,1
831,195,51,0.141212371360683,1
831,196,51,0.11727716427724,1
832,194,51,0.176103197128093,1
832,195,51,0.167226328649499,1
832,196,51,0.121819576875252,1
833,193,51,0.132021024309348,1
833,194,51,0.153618839717686,1
833,195,51,0.15547506937287,1
833,196,51,0.122623398050115,1
834,192,51,0.129959670095685,1
834,193,51,0.111771784957162,1
834,194,51,0.103772602537455,1
834,195,51,0.10170286077613,1
835,192,51,0.1143664455942,1
835,193,51,0.112321278258233,1
836,193,51,0.112780534617961,1
839,190,51,0.103318454956757,1
842,189,51,0.110614651953172,1
843,189,51,0.101699178969494,1
843,201,51,0.10150297571171,1
846,194,51,0.102359311649275,1
819,209,52,0.121380047591909,1
819,210,52,0.128348051830508,1
820,208,52,0.135363767054512,1
820,209,52,0.216675900182817,1
820,210,52,0.226111433800316,1
820,211,52,0.154402356491456,1
820,212,52,0.119183043857417,1
820,213,52,0.104826612276874,1
820,220,52,0.147888336439768,1
820,221,52,0.145247468040154,1
821,208,52,0.179710833878519,1
821,209,52,0.288808635791977,3
821,210,52,0.280931203528402,1
821,211,52,0.178490914089171,1
821,212,52,0.141392649170828,1
821,213,52,0.129855370395859,1
821,214,52,0.122699147409133,1
821,215,52,0.119718202077029,1
821,216,52,0.118374113903523,1
821,219,52,0.227916913345683,1
821,220,52,0.246585285143148,2
821,221,52,0.234912955957897,2
821,222,52,0.200759711524656,2
821,223,52,0.157733095239835,1
822,201,52,0.106097086103495,1
822,204,52,0.112899474400981,1
822,207,52,0.130184946554392,1
822,208,52,0.219538755379587,1
822,209,52,0.28165970016809,1
822,210,52,0.218892935995428,1
822,211,52,0.138961905179533,1
822,212,52,0.117668753823879,1
822,213,52,0.121219954360749,1
822,214,52,0.136463178480498,1
822,215,52,0.14668275173188,1
822,216,52,0.146163050564388,1
822,217,52,0.156770063160254,1
822,218,52,0.177312605250564,1
822,219,52,0.241127475200526,2
822,220,52,0.326771896518524,2
822,221,52,0.371197838969314,2
822,222,52,0.320419821494233,2
822,223,52,0.228097191155827,2
822,224,52,0.182963633791153,1
823,200,52,0.134237221367192,1
823,201,52,0.13979445098191,1
823,202,52,0.120370775070995,1
823,203,52,0.115916649581818,1
823,208,52,0.247298488124501,1
823,209,52,0.271573684997082,1
823,210,52,0.174459401180066,1
823,211,52,0.11046981970159,1
823,213,52,0.113020647232403,1
823,214,52,0.134705769386863,1
823,215,52,0.144802013008852,1
823,216,52,0.151775550850325,1
823,217,52,0.17005324810635,1
823,218,52,0.179578757235135,1
823,219,52,0.207417223998884,1
823,220,52,0.292976244831593,2
823,221,52,0.371159888039371,2
823,222,52,0.335552634986572,2
823,223,52,0.237390092891391,2
823,224,52,0.181449823046053,1
824,199,52,0.12498887167051,1
824,200,52,0.135722492664402,1
824,201,52,0.146693263398755,1
824,202,52,0.135332994558218,1
824,203,52,0.121060699884356,1
824,204,52,0.141464313685205,1
824,207,52,0.138621534138229,1
824,208,52,0.152542706459693,1
824,209,52,0.16201453528344,1
824,210,52,0.11581066147954,1
824,213,52,0.106671927227177,1
824,214,52,0.121696443318402,1
824,215,52,0.129362770810943,1
824,216,52,0.140142632246167,1
824,217,52,0.174937284431355,1
824,218,52,0.220823357322206,1
824,219,52,0.204282677615369,1
824,220,52,0.206675612284669,1
824,221,52,0.239053223770717,2
824,222,52,0.221967876325945,2
824,223,52,0.166011049243664,1
825,201,52,0.171024286481426,1
825,202,52,0.134398425676094,1
825,203,52,0.106427043514195,1
825,205,52,0.110082249642077,1
825,206,52,0.105158693806787,1
825,213,52,0.110010988165705,1
825,214,52,0.119264348605146,1
825,215,52,0.130424460058287,1
825,216,52,0.14756630907413,1
825,217,52,0.201210613015479,1
825,218,52,0.276315263726857,1
825,219,52,0.217223814010628,1
825,220,52,0.150731083307986,1
825,221,52,0.138605935478161,1
825,222,52,0.125675419678968,1
826,202,52,0.129851917340522,1
826,213,52,0.103053550058576,1
826,214,52,0.103806130942266,1
826,215,52,0.112351713074037,1
826,216,52,0.128689523056636,1
826,217,52,0.159405692065809,1
826,218,52,0.197250034795175,1
827,202,52,0.109689211337205,1
829,201,52,0.100812571609911,1
829,211,52,0.10654056951645,1
829,212,52,0.103499135804906,1
830,196,52,0.140859342747452,1
830,197,52,0.143962049128607,1
830,211,52,0.109714668089006,1
830,212,52,0.107244469944942,1
831,195,52,0.152031098731049,1
831,196,52,0.125243809547768,1
831,197,52,0.101139075965275,1
832,194,52,0.173705284394791,1
832,195,52,0.172650697330662,1
832,196,52,0.127476280626661,1
832,209,52,0.102299694703358,1
833,194,52,0.153650505433341,1
833,195,52,0.167438391997408,1
833,196,52,0.131435802233819,1
834,193,52,0.112247914448486,1
834,194,52,0.104769587845689,1
834,195,52,0.106155864294645,1
835,193,52,0.114135330530886,1
835,194,52,0.0998371869601372,1
836,193,52,0.110485102467006,1
836,194,52,0.102897912031304,1
838,202,52,0.100952730799224,1
838,203,52,0.118578268992207,1
838,204,52,0.104203090697993,1
839,202,52,0.101418620946649,1
839,203,52,0.111226844896249,1
842,201,52,0.114846616358488,1
842,202,52,0.112854377716147,1
844,195,52,0.111227051861711,1
844,196,52,0.113158725874179,1
845,195,52,0.119813373510699,1
845,196,52,0.123133339162146,1
846,194,52,0.111568239871944,1
820,209,53,0.175232645931178,1
820,210,53,0.192496604569482,1
820,219,53,0.168635915945205,1
820,220,53,0.17662442330425,1
820,221,53,0.164324716446778,1
821,208,53,0.149485663195162,1
821,209,53,0.226490311310434,1
821,210,53,0.227972380089445,1
821,211,53,0.167012271897405,1
821,212,53,0.140052689413638,1
821,213,53,0.12584026222283,1
821,214,53,0.120293152129902,1
821,218,53,0.183848487390769,1
821,219,53,0.238863360191816,1
821,220,53,0.274611066542742,2
821,221,53,0.257721225208935,2
821,222,53,0.197446978771453,1
822,204,53,0.114218737611991,1
822,207,53,0.127689357016041,1
822,208,53,0.209123512623455,1
822,209,53,0.276145399547317,1
822,210,53,0.209612147185839,1
822,211,53,0.134537255929284,1
822,212,53,0.114641873052176,1
822,213,53,0.115286102070155,1
822,214,53,0.126065919933703,1
822,215,53,0.140557303888257,1
822,216,53,0.153929266124544,1
822,218,53,0.19373652375819,1
822,219,53,0.235530366609195,2
822,220,53,0.306094914021398,2
822,221,53,0.33745554079985,2
822,222,53,0.27401609530467,2
822,223,53,0.187983428566179,1
823,201,53,0.153573960891233,1
823,202,53,0.132291016200722,1
823,203,53,0.124537000709893,1
823,208,53,0.250004724931286,1
823,209,53,0.296260111349335,1
823,210,53,0.188093621335207,1
823,211,53,0.1110743658155,1
823,213,53,0.106987331698037,1
823,214,53,0.123619141565579,1
823,215,53,0.137142243053574,1
823,216,53,0.153289612132562,1
823,217,53,0.179134631139956,1
823,218,53,0.190820968619095,1
823,219,53,0.19613298773326,1
823,220,53,0.243648663098626,2
823,221,53,0.299284312462955,2
823,222,53,0.265996336160893,2
823,223,53,0.193756610300904,1
824,201,53,0.16846007155311,1
824,202,53,0.164213292777897,1
824,203,53,0.145432996237277,1
824,207,53,0.145789957194282,1
824,208,53,0.154985737663667,1
824,209,53,0.174982348437432,1
824,210,53,0.125168419655079,1
824,213,53,0.111238576570058,1
824,214,53,0.127652822165574,1
824,215,53,0.135776281898631,1
824,216,53,0.150029818965903,1
824,217,53,0.182909561341029,1
824,218,53,0.226610634494171,1
824,219,53,0.206889767073034,1
824,220,53,0.181769432183664,1
824,221,53,0.1962380390445,1
824,222,53,0.180573661995832,1
825,202,53,0.1684529149053,1
825,203,53,0.135178206178632,1
825,204,53,0.116719501286887,1
825,206,53,0.115103819962907,1
825,213,53,0.124675493282592,1
825,214,53,0.137285386902704,1
825,215,53,0.14186902919929,1
825,216,53,0.156469070021287,1
825,217,53,0.195897526395249,1
825,218,53,0.260633272828098,1
825,219,53,0.22504181450791,1
826,203,53,0.106580089026735,1
826,213,53,0.117722434128918,1
826,214,53,0.123017819755706,1
826,215,53,0.125192808900814,1
826,216,53,0.135686818354539,1
826,217,53,0.152399726004348,1
826,218,53,0.18165316116581,1
827,202,53,0.138968593431825,1
828,202,53,0.111148296057038,1
828,211,53,0.118571079665639,1
828,212,53,0.117351671843487,1
829,201,53,0.119045106823588,1
829,211,53,0.132647094831285,1
829,212,53,0.130507529458901,1
830,200,53,0.114562703316579,1
830,210,53,0.109418108368089,1
830,211,53,0.136260929652646,1
830,212,53,0.128862622433132,1
831,196,53,0.130106844324861,1
831,197,53,0.105701956358167,1
831,209,53,0.101323623799684,1
831,210,53,0.112778410498748,1
832,195,53,0.16197188950539,1
832,196,53,0.126186090616574,1
832,209,53,0.124465347088435,1
833,195,53,0.160684934692259,1
833,196,53,0.128440303961875,1
834,194,53,0.108867090058351,1
834,195,53,0.10960127280178,1
835,194,53,0.10828882855809,1
836,193,53,0.10435378334002,1
836,194,53,0.108046341287297,1
836,205,53,0.107844528176206,1
837,203,53,0.104711811803091,1
837,204,53,0.109589421305862,1
837,205,53,0.103035119239557,1
838,202,53,0.114105930542392,1
838,203,53,0.135119776560891,1
838,204,53,0.119124374595457,1
839,202,53,0.108123136366543,1
839,203,53,0.11811764012468,1
820,219,54,0.178987108337371,1
820,220,54,0.209196952683636,1
820,221,54,0.196453740627369,1
821,209,54,0.178117254287275,1
821,210,54,0.177630656700752,1
821,218,54,0.183377107212148,1
821,219,54,0.233440255089262,1
821,220,54,0.310188865142452,1
821,221,54,0.314411614138259,2
821,222,54,0.213567823592575,1
822,207,54,0.12407631737777,1
822,208,54,0.187505055133532,1
822,209,54,0.256730448864554,1
822,210,54,0.19336949774399,1
822,211,54,0.122987733513312,1
822,212,54,0.102195939649483,1
822,213,54,0.100866698524631,1
822,215,54,0.125146753639105,1
822,216,54,0.155864088190615,1
822,217,54,0.19363624354549,1
822,218,54,0.203766048251047,1
822,219,54,0.218700501687632,1
822,220,54,0.284312082383132,2
822,221,54,0.321265504156975,2
822,222,54,0.240593918240012,2
822,223,54,0.152736012201012,1
823,203,54,0.135608912197551,1
823,208,54,0.222265928376771,1
823,209,54,0.282269616491088,1
823,210,54,0.18663288089168,1
823,214,54,0.109639234624641,1
823,215,54,0.125171502351168,1
823,216,54,0.147472074431498,1
823,217,54,0.178827265643349,1
823,218,54,0.19249083132239,1
823,219,54,0.184715868748243,1
823,220,54,0.202653598000968,1
823,221,54,0.237451572526464,2
823,222,54,0.206550452644877,1
824,202,54,0.183784872743564,1
824,207,54,0.144693813644008,1
824,208,54,0.141634624474426,1
824,209,54,0.166603199215704,1
824,213,54,0.1092970117871,1
824,214,54,0.128469900022912,1
824,215,54,0.137554169680064,1
824,216,54,0.150132550085388,1
824,217,54,0.175091844059642,1
824,218,54,0.206373747712178,1
824,219,54,0.192658712990664,1
824,220,54,0.159504381912329,1
824,221,54,0.158874640476675,1
825,203,54,0.168837641912943,1
825,204,54,0.135569196614724,1
825,206,54,0.118734996311383,1
825,213,54,0.126216906684544,1
825,214,54,0.144622214487145,1
825,215,54,0.144764900833676,1
825,216,54,0.151374026961519,1
825,217,54,0.173934373375162,1
825,218,54,0.215038149804859,1
825,219,54,0.203134150017423,1
826,213,54,0.119970667261665,1
826,214,54,0.133421080300892,1
826,215,54,0.130841125104561,1
826,216,54,0.130126669437518,1
826,217,54,0.134124871800193,1
826,218,54,0.149638283883859,1
827,214,54,0.107943817133274,1
827,215,54,0.106304454603297,1
831,197,54,0.106745487109468,1
832,196,54,0.118097695189914,1
833,196,54,0.117770232257674,1
835,205,54,0.107733921476254,1
835,206,54,0.115969088094086,1
835,207,54,0.107237019188317,1
836,204,54,0.103604176223228,1
836,205,54,0.116414652054579,1
836,206,54,0.108731277143736,1
837,203,54,0.116105206010434,1
837,204,54,0.119434180105929,1
837,205,54,0.105436800922848,1
838,202,54,0.113705027549972,1
838,203,54,0.13586122488132,1
838,204,54,0.123219447687172,1
839,202,54,0.103834811998104,1
839,203,54,0.113418216991597,1
820,219,55,0.185564067675283,1
820,220,55,0.22380089317065,1
820,221,55,0.216809708800329,4
821,217,55,0.17547708303448,1
821,218,55,0.179842518376817,1
821,219,55,0.214852142319298,1
821,220,55,0.309555659758543,4
821,221,55,0.342346025732929,4
821,222,55,0.22429366704227,4
822,209,55,0.223193220788975,1
822,215,55,0.111835780856533,1
822,216,55,0.151881288415465,1
822,217,55,0.196968583552969,1
822,218,55,0.200431834661493,1
822,219,55,0.190983142397792,1
822,220,55,0.24336322504805,1
822,221,55,0.291242375336008,2
822,222,55,0.2130058578992,1
823,209,55,0.237783044052911,1
823,214,55,0.106334682453638,1
823,215,55,0.120445783711518,1
823,216,55,0.141254047668938,1
823,217,55,0.170973155119443,1
823,218,55,0.180978747869165,1
823,219,55,0.164868501858271,1
823,220,55,0.162485163850647,1
823,221,55,0.18427452034742,1
824,213,55,0.11093474037922,1
824,214,55,0.131362481995747,1
824,215,55,0.140387886318397,1
824,216,55,0.147193934636681,1
824,217,55,0.159776661316702,1
824,218,55,0.170837407562342,1
824,219,55,0.160626733825818,1
825,213,55,0.123244250863831,1
825,214,55,0.147008308403287,1
825,215,55,0.145549594042702,1
825,216,55,0.143406129005301,1
825,217,55,0.15011637410061,1
825,218,55,0.161534723985479,1
825,219,55,0.156782600910071,1
826,213,55,0.118310782472213,1
826,214,55,0.139962474258132,1
826,215,55,0.133256096149083,1
826,216,55,0.1214608730512,1
826,217,55,0.115158883668664,1
826,218,55,0.114991775397641,1
827,213,55,0.112485020617272,1
827,214,55,0.116893515668582,1
827,215,55,0.109700899439337,1
834,205,55,0.106402861233922,1
834,206,55,0.119207149887257,1
834,207,55,0.116590692519216,1
835,205,55,0.127879808812571,1
835,206,55,0.141411352312823,1
835,207,55,0.119816576028897,1
835,208,55,0.107401077442008,1
836,204,55,0.109820623512528,1
836,205,55,0.118826529510092,1
836,206,55,0.115364934125262,1
837,202,55,0.101950064680868,1
837,203,55,0.125550009502038,1
837,204,55,0.124660874985238,1
837,205,55,0.103493732917062,1
838,202,55,0.10745733936886,1
838,203,55,0.129842898003556,1
838,204,55,0.122224346853932,1
839,203,55,0.104431656818251,1
820,220,56,0.219064869829586,1
820,221,56,0.217995272323018,1
821,217,56,0.178075349227721,1
821,218,56,0.176960371820424,1
821,219,56,0.195981706873605,1
821,220,56,0.272490258776949,1
821,221,56,0.32145077092404,4
821,222,56,0.217634738488567,1
822,215,56,0.0999667582321413,1
822,216,56,0.142006127478352,1
822,217,56,0.182781319005148,1
822,218,56,0.180478806456815,1
822,219,56,0.161082896596538,1
822,220,56,0.191918757000144,1
822,221,56,0.240544573316752,1
822,222,56,0.184257331321171,1
823,215,56,0.111696405957391,1
823,216,56,0.133124542365813,1
823,217,56,0.157785991254703,1
823,218,56,0.160437175248649,1
823,219,56,0.138219901320233,1
823,220,56,0.123719541600389,1
823,221,56,0.13463360379821,1
824,213,56,0.103283575829985,1
824,214,56,0.123164394874334,1
824,215,56,0.135681480824209,1
824,216,56,0.142339810267364,1
824,217,56,0.146301782781306,1
824,218,56,0.140869320661295,1
824,219,56,0.126085897547226,1
825,213,56,0.110265152645711,1
825,214,56,0.136896782015882,1
825,215,56,0.142418130355276,1
825,216,56,0.13860333207051,1
825,217,56,0.133847037007109,1
825,218,56,0.12375363643699,1
826,213,56,0.110972778452515,1
826,214,56,0.136028921369971,1
826,215,56,0.132315906520733,1
826,216,56,0.116219962912542,1
826,217,56,0.103646103068621,1
827,213,56,0.116154801470833,1
827,214,56,0.11878061585633,1
827,215,56,0.108297335927862,1
833,207,56,0.10152128670862,1
834,205,56,0.114750257596643,1
834,206,56,0.127581843905097,1
834,207,56,0.122246742695482,1
834,208,56,0.143074494085068,1
835,205,56,0.130488118277168,1
835,206,56,0.143779135232055,1
835,207,56,0.11800643431418,1
835,208,56,0.101817290890666,1
836,203,56,0.100723946820586,1
836,204,56,0.105752782718417,1
836,205,56,0.110729147425222,1
836,206,56,0.108099934448983,1
837,203,56,0.122081758543673,1
837,204,56,0.11632436064864,1
838,203,56,0.116367376785936,1
838,204,56,0.110143369810822,1
819,219,57,0.163084285290874,1
820,218,57,0.178613579250503,1
820,219,57,0.186834051320547,1
820,220,57,0.197310490495858,1
820,221,57,0.197459658129218,1
821,217,57,0.176244761503962,1
821,218,57,0.172135266187435,1
821,219,57,0.176038972477421,1
821,220,57,0.21753805293915,1
821,221,57,0.261942405624399,1
821,222,57,0.196190415202449,1
822,216,57,0.131551746464101,1
822,217,57,0.159196820343179,1
822,218,57,0.153410523533928,1
822,220,57,0.155824176535246,1
822,221,57,0.19508683178847,1
823,214,57,0.101261904520392,1
823,215,57,0.114821617109287,1
823,216,57,0.133348075957473,1
823,217,57,0.146112463848357,1
823,218,57,0.137622903999219,1
824,213,57,0.101979791456934,1
824,214,57,0.124495433330829,1
824,215,57,0.139287875781864,1
824,216,57,0.146170011139656,1
824,217,57,0.139618366945597,1
824,218,57,0.12110806229635,1
825,213,57,0.104566467584314,1
825,214,57,0.134102268993181,1
825,215,57,0.14338396191505,1
825,216,57,0.138417553336249,1
825,217,57,0.12057753356733,1
825,218,57,0.100125794850154,1
826,213,57,0.108871022402126,1
826,214,57,0.134391258135364,1
826,215,57,0.131786793871189,1
826,216,57,0.114889752317894,1
827,213,57,0.123164874162772,1
827,214,57,0.12087633722957,1
827,215,57,0.104419456748924,1
828,214,57,0.105625161278921,1
833,207,57,0.111404519298743,1
834,205,57,0.119734704849378,1
834,206,57,0.131219294574941,1
834,207,57,0.12118071806636,1
834,208,57,0.135751293542348,1
835,204,57,0.101534390890227,1
835,205,57,0.133074674582439,1
835,206,57,0.144024694306018,1
835,207,57,0.11104048883728,1
836,203,57,0.104185825421312,1
836,204,57,0.104674263911153,1
836,205,57,0.10851225322056,1
836,206,57,0.103427198967553,1
837,203,57,0.116102112421427,1
837,204,57,0.108955714847677,1
838,203,57,0.107001133026464,1
838,204,57,0.101481091837355,1
818,219,58,0.127182651100966,1
819,218,58,0.155754342031268,1
819,219,58,0.171070821031573,1
819,220,58,0.159212222930705,1
820,217,58,0.196262983829106,1
820,218,58,0.191302283139883,1
820,219,58,0.176188510470029,1
820,220,58,0.16774148746975,1
821,216,58,0.137062800995001,1
821,217,58,0.187040820709802,1
821,218,58,0.175026933155071,1
821,219,58,0.154244964704218,1
821,220,58,0.16050584421029,1
821,221,58,0.185530713557177,1
822,216,58,0.119099843741774,1
822,217,58,0.140067830571106,1
822,218,58,0.130313352284059,1
823,215,58,0.112060098738364,1
823,216,58,0.125163506948591,1
823,217,58,0.127967758240915,1
823,218,58,0.112473517694764,1
824,214,58,0.11724362497951,1
824,215,58,0.132152360234237,1
824,216,58,0.136096609968898,1
824,217,58,0.123282593938859,1
825,214,58,0.123478034692309,1
825,215,58,0.136295307705142,1
825,216,58,0.127162836881229,1
825,217,58,0.101743829044647,1
826,213,58,0.100040623116165,1
826,214,58,0.121930052860175,1
826,215,58,0.122527180896218,1
826,216,58,0.10509601595062,1
827,213,58,0.120705133220988,1
827,214,58,0.116028879326707,1
828,214,58,0.115308007730349,1
833,206,58,0.102817315323313,1
833,207,58,0.120663979772847,1
834,205,58,0.118025845495913,1
834,206,58,0.131475496030808,1
834,207,58,0.117849401993271,1
834,208,58,0.122638833316398,1
835,204,58,0.105605967955569,1
835,205,58,0.130792640721905,1
835,206,58,0.142676815396684,1
835,207,58,0.103780314724137,1
836,203,58,0.106090593923746,1
836,204,58,0.104288752613339,1
836,205,58,0.105118934652284,1
836,206,58,0.0997552395301845,1
837,203,58,0.108040589826043,1
837,204,58,0.101705409719186,1
818,218,59,0.122308810548183,1
818,219,59,0.148625601879285,1
818,220,59,0.135477282163848,1
819,217,59,0.143622974344669,1
819,218,59,0.1703680752525,1
819,219,59,0.187350157824755,1
819,220,59,0.162669482933756,1
819,221,59,0.117893137063225,1
820,216,59,0.138171111935844,1
820,217,59,0.206392614247959,1
820,218,59,0.200115133933267,1
820,219,59,0.172855015813132,1
820,220,59,0.149257227789933,1
821,216,59,0.134332730481352,1
821,217,59,0.196229847569381,1
821,218,59,0.1752831128251,1
821,219,59,0.138649801263143,1
822,216,59,0.116697007409065,1
822,217,59,0.134936753735148,1
822,218,59,0.119935428668564,1
823,214,59,0.101708786524089,1
823,215,59,0.116695885438404,1
823,216,59,0.123030346612604,1
823,217,59,0.118578279885126,1
823,218,59,0.0998771530801022,1
824,214,59,0.114319682292752,1
824,215,59,0.130932516695323,1
824,216,59,0.129834641170922,1
824,217,59,0.114458229330047,1
825,214,59,0.119664652487019,1
825,215,59,0.135785224985164,1
825,216,59,0.120079498415813,1
826,214,59,0.111806620512258,1
826,215,59,0.116452744592468,1
827,214,59,0.109888116038912,1
833,206,59,0.112769707056434,1
834,205,59,0.113806941700528,1
834,206,59,0.131062491005332,1
834,207,59,0.114238323080428,1
835,204,59,0.106792675234758,1
835,205,59,0.128197729547729,1
835,206,59,0.142789927468016,1
836,203,59,0.104871066279484,1
836,204,59,0.104467472736061,1
836,205,59,0.107972476403273,1
836,206,59,0.105476407576484,1
837,203,59,0.101095852862517,1
817,219,60,0.102662668551674,1
818,218,60,0.130579956477611,1
818,219,60,0.156466858758721,1
818,220,60,0.137590497565069,1
819,217,60,0.138126843112857,1
819,218,60,0.176075605364159,1
819,219,60,0.187866830760754,1
819,220,60,0.156208968900403,1
819,221,60,0.106465451946737,1
820,216,60,0.123956277409928,1
820,217,60,0.191073684340869,1
820,218,60,0.192695618200379,1
820,219,60,0.162110251363061,1
820,220,60,0.130887823048494,1
821,216,60,0.127996352153401,1
821,217,60,0.185345555719301,1
821,218,60,0.161668412780881,1
821,219,60,0.120032637078094,1
822,216,60,0.113585368834296,1
822,217,60,0.126430658434904,1
822,218,60,0.108139007349587,1
823,215,60,0.116664600974915,1
823,216,60,0.116561161815693,1
823,217,60,0.105630880061418,1
824,214,60,0.105216001453867,1
824,215,60,0.124875378347012,1
824,216,60,0.120360415904986,1
824,217,60,0.102334769902673,1
825,214,60,0.109028305260172,1
825,215,60,0.129720940881962,1
825,216,60,0.113805492942296,1
826,215,60,0.10750066050789,1
834,206,60,0.111419736706645,1
835,205,60,0.110190939188278,1
835,206,60,0.121045950871973,1
836,205,60,0.0998026455138551,1
836,206,60,0.101031998571093,1
817,219,61,0.103403114723552,1
818,218,61,0.131493066309222,1
818,219,61,0.151225327723677,1
818,220,61,0.132856260662728,1
819,217,61,0.131663039417953,1
819,218,61,0.171820918329722,1
819,219,61,0.177290285659447,1
819,220,61,0.147599031402932,1
819,221,61,0.100244102843869,1
820,216,61,0.108737889145595,1
820,217,61,0.163686707285571,1
820,218,61,0.174899104750113,1
820,219,61,0.149460663945961,1
820,220,61,0.120669654983668,1
821,217,61,0.158743511517248,1
821,218,61,0.142063064766184,1
821,219,61,0.108289612848261,1
823,216,61,0.106935067472474,1
824,215,61,0.114023721682382,1
824,216,61,0.109163203169588,1
825,215,61,0.115679271090056,1
825,216,61,0.105933234815266,1
817,219,62,0.101389395244859,1
818,218,62,0.12944898826516,1
818,219,62,0.144103559039881,1
818,220,62,0.122461736238614,1
819,217,62,0.120287476919081,1
819,218,62,0.155873968068186,1
819,219,62,0.159194162470933,1
819,220,62,0.130688744060083,1
820,217,62,0.130638952527142,1
820,218,62,0.146199280413121,1
820,219,62,0.12958907120404,1
821,218,62,0.115662779210626,1
818,218,63,0.125120174916642,1
818,219,63,0.141372802272333,1
819,217,63,0.108655800107695,1
819,218,63,0.137541686394842,1
819,219,63,0.145828648842719,1
819,220,63,0.117273896401527,1
820,218,63,0.120988773939922,1
820,219,63,0.113926164699443,1
819,218,64,0.119026730469165,1
819,219,64,0.129078759732762,1
