x,y,z,signal,mito.p
115,292,1,0.116375786119437,1
115,300,1,0.107865257401143,1
116,310,1,0.129190902334299,1
117,304,1,0.101702479523964,1
117,305,1,0.122026683944997,1
117,311,1,0.132107230870646,1
118,288,1,0.107330687399159,1
118,306,1,0.122201656903568,1
118,311,1,0.156718801083243,1
118,312,1,0.105114675520939,1
119,287,1,0.118165568968464,1
119,307,1,0.115846226860212,1
119,310,1,0.178388008682982,1
119,311,1,0.147467978693938,1
119,312,1,0.113572733048207,1
119,313,1,0.099903339657479,1
120,280,1,0.110816421492586,1
120,286,1,0.114445386578497,1
120,310,1,0.122989400129925,1
120,311,1,0.121402639506002,1
120,312,1,0.12005929205099,1
120,313,1,0.122436638953141,1
120,314,1,0.102407142456788,1
121,280,1,0.106544937576986,1
121,281,1,0.136829300382417,1
121,285,1,0.12875564307522,1
121,312,1,0.106580666351444,1
121,313,1,0.119848023886171,1
121,314,1,0.105360550489554,1
122,279,1,0.101499119618369,1
122,280,1,0.111170245288907,1
122,281,1,0.131043330360737,1
122,282,1,0.146809109592766,1
122,284,1,0.139481486524916,1
122,285,1,0.119286570159991,1
123,278,1,0.132474529207822,1
123,279,1,0.114377501907027,1
123,280,1,0.114425408964974,1
123,281,1,0.123681002452818,1
123,282,1,0.133408923803241,1
123,283,1,0.133515805124881,1
123,284,1,0.113445100715792,1
124,278,1,0.147118686351939,1
124,279,1,0.119171573613665,1
124,280,1,0.118454122393886,1
124,281,1,0.13477607228636,1
124,282,1,0.157765251136847,1
124,283,1,0.152456870257642,1
124,284,1,0.104932458771205,1
125,278,1,0.134931024059732,1
125,279,1,0.115747635049963,1
125,280,1,0.12633372234835,1
125,281,1,0.156870877125988,1
125,282,1,0.184062108426101,1
125,283,1,0.160612986961987,1
126,277,1,0.131832293594027,1
126,278,1,0.118354397720057,1
126,279,1,0.112453975798003,1
126,280,1,0.129190749833433,1
126,281,1,0.160786173481835,1
126,282,1,0.168414985761196,1
126,283,1,0.127559099490137,1
127,276,1,0.108333543990757,1
127,277,1,0.11587478809394,1
127,278,1,0.114894142164268,1
127,279,1,0.108890335547587,1
127,280,1,0.115285579210041,1
127,281,1,0.133320832766949,1
127,282,1,0.12604105139953,1
128,276,1,0.101753589100108,1
128,277,1,0.110693266149898,1
128,278,1,0.114496212938746,1
128,279,1,0.108370536343824,1
128,280,1,0.102330118626242,1
128,281,1,0.103219438322666,1
129,278,1,0.103331940390531,1
129,279,1,0.102787697476438,1
139,282,1,0.102548968262714,1
142,285,1,0.135314334987899,1
142,286,1,0.131897847180822,1
142,287,1,0.101868781718977,1
143,285,1,0.128630385399157,1
143,286,1,0.132300046430608,1
143,287,1,0.117996706937476,1
143,288,1,0.104864007667945,1
144,288,1,0.112086383352013,1
144,289,1,0.106436781783819,1
148,307,1,0.171493684148782,1
148,315,1,0.185984643279493,1
148,316,1,0.169214765663095,1
149,307,1,0.167144947651336,1
149,315,1,0.189501247905485,1
149,316,1,0.172060638799078,1
117,311,2,0.124384292877843,1
118,312,2,0.108726157471787,1
119,311,2,0.136371492780922,1
119,312,2,0.109229061758116,1
120,310,2,0.105581894604486,1
120,311,2,0.107340371204187,1
120,312,2,0.107592400672061,1
120,313,2,0.115405216139879,1
121,280,2,0.110127302755235,1
121,313,2,0.104647151435658,1
122,278,2,0.113633319463918,1
122,279,2,0.102033569798244,1
122,280,2,0.109422857680791,1
122,281,2,0.130026694226551,1
122,285,2,0.126644508221536,1
123,279,2,0.111171160294107,1
123,280,2,0.103076577689431,1
123,281,2,0.107802405258271,1
123,282,2,0.118853228054664,1
123,284,2,0.113852234457905,1
124,279,2,0.11248027130457,1
124,280,2,0.103022472560549,1
124,281,2,0.110886659034569,1
124,282,2,0.129633372705784,1
124,283,2,0.12880965016783,1
125,279,2,0.103503492972523,1
125,280,2,0.109757128687432,1
125,281,2,0.131971210990569,1
125,282,2,0.147096704441312,1
125,283,2,0.12415955017217,1
126,278,2,0.104096100447163,1
126,280,2,0.110613845877163,1
126,281,2,0.13765870902411,1
126,282,2,0.134160927362222,1
127,277,2,0.10680162921421,1
127,281,2,0.107834550262364,1
128,276,2,0.100710069241727,1
137,280,2,0.100282870742739,1
138,280,2,0.112676158667701,1
138,281,2,0.102602746604024,1
139,281,2,0.117184258570731,1
139,282,2,0.107173960079983,1
140,283,2,0.0997614158152813,1
142,284,2,0.129215738189715,1
142,285,2,0.160305893788356,1
142,286,2,0.145059576079599,1
142,287,2,0.107645775975367,1
143,284,2,0.115103776391231,1
143,285,2,0.144127163995445,1
143,286,2,0.138329680158338,1
143,287,2,0.125416756423398,1
143,288,2,0.113019165795414,1
144,288,2,0.117604496494451,1
144,289,2,0.108220900314944,1
147,306,2,0.113710768118307,1
147,307,2,0.125913691390092,1
147,315,2,0.122591656084027,1
147,316,2,0.119546878246337,1
148,306,2,0.190992205306435,1
148,307,2,0.230339607469806,1
148,308,2,0.164268628806631,1
148,314,2,0.129112495103035,1
148,315,2,0.173444290054545,1
148,316,2,0.155266034256454,1
148,317,2,0.125346355487629,1
149,306,2,0.174226848251439,1
149,307,2,0.223469748431774,1
149,308,2,0.176109471449461,1
149,314,2,0.132719053454476,1
149,315,2,0.17133578039435,1
149,316,2,0.155351685278881,1
149,317,2,0.132275145217678,1
150,307,2,0.128871946771831,1
150,315,2,0.127774082140349,1
150,316,2,0.126279192395626,1
152,319,2,0.192736248788405,1
114,293,3,0.100297619755122,1
117,311,3,0.106454940279862,1
118,311,3,0.135779658703534,1
118,312,3,0.10317812148074,1
119,310,3,0.103235189483601,1
119,311,3,0.119823384103298,1
119,312,3,0.104196631197001,1
120,313,3,0.112251879471017,1
121,279,3,0.105374907356851,1
121,280,3,0.118744091898783,1
122,279,3,0.108372529748008,1
122,280,3,0.110127313648154,1
122,285,3,0.121308546471317,1
123,279,3,0.112833833670834,1
123,281,3,0.0998878063549252,1
123,284,3,0.111415030965618,1
124,280,3,0.0997125610733781,1
124,281,3,0.100799543678737,1
124,282,3,0.105493204457647,1
124,283,3,0.103051012008439,1
125,279,3,0.103544363204769,1
125,280,3,0.111687059832853,1
125,281,3,0.124255778218986,1
125,282,3,0.114384832841542,1
126,280,3,0.108510956963194,1
126,281,3,0.127654477889269,1
126,282,3,0.106602844334613,1
127,277,3,0.107850334102056,1
128,276,3,0.110628409709922,1
137,279,3,0.100015743689073,1
137,280,3,0.128186085017273,1
137,281,3,0.106959750827023,1
138,280,3,0.145019729781744,1
138,281,3,0.131107239116756,1
139,281,3,0.150219192363447,1
139,282,3,0.132132927266666,1
140,282,3,0.161074988337313,1
140,283,3,0.116481676185444,1
141,284,3,0.113676629710029,1
141,285,3,0.110438981847783,1
142,283,3,0.130073163419184,1
142,284,3,0.162586620498604,1
142,285,3,0.185222313233261,1
142,286,3,0.150731736883129,1
142,287,3,0.112974744471561,1
143,284,3,0.134188671627022,1
143,285,3,0.157484867400707,1
143,286,3,0.138272252689149,1
143,287,3,0.131848731008861,1
143,288,3,0.128899756394146,1
143,289,3,0.108904474556503,1
144,287,3,0.111854331497662,1
144,288,3,0.131806205052922,1
144,289,3,0.12125928869141,1
147,306,3,0.105626860574292,1
147,307,3,0.124683085647164,1
147,315,3,0.11969181942711,1
147,316,3,0.118937234246316,1
147,317,3,0.11390606726381,1
148,306,3,0.19590421464754,1
148,307,3,0.258443360383902,1
148,308,3,0.179107682058246,1
148,314,3,0.12316114878446,1
148,315,3,0.170166229462653,1
148,316,3,0.156974577715267,1
148,317,3,0.127397404999878,1
149,306,3,0.177030086502292,1
149,307,3,0.247896857953314,1
149,308,3,0.190757441115242,1
149,314,3,0.125901415070332,1
149,315,3,0.164430530262351,1
149,316,3,0.154516133030849,1
149,317,3,0.135955731846928,1
150,307,3,0.128680634434697,1
150,315,3,0.126214041846836,1
150,316,3,0.128529745720128,1
151,319,3,0.148054867386081,1
152,318,3,0.184867487288388,1
152,319,3,0.216911100090771,1
152,320,3,0.190768530106827,1
153,318,3,0.204135405349922,1
153,319,3,0.22090971638437,1
153,320,3,0.190041972406728,1
153,322,3,0.149614450176995,1
118,309,4,0.101035647698972,1
118,311,4,0.11353631801985,1
119,311,4,0.102811422254111,1
121,279,4,0.121323360841214,1
122,279,4,0.121783368812356,1
122,280,4,0.121245454684226,1
122,285,4,0.116340591098012,1
123,280,4,0.106056956589744,1
123,281,4,0.108618753290033,1
123,284,4,0.109230924447272,1
124,280,4,0.110228138506806,1
124,281,4,0.107142653830657,1
125,279,4,0.111801838520798,1
125,280,4,0.122887703837749,1
125,281,4,0.126485003208005,1
125,282,4,0.0999737841649234,1
126,278,4,0.102857423051225,1
126,279,4,0.101043664887387,1
126,280,4,0.11715823538714,1
126,281,4,0.124860563977115,1
127,277,4,0.108877863155284,1
128,276,4,0.113745113492046,1
137,279,4,0.102198543057134,1
137,280,4,0.144900539461586,1
137,281,4,0.126648462351148,1
138,280,4,0.165219428138127,1
138,281,4,0.153168613587844,1
138,282,4,0.106993584233567,1
139,280,4,0.163545567733544,1
139,281,4,0.177037014398803,1
139,282,4,0.149681114841532,1
139,283,4,0.0997744328535365,1
140,281,4,0.165385022293403,1
140,282,4,0.169200877191316,1
140,283,4,0.120933579519136,1
141,284,4,0.122796214210716,1
141,285,4,0.107820748933938,1
142,283,4,0.161712060707482,1
142,284,4,0.182841927206697,1
142,285,4,0.178539834188589,1
142,286,4,0.129663916450777,1
143,284,4,0.144222498822901,1
143,285,4,0.148212803819271,1
143,286,4,0.121755548297123,1
143,287,4,0.120386362838144,1
143,288,4,0.124222151777904,1
143,289,4,0.103482709282991,1
144,288,4,0.131478219260568,1
144,289,4,0.119145724716779,1
146,317,4,0.108627936020785,1
147,307,4,0.12061472199294,1
147,314,4,0.103163470504628,1
147,315,4,0.126052369142415,1
147,316,4,0.126230228724532,1
147,317,4,0.116001843101645,1
147,318,4,0.115389356049754,1
148,306,4,0.181520844878207,1
148,307,4,0.262285859361792,1
148,308,4,0.187666662480438,1
148,314,4,0.128098593091528,1
148,315,4,0.17062173865823,1
148,316,4,0.163082052242471,1
148,317,4,0.133295822624829,1
148,318,4,0.117821156654196,1
149,306,4,0.172811433244045,1
149,307,4,0.259554263839478,1
149,308,4,0.204844926524639,1
149,309,4,0.138761181360347,1
149,313,4,0.102558706532338,1
149,314,4,0.132998042896979,1
149,315,4,0.166197503338905,1
149,316,4,0.161352855809155,1
149,317,4,0.14327868185251,1
149,318,4,0.135523980107781,1
150,307,4,0.132765184966619,1
150,308,4,0.119418309122885,1
150,314,4,0.121011747106181,1
150,315,4,0.132776829497075,1
150,316,4,0.136923110201206,1
150,317,4,0.138506984201584,1
151,315,4,0.114520874507457,1
151,316,4,0.128326048134044,1
151,318,4,0.15251045252641,1
151,319,4,0.159102454985519,1
151,320,4,0.14245810736816,1
152,317,4,0.175868737938633,1
152,318,4,0.212282807719033,1
152,319,4,0.242778972442315,1
152,320,4,0.210085749519945,1
152,321,4,0.147796334845539,1
152,322,4,0.116377518093564,1
153,316,4,0.19388081136382,1
153,317,4,0.215128452103716,1
153,318,4,0.235771535836784,1
153,319,4,0.247500116055968,1
153,320,4,0.219173472232434,1
153,321,4,0.178504584702569,1
153,322,4,0.155675923907084,1
153,323,4,0.124515596123975,1
154,318,4,0.174017312060748,1
154,319,4,0.162035950762276,1
154,320,4,0.154732411938427,1
154,322,4,0.143377556878654,1
122,285,5,0.10611693300199,1
123,280,5,0.11894388981985,1
123,284,5,0.105762324915498,1
124,280,5,0.130466975121308,1
124,281,5,0.127760019381866,1
124,282,5,0.105055004110427,1
125,279,5,0.127560058067013,1
125,280,5,0.14771377741212,1
125,281,5,0.142910653689758,1
126,278,5,0.1106345751021,1
126,279,5,0.119167978950382,1
126,280,5,0.139302450507542,1
126,281,5,0.134870317821911,1
127,278,5,0.10200189318967,1
127,279,5,0.106121311955444,1
127,280,5,0.110901952692904,1
127,281,5,0.100803399772078,1
128,279,5,0.100791406668213,1
137,280,5,0.141318283212528,1
137,281,5,0.134729210948641,1
138,280,5,0.172063198635053,1
138,281,5,0.174002377868741,1
138,282,5,0.117413282193588,1
139,279,5,0.116493734646823,1
139,280,5,0.175958223268563,1
139,281,5,0.205527062900885,1
139,282,5,0.164956788967106,1
139,283,5,0.104734730504755,1
140,280,5,0.133458388548611,1
140,281,5,0.171876755432731,1
140,282,5,0.167050941760004,1
140,283,5,0.117649124783766,1
141,281,5,0.113901884382898,1
141,282,5,0.140324609351682,1
141,283,5,0.14227572722464,1
141,284,5,0.122893771193656,1
142,282,5,0.149107264973482,1
142,283,5,0.193376077067092,1
142,284,5,0.18778443672112,1
142,285,5,0.14986873447911,1
142,286,5,0.101431866736204,1
143,283,5,0.148714215775691,1
143,284,5,0.146546982388941,1
143,285,5,0.130125384073071,1
143,286,5,0.105691640763834,1
143,287,5,0.103013747332397,1
143,288,5,0.105934454822199,1
144,288,5,0.121028042913068,1
144,289,5,0.109146907362701,1
147,318,5,0.114597941909679,1
148,306,5,0.139872836427336,1
148,307,5,0.216549455178578,1
148,308,5,0.16813818579542,1
149,306,5,0.145694687724341,1
149,307,5,0.233201569447214,1
149,308,5,0.20572734011039,1
149,309,5,0.146333110816471,1
150,307,5,0.130354331445495,1
150,308,5,0.136179069366045,1
150,318,5,0.143823926915155,1
151,315,5,0.12275717398887,1
151,319,5,0.170260278925661,1
151,320,5,0.143023101293028,1
152,320,5,0.213030236252016,1
152,321,5,0.15142369867235,1
152,322,5,0.108450468583754,1
153,315,5,0.174612904195205,1
153,321,5,0.192307612424104,1
153,322,5,0.142927069318754,1
153,323,5,0.1105522573129,1
154,318,5,0.180805256347584,1
154,319,5,0.156473438081823,1
154,320,5,0.16070458551821,1
154,321,5,0.160015444995021,1
154,322,5,0.13157723589466,1
110,291,6,0.104358543545641,1
115,309,6,0.103906977586757,1
116,309,6,0.101773403319846,1
117,306,6,0.113487920780546,1
117,308,6,0.104443050811569,1
124,282,6,0.115404083276299,1
125,281,6,0.157456818134174,1
126,278,6,0.118242494762739,1
126,279,6,0.138016813737615,1
126,281,6,0.142561982244144,1
127,278,6,0.113901775453708,1
127,279,6,0.127058243072588,1
127,280,6,0.132879331865259,1
127,281,6,0.111047852450552,1
128,277,6,0.100689971806094,1
128,278,6,0.113881579981804,1
128,279,6,0.122092716820229,1
128,280,6,0.118453588640853,1
129,278,6,0.105372162341253,1
129,279,6,0.119142228089766,1
129,280,6,0.118489676881639,1
130,279,6,0.113955738974641,1
130,280,6,0.115919252989469,1
131,279,6,0.100736767786298,1
131,280,6,0.100127929862286,1
137,280,6,0.12176263958742,1
137,281,6,0.12543890172781,1
138,280,6,0.156036381491102,1
138,281,6,0.172308202170145,1
138,282,6,0.118894762754971,1
139,279,6,0.108970017250379,1
139,280,6,0.162819423964369,1
139,281,6,0.201683583560281,1
139,282,6,0.158019426509772,1
139,283,6,0.101654910146507,1
140,280,6,0.121316879554384,1
140,281,6,0.155175416062944,1
140,282,6,0.144601332761342,1
140,283,6,0.108457832197026,1
141,281,6,0.107437960865884,1
141,282,6,0.127090213789976,1
141,283,6,0.135753755342052,1
141,284,6,0.114293158034885,1
142,282,6,0.147608791458394,1
142,283,6,0.193930025572052,1
142,284,6,0.167728710075714,1
142,285,6,0.114253899954658,1
143,283,6,0.149922850500911,1
143,284,6,0.133496960374939,1
148,306,6,0.105751649854836,1
148,307,6,0.165667083539076,1
148,308,6,0.13885426135356,1
149,306,6,0.123373364633235,1
149,307,6,0.199361975724868,1
149,308,6,0.195833127457873,1
153,322,6,0.128391514577486,1
109,294,7,0.160082610733834,1
110,291,7,0.100670909197771,1
110,293,7,0.118109819008807,1
113,293,7,0.143444374044057,1
114,292,7,0.119419474665222,1
117,306,7,0.128510497932181,1
125,282,7,0.114251067795707,1
127,278,7,0.129180782812509,1
127,281,7,0.130405419235802,1
128,277,7,0.104621248074176,1
128,278,7,0.137035699412424,1
128,280,7,0.161332769266441,1
128,281,7,0.117435634463462,1
129,278,7,0.140667540228961,1
129,280,7,0.169594362105869,1
129,281,7,0.117329374038208,1
130,278,7,0.133392693353869,1
130,280,7,0.158554824373603,1
130,281,7,0.105558017325946,1
131,278,7,0.124894724171231,1
131,279,7,0.147682198839818,1
131,280,7,0.128278892687511,1
132,278,7,0.128395741030074,1
132,279,7,0.140112153858688,1
132,280,7,0.105238680511312,1
133,278,7,0.114330095923357,1
133,279,7,0.1226247052004,1
137,280,7,0.103197347482849,1
137,281,7,0.114396335764051,1
138,280,7,0.138060341842106,1
138,281,7,0.17249131213924,1
138,282,7,0.134199030793031,1
139,280,7,0.145337127656788,1
139,281,7,0.194030610786485,1
139,282,7,0.161474856502425,1
139,283,7,0.106533576262425,1
140,280,7,0.110749495397993,1
140,281,7,0.140630885556385,1
140,282,7,0.134863357246643,1
140,283,7,0.110184555937719,1
141,281,7,0.106907312314755,1
141,282,7,0.125196643208317,1
141,283,7,0.134339832664567,1
141,284,7,0.110558793064325,1
142,282,7,0.144956518172543,1
142,283,7,0.181609491453371,1
142,284,7,0.147932104188478,1
143,283,7,0.145263578667417,1
148,307,7,0.123550243852639,1
148,308,7,0.110768579792154,1
149,306,7,0.112656649449697,1
149,307,7,0.167787041657184,1
149,308,7,0.177714434141103,1
109,294,8,0.170420176084278,1
110,293,8,0.122155056995906,1
113,293,8,0.134279050176313,1
114,292,8,0.10432591925311,1
115,308,8,0.111467872515891,1
116,308,8,0.125351213729522,1
117,306,8,0.124491653487921,1
117,307,8,0.121627316854161,1
128,277,8,0.0999889253223917,1
128,281,8,0.131811956514176,1
129,281,8,0.129352509681206,1
130,281,8,0.108499541184038,1
131,278,8,0.145289307742194,1
131,280,8,0.132056077722825,1
132,278,8,0.154238265559007,1
132,279,8,0.165597869931483,1
132,280,8,0.105377042368983,1
133,278,8,0.134418621147998,1
133,279,8,0.148631745485624,1
134,279,8,0.105092192536036,1
137,281,8,0.102267429877156,1
138,280,8,0.116897644084899,1
138,281,8,0.159636120875223,1
138,282,8,0.142254333531642,1
139,280,8,0.122860471540145,1
139,281,8,0.170539932836225,1
139,282,8,0.156275622672021,1
139,283,8,0.106420682049475,1
140,280,8,0.104224397247639,1
140,281,8,0.128916346309846,1
140,282,8,0.131309847410937,1
140,283,8,0.11532436889475,1
141,281,8,0.114697884441889,1
141,282,8,0.133117799648926,1
141,283,8,0.137908483657742,1
141,284,8,0.108723466920783,1
142,283,8,0.150439294685609,1
149,306,8,0.106535994490453,1
149,307,8,0.139703549572505,1
149,308,8,0.152420019512523,1
149,309,8,0.137582709127954,1
150,306,8,0.100827723660299,1
150,307,8,0.138564738458344,1
150,308,8,0.190196869715505,1
109,294,9,0.163134185753006,1
109,295,9,0.133967861265122,1
110,293,9,0.117584736739309,1
110,294,9,0.131156899934668,1
112,293,9,0.115472087769878,1
113,293,9,0.121613733384116,1
113,294,9,0.133166327603258,1
115,307,9,0.122615359075862,1
116,305,9,0.111355882415221,1
116,306,9,0.162658633586391,1
116,307,9,0.153059542789477,1
117,306,9,0.106426346367376,1
117,307,9,0.101369929598531,1
119,287,9,0.102292254839652,1
130,281,9,0.110814613268026,1
131,278,9,0.146541448786067,1
131,280,9,0.129721322134128,1
132,278,9,0.154227470676237,1
132,279,9,0.174533069991546,1
132,280,9,0.103648891655895,1
133,278,9,0.128673150999316,1
133,279,9,0.154543191041749,1
134,279,9,0.107436174427161,1
138,280,9,0.102973824784108,1
138,281,9,0.145299971909936,1
138,282,9,0.143984052825072,1
139,280,9,0.107844157816959,1
139,281,9,0.150389666546454,1
139,282,9,0.151106671156553,1
139,283,9,0.105278744667549,1
140,280,9,0.104117352532214,1
140,281,9,0.126455167502749,1
140,282,9,0.134378872886414,1
140,283,9,0.119465007066818,1
141,281,9,0.131517008945277,1
141,282,9,0.146953625949696,1
141,283,9,0.142521253619846,1
141,284,9,0.103891073924955,1
142,282,9,0.128350666131078,1
149,307,9,0.108256955876973,1
149,308,9,0.119303802757916,1
149,309,9,0.118706663828955,1
149,310,9,0.103449540344508,1
150,307,9,0.127266994973108,1
150,308,9,0.176177791837692,1
150,309,9,0.198388279477545,1
110,292,10,0.100511349719644,1
110,293,10,0.112365579759977,1
110,294,10,0.124415381268789,1
110,295,10,0.121838683055252,1
111,291,10,0.113733948250028,1
111,292,10,0.101693863225001,1
111,293,10,0.103439257428933,1
111,294,10,0.120784640637075,1
112,292,10,0.113423892202418,1
112,293,10,0.115592988278324,1
113,293,10,0.117701476152681,1
113,294,10,0.124297367383889,1
116,290,10,0.107273848147598,1
116,306,10,0.129832658659656,1
117,289,10,0.120855488182524,1
118,288,10,0.120306310776105,1
119,287,10,0.114177104875412,1
131,278,10,0.140334336728387,1
132,278,10,0.13866745868491,1
132,279,10,0.170192252646244,1
132,280,10,0.100377355922509,1
133,278,10,0.11031927956043,1
133,279,10,0.141904747080828,1
138,281,10,0.119344444238861,1
138,282,10,0.124910322831299,1
139,281,10,0.126453097848131,1
139,282,10,0.131916376036112,1
140,280,10,0.114031902264583,1
140,281,10,0.133558657868392,1
140,282,10,0.133529617346226,1
140,283,10,0.115168796224992,1
141,281,10,0.161364641947558,1
141,282,10,0.156537738982927,1
141,283,10,0.14041162198899,1
142,282,10,0.128778627134399,1
149,309,10,0.103472045115249,1
110,293,11,0.11751376937175,1
110,294,11,0.122555044983127,1
110,295,11,0.121769360518468,1
111,291,11,0.126134447287396,1
111,292,11,0.119387950557515,1
111,293,11,0.116834966228732,1
111,294,11,0.123357112398025,1
112,292,11,0.120801176088181,1
112,293,11,0.120069204607318,1
112,294,11,0.132100357438731,1
113,292,11,0.123698845054209,1
113,293,11,0.117903180334581,1
113,294,11,0.118466398713646,1
113,295,11,0.114537606031106,1
114,292,11,0.110042958883093,1
114,293,11,0.100390394746602,1
131,278,11,0.12245858818501,1
132,278,11,0.114323865173665,1
132,279,11,0.152211953865903,1
132,280,11,0.101581807766817,1
133,279,11,0.118502062130589,1
138,282,11,0.102383657323334,1
139,281,11,0.117098444154519,1
139,282,11,0.12007304980774,1
140,280,11,0.129474401445285,1
140,281,11,0.148168545889203,1
140,282,11,0.137788498154495,1
140,283,11,0.113932482592487,1
141,280,11,0.152247704426199,1
141,281,11,0.180394331869645,1
141,282,11,0.155769189079922,1
141,283,11,0.1291990829165,1
142,281,11,0.140152991412176,1
142,282,11,0.119865942737995,1
150,308,11,0.126567582427262,1
110,295,12,0.125421309663557,1
111,292,12,0.138776224481544,1
111,293,12,0.133723903450259,1
111,294,12,0.129831373295209,1
111,295,12,0.132428561089465,1
112,292,12,0.130821746601585,1
112,293,12,0.129284777510603,1
112,294,12,0.129445251993929,1
112,295,12,0.129579082397278,1
113,293,12,0.125474913718163,1
113,294,12,0.122680934448495,1
113,295,12,0.116175563374527,1
113,296,12,0.117161056653172,1
114,293,12,0.116597631308645,1
114,294,12,0.113776899029811,1
114,295,12,0.100756919686526,1
115,292,12,0.103767700723886,1
123,280,12,0.103202369118527,1
131,278,12,0.101304376011737,1
132,279,12,0.12486949617073,1
139,280,12,0.119719759764452,1
139,281,12,0.124042102719059,1
139,282,12,0.118762675218668,1
140,280,12,0.158340331904748,1
140,281,12,0.170977958896741,1
140,282,12,0.147366413116791,1
140,283,12,0.11674094944448,1
141,280,12,0.159038600694095,1
141,281,12,0.187106548583301,1
141,282,12,0.149829607113912,1
141,283,12,0.113509924477011,1
142,281,12,0.132166444778558,1
142,282,12,0.110221526504948,1
150,308,12,0.104971803994784,1
150,309,12,0.140513557925384,1
111,295,13,0.133742802664797,1
112,292,13,0.140220974119917,1
114,296,13,0.10293378241371,1
115,293,13,0.123945700385538,1
115,294,13,0.115031207764573,1
118,289,13,0.100190378967154,1
122,280,13,0.105897495147889,1
123,279,13,0.101045821685357,1
131,279,13,0.11592925268915,1
132,279,13,0.104346430619666,1
132,280,13,0.102024027601163,1
139,280,13,0.140771513141217,1
139,281,13,0.140405456596812,1
139,282,13,0.127248585939927,1
139,283,13,0.106413351114959,1
140,279,13,0.13567965081381,1
140,280,13,0.17990456444368,1
140,281,13,0.186607609319503,1
140,282,13,0.153822199623281,1
140,283,13,0.119460911329258,1
141,280,13,0.15348826629713,1
141,281,13,0.17349278533012,1
141,282,13,0.136378649428732,1
142,281,13,0.114479437843422,1
150,309,13,0.134883944863632,1
131,279,14,0.105647905693881,1
132,280,14,0.108255528904579,1
139,281,14,0.142662142634735,1
139,282,14,0.124792025730503,1
139,283,14,0.106294683654916,1
140,280,14,0.174808835130013,1
140,281,14,0.176250687251921,1
140,282,14,0.143913346887571,1
140,283,14,0.115799779453417,1
141,281,14,0.145012355275552,1
141,282,14,0.116926466748684,1
150,309,14,0.12898611545631,1
118,290,15,0.103615287000651,1
123,285,15,0.102963160616366,1
124,284,15,0.101991719203285,1
130,279,15,0.100400339981688,1
131,280,15,0.123520636898683,1
132,280,15,0.115038996201688,1
132,282,15,0.104055458966217,1
139,281,15,0.138511188868334,1
139,282,15,0.118892758457867,1
139,283,15,0.100554496571969,1
140,281,15,0.15146452533292,1
140,282,15,0.12827014567352,1
140,283,15,0.110711468217617,1
150,309,15,0.116489573551749,1
150,310,15,0.138226665822958,1
151,309,15,0.156231451885305,1
132,283,16,0.102563216200821,1
139,282,16,0.105732358495213,1
140,282,16,0.112910748572189,1
140,283,16,0.101524358511789,1
149,311,16,0.0998577636842075,1
150,309,16,0.100888048645953,1
150,310,16,0.128129060586089,1
150,311,16,0.118698505032592,1
151,310,16,0.164504416932213,1
116,302,17,0.102884589991316,1
116,303,17,0.102494863133833,1
119,290,17,0.107994665279362,1
125,280,17,0.102928063631213,1
149,311,17,0.106205481540882,1
150,310,17,0.125516078059222,1
150,311,17,0.135997201189721,1
151,308,17,0.10006183162954,1
151,309,17,0.117695169152556,1
151,310,17,0.139125789146519,1
117,302,18,0.118839121724505,1
118,302,18,0.11306968715393,1
119,291,18,0.12184268075654,1
119,303,18,0.109156264380158,1
120,290,18,0.121077605694709,1
123,282,18,0.105167320998668,1
125,283,18,0.108375024226469,1
149,311,18,0.114822630150758,1
150,310,18,0.125642621099733,1
151,307,18,0.104239407690079,1
151,308,18,0.120616116286577,1
151,309,18,0.122993365152456,1
151,310,18,0.139133784549096,1
152,308,18,0.158234855769665,1
119,302,19,0.111799376721095,1
120,289,19,0.11017124479065,1
120,291,19,0.110786182749326,1
120,304,19,0.102158195685003,1
126,283,19,0.108269733271009,1
127,283,19,0.10895261036575,1
147,291,19,0.112115685304235,1
148,291,19,0.103591954368063,1
150,297,19,0.100663817907474,1
150,298,19,0.106008711851308,1
150,310,19,0.127636254035711,1
151,305,19,0.124233327912841,1
151,306,19,0.131438460106065,1
151,307,19,0.131928085924082,1
151,308,19,0.147948367316608,1
152,305,19,0.118292602190332,1
152,306,19,0.136582826303255,1
152,307,19,0.169230636646139,1
118,301,20,0.106678931374121,1
120,291,20,0.117561284284611,1
120,302,20,0.100340319997766,1
121,304,20,0.108895084860289,1
123,305,20,0.104457429464704,1
127,282,20,0.106281514115794,1
127,283,20,0.0998695389296918,1
128,281,20,0.101065483404228,1
133,284,20,0.10028900345616,1
147,291,20,0.133214103946176,1
147,292,20,0.119191943372274,1
148,292,20,0.11633629928791,1
150,297,20,0.1010635226788,1
150,298,20,0.105978734538104,1
151,305,20,0.136001634607771,1
151,306,20,0.151480407208883,1
151,307,20,0.143698821739958,1
152,305,20,0.139235317447486,1
152,306,20,0.169901182956524,1
118,296,21,0.110593552368988,1
118,297,21,0.115015140708986,1
118,298,21,0.10128489947249,1
118,300,21,0.105594595748089,1
119,292,21,0.110699921723433,1
119,296,21,0.123698561838314,1
119,298,21,0.103407155996516,1
120,287,21,0.100558461594501,1
120,291,21,0.111998891426267,1
127,282,21,0.100210171401053,1
127,283,21,0.100328860646934,1
128,283,21,0.102828121099003,1
147,291,21,0.14321137450575,1
147,292,21,0.132575256030203,1
147,293,21,0.105856287235153,1
148,292,21,0.133585116768745,1
148,293,21,0.102719584053669,1
150,298,21,0.0998545720589282,1
151,304,21,0.102201070214352,1
151,305,21,0.12958087972892,1
151,306,21,0.146505240723172,1
151,307,21,0.13754853804092,1
152,305,21,0.146503715714506,1
152,306,21,0.180935797089382,1
118,294,22,0.102887008219343,1
118,295,22,0.114233138050964,1
119,288,22,0.10044841043342,1
119,295,22,0.100306584627493,1
120,296,22,0.130584487931932,1
120,298,22,0.110358178174329,1
127,283,22,0.100307020344255,1
143,289,22,0.111416142043361,1
143,290,22,0.103345534753496,1
146,291,22,0.103413604604589,1
146,292,22,0.111878088954092,1
146,293,22,0.122099862575121,1
146,294,22,0.13582449395831,1
146,295,22,0.115184460242575,1
147,291,22,0.145133735072437,1
147,292,22,0.137096492793597,1
147,293,22,0.121574159409237,1
147,294,22,0.119735913963391,1
147,295,22,0.103132839616282,1
148,293,22,0.111332331924252,1
151,304,22,0.102595415669509,1
151,305,22,0.113902940996045,1
151,306,22,0.126595893123852,1
151,307,22,0.12585253854259,1
152,304,22,0.118516985429677,1
152,305,22,0.145686082318297,1
152,306,22,0.177076828017901,1
153,305,22,0.123337624965859,1
119,289,23,0.109355310689812,1
121,298,23,0.1004313521222,1
126,283,23,0.11566990317968,1
126,284,23,0.100280289120926,1
127,283,23,0.109735462671457,1
127,284,23,0.100000733246633,1
128,283,23,0.111846935205632,1
132,287,23,0.114350716219103,1
132,288,23,0.111211322486615,1
133,287,23,0.103759193354114,1
133,288,23,0.109845219723724,1
138,307,23,0.101549902406943,1
143,289,23,0.116131904555006,1
143,290,23,0.124204015067699,1
145,292,23,0.103214895975426,1
145,293,23,0.101729276104807,1
145,294,23,0.103893786261797,1
146,291,23,0.108104302509519,1
146,292,23,0.119901159545258,1
146,293,23,0.131649227196608,1
146,294,23,0.156235809052922,1
146,295,23,0.147885384458707,1
147,292,23,0.138180087701134,1
147,293,23,0.126677197871581,1
147,294,23,0.134267471003372,1
147,295,23,0.123781751061037,1
148,293,23,0.116757648289372,1
148,294,23,0.105268026035211,1
151,306,23,0.101488912953227,1
151,307,23,0.108945715147996,1
152,305,23,0.137116742730096,1
152,306,23,0.167438457354922,1
119,293,24,0.101717293893861,1
121,296,24,0.10974577826579,1
124,285,24,0.11613083704894,1
124,305,24,0.127255437586004,1
125,305,24,0.123641689907996,1
126,284,24,0.101760157530291,1
126,305,24,0.100853823094323,1
127,306,24,0.110399887161341,1
128,292,24,0.101354428974735,1
131,287,24,0.114200862331843,1
131,288,24,0.120009467839292,1
132,287,24,0.123811859089269,1
132,288,24,0.14147699304297,1
132,289,24,0.108019490241858,1
133,287,24,0.103909755281112,1
133,288,24,0.129204562054778,1
133,289,24,0.113120862087589,1
134,288,24,0.112233895261679,1
134,289,24,0.118954553987592,1
135,289,24,0.105293177785279,1
137,307,24,0.101088282283783,1
138,306,24,0.105763370635726,1
138,307,24,0.155697971175225,1
138,308,24,0.11811138758915,1
139,307,24,0.11319180766931,1
142,290,24,0.100567927541148,1
142,291,24,0.102865407560883,1
143,289,24,0.102787087472972,1
143,290,24,0.125451145368813,1
143,291,24,0.110553727856971,1
145,292,24,0.103393899314042,1
145,293,24,0.106275054614803,1
145,294,24,0.106425616541801,1
145,295,24,0.10832805395956,1
146,292,24,0.121733860495311,1
146,293,24,0.1276495760757,1
146,294,24,0.150740734434258,1
146,295,24,0.160979326722287,1
146,296,24,0.119969752256465,1
147,293,24,0.126380605471906,1
147,294,24,0.138589846636736,1
147,295,24,0.143415072091834,1
147,296,24,0.110860570493464,1
148,294,24,0.112390775081721,1
148,295,24,0.110082423928782,1
118,294,25,0.139264488684681,1
119,293,25,0.109137964276168,1
119,294,25,0.106443655215734,1
120,290,25,0.112064248940519,1
120,292,25,0.106722121798123,1
120,293,25,0.101687207651467,1
121,292,25,0.106034321103975,1
121,293,25,0.103486260374599,1
122,293,25,0.103316243694192,1
122,294,25,0.113825928058418,1
122,295,25,0.115030630439864,1
122,296,25,0.10555479302191,1
123,293,25,0.101038567001275,1
123,294,25,0.12809027090138,1
123,295,25,0.13415128712887,1
123,296,25,0.104217360421938,1
124,286,25,0.108860096804326,1
124,294,25,0.1040251875442,1
124,295,25,0.106966853010238,1
124,301,25,0.0998004342512896,1
124,304,25,0.102355226804634,1
124,305,25,0.123187880007789,1
125,286,25,0.104999842368398,1
125,287,25,0.11322045604639,1
125,288,25,0.116420926375947,1
125,289,25,0.104485968912594,1
125,303,25,0.112333118861232,1
125,304,25,0.144989904969407,1
125,305,25,0.158380504990175,1
126,288,25,0.102676763988915,1
126,289,25,0.104724709019237,1
126,303,25,0.108906282781064,1
127,305,25,0.105567679345137,1
128,291,25,0.109521645563583,1
128,292,25,0.122757762206498,1
128,293,25,0.104570552428955,1
129,291,25,0.104238917508722,1
129,292,25,0.10436924039214,1
129,307,25,0.103458069500118,1
130,287,25,0.113910925505703,1
130,288,25,0.107732178609208,1
131,286,25,0.100749360000711,1
131,287,25,0.124582718291112,1
131,288,25,0.135849199098698,1
131,289,25,0.110878630953235,1
131,291,25,0.110139176036991,1
131,292,25,0.115146868778961,1
132,287,25,0.116048944083583,1
132,288,25,0.144581268004467,1
132,289,25,0.12506756211767,1
132,290,25,0.113018425076919,1
132,291,25,0.135591309240379,1
132,292,25,0.142938583134182,1
132,293,25,0.0999236767373304,1
133,285,25,0.10753044174855,1
133,288,25,0.12358331475485,1
133,289,25,0.131223379419581,1
133,290,25,0.115636875849144,1
133,291,25,0.10831770568647,1
133,292,25,0.103320742469756,1
134,288,25,0.135834700623453,1
134,289,25,0.176151496331125,1
134,290,25,0.140011710252202,1
135,288,25,0.134584912450092,1
135,289,25,0.169300536507631,1
135,290,25,0.129369110489826,1
136,288,25,0.102258846256951,1
136,289,25,0.10208421097887,1
137,307,25,0.117660834671736,1
137,308,25,0.119803417382694,1
138,306,25,0.110616525535247,1
138,307,25,0.169984426643842,1
138,308,25,0.134435363564565,1
139,307,25,0.116430838932275,1
141,294,25,0.107760772521693,1
141,295,25,0.107207270626414,1
142,291,25,0.108136403941936,1
142,292,25,0.100267653334837,1
142,293,25,0.109506744050333,1
142,294,25,0.125218875656081,1
142,295,25,0.136740294340925,1
142,296,25,0.112196804872341,1
143,290,25,0.115767841414786,1
143,291,25,0.122265260657854,1
143,292,25,0.104090294521314,1
143,295,25,0.100944604681619,1
144,291,25,0.10275367889027,1
145,293,25,0.101436528905554,1
145,294,25,0.102626994241812,1
145,295,25,0.111425455489142,1
145,296,25,0.107895180249752,1
146,293,25,0.114203945027932,1
146,294,25,0.132593185774946,1
146,295,25,0.162965530687479,1
146,296,25,0.153816578877055,1
146,297,25,0.113922079854802,1
147,294,25,0.13671966315226,1
147,295,25,0.17082185247395,1
147,296,25,0.159604455159568,1
147,297,25,0.115569317965246,1
148,295,25,0.137073290876038,1
148,296,25,0.126175840379756,1
148,309,25,0.105739645858052,1
149,295,25,0.107794486106128,1
149,296,25,0.100504084142643,1
149,309,25,0.110316850439484,1
118,293,26,0.154356268550989,1
118,294,26,0.145989384756102,1
118,295,26,0.157007550581207,1
119,291,26,0.130531831561284,1
119,292,26,0.111289893111664,1
119,293,26,0.105001149518683,1
119,294,26,0.113076048618651,1
119,295,26,0.131598215656734,1
120,290,26,0.116504137384508,1
120,291,26,0.102396260430665,1
120,292,26,0.108446971956741,1
120,293,26,0.101978778415463,1
121,292,26,0.118661676073311,1
121,293,26,0.121774262332037,1
122,292,26,0.120409194396456,1
122,293,26,0.148054300954291,1
122,294,26,0.148785302965359,1
122,295,26,0.129060535879205,1
122,296,26,0.106200318297256,1
122,302,26,0.110192605804891,1
123,292,26,0.101858422552968,1
123,293,26,0.140928534569207,1
123,294,26,0.17959779805762,1
123,295,26,0.175668482514966,1
123,296,26,0.120215997584328,1
123,300,26,0.113312522998133,1
123,301,26,0.132506053315529,1
123,302,26,0.125576065364386,1
123,303,26,0.103177467905597,1
124,286,26,0.112003836811513,1
124,287,26,0.110634716710048,1
124,288,26,0.130422989514216,1
124,289,26,0.128504833614279,1
124,293,26,0.102049702211345,1
124,294,26,0.13712181883037,1
124,295,26,0.143024615408775,1
124,296,26,0.106515352408868,1
124,300,26,0.14468708182004,1
124,301,26,0.160219109902348,1
124,302,26,0.129914769483395,1
124,303,26,0.113460634018346,1
124,304,26,0.112870128877082,1
125,286,26,0.110666578498245,1
125,287,26,0.132393758213126,1
125,288,26,0.157176870114795,1
125,289,26,0.15729938277526,1
125,290,26,0.118161331622957,1
125,300,26,0.112798736685681,1
125,301,26,0.11911000683524,1
125,302,26,0.118418981837056,1
125,303,26,0.161551564438318,1
126,287,26,0.106466911597889,1
126,288,26,0.11965838905857,1
126,289,26,0.133402104835921,1
126,290,26,0.115194002439655,1
126,302,26,0.100731626328511,1
128,291,26,0.108215900465104,1
128,292,26,0.126853401730004,1
128,293,26,0.116662672928245,1
129,291,26,0.109598473321586,1
129,292,26,0.123192106460377,1
129,293,26,0.10475013309228,1
130,286,26,0.0999574012146843,1
130,287,26,0.124008465385058,1
130,288,26,0.121403750583744,1
130,292,26,0.10380006358636,1
131,287,26,0.121873987005866,1
131,288,26,0.134678144944173,1
131,289,26,0.114447140338462,1
131,290,26,0.104295212114331,1
131,291,26,0.125203418603961,1
131,292,26,0.139378461296617,1
131,293,26,0.116922055116472,1
132,288,26,0.123972486073462,1
132,289,26,0.119516704860591,1
132,290,26,0.123608662577461,1
132,291,26,0.164975644609968,1
132,292,26,0.19060840419691,1
132,293,26,0.150904651080001,1
132,294,26,0.106118719440712,1
132,308,26,0.107547456488094,1
133,288,26,0.0999215308322791,1
133,289,26,0.119895462548599,1
133,290,26,0.117654037490254,1
133,291,26,0.118979019483761,1
133,292,26,0.129705799724494,1
133,293,26,0.116379587748182,1
134,288,26,0.125038848383075,1
134,289,26,0.18537888805157,1
134,290,26,0.155191831691941,1
135,288,26,0.135204686864823,1
135,289,26,0.191615607063206,1
135,290,26,0.148890898922552,1
135,293,26,0.111875529118117,1
135,294,26,0.106444646471367,1
136,288,26,0.101646380990897,1
136,289,26,0.106000150016941,1
136,291,26,0.106065616460383,1
136,292,26,0.144086315549038,1
136,293,26,0.146755363930213,1
136,294,26,0.123052154236526,1
136,295,26,0.103146749873899,1
136,308,26,0.112825816482419,1
137,291,26,0.105537723817771,1
137,292,26,0.136681886509022,1
137,293,26,0.120187033312595,1
137,307,26,0.118756411790219,1
137,308,26,0.130466343332003,1
138,306,26,0.103379694947611,1
138,307,26,0.150063870230828,1
138,308,26,0.130073740743893,1
139,297,26,0.104163418686842,1
139,304,26,0.100465065706635,1
139,307,26,0.103827873208674,1
140,303,26,0.12110795336716,1
140,304,26,0.121287446887133,1
141,293,26,0.111724912726524,1
141,294,26,0.15883013200947,1
141,295,26,0.154814446511732,1
141,296,26,0.111770161912224,1
142,292,26,0.109822736738822,1
142,293,26,0.140089267835781,1
142,294,26,0.161922304937911,1
142,295,26,0.156770803878749,1
142,296,26,0.124506598572847,1
143,291,26,0.116045382099056,1
143,292,26,0.122984879568523,1
143,293,26,0.12457069250849,1
143,294,26,0.110795550659702,1
143,295,26,0.102444559633697,1
144,292,26,0.104825446734537,1
144,301,26,0.103498493122683,1
145,295,26,0.100212121233561,1
145,296,26,0.108997205976308,1
145,297,26,0.101479479685336,1
145,300,26,0.107853307868954,1
145,301,26,0.117719046431096,1
145,302,26,0.104317085095767,1
146,294,26,0.107090367819255,1
146,295,26,0.145055992309234,1
146,296,26,0.169068539117875,1
146,297,26,0.145218253231283,1
146,298,26,0.110285239188424,1
147,295,26,0.172846421300008,1
147,296,26,0.189455279787128,1
147,297,26,0.146687697117125,1
147,298,26,0.107395881519625,1
147,308,26,0.122545328499342,1
147,309,26,0.148637224623903,1
148,296,26,0.138280945238544,1
148,297,26,0.10861866614668,1
148,308,26,0.128542523114164,1
149,308,26,0.108201216810235,1
149,309,26,0.144397406423957,1
150,299,26,0.101272187435968,1
150,300,26,0.102454395939592,1
118,296,27,0.122014603697779,1
119,294,27,0.104155880786865,1
119,295,27,0.118038263423621,1
119,296,27,0.109083989862315,1
121,292,27,0.11776448079642,1
121,293,27,0.124758791434506,1
122,292,27,0.149338412715553,1
122,293,27,0.183958560337688,1
122,294,27,0.16501154767113,1
122,295,27,0.119764486090038,1
122,302,27,0.113101113225366,1
123,292,27,0.121248918632482,1
123,293,27,0.168530200165903,1
123,294,27,0.200054939662642,1
123,295,27,0.177793353339562,1
123,296,27,0.116913809176757,1
123,300,27,0.118536516433519,1
123,301,27,0.142810449727491,1
123,302,27,0.139178674268468,1
123,303,27,0.122846800926747,1
124,287,27,0.106831748135361,1
124,288,27,0.147306109916975,1
124,289,27,0.160603695302044,1
124,290,27,0.118711685464633,1
124,293,27,0.102288823570154,1
124,294,27,0.145256977558477,1
124,295,27,0.153207218092929,1
124,296,27,0.111057078752981,1
124,299,27,0.105668983492227,1
124,300,27,0.17196340860371,1
124,301,27,0.196349168604566,1
124,302,27,0.147457782921715,1
124,303,27,0.124277760129613,1
125,287,27,0.127589479841345,1
125,288,27,0.177438603645123,1
125,289,27,0.202059672483124,1
125,290,27,0.154872690949849,1
125,295,27,0.10235140339005,1
125,296,27,0.100184910721795,1
125,297,27,0.11448707377967,1
125,298,27,0.104267228205312,1
125,300,27,0.137568733512823,1
125,301,27,0.146145916002735,1
125,302,27,0.13090072026464,1
126,287,27,0.100708380839275,1
126,288,27,0.121084511805381,1
126,289,27,0.145105653127147,1
126,290,27,0.129025526037404,1
126,297,27,0.105768653701461,1
126,302,27,0.112324197560537,1
127,303,27,0.112608361139584,1
128,292,27,0.112542600587328,1
128,293,27,0.12372430180601,1
128,294,27,0.125260486606822,1
128,295,27,0.111451184563919,1
128,299,27,0.102068307317069,1
128,300,27,0.106155657329184,1
129,292,27,0.135624543536376,1
129,293,27,0.142228353919727,1
129,294,27,0.132136935860874,1
129,295,27,0.1110004573598,1
129,299,27,0.103940560456163,1
130,287,27,0.115478841379684,1
130,288,27,0.11929568753323,1
130,291,27,0.101402477640629,1
130,292,27,0.121130675996281,1
130,293,27,0.117553550312092,1
130,294,27,0.108352399633619,1
131,287,27,0.102971559056947,1
131,288,27,0.113888987166752,1
131,289,27,0.106405878572497,1
131,290,27,0.106664955758991,1
131,291,27,0.129862853831241,1
131,292,27,0.146669658443191,1
131,293,27,0.137634744602218,1
131,294,27,0.122613768709682,1
131,295,27,0.104324873532882,1
131,308,27,0.107543948968163,1
132,290,27,0.116829781199268,1
132,291,27,0.163832509006948,1
132,292,27,0.200692567571682,1
132,293,27,0.193683976316732,1
132,294,27,0.154982197464978,1
132,295,27,0.108981552851644,1
132,308,27,0.107263565232022,1
133,290,27,0.105848215582143,1
133,291,27,0.114371870267882,1
133,292,27,0.139963291227061,1
133,293,27,0.154034164934918,1
133,294,27,0.127172281042038,1
134,288,27,0.100176817282947,1
134,289,27,0.154690397949682,1
134,290,27,0.142485001985275,1
134,293,27,0.106589228185811,1
134,294,27,0.110960142666426,1
134,295,27,0.10574944948519,1
135,288,27,0.116374762185047,1
135,289,27,0.171922679979412,1
135,290,27,0.143420039262917,1
135,292,27,0.117533136981807,1
135,293,27,0.14332734052187,1
135,294,27,0.150205369249183,1
135,295,27,0.15419639317821,1
135,296,27,0.127171213535972,1
135,297,27,0.104247490236008,1
136,289,27,0.100614560127567,1
136,291,27,0.127064767931094,1
136,292,27,0.203582110420105,1
136,293,27,0.19975331473437,1
136,294,27,0.157331593136867,1
136,295,27,0.146789044835891,1
136,296,27,0.132218600074931,1
136,297,27,0.111585875507872,1
137,291,27,0.137763749442432,1
137,292,27,0.194962086079601,1
137,293,27,0.151661044485356,1
137,294,27,0.106071553101261,1
137,295,27,0.106880777163969,1
137,296,27,0.122426976933951,1
137,297,27,0.127701883872939,1
137,298,27,0.110884632951627,1
137,307,27,0.10716342662727,1
138,292,27,0.1012101958337,1
138,296,27,0.111405281803076,1
138,297,27,0.168638573817451,1
138,298,27,0.16918889498037,1
138,299,27,0.114227038016301,1
138,307,27,0.126485896427366,1
139,296,27,0.105837137483478,1
139,297,27,0.182928460555566,1
139,298,27,0.178786471661537,1
139,299,27,0.108317073897166,1
139,303,27,0.1355978994564,1
139,304,27,0.159188040650432,1
139,305,27,0.12219026291025,1
139,307,27,0.102688354054775,1
140,294,27,0.105919030448835,1
140,295,27,0.106219468048931,1
140,297,27,0.124787668562886,1
140,298,27,0.112540095215948,1
140,303,27,0.171007097455178,1
140,304,27,0.181821554801279,1
140,305,27,0.117177701033468,1
141,293,27,0.11177225335268,1
141,294,27,0.176557606138847,1
141,295,27,0.17418805856673,1
141,296,27,0.118388536128334,1
141,303,27,0.120290298185113,1
141,304,27,0.118399603334081,1
142,292,27,0.107877773365122,1
142,293,27,0.146983973622147,1
142,294,27,0.164460017394198,1
142,295,27,0.143516888206119,1
142,296,27,0.109399165581875,1
143,292,27,0.130812520299157,1
143,293,27,0.132316974026799,1
143,294,27,0.105439371651741,1
144,300,27,0.127359083710689,1
144,301,27,0.156163556320917,1
144,302,27,0.135575710580311,1
145,297,27,0.107967454767595,1
145,298,27,0.112294067746467,1
145,299,27,0.127171823539438,1
145,300,27,0.168874982839419,1
145,301,27,0.197735902556122,1
145,302,27,0.157296964547233,1
146,295,27,0.116799564241845,1
146,296,27,0.159997449892763,1
146,297,27,0.167880535581321,1
146,298,27,0.152346459630233,1
146,299,27,0.136385021786372,1
146,300,27,0.138791147780631,1
146,301,27,0.13648509503361,1
146,302,27,0.107234677210723,1
147,296,27,0.190495074267198,1
147,297,27,0.16914227328687,1
147,298,27,0.138856592438235,1
147,299,27,0.116539060082957,1
147,300,27,0.10263349731448,1
147,308,27,0.165974144033949,1
148,298,27,0.10211741259611,1
148,307,27,0.101799927577713,1
149,300,27,0.100695047906368,1
149,303,27,0.100594375548582,1
149,308,27,0.126929532341188,1
150,303,27,0.108417604647004,1
121,292,28,0.102446291607825,1
121,293,28,0.108941074764484,1
122,292,28,0.154440547065617,1
122,293,28,0.18843912294138,1
122,294,28,0.159820429065413,1
122,295,28,0.100687215897577,1
122,302,28,0.103759934072609,1
123,292,28,0.126143738947339,1
123,293,28,0.173354608652073,1
123,294,28,0.191236402765518,1
123,295,28,0.150237329073652,1
123,300,28,0.107701013967829,1
123,301,28,0.131342155808815,1
123,302,28,0.133381691505637,1
123,303,28,0.13209558634019,1
124,288,28,0.13440620322029,1
124,289,28,0.159689256534309,1
124,290,28,0.121025537541688,1
124,294,28,0.13249104287309,1
124,295,28,0.135884328762608,1
124,296,28,0.101222635547246,1
124,300,28,0.161863156387513,1
124,301,28,0.196774493521479,1
124,302,28,0.153577272338622,1
125,288,28,0.160499657032274,1
125,289,28,0.205977419745756,1
125,290,28,0.167484087792789,1
125,295,28,0.100200814383596,1
125,297,28,0.104504486874965,1
125,299,28,0.100050502993736,1
125,300,28,0.139010237061322,1
125,301,28,0.155137301739217,1
126,288,28,0.103416632836083,1
126,289,28,0.131980350149645,1
126,290,28,0.123264435442816,1
126,296,28,0.100874791963479,1
126,297,28,0.106592997135799,1
126,298,28,0.101518563478859,1
126,302,28,0.119734868243163,1
127,295,28,0.111481652058479,1
127,303,28,0.117933963723794,1
128,293,28,0.117015385646824,1
128,294,28,0.145962130672659,1
128,295,28,0.141325864684181,1
128,296,28,0.101189444822925,1
128,298,28,0.102156060672871,1
128,299,28,0.135319138765197,1
128,300,28,0.147441563365262,1
128,301,28,0.113053325989529,1
129,292,28,0.124113211694565,1
129,293,28,0.163793207355044,1
129,294,28,0.173860432240705,1
129,295,28,0.142289517660147,1
129,296,28,0.100912775572178,1
129,297,28,0.1034478192633,1
129,298,28,0.149005699396335,1
129,299,28,0.174723423751805,1
129,300,28,0.150793532412854,1
129,301,28,0.100564823059221,1
129,307,28,0.103249960281822,1
130,292,28,0.11690104267564,1
130,293,28,0.12537420868162,1
130,294,28,0.120965245234791,1
130,295,28,0.115651864505746,1
130,296,28,0.114179817212254,1
130,297,28,0.123114439947608,1
130,298,28,0.153006668560447,1
130,299,28,0.152557466364995,1
130,300,28,0.114381837288806,1
130,307,28,0.113813205128977,1
131,291,28,0.114759854258319,1
131,292,28,0.130869871517913,1
131,293,28,0.136328901467467,1
131,294,28,0.132733835145616,1
131,295,28,0.131612321986894,1
131,296,28,0.129016975095956,1
131,297,28,0.110253464543579,1
131,298,28,0.102541593756523,1
132,291,28,0.129586467796389,1
132,292,28,0.166409577579733,1
132,293,28,0.197137946658233,1
132,294,28,0.180556331361637,1
132,295,28,0.135891790412152,1
132,296,28,0.101436158546307,1
132,308,28,0.107784050689685,1
133,292,28,0.128379848261192,1
133,293,28,0.163653483882493,1
133,294,28,0.141955257546426,1
133,308,28,0.115452774624416,1
134,289,28,0.104452680152002,1
134,290,28,0.10633773247097,1
134,293,28,0.10872236673596,1
134,294,28,0.117773609062577,1
134,295,28,0.121646913215518,1
134,296,28,0.111122893769832,1
134,297,28,0.104453301048387,1
135,289,28,0.120313957605272,1
135,290,28,0.111647464072136,1
135,292,28,0.114757860854134,1
135,293,28,0.145259809717428,1
135,294,28,0.168814407316626,1
135,295,28,0.204212244000844,1
135,296,28,0.190800816718868,1
135,297,28,0.162026866067795,1
135,298,28,0.11588275081776,1
136,291,28,0.122700073307252,1
136,292,28,0.208833216330986,1
136,293,28,0.202240233509164,1
136,294,28,0.161003149536232,1
136,295,28,0.177551813752726,1
136,296,28,0.185116651918554,1
136,297,28,0.16383407758729,1
136,298,28,0.112761809690128,1
137,291,28,0.136387625194023,1
137,292,28,0.198526989908626,1
137,293,28,0.148924765007853,1
137,295,28,0.107304653322649,1
137,296,28,0.133455719783446,1
137,297,28,0.150982121520227,1
137,298,28,0.134328700101306,1
138,296,28,0.116374021466552,1
138,297,28,0.209371457246688,1
138,298,28,0.232726790677851,1
138,299,28,0.152626396756692,1
138,303,28,0.110563607734542,1
138,304,28,0.132702921041375,1
138,305,28,0.112684992825044,1
138,307,28,0.10801457753537,1
139,296,28,0.114488184857413,1
139,297,28,0.227115652006795,1
139,298,28,0.244637326216712,1
139,299,28,0.146708241162438,1
139,303,28,0.174117962632695,1
139,304,28,0.219698576287771,1
139,305,28,0.159346336549949,1
139,306,28,0.102640381639314,1
139,307,28,0.105321510267707,1
140,295,28,0.101432444060913,1
140,297,28,0.131843001333445,1
140,298,28,0.128267792803007,1
140,302,28,0.101299779199901,1
140,303,28,0.197843916741342,1
140,304,28,0.220916622495043,1
140,305,28,0.134959748687245,1
141,294,28,0.149928721784275,1
141,295,28,0.155217451837527,1
141,296,28,0.105651238927108,1
141,303,28,0.125293829832009,1
141,304,28,0.125295561806137,1
142,293,28,0.124628631944874,1
142,294,28,0.135688604793262,1
142,295,28,0.116009718682113,1
144,300,28,0.143134067459309,1
144,301,28,0.198908503505151,1
144,302,28,0.168450115425106,1
144,303,28,0.110643638010743,1
145,298,28,0.118446028955038,1
145,299,28,0.145645146728538,1
145,300,28,0.219296518645932,1
145,301,28,0.28040616483058,1
145,302,28,0.210681439690674,1
145,303,28,0.126329430538247,1
145,308,28,0.119597813535777,1
146,297,28,0.160349193141547,1
146,298,28,0.17672084742361,1
146,299,28,0.170762747495229,1
146,300,28,0.176087042929153,1
146,301,28,0.177672757832849,1
146,302,28,0.132715785578763,1
146,308,28,0.13128536012893,1
147,299,28,0.134913377530884,1
147,300,28,0.114959281820139,1
147,307,28,0.107660328915207,1
122,303,29,0.129087550318429,1
123,301,29,0.110701762626751,1
123,302,29,0.12767197191725,1
124,295,29,0.0998769896863165,1
124,300,29,0.127990088724951,1
124,301,29,0.166930836434648,1
125,299,29,0.0998409232313686,1
125,300,29,0.122346238618012,1
125,301,29,0.143640315871784,1
126,296,29,0.106390508663728,1
126,298,29,0.107767003271385,1
126,299,29,0.110014528364393,1
126,300,29,0.102113523824012,1
126,301,29,0.106320238442989,1
126,302,29,0.122902169634237,1
127,295,29,0.116596542016741,1
127,296,29,0.105483520652619,1
127,299,29,0.101805668146048,1
127,302,29,0.103833319668195,1
127,303,29,0.116452602984521,1
128,294,29,0.134223223966223,1
128,295,29,0.141186740322177,1
128,298,29,0.105832595136237,1
128,299,29,0.145698064529244,1
128,300,29,0.165217761521514,1
128,301,29,0.131243651141919,1
128,304,29,0.113601621069506,1
129,293,29,0.14741020265134,1
129,294,29,0.171259039779699,1
129,295,29,0.136048180050837,1
129,297,29,0.101321205571657,1
129,298,29,0.174831993475896,1
129,299,29,0.221881539049618,1
129,300,29,0.194300384819478,1
129,301,29,0.1316092937554,1
130,293,29,0.1124219397231,1
130,294,29,0.109344450449527,1
130,295,29,0.10442893358849,1
130,296,29,0.12558796043198,1
130,297,29,0.140228718985356,1
130,298,29,0.196424809034394,1
130,299,29,0.214995972422328,1
130,300,29,0.170806635066049,1
130,307,29,0.133257904373644,1
131,292,29,0.100006539172483,1
131,293,29,0.112975485190055,1
131,294,29,0.115228718172642,1
131,295,29,0.129573592366081,1
131,296,29,0.162393892081995,1
131,297,29,0.134783751794284,1
131,298,29,0.123543141669423,1
131,299,29,0.1226795074761,1
131,307,29,0.109998820775135,1
132,293,29,0.157705242045845,1
132,294,29,0.160982561919242,1
132,295,29,0.131502695649655,1
132,296,29,0.11526273675881,1
132,308,29,0.110008352079297,1
133,293,29,0.136658771734815,1
133,294,29,0.124256921975486,1
133,308,29,0.10290978531306,1
134,294,29,0.101819502153231,1
134,295,29,0.111255068449487,1
134,296,29,0.111390598148207,1
134,297,29,0.111216768946136,1
135,293,29,0.119781958332182,1
135,294,29,0.147530711014701,1
135,295,29,0.200754504709354,1
135,296,29,0.221746662926041,1
135,297,29,0.198624220103994,1
135,298,29,0.135759452338711,1
136,292,29,0.164142325410339,1
136,293,29,0.15941693355826,1
136,294,29,0.134070951850936,1
136,295,29,0.171700660503499,1
136,296,29,0.213415584156044,1
136,297,29,0.197082218484414,1
136,298,29,0.125148812400803,1
137,296,29,0.122026237335316,1
137,297,29,0.143574653355799,1
137,298,29,0.12795417477087,1
138,296,29,0.102357764854771,1
138,297,29,0.197874830845583,1
138,298,29,0.235691756097721,1
138,299,29,0.154594703655898,1
138,303,29,0.129497189431921,1
138,304,29,0.163423065965998,1
138,305,29,0.140260569880635,1
138,306,29,0.099926955505962,1
139,296,29,0.104331224104684,1
139,297,29,0.21170308656762,1
139,298,29,0.251509995627856,1
139,299,29,0.158978134100493,1
139,303,29,0.191152984791494,1
139,304,29,0.253611348640241,1
139,305,29,0.183228211901763,1
139,306,29,0.112514398819928,1
140,297,29,0.110801345692632,1
140,298,29,0.12047827728902,1
140,303,29,0.186722878188805,1
140,304,29,0.217011314945957,1
140,305,29,0.133639319933898,1
141,303,29,0.107505693036487,1
141,304,29,0.11063446617291,1
144,300,29,0.133272489992241,1
144,301,29,0.209452783780255,1
144,302,29,0.18211887702653,1
144,303,29,0.118405964798801,1
145,299,29,0.138273777697814,1
145,300,29,0.223655777703173,1
145,301,29,0.316295348414023,1
145,302,29,0.238686306685708,1
145,303,29,0.149300799466101,1
145,308,29,0.146573985935246,1
145,309,29,0.117586098354189,1
146,300,29,0.185835628146999,1
146,301,29,0.197453536308717,1
146,302,29,0.147273681696987,1
128,299,30,0.140865039744111,1
128,300,30,0.156596299315697,1
129,298,30,0.165965898094235,1
129,299,30,0.238953030701369,1
129,300,30,0.220948909107084,1
129,301,30,0.168564915898889,1
130,298,30,0.195691367009461,1
130,299,30,0.247733420596009,1
130,300,30,0.224222383780059,1
130,301,30,0.194034946168264,1
131,299,30,0.134408741270427,1
131,300,30,0.142423326277659,1
138,298,30,0.183685278784764,1
138,304,30,0.177295688547292,1
139,298,30,0.201350412738464,1
139,303,30,0.184079144951483,1
139,304,30,0.250269793223253,1
139,305,30,0.180740116691713,1
140,304,30,0.179456429754294,1
144,301,30,0.17439636385757,1
144,302,30,0.16515231686391,1
145,300,30,0.175470754248516,1
145,301,30,0.26870311761363,1
145,302,30,0.222816456505152,1
145,303,30,0.149028432918376,1
146,301,30,0.173691178064631,1
146,302,30,0.14053202142316,1
129,299,31,0.190701429725529,1
129,300,31,0.186566891588124,1
130,299,31,0.204562516705557,1
130,300,31,0.211696463672842,1
130,301,31,0.211370329676726,1
131,300,31,0.128647312995348,1
139,304,31,0.193516007505105,1
145,301,31,0.177796708358627,1
145,302,31,0.174680777973755,1
130,300,32,0.161383094552415,1
