x,y,z,signal,mito.p
261,573,22,0.170495685799077,1
261,574,22,0.20286335205004,1
262,573,22,0.126498325247993,1
262,574,22,0.145436198755475,1
238,605,23,0.198003301932764,1
238,606,23,0.164537171939772,1
260,573,23,0.12091818782453,1
260,574,23,0.127904993241396,1
261,572,23,0.126543748720398,1
261,573,23,0.192272842226522,1
261,574,23,0.208892648097279,1
261,575,23,0.119460922222177,1
262,572,23,0.113219138003186,1
262,573,23,0.143013090700429,1
262,574,23,0.148646679677631,1
237,605,24,0.202082242611379,1
237,606,24,0.184438023062239,1
238,604,24,0.198693913000025,1
238,605,24,0.273863115149645,1
238,606,24,0.218682724443756,1
238,607,24,0.133586238739406,1
239,605,24,0.190517012606148,1
239,606,24,0.165517763404848,1
239,608,24,0.159821888716564,1
239,609,24,0.224196022915978,1
239,610,24,0.214851488744156,1
260,572,24,0.117698491492864,1
260,573,24,0.128401655885114,1
260,574,24,0.120221923332287,1
261,571,24,0.146363676347303,1
261,572,24,0.15178947200086,1
261,573,24,0.183879815425934,1
261,574,24,0.181711405603927,1
261,575,24,0.110541397072615,1
262,572,24,0.133160336497785,1
262,573,24,0.137794881405054,1
262,574,24,0.132179145922161,1
236,604,25,0.128951879011761,1
236,605,25,0.145645081371023,1
236,606,25,0.129570498777073,1
237,604,25,0.186579069871613,1
237,605,25,0.234042481011415,1
237,606,25,0.191403870502869,1
237,607,25,0.136927423797147,1
238,604,25,0.202985962746776,1
238,605,25,0.281500249619154,1
238,606,25,0.22579996167323,1
238,607,25,0.165184189545026,1
238,608,25,0.179789404503568,1
238,609,25,0.202248838915207,1
238,610,25,0.172634782775942,1
239,605,25,0.170821808902274,1
239,606,25,0.162070818996129,1
239,607,25,0.157994405474733,1
239,608,25,0.218077078145023,1
239,609,25,0.28496735682102,1
239,610,25,0.245447367248348,1
239,611,25,0.151164065946985,1
240,608,25,0.150819239701793,1
240,609,25,0.195966500358622,1
240,610,25,0.181530038501878,1
260,571,25,0.145152841252436,1
260,572,25,0.154291553718961,1
260,573,25,0.13658117057956,1
260,574,25,0.110103109582043,1
261,571,25,0.170334416132661,1
261,572,25,0.179715572298302,1
261,573,25,0.164902607587792,1
261,574,25,0.141537339814462,1
261,575,25,0.102520494172339,1
262,572,25,0.143996960934137,1
262,573,25,0.125332499694608,1
262,574,25,0.110545176915523,1
235,604,26,0.116914016142219,1
235,605,26,0.11788898686107,1
236,603,26,0.139065028444103,1
236,604,26,0.180378722316657,1
236,605,26,0.190255604334979,1
236,606,26,0.142805765772303,1
237,603,26,0.162533310552813,1
237,604,26,0.222037024576023,1
237,605,26,0.257206120853278,1
237,606,26,0.204311914210078,1
237,607,26,0.167604541691555,1
237,608,26,0.148109789483891,1
237,609,26,0.113710550259926,1
238,604,26,0.187615879691865,1
238,605,26,0.253474097860312,1
238,606,26,0.226314412453744,1
238,607,26,0.222871857891399,1
238,608,26,0.248124476389615,1
238,609,26,0.220091135304205,1
238,610,26,0.158435416195065,1
239,605,26,0.141459455443312,1
239,606,26,0.153869158997271,1
239,607,26,0.19315505973973,1
239,608,26,0.275384964868997,1
239,609,26,0.305498090987089,1
239,610,26,0.235783626976921,1
239,611,26,0.14193587904345,1
240,608,26,0.162604473992914,1
240,609,26,0.20423457448488,1
240,610,26,0.188902943434187,1
259,571,26,0.130079361490119,1
259,572,26,0.125785220302911,1
260,570,26,0.165669327480398,1
260,571,26,0.214093581223054,1
260,572,26,0.218593903581888,1
260,573,26,0.155322927972611,1
261,570,26,0.155180568413651,1
261,571,26,0.214883012851863,1
261,572,26,0.229239749434139,1
261,573,26,0.170354524461212,1
261,574,26,0.122992373896824,1
262,571,26,0.151222179670074,1
262,572,26,0.157278446584862,1
262,573,26,0.130474458556689,1
263,572,26,0.103864538774169,1
235,603,27,0.127898468382889,1
235,604,27,0.145117646231012,1
235,605,27,0.126837519854041,1
236,602,27,0.118290881109123,1
236,603,27,0.179756987176499,1
236,604,27,0.229314104499519,1
236,605,27,0.216934367365845,1
236,606,27,0.14477713358176,1
236,607,27,0.103800575553555,1
237,602,27,0.108651900442677,1
237,603,27,0.172063645244734,1
237,604,27,0.231076665943861,1
237,605,27,0.254373765829826,1
237,606,27,0.215052092741232,1
237,607,27,0.196620511217902,1
237,608,27,0.161362811937159,1
237,609,27,0.109735920174057,1
238,603,27,0.106683364792171,1
238,604,27,0.153399783115752,1
238,605,27,0.207328533852044,1
238,606,27,0.232825938026971,1
238,607,27,0.27720118483254,1
238,608,27,0.279129754363081,1
238,609,27,0.204518117167542,1
238,610,27,0.13115256455289,1
239,605,27,0.110528292891008,1
239,606,27,0.147358602893838,1
239,607,27,0.217463066084466,1
239,608,27,0.286033664666037,1
239,609,27,0.268117557857611,1
239,610,27,0.196207778515402,1
240,607,27,0.109915468158626,1
240,608,27,0.161320482053762,1
240,609,27,0.185994926195069,1
259,570,27,0.132841794866241,1
259,571,27,0.150349667747732,1
259,572,27,0.136620581160654,1
260,569,27,0.114230501964556,1
260,570,27,0.188335378780424,1
260,571,27,0.250595883647693,1
260,572,27,0.23387222468679,1
260,573,27,0.148056043821338,1
261,569,27,0.101350670917665,1
261,570,27,0.175225151602877,1
261,571,27,0.237842998679317,1
261,572,27,0.234419550296972,1
261,573,27,0.161168558511884,1
261,574,27,0.109797726596701,1
262,570,27,0.11562555810626,1
262,571,27,0.147822543208754,1
262,572,27,0.156655850904099,1
262,573,27,0.137891479811118,1
235,603,28,0.162050362094169,1
235,604,28,0.168105714003756,1
235,605,28,0.128194635958721,1
236,602,28,0.147341054401262,1
236,603,28,0.221835592717099,1
236,604,28,0.263345435382842,1
236,605,28,0.218326722063627,1
236,606,28,0.136104136975956,1
237,602,28,0.11324445314704,1
237,603,28,0.176024626503043,1
237,604,28,0.231042244319688,1
237,605,28,0.238910417602077,1
237,606,28,0.212465111612119,1
237,607,28,0.198373421535972,1
237,608,28,0.152782655680349,1
238,604,28,0.128782210904764,1
238,605,28,0.174389218102678,1
238,606,28,0.237597385140759,1
238,607,28,0.295132367440921,1
238,608,28,0.262546592271981,1
238,609,28,0.172477380095786,1
239,606,28,0.141677161323285,1
239,607,28,0.217604608674497,1
239,608,28,0.254108741109535,1
239,609,28,0.212097976668729,1
239,610,28,0.154133726214962,1
240,607,28,0.108127667820864,1
240,608,28,0.149075011040199,1
240,609,28,0.159355519280702,1
259,570,28,0.145660549316063,1
259,571,28,0.163526483339383,1
259,572,28,0.136050456670917,1
260,569,28,0.108204168791296,1
260,570,28,0.195577318147091,1
260,571,28,0.25544909301181,1
260,572,28,0.214327996840837,1
260,573,28,0.1274289944651,1
261,569,28,0.104618753595715,1
261,570,28,0.200298461760744,1
261,571,28,0.254414810348776,1
261,572,28,0.220373479765773,1
261,573,28,0.149788758667504,1
262,570,28,0.12527290453453,1
262,571,28,0.156811281965909,1
262,572,28,0.165869909691637,1
262,573,28,0.159020485769728,1
263,572,28,0.130039711264806,1
235,602,29,0.151952473641404,1
235,603,29,0.188041139251263,1
235,604,29,0.178000863447312,1
235,605,29,0.125449184643386,1
236,601,29,0.101684179419973,1
236,602,29,0.179744754428415,1
236,603,29,0.262729157595124,1
236,604,29,0.285230921890159,1
236,605,29,0.214497447089454,1
236,606,29,0.132034880102369,1
237,602,29,0.122221972197581,1
237,603,29,0.185427622971363,1
237,604,29,0.234651983403489,1
237,605,29,0.228251478461138,1
237,606,29,0.2115848330385,1
237,607,29,0.200225871348248,1
237,608,29,0.149930584473431,1
238,604,29,0.118255468229318,1
238,605,29,0.157118701927111,1
238,606,29,0.248922273780248,1
238,607,29,0.319058925546645,1
238,608,29,0.25357736273283,1
238,609,29,0.151542725598722,1
239,606,29,0.153403236171089,1
239,607,29,0.246186691449564,1
239,608,29,0.245514968703923,1
239,609,29,0.178578917982111,1
240,607,29,0.123586822274782,1
240,608,29,0.151971808572704,1
258,570,29,0.127262659591329,1
258,571,29,0.110821290627398,1
259,569,29,0.111315328077627,1
259,570,29,0.159411617813768,1
259,571,29,0.17521056598428,1
259,572,29,0.139876028052615,1
260,569,29,0.104987380869014,1
260,570,29,0.194745774493266,1
260,571,29,0.241380169136461,1
260,572,29,0.192410289078993,1
260,573,29,0.118846703196158,1
261,569,29,0.109566154030788,1
261,570,29,0.218128231292844,1
261,571,29,0.258346348046915,1
261,572,29,0.208896569548134,1
261,573,29,0.150320997584814,1
262,570,29,0.137943112247377,1
262,571,29,0.171847802053917,1
262,572,29,0.185100966115133,1
262,573,29,0.187620563647053,1
262,574,29,0.144098624547555,1
263,571,29,0.0998844513358603,1
263,572,29,0.142480470530953,1
263,573,29,0.181729368027427,1
265,576,29,0.10963993177146,1
235,602,30,0.16226989798454,1
235,603,30,0.191519684018123,1
235,604,30,0.17769844333595,1
235,605,30,0.128231061879998,1
236,601,30,0.112899997261095,1
236,602,30,0.198964928825789,1
236,603,30,0.281254287507187,1
236,604,30,0.300145855215821,1
236,605,30,0.223848059510101,1
236,606,30,0.137998698813248,1
237,602,30,0.127087501453135,1
237,603,30,0.192281709062622,1
237,604,30,0.243786894241268,1
237,605,30,0.228798041566987,1
237,606,30,0.20586321838252,1
237,607,30,0.199199758374495,1
237,608,30,0.149193983501975,1
238,604,30,0.117897243693704,1
238,605,30,0.153518733791691,1
238,606,30,0.250135570674818,1
238,607,30,0.331772487077279,1
238,608,30,0.241130372716991,1
238,609,30,0.134505481284438,1
239,606,30,0.182342345260676,1
239,607,30,0.287659824978136,1
239,608,30,0.241801877604252,1
239,609,30,0.155030060951248,1
240,607,30,0.1412253666131,1
240,608,30,0.152071816462428,1
258,570,30,0.13745075230668,1
258,571,30,0.121614092850444,1
259,569,30,0.111644185303504,1
259,570,30,0.171334342529036,1
259,571,30,0.18288362530079,1
259,572,30,0.139741740146666,1
260,569,30,0.106633965404316,1
260,570,30,0.18749211434571,1
260,571,30,0.225969477279361,1
260,572,30,0.181004520515618,1
260,573,30,0.11658961412023,1
261,569,30,0.11005083446356,1
261,570,30,0.206584024621364,1
261,571,30,0.245149031981627,1
261,572,30,0.206725937570643,1
261,573,30,0.157719522662709,1
261,574,30,0.10312013847268,1
262,570,30,0.137823453531701,1
262,571,30,0.177585146084994,1
262,572,30,0.202722397677637,1
262,573,30,0.208916198588248,1
262,574,30,0.148824887833157,1
263,571,30,0.101410091791039,1
263,572,30,0.148071010692101,1
263,573,30,0.190584374417504,1
263,574,30,0.159022631674779,1
264,573,30,0.111912946295026,1
265,576,30,0.114573116947183,1
266,576,30,0.106144023691647,1
235,600,31,0.113830949694097,1
235,601,31,0.123375684824991,1
235,602,31,0.154202743750012,1
235,603,31,0.171365975565934,1
235,604,31,0.167299855853032,1
235,605,31,0.137507101376884,1
236,601,31,0.118631491794646,1
236,602,31,0.191400776913861,1
236,603,31,0.260195094266716,1
236,604,31,0.29072729276619,1
236,605,31,0.228712248936613,1
236,606,31,0.152685926559257,1
236,607,31,0.117518758328672,1
237,602,31,0.124021101171146,1
237,603,31,0.186137078788566,1
237,604,31,0.244510619782416,1
237,605,31,0.222140855880331,1
237,606,31,0.19109947877316,1
237,607,31,0.190945038966983,1
237,608,31,0.152542248957093,1
238,604,31,0.125026092774877,1
238,605,31,0.158304167413529,1
238,606,31,0.24348045464278,1
238,607,31,0.309456272765204,1
238,608,31,0.215773116838458,1
238,609,31,0.128184505544012,1
239,605,31,0.118597865353563,1
239,606,31,0.224268831186854,1
239,607,31,0.299072009470827,1
239,608,31,0.216392292142641,1
239,609,31,0.141063192834404,1
240,606,31,0.117483487056814,1
240,607,31,0.146576730950844,1
240,608,31,0.141601139641291,1
240,609,31,0.141291061807842,1
241,609,31,0.116392190855514,1
258,570,31,0.132524135561139,1
258,571,31,0.126029657406213,1
259,569,31,0.107519167577342,1
259,570,31,0.166245530218961,1
259,571,31,0.178104683858701,1
259,572,31,0.137851731549534,1
260,569,31,0.105393861035984,1
260,570,31,0.16726259117699,1
260,571,31,0.200979138485838,1
260,572,31,0.171604476028358,1
260,573,31,0.121133595298584,1
261,569,31,0.102319399993905,1
261,570,31,0.165294632851193,1
261,571,31,0.204134882489808,1
261,572,31,0.198850945320934,1
261,573,31,0.16730227408106,1
261,574,31,0.108203537001991,1
262,570,31,0.120409346897323,1
262,571,31,0.157563122131104,1
262,572,31,0.201297189936025,1
262,573,31,0.21369056500434,1
262,574,31,0.148952748916872,1
263,572,31,0.140479691840083,1
263,573,31,0.182123092586199,1
263,574,31,0.155182659854107,1
263,575,31,0.107194939842058,1
264,573,31,0.110953890130896,1
264,574,31,0.122676762460502,1
264,575,31,0.113057116725356,1
265,575,31,0.10498720658231,1
265,576,31,0.104527416469549,1
266,576,31,0.103018050035418,1
267,578,31,0.10559253698639,1
268,579,31,0.114498750988883,1
235,598,32,0.104864683028926,1
235,599,32,0.103942858862081,1
235,600,32,0.110306142700066,1
235,601,32,0.11816686522583,1
235,602,32,0.135682188863946,1
235,603,32,0.145040589721709,1
235,604,32,0.155153477723994,1
235,605,32,0.152074049510832,1
236,601,32,0.116052364460162,1
236,602,32,0.166392039980075,1
236,603,32,0.220084272765209,1
236,604,32,0.262942070590718,1
236,605,32,0.22413129719103,1
236,606,32,0.176138620900817,1
236,607,32,0.151082434411685,1
237,602,32,0.116617804994711,1
237,603,32,0.177584263758552,1
237,604,32,0.243126304058887,1
237,605,32,0.219447973792292,1
237,606,32,0.187345866014653,1
237,607,32,0.180434788170966,1
237,608,32,0.154197231932976,1
238,604,32,0.147985904315627,1
238,605,32,0.18920284728125,1
238,606,32,0.252171544387113,1
238,607,32,0.260360013061012,1
238,608,32,0.189109081034137,1
238,609,32,0.129152711760138,1
239,605,32,0.16893090708578,1
239,606,32,0.272566661711109,1
239,607,32,0.272871619872608,1
239,608,32,0.184075887968689,1
239,609,32,0.136105694663379,1
240,605,32,0.110704769072406,1
240,606,32,0.147356064843701,1
240,607,32,0.144938163603957,1
240,608,32,0.131270110042271,1
240,609,32,0.14144651465549,1
240,610,32,0.113925108086295,1
241,609,32,0.122288822041741,1
241,610,32,0.123253052342417,1
258,570,32,0.124700045922113,1
258,571,32,0.127798231741865,1
258,572,32,0.10902367576958,1
259,569,32,0.108331343621111,1
259,570,32,0.152115475281948,1
259,571,32,0.166367966628992,1
259,572,32,0.139786357543062,1
259,573,32,0.100685266065068,1
260,569,32,0.105803075325633,1
260,570,32,0.146955619353881,1
260,571,32,0.175321967867322,1
260,572,32,0.164303115788317,1
260,573,32,0.128630897366352,1
261,570,32,0.129497679613278,1
261,571,32,0.163906166925509,1
261,572,32,0.184613736739305,1
261,573,32,0.170959342898098,1
261,574,32,0.113936916010537,1
262,571,32,0.130630151048556,1
262,572,32,0.180570535728067,1
262,573,32,0.200007054390533,1
262,574,32,0.148185168483661,1
263,572,32,0.12446585905563,1
263,573,32,0.161974776128936,1
263,574,32,0.152005435013786,1
263,575,32,0.116229962612222,1
264,573,32,0.10792157379259,1
264,574,32,0.12931141069766,1
264,575,32,0.125841710981063,1
265,575,32,0.111205984956284,1
266,576,32,0.10458334071591,1
266,577,32,0.115281832045891,1
267,576,32,0.105818042196397,1
267,577,32,0.134328504028764,1
267,578,32,0.12781784988906,1
267,579,32,0.101752281949823,1
268,578,32,0.12267303708219,1
268,579,32,0.129060655701314,1
269,579,32,0.111547172966516,1
269,580,32,0.107693171066118,1
234,601,33,0.0998478729137174,1
235,598,33,0.105917527226007,1
235,600,33,0.110084765906376,1
235,601,33,0.114764287676369,1
235,602,33,0.116685395557366,1
235,603,33,0.124235920427573,1
235,604,33,0.144376426661882,1
235,605,33,0.163804666705876,1
235,606,33,0.180962234203897,1
236,601,33,0.107178306354681,1
236,602,33,0.136448723576929,1
236,603,33,0.176125680112995,1
236,604,33,0.213641002222699,1
236,605,33,0.205855179408267,1
236,606,33,0.199247730789956,1
236,607,33,0.181359912892281,1
237,602,33,0.109966207375523,1
237,603,33,0.165223959592449,1
237,604,33,0.220082355611457,1
237,605,33,0.213127074302299,1
237,606,33,0.191097038759295,1
237,607,33,0.168950884699303,1
237,608,33,0.144080073906427,1
238,603,33,0.108931151315237,1
238,604,33,0.169439595512121,1
238,605,33,0.228972458986687,1
238,606,33,0.25801121649967,1
238,607,33,0.205198467105065,1
238,608,33,0.163317894832648,1
238,609,33,0.128765228843977,1
239,604,33,0.113508813399269,1
239,605,33,0.208535229637675,1
239,606,33,0.277920487848557,1
239,607,33,0.21635477692946,1
239,608,33,0.155027784331169,1
239,609,33,0.133065088813682,1
240,605,33,0.129177765473934,1
240,606,33,0.159786051012916,1
240,607,33,0.140219525361685,1
240,608,33,0.125962023271881,1
240,609,33,0.132746961113061,1
241,608,33,0.100045100105891,1
241,609,33,0.116789139718322,1
257,572,33,0.105463956970019,1
258,570,33,0.105424655318116,1
258,571,33,0.119662408545696,1
258,572,33,0.122243409462256,1
259,570,33,0.122169413863204,1
259,571,33,0.139095986120021,1
259,572,33,0.139467020728428,1
259,573,33,0.117190118961176,1
260,570,33,0.121291662446802,1
260,571,33,0.139027720196385,1
260,572,33,0.148539373532149,1
260,573,33,0.135888304678058,1
261,571,33,0.123541061121886,1
261,572,33,0.152233728811068,1
261,573,33,0.157392996521507,1
261,574,33,0.115086696294173,1
262,571,33,0.102949076072045,1
262,572,33,0.138788489908385,1
262,573,33,0.163152932466677,1
262,574,33,0.140182979618299,1
263,572,33,0.105995019452072,1
263,573,33,0.135390933994602,1
263,574,33,0.146115165292279,1
263,575,33,0.130574760555228,1
264,573,33,0.105296271374287,1
264,574,33,0.128669153298027,1
264,575,33,0.136326003951002,1
264,576,33,0.105932352488823,1
265,574,33,0.108479182318348,1
265,575,33,0.115083700741437,1
265,576,33,0.103776044699872,1
266,575,33,0.102799352899813,1
266,576,33,0.108737333606724,1
266,577,33,0.127665904561344,1
266,578,33,0.111953021344182,1
267,576,33,0.120275658101921,1
267,577,33,0.153528112594986,1
267,578,33,0.1432706101995,1
267,579,33,0.106651350503107,1
268,578,33,0.124347638205267,1
268,579,33,0.127095496855711,1
268,580,33,0.109717423997524,1
269,579,33,0.111848166105484,1
269,580,33,0.12948151452142,1
269,581,33,0.119455606477685,1
270,580,33,0.108865728443471,1
270,581,33,0.124094388730461,1
270,582,33,0.119532423342769,1
271,582,33,0.106388395437434,1
271,583,33,0.106904425691209,1
271,603,33,0.104368096635641,1
273,592,33,0.10305361541609,1
234,601,34,0.105268625145759,1
235,598,34,0.103551432709227,1
235,600,34,0.105397564628458,1
235,601,34,0.106480244530796,1
235,603,34,0.104333359116816,1
235,604,34,0.127502946492476,1
235,605,34,0.158984855031542,1
235,606,34,0.18933678661379,1
235,607,34,0.167110024952888,1
236,602,34,0.116401166620805,1
236,603,34,0.142086931151805,1
236,604,34,0.163689049263165,1
236,605,34,0.184000323789295,1
236,606,34,0.219283447143082,1
236,607,34,0.206061970583359,1
236,608,34,0.129602404136947,1
237,602,34,0.115394562865056,1
237,603,34,0.162106504198911,1
237,604,34,0.187332119150822,1
237,605,34,0.198494550795719,1
237,606,34,0.194731090838397,1
237,607,34,0.166934136989117,1
237,608,34,0.130605031977245,1
238,603,34,0.128800293150373,1
238,604,34,0.183391082827278,1
238,605,34,0.252241455141524,1
238,606,34,0.238994489151243,1
238,607,34,0.163351804489626,1
238,608,34,0.137161904772444,1
238,609,34,0.118379429648015,1
239,604,34,0.134996577646526,1
239,605,34,0.23348245425763,1
239,606,34,0.239424280164963,1
239,607,34,0.161721995049649,1
239,608,34,0.126562114181903,1
239,609,34,0.117421473668708,1
240,605,34,0.141175422579293,1
240,606,34,0.152301330266642,1
240,607,34,0.136966115445584,1
240,608,34,0.116932675712538,1
240,609,34,0.108520215944379,1
241,607,34,0.120047059302906,1
241,608,34,0.108541718566568,1
251,572,34,0.101121102648856,1
251,573,34,0.126760060306733,1
252,572,34,0.110950742077293,1
252,573,34,0.128099551668404,1
253,572,34,0.101184869796928,1
253,573,34,0.100823475421872,1
254,572,34,0.109684810597912,1
254,573,34,0.100663360404875,1
255,572,34,0.110950927256917,1
255,573,34,0.100935182306648,1
256,572,34,0.117870272826156,1
256,573,34,0.106671175615764,1
257,572,34,0.125960759693272,1
257,573,34,0.111634980786914,1
258,571,34,0.10594331076538,1
258,572,34,0.127146802504399,1
258,573,34,0.114186886716712,1
259,570,34,0.100585704785025,1
259,571,34,0.114369255967312,1
259,572,34,0.131216473308909,1
259,573,34,0.127613487834914,1
260,571,34,0.111547488861169,1
260,572,34,0.129611761154404,1
260,573,34,0.136993358636108,1
260,574,34,0.101542854688323,1
261,572,34,0.119240863471691,1
261,573,34,0.13548476559923,1
261,574,34,0.112128419126595,1
262,572,34,0.105556361602252,1
262,573,34,0.12793632127656,1
262,574,34,0.1264027398834,1
262,575,34,0.101449818266785,1
263,573,34,0.117239692635736,1
263,574,34,0.133285561495091,1
263,575,34,0.13136029251902,1
264,574,34,0.123021196560609,1
264,575,34,0.133432310900424,1
264,576,34,0.115981113876708,1
265,575,34,0.112265746156957,1
265,576,34,0.104288436718687,1
266,576,34,0.104045742482432,1
266,577,34,0.124136446290882,1
266,578,34,0.117452551166735,1
267,577,34,0.156794572228099,1
267,578,34,0.150685169654224,1
267,579,34,0.112007518618149,1
268,578,34,0.126697937989437,1
268,579,34,0.121318546170998,1
268,580,34,0.111312768241652,1
269,579,34,0.104672858724597,1
269,580,34,0.129130991279568,1
269,581,34,0.132752821503506,1
269,582,34,0.106194490585568,1
270,580,34,0.107507926084891,1
270,581,34,0.132881946165829,1
270,582,34,0.139457173529614,1
270,583,34,0.111056163747781,1
271,582,34,0.113927297563023,1
271,583,34,0.119625220120087,1
271,584,34,0.106007600773565,1
271,602,34,0.107374509612465,1
271,603,34,0.109720702766156,1
272,583,34,0.101100994320305,1
272,584,34,0.105356923147513,1
272,585,34,0.109180163444536,1
272,601,34,0.100965922124184,1
272,602,34,0.11528593867637,1
273,592,34,0.109634093166853,1
273,593,34,0.100018859063919,1
274,593,34,0.126898073590995,1
235,604,35,0.102175417390008,1
235,605,35,0.13137461670756,1
235,606,35,0.164104853768835,1
236,602,35,0.101950598433901,1
236,603,35,0.11560111439593,1
236,604,35,0.121776538952117,1
236,605,35,0.159191297633225,1
236,606,35,0.225680553494692,1
236,607,35,0.221437391168601,1
237,602,35,0.122028317882853,1
237,603,35,0.160910875619027,1
237,604,35,0.154379405111034,1
237,605,35,0.1813335520282,1
237,606,35,0.209758264801868,1
237,607,35,0.190041493118291,1
237,608,35,0.127649499825266,1
238,603,35,0.146139685253043,1
238,604,35,0.182616933963885,1
238,605,35,0.255530223472835,1
238,606,35,0.220194225890018,1
238,607,35,0.149643556056675,1
238,608,35,0.115675022851629,1
239,604,35,0.15811506633896,1
239,605,35,0.264302530821545,1
239,606,35,0.214776022601033,1
239,607,35,0.136907359040272,1
239,608,35,0.105779775371803,1
240,605,35,0.154270388777262,1
240,606,35,0.148367494162586,1
240,607,35,0.140595396426147,1
240,608,35,0.112402572113044,1
241,607,35,0.136435031177693,1
241,608,35,0.117431843727636,1
250,573,35,0.101398469046421,1
251,572,35,0.100774119605693,1
251,573,35,0.148369857926018,1
251,574,35,0.102665206601811,1
252,572,35,0.105752771825498,1
252,573,35,0.139837510690883,1
253,573,35,0.112394794568848,1
254,572,35,0.105224476144882,1
254,573,35,0.113978472496682,1
255,572,35,0.110370639673713,1
255,573,35,0.117021736218625,1
256,572,35,0.126925000886867,1
256,573,35,0.132405696852396,1
257,572,35,0.131646482181009,1
257,573,35,0.130734047710378,1
258,572,35,0.121427845720665,1
258,573,35,0.119113841142743,1
259,572,35,0.119867925249261,1
259,573,35,0.126445636198587,1
259,574,35,0.104588634674564,1
260,573,35,0.127687690399428,1
260,574,35,0.108633981590853,1
261,573,35,0.112641279540929,1
261,574,35,0.104817287938174,1
262,574,35,0.106547355805014,1
263,574,35,0.116371178414682,1
263,575,35,0.119045564326188,1
264,574,35,0.126097313326382,1
264,575,35,0.129288404852644,1
264,576,35,0.119092970309859,1
265,575,35,0.120370001673743,1
265,576,35,0.107837872602672,1
266,577,35,0.118626295872263,1
266,578,35,0.120740513422036,1
267,578,35,0.15625379326226,1
267,579,35,0.120969362758189,1
268,579,35,0.119385663044516,1
268,580,35,0.105595935577132,1
269,580,35,0.116987107628991,1
269,581,35,0.127330173903551,1
269,582,35,0.108838746683004,1
270,581,35,0.127492162502624,1
270,582,35,0.137085643446232,1
270,583,35,0.111941692708378,1
271,583,35,0.123466749628182,1
271,584,35,0.113016529709006,1
271,585,35,0.103214264186121,1
271,602,35,0.119268858273629,1
272,584,35,0.120527872749418,1
272,585,35,0.118457510091708,1
272,586,35,0.109426670202456,1
273,592,35,0.105289539550319,1
235,605,36,0.103266931449689,1
235,606,36,0.132511859241379,1
236,603,36,0.099746263764894,1
236,605,36,0.137020765220418,1
236,606,36,0.214112687403054,1
236,607,36,0.218598260749505,1
237,602,36,0.123019649766105,1
237,603,36,0.155054983950017,1
237,604,36,0.13604155715606,1
237,605,36,0.165419639990118,1
237,606,36,0.216546666591304,1
237,607,36,0.208867725098511,1
237,608,36,0.12394988326645,1
238,602,36,0.107688901041854,1
238,603,36,0.154984975159334,1
238,604,36,0.174790404310994,1
238,605,36,0.237800472723378,1
238,606,36,0.203232513076372,1
238,607,36,0.147295347712961,1
239,604,36,0.168366065661778,1
239,605,36,0.279330184073453,1
239,606,36,0.21592374412297,1
239,607,36,0.135356773800487,1
240,605,36,0.160071042453811,1
240,606,36,0.156579339040748,1
240,607,36,0.144086696801204,1
240,608,36,0.104784848825267,1
241,607,36,0.134331412438148,1
241,608,36,0.117366943715984,1
250,573,36,0.10461085622941,1
250,574,36,0.102791706070645,1
251,573,36,0.145467265360583,1
251,574,36,0.122370061431956,1
252,573,36,0.13112322992191,1
252,574,36,0.107298008642033,1
253,573,36,0.118377523387183,1
253,574,36,0.11197453485929,1
254,573,36,0.123035008781954,1
254,574,36,0.114088621694034,1
255,572,36,0.103703726610353,1
255,573,36,0.126209477713757,1
255,574,36,0.10151343291399,1
256,572,36,0.124476523223372,1
256,573,36,0.146778947099939,1
256,574,36,0.111019345681419,1
257,572,36,0.123792959874732,1
257,573,36,0.138844817192751,1
257,574,36,0.116232849235768,1
258,572,36,0.108069401596909,1
258,573,36,0.116881108633793,1
258,574,36,0.112916096995439,1
259,573,36,0.113975248192646,1
259,574,36,0.114212997043655,1
260,573,36,0.108990528616935,1
260,574,36,0.109521482169797,1
260,575,36,0.100129574693062,1
263,575,36,0.107332920447563,1
263,576,36,0.103131009605883,1
264,575,36,0.128659992353113,1
264,576,36,0.121018064999225,1
265,577,36,0.10126932259826,1
266,578,36,0.128211127838151,1
266,579,36,0.111366862477615,1
267,579,36,0.134696695585301,1
268,569,36,0.17226062189977,1
268,570,36,0.189473405604414,1
268,580,36,0.103130759068745,1
269,569,36,0.180723940706935,1
269,581,36,0.120914560482489,1
269,582,36,0.114744212026575,1
270,582,36,0.134670182220353,1
270,583,36,0.119545995919895,1
271,584,36,0.131863850380492,1
271,585,36,0.123965013530999,1
271,586,36,0.110986852103917,1
271,601,36,0.122017947823925,1
272,585,36,0.13023648095438,1
272,586,36,0.114307667403049,1
236,605,37,0.121178114658709,1
236,606,37,0.193292027303764,1
237,602,37,0.115500431145225,1
237,603,37,0.144842066272169,1
237,604,37,0.136396350422175,1
237,605,37,0.158330386669663,1
237,606,37,0.213577322217979,1
237,607,37,0.215644623965439,1
238,602,37,0.115319902797942,1
238,603,37,0.163705922394761,1
238,604,37,0.180080986160484,1
238,605,37,0.217185906652362,1
238,606,37,0.19695867099664,1
238,607,37,0.158250922825252,1
239,603,37,0.118156081235979,1
239,604,37,0.176019278079793,1
239,605,37,0.268797276005829,1
239,606,37,0.2375000460162,1
239,607,37,0.163154511939938,1
240,605,37,0.165254383515333,1
240,606,37,0.188476572797046,1
240,607,37,0.160679793234471,1
241,606,37,0.112936357824857,1
241,607,37,0.130971502452574,1
241,608,37,0.112227315938577,1
242,608,37,0.109000615459968,1
250,574,37,0.10607121542077,1
251,573,37,0.115662495994731,1
251,574,37,0.124923928087182,1
252,573,37,0.103855258007145,1
252,574,37,0.116593023603891,1
253,573,37,0.108083344533282,1
253,574,37,0.138199684062491,1
253,575,37,0.102541942329932,1
254,573,37,0.119313442991268,1
254,574,37,0.141165575380479,1
255,573,37,0.122257973295015,1
255,574,37,0.119156192811978,1
256,572,37,0.110967386457589,1
256,573,37,0.138990041589418,1
256,574,37,0.130728481428748,1
257,572,37,0.107166454858763,1
257,573,37,0.128902730161044,1
257,574,37,0.139543445448426,1
257,575,37,0.118535405355777,1
258,573,37,0.105609606190529,1
258,574,37,0.12308633621648,1
258,575,37,0.115080149649829,1
259,574,37,0.109421920889754,1
259,575,37,0.114511735348381,1
260,575,37,0.113531721208014,1
263,576,37,0.102458894715156,1
264,576,37,0.119912586217333,1
264,577,37,0.107036338940807,1
265,577,37,0.110015693906731,1
265,578,37,0.107356231294312,1
265,579,37,0.100845762334232,1
266,578,37,0.136016438084749,1
266,579,37,0.128224700415277,1
266,580,37,0.101133280932345,1
267,569,37,0.183005832959521,1
267,570,37,0.126971633473285,1
267,579,37,0.143366751102964,1
267,580,37,0.105048054428078,1
268,568,37,0.159169032506703,1
268,569,37,0.219687726940405,1
268,582,37,0.101757575908478,1
269,569,37,0.214516662198644,1
269,582,37,0.114176908802869,1
269,583,37,0.105291511168666,1
270,569,37,0.142010462860131,1
270,583,37,0.131461945239519,1
270,584,37,0.117626293225454,1
270,585,37,0.118397533679463,1
270,586,37,0.107674816497533,1
271,570,37,0.119152249575285,1
271,585,37,0.144026350029712,1
271,586,37,0.128062733602042,1
271,587,37,0.100885575953331,1
271,600,37,0.100166469009857,1
271,601,37,0.130295782005644,1
272,587,37,0.101264028639606,1
236,605,38,0.113981576978609,1
237,602,38,0.106793426846171,1
237,603,38,0.133260943498056,1
237,604,38,0.145927218867129,1
237,605,38,0.157792821114942,1
237,606,38,0.199166665686446,1
238,602,38,0.126991785373513,1
238,603,38,0.179806408350193,1
238,604,38,0.205783329714266,1
238,605,38,0.203659166929407,1
238,606,38,0.201084843372221,1
238,607,38,0.178254036671685,1
239,602,38,0.109351955670747,1
239,603,38,0.161877382539782,1
239,604,38,0.201897215488532,1
239,605,38,0.240217045026999,1
239,606,38,0.263904939276513,1
239,607,38,0.207614494762734,1
239,608,38,0.104461383594316,1
240,603,38,0.101482802025644,1
240,604,38,0.130330225415655,1
240,605,38,0.177803309467567,1
240,606,38,0.236479858790407,1
240,607,38,0.192581939697257,1
240,608,38,0.10061691299808,1
241,606,38,0.138684266458992,1
241,607,38,0.134620423366169,1
241,608,38,0.102427207213663,1
242,607,38,0.108557654907126,1
242,608,38,0.112685907830244,1
250,575,38,0.101226088602582,1
251,574,38,0.115865420183564,1
251,575,38,0.113432290642999,1
252,574,38,0.122461115342228,1
252,575,38,0.11314325792914,1
253,573,38,0.101453445608826,1
253,574,38,0.153693902822804,1
253,575,38,0.12716134455132,1
254,573,38,0.117028794830164,1
254,574,38,0.157528286576008,1
254,575,38,0.118994563679234,1
255,573,38,0.119664837666643,1
255,574,38,0.133254560247498,1
255,575,38,0.107442633928153,1
256,563,38,0.107678814198821,1
256,564,38,0.126529783998186,1
256,573,38,0.127921920837587,1
256,574,38,0.143552115906301,1
256,575,38,0.130463162599643,1
257,564,38,0.111018670320439,1
257,573,38,0.12226802745929,1
257,574,38,0.156929328529567,1
257,575,38,0.150613722998228,1
258,573,38,0.102250632995993,1
258,574,38,0.132207336796642,1
258,575,38,0.134911427698375,1
259,574,38,0.107477774484983,1
259,575,38,0.127422600321622,1
259,576,38,0.11133120995359,1
260,575,38,0.121476123137859,1
260,576,38,0.11875901519787,1
261,576,38,0.102209120081524,1
263,577,38,0.102936494750551,1
263,578,38,0.108309318138808,1
264,577,38,0.107620526189028,1
264,578,38,0.116862252990932,1
264,579,38,0.108937806888772,1
265,578,38,0.116444095614749,1
265,579,38,0.121880925795296,1
265,580,38,0.115157827055517,1
266,579,38,0.133385787243196,1
266,580,38,0.1199568441474,1
266,581,38,0.104397365909107,1
267,569,38,0.18477638980644,1
267,580,38,0.106272113526661,1
267,581,38,0.103704293042143,1
267,582,38,0.115426424653254,1
268,568,38,0.173120835716513,1
268,569,38,0.249526830787077,1
268,582,38,0.109730255856155,1
268,583,38,0.103949383720587,1
269,568,38,0.112590235322298,1
269,569,38,0.230032122151089,1
269,582,38,0.108223961225195,1
269,583,38,0.115425771078111,1
269,584,38,0.103599067444197,1
270,569,38,0.137286084049523,1
270,585,38,0.13614581328421,1
270,586,38,0.120833680558602,1
270,601,38,0.109137768203625,1
271,586,38,0.131622506866198,1
271,587,38,0.107413756799773,1
271,588,38,0.10271320080311,1
271,600,38,0.105390538695676,1
237,602,39,0.10230387758427,1
237,603,39,0.130774928835543,1
237,604,39,0.161290363132611,1
237,605,39,0.16199087586328,1
237,606,39,0.177068789043648,1
238,602,39,0.133715178222106,1
238,603,39,0.195606598313476,1
238,604,39,0.22763530960261,1
238,605,39,0.195847702183551,1
238,606,39,0.196041334712441,1
238,607,39,0.192726989807219,1
239,602,39,0.141754729799782,1
239,603,39,0.213115092091353,1
239,604,39,0.237353449111734,1
239,605,39,0.223922022430396,1
239,606,39,0.266066660846228,1
239,607,39,0.243272508818269,1
239,608,39,0.117733947944346,1
240,603,39,0.155786737572498,1
240,604,39,0.193580275727452,1
240,605,39,0.218560462320429,1
240,606,39,0.272254819224776,1
240,607,39,0.227664589768995,1
240,608,39,0.108625474221082,1
241,604,39,0.114761085158171,1
241,605,39,0.149386439595609,1
241,606,39,0.177138928549359,1
241,607,39,0.15296297706217,1
242,606,39,0.110833795698458,1
242,607,39,0.125290398562511,1
242,608,39,0.107855421095248,1
246,577,39,0.108189082098423,1
251,575,39,0.123160473423479,1
251,576,39,0.102197301264364,1
252,574,39,0.117739634048085,1
252,575,39,0.138277187181474,1
252,576,39,0.107613554720841,1
253,574,39,0.145039827217376,1
253,575,39,0.14934105969488,1
253,576,39,0.109448488719297,1
254,573,39,0.108886653740951,1
254,574,39,0.150004089891126,1
254,575,39,0.139322961874098,1
254,576,39,0.108402234738236,1
255,564,39,0.123192269854163,1
255,573,39,0.115027841852589,1
255,574,39,0.137217251694097,1
255,575,39,0.13893465109609,1
255,576,39,0.124727049468418,1
256,563,39,0.133542220453558,1
256,564,39,0.187037552834089,1
256,565,39,0.128582184232396,1
256,573,39,0.118507780913086,1
256,574,39,0.143376020977069,1
256,575,39,0.156863698692339,1
256,576,39,0.127767056207567,1
257,563,39,0.102390421826059,1
257,564,39,0.136381590516873,1
257,565,39,0.112879790896272,1
257,573,39,0.11805805585752,1
257,574,39,0.15458468217038,1
257,575,39,0.166750852733317,1
257,576,39,0.122568606667334,1
258,564,39,0.09982726351089,1
258,565,39,0.105026965736813,1
258,574,39,0.136900943110956,1
258,575,39,0.152833972221956,1
258,576,39,0.130334571690353,1
259,564,39,0.103838864163987,1
259,574,39,0.113128857490166,1
259,575,39,0.140570516999055,1
259,576,39,0.138395418924756,1
259,577,39,0.106174306006584,1
260,575,39,0.124050250622503,1
260,576,39,0.127806651968285,1
261,576,39,0.10166317787206,1
263,578,39,0.122268386925619,1
263,579,39,0.113286456242865,1
264,578,39,0.125349710506694,1
264,579,39,0.129435361223439,1
264,580,39,0.108910117088567,1
265,579,39,0.130465972972756,1
265,580,39,0.142272688100228,1
265,581,39,0.120839148803961,1
266,580,39,0.123999881764853,1
266,581,39,0.125474554251834,1
266,582,39,0.136082906676743,1
266,583,39,0.114458621475133,1
267,569,39,0.163290967536776,1
267,581,39,0.106475473432256,1
267,582,39,0.133792953664066,1
267,583,39,0.120683902921775,1
268,568,39,0.19515913898507,1
268,569,39,0.245279485580074,1
268,582,39,0.109558496308702,1
268,583,39,0.114437587248463,1
268,584,39,0.104333282866383,1
269,568,39,0.131126388868432,1
269,569,39,0.220147582410681,1
269,583,39,0.125744785787427,1
269,585,39,0.123204099564242,1
270,569,39,0.126090341858195,1
270,586,39,0.124298249710331,1
270,587,39,0.0998967385485396,1
270,601,39,0.108372355461304,1
271,587,39,0.110331436058081,1
237,603,40,0.13047047174832,1
237,604,40,0.1692601891355,1
238,601,40,0.1012829605329,1
238,602,40,0.135950775568764,1
238,603,40,0.201509471142315,1
238,604,40,0.229571351675614,1
238,605,40,0.182478931572543,1
238,606,40,0.177986593723367,1
238,607,40,0.190564048230572,1
239,602,40,0.1626871839272,1
239,603,40,0.25573823465486,1
239,604,40,0.270374026037153,1
239,605,40,0.219262402023493,1
239,606,40,0.234730869923191,1
239,607,40,0.23546357122963,1
239,608,40,0.122247352698949,1
240,602,40,0.124049771334065,1
240,603,40,0.210823505140819,1
240,604,40,0.265309472257784,1
240,605,40,0.266955152680805,1
240,606,40,0.268233959590493,1
240,607,40,0.226296199493106,1
240,608,40,0.111538523988797,1
241,603,40,0.105973342543178,1
241,604,40,0.166192481703226,1
241,605,40,0.209003799443184,1
241,606,40,0.200134392614134,1
241,607,40,0.157811687650723,1
242,605,40,0.113622143328981,1
242,606,40,0.125879847090629,1
242,607,40,0.12111466340529,1
246,577,40,0.105817475764607,1
246,578,40,0.105031791299948,1
251,575,40,0.123551431180814,1
251,576,40,0.12624515202362,1
252,574,40,0.105818957201597,1
252,575,40,0.157828037922205,1
252,576,40,0.154045439106127,1
252,577,40,0.10427612772017,1
253,574,40,0.123246222482177,1
253,575,40,0.16082920051205,1
253,576,40,0.147292112516006,1
254,574,40,0.130730115366604,1
254,575,40,0.148217618489487,1
254,576,40,0.142734112150845,1
254,577,40,0.100721180019149,1
255,564,40,0.149016995353381,1
255,565,40,0.107026666028698,1
255,573,40,0.113700430738136,1
255,574,40,0.136334195426122,1
255,575,40,0.16246671124579,1
255,576,40,0.174234636688554,1
255,577,40,0.121128137946144,1
256,563,40,0.136946181403737,1
256,564,40,0.230747438358737,1
256,565,40,0.168089744984441,1
256,566,40,0.103809191852517,1
256,573,40,0.118594662835365,1
256,574,40,0.141342345670692,1
256,575,40,0.168436466597547,1
256,576,40,0.161996954112106,1
256,577,40,0.105678928727312,1
257,564,40,0.151522464769304,1
257,565,40,0.141016375068361,1
257,566,40,0.120782908662948,1
257,574,40,0.152579829527788,1
257,575,40,0.17099945062601,1
257,576,40,0.148842120431082,1
257,577,40,0.105902887142815,1
258,564,40,0.105839991428267,1
258,565,40,0.13410603794317,1
258,574,40,0.155517551757133,1
258,575,40,0.176813382770871,1
258,576,40,0.172814123795049,1
258,577,40,0.144497686636658,1
259,575,40,0.153918678207235,1
259,576,40,0.161512099392629,1
259,577,40,0.146342380690576,1
260,575,40,0.122619912316022,1
260,576,40,0.126979530839591,1
260,577,40,0.120054542738288,1
261,577,40,0.0999103220185849,1
262,578,40,0.103782504200864,1
262,579,40,0.102815888350918,1
263,578,40,0.1289964637294,1
263,579,40,0.139482564923901,1
264,579,40,0.148481782669174,1
264,580,40,0.132097623316051,1
264,581,40,0.110885035989632,1
265,580,40,0.15539342694465,1
265,581,40,0.160929992691946,1
265,582,40,0.144190037924155,1
265,583,40,0.109217994552369,1
266,581,40,0.142899412197307,1
266,582,40,0.170840795260164,1
266,583,40,0.153146293996727,1
267,582,40,0.136142414693469,1
267,583,40,0.136481358762379,1
268,569,40,0.197093677835246,1
268,583,40,0.115971288463733,1
268,584,40,0.12127770861751,1
268,585,40,0.120777026486665,1
269,569,40,0.181750206181555,1
269,586,40,0.111575636163973,1
269,601,40,0.106376674656545,1
270,569,40,0.108572839636271,1
270,587,40,0.10670112025021,1
270,600,40,0.109713818441321,1
270,601,40,0.112115826912183,1
270,602,40,0.103938817589116,1
271,570,40,0.114543640708255,1
271,595,40,0.107984360577948,1
238,601,41,0.100177808538579,1
238,602,41,0.12718430682466,1
238,603,41,0.190422549212216,1
238,604,41,0.216303928783373,1
238,605,41,0.171971741686777,1
239,602,41,0.159363765220416,1
239,603,41,0.264547294712418,1
239,604,41,0.274056181246745,1
239,605,41,0.209087958135702,1
239,606,41,0.191193767880387,1
239,607,41,0.198328259493624,1
240,602,41,0.128595157698975,1
240,603,41,0.228189040249189,1
240,604,41,0.285389043502972,1
240,605,41,0.273220476497846,1
240,606,41,0.225556788148538,1
240,607,41,0.186990190422095,1
241,603,41,0.11590878489427,1
241,604,41,0.178833899431046,1
241,605,41,0.224443553608287,1
241,606,41,0.190216520541457,1
241,607,41,0.144632225079745,1
242,605,41,0.121071418516693,1
242,606,41,0.121483105498965,1
242,607,41,0.106454014381743,1
245,578,41,0.106127215917565,1
245,579,41,0.109863193040144,1
246,578,41,0.110804047136555,1
246,579,41,0.116835031586246,1
251,575,41,0.11729365615667,1
251,576,41,0.140256746466051,1
251,577,41,0.119197063044224,1
252,575,41,0.16319280055037,1
252,576,41,0.188171222490462,1
252,577,41,0.152395652052626,1
253,574,41,0.108574364644937,1
253,575,41,0.163222167860107,1
253,576,41,0.172256994557729,1
253,577,41,0.135559033521258,1
254,574,41,0.122256873110191,1
254,575,41,0.159737359664799,1
254,576,41,0.168888392022759,1
254,577,41,0.131930373437081,1
255,564,41,0.148280546882793,1
255,565,41,0.116666757772886,1
255,574,41,0.147333843288856,1
255,575,41,0.195194933117042,1
255,576,41,0.213824308264337,1
255,577,41,0.154206654307948,1
256,563,41,0.122436148771784,1
256,564,41,0.230451848107614,1
256,565,41,0.191705626146169,1
256,566,41,0.122005573467893,1
256,574,41,0.151194272011489,1
256,575,41,0.185977388595411,1
256,576,41,0.188173030715023,1
256,577,41,0.131681807917462,1
257,564,41,0.151243203003825,1
257,565,41,0.164776685443667,1
257,566,41,0.143041510326209,1
257,574,41,0.163056519240236,1
257,575,41,0.178128473993888,1
257,576,41,0.174853408954732,1
257,577,41,0.136734695380538,1
258,564,41,0.112675221876664,1
258,565,41,0.16677356446952,1
258,566,41,0.162331127082475,1
258,570,41,0.150119304295833,1
258,571,41,0.157235953307679,1
258,574,41,0.186912545695163,1
258,575,41,0.200087553062253,1
258,576,41,0.214846608716425,1
258,577,41,0.191510577537804,1
258,578,41,0.11500168795397,1
259,565,41,0.172990523726014,1
259,566,41,0.155135831195146,1
259,575,41,0.165830706076005,1
259,576,41,0.184737752622598,1
259,577,41,0.189634751521264,1
259,578,41,0.135876986935174,1
260,576,41,0.125799413776423,1
260,577,41,0.14337908188732,1
260,578,41,0.132305547354724,1
261,577,41,0.10861537648513,1
261,578,41,0.122628561293741,1
261,579,41,0.114482378931563,1
262,578,41,0.124106621478545,1
262,579,41,0.14781281583205,1
262,580,41,0.111078624946846,1
263,578,41,0.126901679147198,1
263,579,41,0.160702483184835,1
263,580,41,0.127156540774022,1
264,579,41,0.15606278592686,1
264,580,41,0.144464125553089,1
264,581,41,0.140559242827846,1
264,582,41,0.113774655088488,1
265,580,41,0.149221597051747,1
265,581,41,0.188780136664908,1
265,582,41,0.188794057815443,1
265,583,41,0.135142597226284,1
266,581,41,0.152286374288798,1
266,582,41,0.191372978184466,1
266,583,41,0.174214593717517,1
266,584,41,0.11284671999406,1
267,582,41,0.129339470857112,1
267,583,41,0.14288083977034,1
267,584,41,0.127884155087268,1
267,585,41,0.109055526664858,1
268,583,41,0.11274894515274,1
268,604,41,0.104730994233524,1
269,600,41,0.107055499585402,1
269,601,41,0.110043492636126,1
269,602,41,0.107849386418099,1
270,570,41,0.164880298889594,1
270,595,41,0.110302765895163,1
270,596,41,0.123117522643697,1
270,597,41,0.12471087348364,1
270,599,41,0.117262012226853,1
238,603,42,0.165054400414641,1
238,604,42,0.191140719364653,1
239,602,42,0.144071610108331,1
239,603,42,0.243665525337303,1
239,604,42,0.253192559474754,1
239,605,42,0.194158145082628,1
240,602,42,0.122713656777297,1
240,603,42,0.220050482930341,1
240,604,42,0.274153956088065,1
240,605,42,0.254037370703972,1
240,606,42,0.181429191857388,1
241,603,42,0.124128407316629,1
241,604,42,0.179716944806101,1
241,605,42,0.211286606700969,1
241,606,42,0.16485100783029,1
242,605,42,0.117102670607107,1
242,606,42,0.107768038098694,1
245,578,42,0.109624975793615,1
245,579,42,0.114030181183374,1
245,580,42,0.101753850530165,1
246,578,42,0.109531089724392,1
246,579,42,0.125269658444655,1
246,580,42,0.11009540828828,1
247,578,42,0.100341136966694,1
247,579,42,0.111771719599647,1
251,575,42,0.105441386841764,1
251,576,42,0.143402904701264,1
251,577,42,0.141167122174983,1
252,575,42,0.150380004527264,1
252,576,42,0.198214820634721,1
252,577,42,0.186902415280454,1
252,578,42,0.111357897605243,1
253,574,42,0.10228602408996,1
253,575,42,0.153486556108841,1
253,576,42,0.178689437538711,1
253,577,42,0.162219845021542,1
253,578,42,0.100038259352733,1
254,574,42,0.122155765035644,1
254,575,42,0.171312186331705,1
254,576,42,0.183982622795852,1
254,577,42,0.152392558463619,1
255,564,42,0.154933778439837,1
255,565,42,0.140139941695164,1
255,574,42,0.158849543191203,1
255,575,42,0.226657561189404,1
255,576,42,0.231070326264978,1
255,577,42,0.167968517688423,1
256,563,42,0.114266176274418,1
256,564,42,0.215675494498004,1
256,565,42,0.220565696215187,1
256,566,42,0.144818101850277,1
256,570,42,0.190605484894607,1
256,574,42,0.163106180058149,1
256,575,42,0.207113420486804,1
256,576,42,0.199112920023893,1
256,577,42,0.146895904371693,1
257,564,42,0.147750573692644,1
257,565,42,0.193168327315124,1
257,566,42,0.165208186645676,1
257,570,42,0.178665266151357,1
257,571,42,0.184859110633644,1
257,572,42,0.152414398766298,1
257,574,42,0.174435349614821,1
257,575,42,0.184724528618881,1
257,576,42,0.187128922639013,1
257,577,42,0.154689069013559,1
257,578,42,0.104165335840594,1
258,564,42,0.113961686508438,1
258,565,42,0.192521919713335,1
258,566,42,0.187021714529802,1
258,567,42,0.138976479905211,1
258,569,42,0.131578009291911,1
258,570,42,0.172308681458583,1
258,571,42,0.191556109939399,1
258,572,42,0.158068292144594,1
258,573,42,0.171279790790474,1
258,574,42,0.210897555204467,1
258,575,42,0.206984709755404,1
258,576,42,0.229582048522113,1
258,577,42,0.208480808614141,1
258,578,42,0.133798214943963,1
259,564,42,0.12665242737368,1
259,565,42,0.210670372484927,1
259,566,42,0.194067646711228,1
259,567,42,0.141768977737889,1
259,570,42,0.16423168002524,1
259,571,42,0.163988430250114,1
259,572,42,0.140513045958189,1
259,573,42,0.161328128882929,1
259,574,42,0.188484589985461,1
259,575,42,0.171183061669382,1
259,576,42,0.194577152106496,1
259,577,42,0.210371449000578,1
259,578,42,0.165478930148464,1
260,565,42,0.143223803326376,1
260,566,42,0.133863158527291,1
260,576,42,0.129485011148432,1
260,577,42,0.164645534698401,1
260,578,42,0.166719982200752,1
260,579,42,0.118869600111984,1
261,577,42,0.119485888792621,1
261,578,42,0.148932891125459,1
261,579,42,0.154282784919132,1
261,580,42,0.104903886644558,1
262,578,42,0.146083695649167,1
262,579,42,0.208800145428775,1
262,580,42,0.161448136172015,1
263,579,42,0.182779336493882,1
263,580,42,0.156721491634246,1
263,581,42,0.109480611937552,1
264,580,42,0.145158538249095,1
264,581,42,0.154794664970752,1
264,582,42,0.137213395600756,1
265,581,42,0.19059646555764,1
265,582,42,0.209624042253433,1
265,583,42,0.146646358489361,1
266,582,42,0.188969107024448,1
266,583,42,0.17284594201157,1
266,584,42,0.140395347967941,1
266,585,42,0.111809594279156,1
267,583,42,0.138521667856452,1
267,584,42,0.152311449788432,1
267,585,42,0.138717500754989,1
268,586,42,0.102560405827708,1
268,599,42,0.104979984576985,1
268,600,42,0.12128793706849,1
268,601,42,0.111600167017656,1
268,602,42,0.104793160122496,1
269,587,42,0.106745301929844,1
269,596,42,0.113575565207158,1
269,597,42,0.121900140904486,1
269,599,42,0.118085789229401,1
238,604,43,0.165006831037185,1
239,603,43,0.2031319060761,1
239,604,43,0.226707930047054,1
239,605,43,0.184246710725105,1
240,603,43,0.194341777911838,1
240,604,43,0.251689314861125,1
240,605,43,0.226418243758052,1
240,606,43,0.153405000823974,1
241,604,43,0.181230820908715,1
241,605,43,0.184477488107928,1
245,578,43,0.105944029698036,1
245,579,43,0.114029897967479,1
245,580,43,0.102895940412958,1
246,578,43,0.105421017083156,1
246,579,43,0.125062801912048,1
246,580,43,0.11503340813422,1
247,578,43,0.101552462242918,1
247,579,43,0.118287929128063,1
247,580,43,0.107113242949243,1
251,576,43,0.134813576606621,1
251,577,43,0.146378959112718,1
251,578,43,0.109174161446144,1
252,575,43,0.123548969381111,1
252,576,43,0.18164894560614,1
252,577,43,0.191695277873079,1
252,578,43,0.126569673867718,1
253,575,43,0.133183189841935,1
253,576,43,0.171319321193678,1
253,577,43,0.17151906465015,1
253,578,43,0.117001453603369,1
254,564,43,0.127655730574958,1
254,575,43,0.169576552183235,1
254,576,43,0.18394149113355,1
254,577,43,0.157946825204357,1
254,578,43,0.110953606915001,1
255,563,43,0.135394899017134,1
255,564,43,0.185553697616355,1
255,565,43,0.17575757569981,1
255,566,43,0.126695563333086,1
255,570,43,0.218527957850008,1
255,574,43,0.168593498918455,1
255,575,43,0.240878833430474,1
255,576,43,0.222908806672789,1
255,577,43,0.161810369301836,1
255,578,43,0.112042419530759,1
256,563,43,0.118349419656054,1
256,564,43,0.206675612284669,1
256,565,43,0.247283760897956,1
256,566,43,0.186491076871592,1
256,567,43,0.153486272892946,1
256,569,43,0.181627541020223,1
256,570,43,0.227024913991175,1
256,571,43,0.182122046865971,1
256,572,43,0.159154229029725,1
256,574,43,0.181717113493505,1
256,575,43,0.230928587602404,1
256,576,43,0.202637737910843,1
256,577,43,0.15604401742735,1
256,578,43,0.120357594638954,1
256,580,43,0.111703333853902,1
256,581,43,0.109602830489203,1
257,564,43,0.153233382884468,1
257,565,43,0.229651828561496,1
257,566,43,0.211567382582195,1
257,567,43,0.170026658490968,1
257,569,43,0.156733212415135,1
257,570,43,0.204408185828571,1
257,571,43,0.207016146719759,1
257,572,43,0.18735135604585,1
257,573,43,0.174557393879767,1
257,574,43,0.188239085376093,1
257,575,43,0.197336328499825,1
257,576,43,0.195687772346177,1
257,577,43,0.170950737492055,1
257,578,43,0.131563859390076,1
258,564,43,0.118785299811519,1
258,565,43,0.223342497351526,1
258,566,43,0.228706628190387,1
258,567,43,0.162802518154016,1
258,569,43,0.146766224170498,1
258,570,43,0.203224844461366,1
258,571,43,0.225732382003494,1
258,572,43,0.195585836409782,1
258,573,43,0.199098105653996,1
258,574,43,0.218652354985467,1
258,575,43,0.203289504828799,1
258,576,43,0.224187417509935,1
258,577,43,0.207623448742186,1
258,578,43,0.153555159712967,1
258,579,43,0.105211295712841,1
259,564,43,0.128284241110761,1
259,565,43,0.261576773903837,1
259,566,43,0.260621421332181,1
259,567,43,0.167820657205347,1
259,568,43,0.135215656034298,1
259,569,43,0.162093116801408,1
259,570,43,0.203147744380387,1
259,571,43,0.216104958724152,1
259,572,43,0.18574079439382,1
259,573,43,0.197660828558085,1
259,574,43,0.206947957046556,1
259,575,43,0.173409530749882,1
259,576,43,0.196642710986909,1
259,577,43,0.217207387488713,1
259,578,43,0.187420003221652,1
259,579,43,0.125406767616636,1
260,565,43,0.161204842825212,1
260,566,43,0.161421165304467,1
260,567,43,0.131716327577906,1
260,570,43,0.149670232815409,1
260,571,43,0.143794167460333,1
260,572,43,0.137508114418355,1
260,573,43,0.15518080805787,1
260,574,43,0.152456608827585,1
260,576,43,0.142207798981495,1
260,577,43,0.188955338374779,1
260,578,43,0.195403271086639,1
260,579,43,0.146253113219027,1
261,578,43,0.164196463217978,1
261,579,43,0.178071928851141,1
261,580,43,0.12544628712692,1
262,578,43,0.157472983226032,1
262,579,43,0.241771900291048,1
262,580,43,0.193335468264903,1
262,581,43,0.111442067190681,1
263,579,43,0.189660894526964,1
263,580,43,0.170618590604627,1
263,581,43,0.13171116433428,1
264,581,43,0.152956397739069,1
264,582,43,0.153814683509142,1
265,582,43,0.201986777068895,1
265,583,43,0.14320773627079,1
266,583,43,0.152143807764376,1
266,584,43,0.151238105117713,1
266,585,43,0.138545545134992,1
267,584,43,0.152753092298069,1
267,585,43,0.148866171996326,1
267,599,43,0.113552319717922,1
268,599,43,0.135137684519796,1
269,595,43,0.104340450407112,1
239,604,44,0.196216754280692,1
240,604,44,0.217085735368852,1
240,605,44,0.195544029386499,1
243,582,44,0.112704240612992,1
245,579,44,0.113307425112021,1
245,580,44,0.106383646124732,1
246,579,44,0.123441271090543,1
246,580,44,0.122982809913905,1
246,581,44,0.0999907880115479,1
247,579,44,0.116243698583134,1
247,580,44,0.114911265833002,1
251,576,44,0.122693886129236,1
251,577,44,0.141648915984209,1
251,578,44,0.115147413424913,1
252,576,44,0.159799416624581,1
252,577,44,0.175999387609623,1
252,578,44,0.128247717153213,1
253,576,44,0.1632456747794,1
253,577,44,0.169874658698657,1
253,578,44,0.12602241361505,1
254,564,44,0.190678990312302,1
254,565,44,0.164446139815338,1
254,570,44,0.144011633696086,1
254,575,44,0.155763688155806,1
254,576,44,0.177044258189966,1
254,577,44,0.160051260912831,1
254,578,44,0.122629922908621,1
255,563,44,0.163606154149256,1
255,564,44,0.228952481373164,1
255,565,44,0.215411450140427,1
255,566,44,0.173030326452194,1
255,567,44,0.143262266223514,1
255,569,44,0.186570399108056,1
255,570,44,0.218574623115183,1
255,571,44,0.165322333544317,1
255,572,44,0.141985844863096,1
255,574,44,0.162039763283941,1
255,575,44,0.22546511334188,1
255,576,44,0.199362389655792,1
255,577,44,0.151102662562346,1
255,578,44,0.11811649636818,1
255,580,44,0.112359534189909,1
255,581,44,0.103458527002718,1
256,563,44,0.121848660969094,1
256,564,44,0.196681337277832,1
256,565,44,0.258075528293694,1
256,566,44,0.243556138644283,1
256,567,44,0.19600586736804,1
256,568,44,0.184052566229021,1
256,569,44,0.228890239233758,1
256,570,44,0.251302158732536,1
256,571,44,0.200562506118321,1
256,572,44,0.193957475728037,1
256,573,44,0.17232429101157,1
256,574,44,0.187610999664134,1
256,575,44,0.238101531219859,1
256,576,44,0.196439383760072,1
256,577,44,0.159264214833292,1
256,578,44,0.133820915787246,1
256,579,44,0.117012400987006,1
256,580,44,0.152648040986829,1
256,581,44,0.14189188254344,1
257,564,44,0.158952960564587,1
257,565,44,0.260330297177865,1
257,566,44,0.274175567639445,1
257,567,44,0.213697013612412,1
257,568,44,0.173149168198941,1
257,569,44,0.199828868020845,1
257,570,44,0.236546610598296,1
257,571,44,0.224786571628919,1
257,572,44,0.222588445923765,1
257,573,44,0.197228837174719,1
257,574,44,0.188957887317834,1
257,575,44,0.201494046768951,1
257,576,44,0.191939889263085,1
257,577,44,0.179785613767742,1
257,578,44,0.152953783438498,1
257,579,44,0.115068886371539,1
257,580,44,0.109643134289658,1
258,564,44,0.126855645671326,1
258,565,44,0.244372301496421,1
258,566,44,0.271056728845189,1
258,567,44,0.190252140386724,1
258,568,44,0.145993012098143,1
258,569,44,0.177206290360715,1
258,570,44,0.250885504579181,1
258,571,44,0.259344989078844,1
258,572,44,0.233526701294779,1
258,573,44,0.219770251695067,1
258,574,44,0.208518519899864,1
258,575,44,0.190882056109083,1
258,576,44,0.202044378824789,1
258,577,44,0.195502483793273,1
258,578,44,0.164303388111293,1
258,579,44,0.124911041763956,1
259,564,44,0.128213251957364,1
259,565,44,0.2818619816747,1
259,566,44,0.311452269464615,1
259,567,44,0.194421557650901,1
259,568,44,0.141857221275048,1
259,569,44,0.175194477142855,1
259,570,44,0.255489854314865,1
259,571,44,0.268508875081274,1
259,572,44,0.239547413721813,1
259,573,44,0.233005235474402,1
259,574,44,0.211038095645946,1
259,575,44,0.171876744539812,1
259,576,44,0.192014658259389,1
259,577,44,0.21690759257084,1
259,578,44,0.193454397155003,1
259,579,44,0.143379321531539,1
259,580,44,0.101398349224312,1
260,565,44,0.165890235878569,1
260,566,44,0.1867600012569,1
260,567,44,0.144178643930838,1
260,569,44,0.146681575296623,1
260,570,44,0.172329356218924,1
260,571,44,0.16983436579112,1
260,572,44,0.163436769258153,1
260,573,44,0.169358301657311,1
260,574,44,0.154773696101596,1
260,577,44,0.215376592799492,1
260,578,44,0.209578749496056,1
260,579,44,0.163444525016511,1
260,580,44,0.110165874581562,1
261,579,44,0.185136542388724,1
261,580,44,0.138191231157314,1
262,578,44,0.154543496043482,1
262,579,44,0.234199818334058,1
262,580,44,0.194740371605421,1
262,581,44,0.126326391413835,1
263,579,44,0.178642728701859,1
263,581,44,0.146848901426027,1
264,582,44,0.154959812516347,1
264,583,44,0.103993173255136,1
265,583,44,0.129942829642847,1
265,584,44,0.103543480878326,1
265,585,44,0.105610118157724,1
266,584,44,0.143362012683181,1
266,585,44,0.153375546370884,1
266,586,44,0.104850337054547,1
267,585,44,0.140487262418817,1
245,579,45,0.111027656978648,1
245,580,45,0.107780554062673,1
246,579,45,0.117234725464653,1
246,580,45,0.124574287171773,1
247,579,45,0.107386524502168,1
247,580,45,0.111914362374502,1
251,577,45,0.125647675414168,1
251,578,45,0.105822399364014,1
252,577,45,0.145725427541877,1
252,578,45,0.114854884084041,1
253,577,45,0.15747720967862,1
253,578,45,0.12510030623231,1
254,564,45,0.251671842618982,1
254,565,45,0.225040049855025,1
254,566,45,0.171964094857609,1
254,569,45,0.171344712587964,1
254,570,45,0.155231939419853,1
254,577,45,0.155026803968455,1
254,578,45,0.124465946198982,1
255,563,45,0.169787112308316,1
255,564,45,0.256835565533309,1
255,565,45,0.2484279966858,1
255,566,45,0.224259267203935,1
255,567,45,0.171598474029966,1
255,568,45,0.16373537684785,1
255,569,45,0.202485367759284,1
255,570,45,0.200243191089525,1
255,571,45,0.173391611898058,1
255,572,45,0.159423120736276,1
255,573,45,0.140692049296806,1
255,575,45,0.191853464843406,1
255,577,45,0.140105432927639,1
255,578,45,0.115664968687354,1
255,579,45,0.100567578967739,1
255,580,45,0.12084052131176,1
256,563,45,0.115294565868251,1
256,564,45,0.177053321098609,1
256,565,45,0.241386508815343,1
256,566,45,0.280114234600255,1
256,567,45,0.21986504187657,1
256,568,45,0.207777082472354,1
256,569,45,0.265824620185116,1
256,570,45,0.247482491312958,1
256,571,45,0.208395691344747,1
256,572,45,0.219364904391678,1
256,573,45,0.185677811535919,1
256,574,45,0.18213650176954,1
256,575,45,0.226355892689456,1
256,576,45,0.184187823604765,1
256,578,45,0.137693511900449,1
256,579,45,0.125806091135795,1
256,580,45,0.172695369191653,1
256,581,45,0.147615240066467,1
257,564,45,0.160161965649054,1
257,565,45,0.268274328748462,1
257,566,45,0.314002345384014,2
257,567,45,0.235639905803081,1
257,568,45,0.192935066346759,1
257,569,45,0.234661787030627,1
257,570,45,0.252518157071028,1
257,571,45,0.233779830947476,1
257,572,45,0.242409549985926,1
257,573,45,0.2053135834735,1
257,574,45,0.180059287465752,1
257,575,45,0.196139980987285,1
257,576,45,0.181269087733309,1
257,578,45,0.16591807817964,1
257,579,45,0.129082441539398,1
257,580,45,0.12877554443831,1
258,564,45,0.144357080837664,1
258,565,45,0.256721320598397,1
258,566,45,0.295965545032602,2
258,567,45,0.208861407205467,1
258,568,45,0.159918596051819,1
258,569,45,0.1976874944239,1
258,570,45,0.279917878841605,1
258,571,45,0.273137929957346,1
258,572,45,0.256958089086693,1
258,573,45,0.225593867644956,1
258,574,45,0.187085699536255,1
258,575,45,0.172551484624028,1
258,576,45,0.174645441344383,1
258,577,45,0.179214236592315,1
258,579,45,0.141181914759042,1
259,564,45,0.128695601305461,1
259,565,45,0.270711423311558,1
259,566,45,0.331049066537864,1
259,567,45,0.222848481687135,1
259,568,45,0.156256157025693,1
259,569,45,0.188752642937246,1
259,570,45,0.28800144870513,1
259,571,45,0.288687659033097,1
259,572,45,0.27557038413693,1
259,573,45,0.250827597821554,1
259,574,45,0.196283854661991,1
259,575,45,0.162331203332908,1
259,576,45,0.183580652297366,1
259,577,45,0.210184787939875,1
259,578,45,0.187404491704937,1
260,565,45,0.168616090832548,1
260,566,45,0.21720616748178,1
260,567,45,0.172282266129906,1
260,569,45,0.149561870056779,1
260,570,45,0.192675836659398,1
260,571,45,0.184200655463396,1
260,572,45,0.179665029153947,1
260,573,45,0.172542454394142,1
260,574,45,0.147995054367622,1
260,576,45,0.182143418773131,1
260,577,45,0.232553767551789,1
260,578,45,0.209096781400126,1
260,579,45,0.176193553891546,1
261,566,45,0.120824432470335,1
261,570,45,0.116330733006279,1
261,571,45,0.106401412475689,1
261,577,45,0.157541815581458,1
261,578,45,0.168022884247361,1
262,579,45,0.199184508287837,1
265,585,45,0.106518239032414,1
253,564,46,0.143951635498003,1
253,565,46,0.141507079285363,1
253,569,46,0.243557227936187,1
254,563,46,0.159033742452202,1
254,564,46,0.278435940777622,1
254,565,46,0.277757094062927,1
254,566,46,0.221304323269585,1
254,568,46,0.187658928507919,1
254,569,46,0.220210717769448,1
254,570,46,0.176117652031661,1
254,571,46,0.165344391705376,1
255,563,46,0.149424194453008,1
255,564,46,0.249292676599351,1
255,565,46,0.279617452134427,1
255,566,46,0.273931762325448,1
255,567,46,0.197879471229095,1
255,568,46,0.183420330314906,1
255,569,46,0.213717775516106,1
255,570,46,0.190423682075797,1
255,571,46,0.188134709425833,1
255,572,46,0.176756728698934,1
255,573,46,0.148205516456432,1
256,564,46,0.157118865320897,1
256,565,46,0.228408685068751,1
256,566,46,0.288910811372591,2
256,567,46,0.228428510181408,1
256,568,46,0.227589188983387,1
256,569,46,0.283576592489419,1
256,570,46,0.245424121759113,1
256,571,46,0.223404608775903,1
256,572,46,0.229818860582086,1
256,573,46,0.192455777908913,1
256,574,46,0.182530509544206,1
256,575,46,0.20392769916963,1
257,564,46,0.155594477551408,1
257,565,46,0.256676986417896,2
257,566,46,0.316486933074133,2
257,567,46,0.240470958969867,2
257,568,46,0.203237262389074,1
257,569,46,0.24994725389042,1
257,570,46,0.256724871690005,1
257,571,46,0.238236189485056,1
257,572,46,0.239082830724673,1
257,573,46,0.20223868671466,1
257,574,46,0.178743052486236,1
257,575,46,0.188436987929248,1
258,564,46,0.169836195801519,1
258,565,46,0.263879340916764,2
258,566,46,0.305591813662526,2
258,567,46,0.230123404812661,2
258,568,46,0.168652505860906,1
258,569,46,0.20270451150457,1
258,570,46,0.276801676133757,1
258,571,46,0.264655679256885,1
258,572,46,0.260010263216412,1
258,573,46,0.229306043739428,1
258,574,46,0.175186732277416,1
258,575,46,0.158666084648698,1
258,577,46,0.169003584641628,1
259,564,46,0.134922037401522,1
259,565,46,0.240552568719329,1
259,566,46,0.311139054470482,2
259,567,46,0.242687864067448,1
259,568,46,0.166502940788841,1
259,569,46,0.192710999002066,1
259,570,46,0.285149333926535,1
259,571,46,0.27413946850574,1
259,572,46,0.280597967349071,1
259,573,46,0.258718384803874,1
259,574,46,0.182998295059544,1
259,575,46,0.154865741267501,1
259,576,46,0.178953677968831,1
259,577,46,0.199395569487194,1
259,578,46,0.177630242769828,1
260,565,46,0.185366077978776,1
260,566,46,0.251402765732807,1
260,567,46,0.20343401029281,1
260,568,46,0.147286589806052,1
260,569,46,0.154197166575462,1
260,570,46,0.205327330337331,1
260,571,46,0.190790119872368,1
260,572,46,0.183410014720573,1
260,573,46,0.171608473729646,1
260,574,46,0.143333342520262,1
260,576,46,0.201852619877974,1
260,577,46,0.232748685445126,1
260,578,46,0.204609465186628,1
260,579,46,0.185955058111375,1
261,565,46,0.133857265458089,1
261,566,46,0.16818139800526,1
261,567,46,0.134615325480058,1
261,570,46,0.121275693427487,1
261,571,46,0.116649895534209,1
261,572,46,0.106737208490996,1
261,573,46,0.107840824583732,1
261,577,46,0.160418831572983,1
261,578,46,0.178912012553496,1
252,569,47,0.149456927674729,1
253,565,47,0.146172788834011,1
253,566,47,0.131220612618145,1
253,568,47,0.212685584293528,1
253,569,47,0.287945633387959,1
253,570,47,0.199872592197879,1
254,564,47,0.25084025539348,1
254,565,47,0.291617941398737,1
254,566,47,0.255176007531428,1
254,567,47,0.191870544940464,1
254,568,47,0.221313037604818,1
254,569,47,0.262796105475556,1
254,570,47,0.194656321842093,1
254,571,47,0.180137073800631,1
255,564,47,0.211008205476095,1
255,565,47,0.293641932900085,1
255,566,47,0.303743285301105,1
255,567,47,0.226105224836462,1
255,568,47,0.213944849306455,1
255,569,47,0.223216074133125,1
255,570,47,0.190313140733359,1
255,571,47,0.199722444201805,1
255,572,47,0.182482537128746,1
255,573,47,0.146700616119109,1
256,564,47,0.136505432113462,1
256,565,47,0.219381810202031,1
256,566,47,0.270263419337201,1
256,567,47,0.226275197945193,1
256,568,47,0.233942854373858,1
256,569,47,0.265326203781432,1
256,570,47,0.243226475342397,1
256,571,47,0.241577439900311,1
256,572,47,0.218880038779282,1
256,573,47,0.18257424461416,1
256,574,47,0.179785842519042,1
257,564,47,0.149274329672829,1
257,565,47,0.23729630485844,1
257,566,47,0.289931543244337,2
257,567,47,0.231378988018951,1
257,568,47,0.20132043542526,1
257,569,47,0.235775936576077,1
257,570,47,0.246766695816873,1
257,571,47,0.23632280468366,1
257,572,47,0.217671404054062,1
257,573,47,0.190927871726573,1
257,574,47,0.180164208061964,1
258,564,47,0.18304393639033,1
258,565,47,0.259257192151365,1
258,566,47,0.305213241154141,2
258,567,47,0.247359096326051,1
258,568,47,0.177445727614176,1
258,569,47,0.197050672590869,1
258,570,47,0.248394773282722,1
258,571,47,0.241309735521936,1
258,572,47,0.24542858785592,1
258,573,47,0.229477040782549,1
258,574,47,0.16923596328355,1
258,575,47,0.148636527477084,1
259,564,47,0.138647753394363,1
259,565,47,0.212186906459787,1
259,566,47,0.281196271820369,1
259,567,47,0.249710354687096,1
259,568,47,0.1774643327199,1
259,569,47,0.191695060014698,1
259,570,47,0.262724560783288,1
259,571,47,0.253383904490645,1
259,572,47,0.262774646425043,1
259,573,47,0.255678519672672,1
259,574,47,0.173403016784295,1
259,575,47,0.150493879102929,1
259,576,47,0.174929136527912,1
259,577,47,0.178535629521839,1
260,564,47,0.105840416252109,1
260,565,47,0.198779378842828,1
260,566,47,0.268687475381886,1
260,567,47,0.220229083230953,1
260,568,47,0.154481449976619,1
260,569,47,0.159877170280702,1
260,570,47,0.216051387348304,1
260,571,47,0.206618032314613,1
260,572,47,0.18231443760209,1
260,573,47,0.169823952160516,1
260,574,47,0.147224282309132,1
260,575,47,0.173256082199338,1
260,576,47,0.218142435659275,1
260,577,47,0.208646119553522,1
260,578,47,0.192343275841047,1
261,565,47,0.166340995761445,1
261,566,47,0.213503032510113,1
261,567,47,0.159628898869898,1
261,570,47,0.138128008655195,1
261,571,47,0.140489756897278,1
261,572,47,0.123596898224895,1
261,573,47,0.118074907203278,1
261,576,47,0.150886252939739,1
261,577,47,0.157694055017989,1
252,569,48,0.139190307906005,1
253,565,48,0.134262950441969,1
253,566,48,0.128932870868033,1
253,568,48,0.202240407795868,1
253,569,48,0.280201072950858,1
253,570,48,0.218606365081272,1
254,564,48,0.192371227071309,1
254,565,48,0.261158856171873,1
254,566,48,0.252826818825001,1
254,567,48,0.215881806384658,1
254,568,48,0.263039387929439,1
254,569,48,0.29321266474648,1
254,570,48,0.21407634862513,1
254,571,48,0.190335100858148,1
254,572,48,0.175871363132123,1
255,564,48,0.16557345889991,1
255,565,48,0.274274366415155,1
255,566,48,0.293673282721088,1
255,567,48,0.251213904302458,1
255,568,48,0.259523262591884,1
255,569,48,0.241280389998037,1
255,570,48,0.198974928525469,1
255,571,48,0.208248223006757,1
255,572,48,0.181967236700547,1
255,573,48,0.145244483380336,1
256,564,48,0.12304506294623,1
256,565,48,0.209313354416518,1
256,566,48,0.239186662028981,1
256,567,48,0.219270854928669,1
256,568,48,0.229114568008509,1
256,569,48,0.231777516355021,1
256,570,48,0.236450948983269,1
256,571,48,0.255365130391835,1
256,572,48,0.206479147596828,1
256,573,48,0.172449908153962,1
256,574,48,0.176045214120032,1
257,564,48,0.140024030143639,1
257,565,48,0.210630613330424,1
257,566,48,0.24654842350511,1
257,567,48,0.213394604393969,1
257,568,48,0.192046901299754,1
257,569,48,0.207082462810886,1
257,570,48,0.228037389030287,1
257,571,48,0.235814432151971,1
257,572,48,0.205355782641869,1
257,573,48,0.188461671283797,1
257,574,48,0.187299026462772,1
257,575,48,0.16667544105479,1
258,564,48,0.172200754416715,1
258,565,48,0.230076238473209,1
258,566,48,0.277586293092349,1
258,567,48,0.244625518292471,1
258,568,48,0.185577792753276,1
258,569,48,0.185359237225618,1
258,570,48,0.2157746854188,1
258,571,48,0.220752335490052,1
258,572,48,0.228756844547171,1
258,573,48,0.223284133091299,1
258,574,48,0.171423958573995,1
258,575,48,0.141723772123865,1
259,564,48,0.134795570611445,1
259,565,48,0.186827711641665,1
259,566,48,0.241862376876611,1
259,567,48,0.233467204170971,1
259,568,48,0.180468360147454,1
259,569,48,0.182909877235681,1
259,570,48,0.233945686532809,1
259,571,48,0.235109246359033,1
259,572,48,0.236364916708676,1
259,573,48,0.235523307997656,1
259,574,48,0.168638388637827,1
259,575,48,0.152147326177227,1
259,576,48,0.169507066252667,1
259,577,48,0.15791496341616,1
260,565,48,0.200218899880061,1
260,566,48,0.252447396668931,1
260,567,48,0.215168516259953,1
260,568,48,0.158277730299014,1
260,569,48,0.161740458547425,1
260,570,48,0.219287259664747,1
260,571,48,0.220217667451797,1
260,572,48,0.182916783346353,1
260,573,48,0.168720020173128,1
260,574,48,0.158427246505784,1
260,575,48,0.19966268564794,1
260,576,48,0.227523156108154,1
260,577,48,0.182046395543225,1
260,578,48,0.174790643955213,1
261,565,48,0.189690980769358,1
261,566,48,0.236142178300106,1
261,567,48,0.187941621542896,1
261,570,48,0.158677042925254,1
261,571,48,0.165169636605186,1
261,572,48,0.143101345130507,1
261,573,48,0.13150332743896,1
261,574,48,0.13623496093365,1
261,575,48,0.156854374353639,1
261,576,48,0.165004685132134,1
261,577,48,0.162638754009139,1
262,566,48,0.127605764755313,1
262,573,48,0.16437699156526,1
262,576,48,0.125250138333732,1
263,573,48,0.220769241300405,1
253,568,49,0.170661606741924,1
253,569,49,0.224355713109133,1
253,570,49,0.220505806946295,1
253,571,49,0.202179015304148,1
254,565,49,0.207949277736569,1
254,566,49,0.226166181611421,1
254,567,49,0.228282675781274,1
254,568,49,0.2848504757997,1
254,569,49,0.285331659605459,1
254,570,49,0.224133475774839,1
254,571,49,0.201275774457188,1
254,572,49,0.170684667051536,1
255,565,49,0.229503445218307,1
255,566,49,0.257507723995712,1
255,567,49,0.256383509393068,1
255,568,49,0.285375231281627,1
255,569,49,0.249759438180299,1
255,570,49,0.208707207043509,1
255,571,49,0.217270283203261,1
255,572,49,0.173421077244067,1
256,565,49,0.197061282294016,1
256,566,49,0.21234661843878,1
256,567,49,0.200077270146678,1
256,568,49,0.202631006086875,1
256,569,49,0.194228883698887,1
256,570,49,0.218795618656707,1
256,571,49,0.258609346684264,1
256,572,49,0.194066557419324,1
256,573,49,0.166023162169638,1
256,574,49,0.161494714293838,1
257,565,49,0.187070100876186,1
257,566,49,0.201978389521233,1
257,567,49,0.185774257441117,1
257,568,49,0.168382840757103,1
257,569,49,0.169030348543714,1
257,570,49,0.197695489826477,1
257,571,49,0.236312042479646,1
257,572,49,0.203934213135217,1
257,573,49,0.202780718366188,1
257,574,49,0.192534054425148,1
257,575,49,0.150186143247074,1
258,564,49,0.142189008696147,1
258,565,49,0.195374775210425,1
258,566,49,0.229178487657447,1
258,567,49,0.222367210738023,1
258,568,49,0.182436525438712,1
258,569,49,0.164957388077654,1
258,570,49,0.179145622095269,1
258,571,49,0.207112570839118,1
258,572,49,0.214721231218252,1
258,573,49,0.223120260017232,1
258,574,49,0.179847638048767,1
258,575,49,0.138183224861819,1
259,565,49,0.170562078140638,1
259,566,49,0.20434576940246,1
259,567,49,0.205438808470807,1
259,568,49,0.168776968353879,1
259,569,49,0.160422665880485,1
259,570,49,0.195182841976906,1
259,571,49,0.218761872393515,1
259,572,49,0.217799352281129,1
259,573,49,0.216797225515107,1
259,574,49,0.166229158161641,1
259,575,49,0.156887957223045,1
259,576,49,0.158752062458696,1
259,577,49,0.142322283560626,1
260,565,49,0.187432965795312,1
260,566,49,0.213635163618092,1
260,567,49,0.194464410394412,1
260,568,49,0.149833005704653,1
260,569,49,0.153358106807498,1
260,570,49,0.209825844471604,1
260,571,49,0.228546872639718,1
260,572,49,0.196414743977199,1
260,573,49,0.1831029542257,1
260,574,49,0.171299071257179,1
260,575,49,0.216016726079912,1
260,576,49,0.21396332369715,1
260,577,49,0.158703730576907,1
260,578,49,0.155913160790899,1
261,565,49,0.191081614385931,1
261,566,49,0.224285628068017,1
261,567,49,0.210871455770442,1
261,568,49,0.151920611853207,1
261,570,49,0.17699008770357,1
261,571,49,0.192863892013739,1
261,572,49,0.17752015892999,1
261,573,49,0.17040890191307,1
261,574,49,0.152804735627247,1
261,575,49,0.167676434957232,1
261,576,49,0.170926566104701,1
261,577,49,0.172320293310281,1
261,578,49,0.196542060414962,1
262,566,49,0.135957104354727,1
262,567,49,0.142986533763804,1
262,572,49,0.174061406597029,1
262,573,49,0.204712359699898,1
262,574,49,0.164828143593221,1
262,575,49,0.132975440089967,1
262,576,49,0.149244090929568,1
262,577,49,0.178463137145614,1
263,572,49,0.162781767143241,1
263,573,49,0.245169837456997,1
263,574,49,0.209194229453875,1
264,573,49,0.162677195120438,1
253,567,50,0.120930518608885,1
253,568,50,0.147588802951952,1
253,569,50,0.171080907874606,1
253,570,50,0.209430191866162,1
253,571,50,0.218339292492201,1
254,566,50,0.191503584283779,1
254,567,50,0.236237687414266,1
254,568,50,0.291711533359145,1
254,569,50,0.257868541046058,1
254,570,50,0.224980291301161,1
254,571,50,0.213633551466074,1
254,572,50,0.162480414537945,1
255,565,50,0.177588239674002,1
255,566,50,0.222007570122934,1
255,567,50,0.262014233532562,1
255,568,50,0.301857067439799,1
255,569,50,0.251194819908296,1
255,570,50,0.213638213635424,1
255,571,50,0.213981340585246,1
255,572,50,0.162331257797504,1
256,566,50,0.200796464233504,1
256,567,50,0.1923783728262,1
256,568,50,0.188827390147712,1
256,569,50,0.173135628300572,1
256,570,50,0.19295824647848,1
256,571,50,0.227990222690835,1
256,572,50,0.179339581411731,1
256,573,50,0.158164999479849,1
257,565,50,0.171456386793983,1
257,566,50,0.177725076523007,1
257,567,50,0.168246363374426,1
257,568,50,0.157417374874323,1
257,569,50,0.144760478308545,1
257,570,50,0.167400288566599,1
257,571,50,0.214253249630371,1
257,572,50,0.200565272919757,1
257,573,50,0.211739817490629,1
257,574,50,0.185177565121836,1
258,565,50,0.164542073753341,1
258,566,50,0.181942596917674,1
258,567,50,0.19639938496135,1
258,568,50,0.18484472108759,1
258,569,50,0.150499804850887,1
258,570,50,0.151960970118257,1
258,571,50,0.190290243817533,1
258,572,50,0.204973462969334,1
258,573,50,0.222744432524446,1
258,574,50,0.185724563944447,1
258,575,50,0.139958465663925,1
259,565,50,0.156183523041521,1
259,566,50,0.170538113718745,1
259,567,50,0.175374918346785,1
259,568,50,0.158399632956012,1
259,569,50,0.141852613570293,1
259,570,50,0.164523686505998,1
259,571,50,0.200230359230893,1
259,572,50,0.207728412910075,1
259,573,50,0.201593368404776,1
259,574,50,0.168889688280125,1
259,575,50,0.172046608719352,1
259,576,50,0.153477623915226,1
260,566,50,0.174977806090192,1
260,567,50,0.173284120572952,1
260,568,50,0.143347339921231,1
260,570,50,0.199120980783984,1
260,571,50,0.228802747308013,1
260,572,50,0.215411537283779,1
260,573,50,0.19986564251553,1
260,574,50,0.180910187836715,1
260,575,50,0.222681754668279,1
260,576,50,0.190145564066817,1
260,577,50,0.143471976700909,1
261,565,50,0.174653796213288,1
261,566,50,0.194968077185074,1
261,567,50,0.219710362426174,1
261,568,50,0.170969484205726,1
261,570,50,0.193895081087765,1
261,571,50,0.216252884564742,1
261,572,50,0.211739926419819,1
261,573,50,0.220073205559462,1
261,574,50,0.17357260864086,1
261,575,50,0.174977359480511,1
261,576,50,0.172788144183134,1
261,577,50,0.184453512793117,1
261,578,50,0.177618935919862,1
262,566,50,0.143667210488898,1
262,567,50,0.162971794115928,1
262,571,50,0.173180975522544,1
262,572,50,0.199832070539043,1
262,573,50,0.248652172959684,1
262,574,50,0.192664311951052,1
262,575,50,0.146478531285681,1
262,576,50,0.170721615832926,1
262,577,50,0.213542486662883,1
262,578,50,0.175069143216358,1
263,572,50,0.153617412745292,1
263,573,50,0.237223779803458,1
263,574,50,0.236806515646637,1
263,575,50,0.163014712216953,1
263,577,50,0.13801891607099,1
264,573,50,0.158285856416619,1
264,574,50,0.212140960127268,1
253,568,51,0.133073051537502,1
253,569,51,0.13862141431612,1
253,570,51,0.186763661277698,1
253,571,51,0.21120427801885,1
254,567,51,0.240432005891373,1
254,568,51,0.272512545689309,1
254,569,51,0.229641022785807,1
254,570,51,0.233108021058482,1
254,571,51,0.23279343355655,1
254,572,51,0.163802455443311,1
255,566,51,0.207320451306115,1
255,567,51,0.276653467077272,1
255,568,51,0.300399289870251,1
255,569,51,0.251124473437123,1
255,570,51,0.233175535370704,1
255,571,51,0.225000617488093,1
255,572,51,0.168880156975964,1
256,566,51,0.199137407305899,1
256,567,51,0.196920763638374,1
256,568,51,0.188153772034157,1
256,569,51,0.172250099339975,1
256,570,51,0.18469691506911,1
256,571,51,0.209155123874514,1
256,572,51,0.183089904508687,1
256,573,51,0.161939472178321,1
257,566,51,0.172388265125103,1
257,567,51,0.162224213082078,1
257,568,51,0.160850855635106,1
257,569,51,0.140301461898718,1
257,570,51,0.153475227473037,1
257,571,51,0.198698727670241,1
257,572,51,0.202809366743268,1
257,573,51,0.217095691496856,1
257,574,51,0.168272974775646,1
258,566,51,0.155620163054509,1
258,567,51,0.178262533148538,1
258,568,51,0.193612496981978,1
258,569,51,0.149022441812902,1
258,570,51,0.14216532749015,1
258,571,51,0.182573340501879,1
258,572,51,0.2009777441922,1
258,573,51,0.221601939603649,1
258,574,51,0.18197163743984,1
258,575,51,0.152036708584356,1
259,566,51,0.149079640530792,1
259,567,51,0.155543651191158,1
259,568,51,0.158881187121019,1
259,569,51,0.138926002118371,1
259,570,51,0.15032808887511,1
259,571,51,0.18515353534243,1
259,572,51,0.199800829647231,1
259,573,51,0.192516887184738,1
259,574,51,0.172422556034247,1
259,575,51,0.195414730437471,1
259,576,51,0.164035128194047,1
260,566,51,0.152063592308551,1
260,567,51,0.160382089757054,1
260,568,51,0.146852605018501,1
260,569,51,0.146806408148844,1
260,570,51,0.186836513120251,1
260,571,51,0.216294844088891,1
260,572,51,0.219170008284179,1
260,573,51,0.203546425217323,1
260,574,51,0.180396368845505,1
260,575,51,0.217723886138006,1
260,576,51,0.176758275493438,1
260,577,51,0.137346321891825,1
261,566,51,0.166533931143516,1
261,567,51,0.212472235581172,1
261,568,51,0.18489134278109,1
261,569,51,0.158586991163534,1
261,570,51,0.20233794299297,1
261,571,51,0.227309371679037,1
261,572,51,0.226147249718126,1
261,573,51,0.246022861947173,1
261,574,51,0.188180721115867,1
261,575,51,0.179753839122896,1
261,576,51,0.173886346495106,1
261,577,51,0.183508257957413,1
261,578,51,0.155718526113458,1
262,567,51,0.171913115996493,1
262,568,51,0.152818526062754,1
262,571,51,0.202781023367921,1
262,572,51,0.210284697793328,1
262,573,51,0.263730892216061,1
262,574,51,0.206623064843211,1
262,575,51,0.161908056999804,1
262,576,51,0.180059461752457,1
262,577,51,0.218140649220552,1
262,578,51,0.168955840977467,1
263,572,51,0.139508588107492,1
263,573,51,0.201974990930492,1
263,574,51,0.227728509417933,1
263,575,51,0.175054426882733,1
263,576,51,0.138780385576618,1
263,577,51,0.139280392346482,1
264,573,51,0.138059982375778,1
264,574,51,0.220404481013366,1
253,570,52,0.158301858114692,1
253,571,52,0.180961330091617,1
254,567,52,0.237940512090581,1
254,568,52,0.232984342855679,1
254,569,52,0.205048253751476,1
254,570,52,0.241227123623922,1
254,571,52,0.240326126718285,1
254,572,52,0.16288809292601,1
255,566,52,0.218751959837187,1
255,567,52,0.297915225040247,1
255,568,52,0.276512686991574,1
255,569,52,0.237396824715359,1
255,570,52,0.250707666782902,1
255,571,52,0.233858608537987,1
255,572,52,0.176016609314628,1
256,566,52,0.20009088629548,1
256,567,52,0.20989024340898,1
256,568,52,0.186406722106531,1
256,569,52,0.168430475492073,1
256,570,52,0.180715378872568,1
256,571,52,0.19395357606302,1
256,572,52,0.193566899222869,1
256,573,52,0.165093081170159,1
257,566,52,0.16277257351957,1
257,567,52,0.158664679462141,1
257,568,52,0.157753345176334,1
257,569,52,0.132359194981006,1
257,570,52,0.137340210964242,1
257,571,52,0.173670132945042,1
257,572,52,0.201451433669659,1
257,573,52,0.201531714482998,1
257,574,52,0.148708834673684,1
258,566,52,0.131615284860873,1
258,567,52,0.151937408734369,1
258,568,52,0.177287377250063,1
258,569,52,0.137282914210081,1
258,570,52,0.127877063796972,1
258,571,52,0.163264639351452,1
258,572,52,0.192766335030799,1
258,573,52,0.198207152019716,1
258,574,52,0.168177356732295,1
258,575,52,0.164317113189286,1
259,567,52,0.130554848299219,1
259,568,52,0.147658495847982,1
259,569,52,0.132950190303627,1
259,571,52,0.163684408879653,1
259,572,52,0.185995165839288,1
259,573,52,0.173626593947631,1
259,574,52,0.170559289553363,1
259,575,52,0.211032496685558,1
259,576,52,0.170323686607404,1
260,567,52,0.143704747487917,1
260,568,52,0.146688383371024,1
260,570,52,0.165979198348385,1
260,571,52,0.19158020507632,1
260,572,52,0.205677951615454,1
260,573,52,0.187918789984584,1
260,574,52,0.167938061086782,1
260,575,52,0.194604101188206,1
260,576,52,0.164213107598274,1
260,577,52,0.137542721222151,1
261,566,52,0.145702726698594,1
261,567,52,0.183382804208807,1
261,568,52,0.181675513435684,1
261,569,52,0.160017819651372,1
261,570,52,0.19592229689315,1
261,571,52,0.220906208864439,1
261,572,52,0.224591065517953,1
261,573,52,0.23546561909841,1
261,574,52,0.185185647667765,1
261,575,52,0.170374861541063,1
261,576,52,0.17013124140669,1
261,577,52,0.179679179055783,1
261,578,52,0.142316542992291,1
262,567,52,0.161278010562417,1
262,568,52,0.160135016567344,1
262,570,52,0.189992845341849,1
262,571,52,0.213852499138817,1
262,572,52,0.208664027512427,1
262,573,52,0.240775568557956,1
262,574,52,0.199624407930427,1
262,575,52,0.168473753059427,1
262,576,52,0.17179126780409,1
262,577,52,0.195313818435466,1
262,578,52,0.155975991147933,1
263,571,52,0.141315832305744,1
263,572,52,0.131585503620212,1
263,573,52,0.167157725045373,1
263,574,52,0.199355287472576,1
263,575,52,0.174053313158181,1
263,576,52,0.135297505427979,1
263,577,52,0.135081934560139,1
264,574,52,0.188915797078656,1
254,570,53,0.242624685137005,1
254,571,53,0.235755196458221,1
255,567,53,0.29158038261388,1
255,568,53,0.236252806785896,1
255,569,53,0.215772354334125,1
255,570,53,0.255177075037494,1
255,571,53,0.237886243567914,1
256,567,53,0.22092984649876,1
256,568,53,0.188453501594515,1
256,571,53,0.187951795529281,1
256,572,53,0.191874727821376,1
257,567,53,0.171101408348243,1
257,568,53,0.169422526307982,1
257,571,53,0.161895976752587,1
257,572,53,0.189425062829706,1
257,573,53,0.177814855961751,1
258,567,53,0.148068930144564,1
258,568,53,0.167743524445611,1
258,569,53,0.139623127151218,1
258,571,53,0.152207008480658,1
258,572,53,0.178364523549528,1
258,573,53,0.168481258280647,1
258,574,53,0.156047514054363,1
259,568,53,0.151518772069749,1
259,572,53,0.17500636732392,1
259,573,53,0.159378078516038,1
259,574,53,0.166831721764285,1
259,575,53,0.214214209408525,1
260,571,53,0.174032017501454,1
260,572,53,0.189000870776374,1
260,573,53,0.171162376016121,1
260,574,53,0.157571934502609,1
260,575,53,0.172540972957153,1
260,576,53,0.157649731730407,1
261,567,53,0.166436690055228,1
261,568,53,0.174735667392808,1
261,571,53,0.207777060686516,1
261,572,53,0.213903151212362,1
261,573,53,0.204006629261008,1
261,574,53,0.174393607949052,1
261,575,53,0.159304235417852,1
261,576,53,0.164931659002877,1
261,577,53,0.184475843277153,1
262,571,53,0.206693890602822,1
262,572,53,0.195256521681305,1
262,573,53,0.194554690907432,1
262,574,53,0.186226792869796,1
262,575,53,0.172937529674875,1
262,576,53,0.15533214338212,1
262,577,53,0.166135925667561,1
263,574,53,0.172127042033558,1
