x,y,z,signal,mito.p
382,540,30,0.137676279302525,1
381,539,31,0.121512069770697,1
381,540,31,0.14183923706571,1
382,540,31,0.103309337583519,1
381,540,32,0.108941085657403,1
401,537,32,0.110358613891091,1
402,542,32,0.189357156372398,1
403,541,32,0.24068411160968,1
403,542,32,0.229903128203794,1
405,533,32,0.254142291300184,1
401,537,33,0.121265911586187,1
401,538,33,0.101719407120155,1
401,542,33,0.194607390849757,1
402,537,33,0.146386344511829,1
402,538,33,0.120811622397542,1
402,541,33,0.194576890676439,1
402,542,33,0.228008239578931,1
402,543,33,0.173223043975884,1
403,540,33,0.160046468028452,1
403,541,33,0.256386036550285,1
403,542,33,0.267944491159872,1
403,543,33,0.165200452673156,1
404,533,33,0.196128129491367,1
404,541,33,0.230391958838721,1
404,542,33,0.211970878089347,1
405,532,33,0.188645957688149,1
405,533,33,0.275619772631866,1
405,534,33,0.243284904960138,1
406,533,33,0.239577369249178,1
400,541,34,0.115377395624646,1
400,542,34,0.142615967550916,1
401,537,34,0.105507539539106,1
401,538,34,0.102148097949051,1
401,540,34,0.107391143099842,1
401,541,34,0.190501087158509,1
401,542,34,0.230619533703346,1
401,543,34,0.185069550936616,1
402,537,34,0.155063730964007,1
402,538,34,0.14581476037094,1
402,539,34,0.106390356162862,1
402,540,34,0.135285359823248,1
402,541,34,0.213276372650688,1
402,542,34,0.249494348102494,1
402,543,34,0.195668034376873,1
403,537,34,0.118354190754595,1
403,538,34,0.110820517230146,1
403,540,34,0.163584891171286,1
403,541,34,0.24561914858164,1
403,542,34,0.270737718818126,1
403,543,34,0.191853813416816,1
404,533,34,0.176328419122204,1
404,534,34,0.168906452482531,1
404,540,34,0.164436390652796,1
404,541,34,0.21851451598791,1
404,542,34,0.215246487774455,1
405,532,34,0.186757648386387,1
405,533,34,0.274154304661475,1
405,534,34,0.249089044370781,1
405,535,34,0.130589825462263,1
405,541,34,0.165215267043053,1
406,532,34,0.194076840334899,1
406,533,34,0.264847285702833,1
406,534,34,0.216402923631626,1
407,533,34,0.182933808978816,1
396,544,35,0.120488592883353,1
396,545,35,0.116170302094629,1
397,544,35,0.148522053790872,1
399,543,35,0.106103807034544,1
400,541,35,0.107868318311394,1
400,542,35,0.136211573836467,1
401,540,35,0.10316174942342,1
401,541,35,0.197486149708328,1
401,542,35,0.234301383911205,1
401,543,35,0.183657948450887,1
402,537,35,0.1316909252907,1
402,538,35,0.149765426034917,1
402,539,35,0.107462557077081,1
402,540,35,0.135039070923709,1
402,541,35,0.224610694558067,1
402,542,35,0.253936327986939,1
402,543,35,0.202950495402376,1
403,537,35,0.106173881182741,1
403,538,35,0.114804395404282,1
403,539,35,0.104142580532715,1
403,540,35,0.154408924921638,1
403,541,35,0.22675947533996,1
403,542,35,0.249520687180737,1
403,543,35,0.201819309331544,1
404,532,35,0.109526177017904,1
404,533,35,0.143121366315706,1
404,534,35,0.136017941307577,1
404,541,35,0.201774081931682,1
404,542,35,0.206773735699399,1
405,532,35,0.165862404470417,1
405,533,35,0.244457941625929,1
405,534,35,0.223187425756045,1
406,532,35,0.188648397702014,1
406,533,35,0.262157126844554,1
406,534,35,0.217616024453653,1
407,533,35,0.176861573044713,1
396,544,36,0.148099876927563,1
396,545,36,0.147643583441814,1
397,544,36,0.16991134604999,1
397,545,36,0.178748782161652,1
398,544,36,0.137471318137831,1
400,542,36,0.116737027993625,1
400,543,36,0.128869158184557,1
401,541,36,0.169583371150556,1
401,542,36,0.201662647369883,1
401,543,36,0.167884881856019,1
402,538,36,0.123438558753701,1
402,540,36,0.120393258055898,1
402,541,36,0.208526776732498,1
402,542,36,0.234460529458408,1
402,543,36,0.193144733252479,1
403,538,36,0.103974274040598,1
403,540,36,0.13157700714336,1
403,541,36,0.196551798684585,1
403,542,36,0.217252963461984,1
403,543,36,0.194110455883063,1
404,533,36,0.10543347858254,1
404,534,36,0.102428601507301,1
404,542,36,0.189584099447719,1
405,533,36,0.195795307242959,1
405,534,36,0.185114429763069,1
406,533,36,0.234095398812121,1
383,549,37,0.100068574346427,1
396,544,37,0.152621102798038,1
396,545,37,0.158976663556422,1
396,546,37,0.0997332685124769,1
397,544,37,0.167040125091396,1
397,545,37,0.183697587783281,1
398,544,37,0.119337461877755,1
398,545,37,0.133943450233549,1
399,544,37,0.114067086393088,1
400,543,37,0.116783453614582,1
401,541,37,0.123650447814906,1
401,542,37,0.151544522930364,1
402,541,37,0.170344001901418,1
402,542,37,0.197918881810189,1
403,540,37,0.107669990934397,1
403,542,37,0.19026969977222,1
405,533,37,0.143077936247486,1
405,534,37,0.146188866782517,1
405,535,37,0.13956102661976,1
406,534,37,0.175212559388465,1
383,549,38,0.11626648656977,1
396,544,38,0.134467290710277,1
396,545,38,0.147215905654388,1
397,544,38,0.145117254085926,1
397,545,38,0.16196109462262,1
397,546,38,0.109455383937051,1
398,544,38,0.103407994751282,1
398,545,38,0.121379426695523,1
400,543,38,0.100460425323123,1
401,542,38,0.109140088395381,1
401,543,38,0.126880416169228,1
402,541,38,0.120713967378331,1
402,542,38,0.149829661578507,1
403,541,38,0.126418523723092,1
405,533,38,0.104139334442841,1
405,534,38,0.114751041886814,1
405,535,38,0.131808165778349,1
405,536,38,0.142829240012839,1
374,543,39,0.0999269337201239,1
375,526,39,0.112724327155705,1
375,527,39,0.12497625767026,1
375,528,39,0.100659123059367,1
383,549,39,0.109457867522592,1
396,544,39,0.0998746150299654,1
396,545,39,0.114820081207702,1
397,544,39,0.108146174890316,1
397,545,39,0.122417924918227,1
398,545,39,0.101768392577086,1
400,544,39,0.110643953905395,1
401,543,39,0.10822959286434,1
402,542,39,0.107963489745064,1
402,543,39,0.124759630189272,1
403,542,39,0.125000483522209,1
405,535,39,0.113527276897045,1
405,536,39,0.125321247309238,1
406,535,39,0.123364933513897,1
374,526,40,0.147487226481886,1
374,527,40,0.174478365752118,1
374,528,40,0.136710273456046,1
375,526,40,0.12775861419531,1
375,527,40,0.163191242862947,1
375,528,40,0.118266557220902,1
378,521,40,0.10758388240937,1
401,544,40,0.127920221542216,1
402,543,40,0.110037457958977,1
406,534,40,0.108263143054989,1
406,535,40,0.0997281488405272,1
373,527,41,0.1443512095543,1
373,528,41,0.114855940697188,1
374,526,41,0.146823913069744,1
374,527,41,0.197634816267413,1
374,528,41,0.142096647635591,1
375,526,41,0.126261502295102,1
375,527,41,0.191692598214995,1
375,528,41,0.132367255741097,1
376,522,41,0.112758912173663,1
377,521,41,0.12279320776506,1
377,522,41,0.102633018026042,1
378,521,41,0.111660818790881,1
381,520,41,0.123665469150264,1
381,521,41,0.104533004537017,1
382,520,41,0.128614819417846,1
382,521,41,0.111867708002245,1
400,545,41,0.111084561587723,1
401,544,41,0.127045738001528,1
401,545,41,0.142796539469875,1
402,543,41,0.109451571415386,1
402,544,41,0.138423544441722,1
403,543,41,0.100074140628057,1
406,533,41,0.100400339981688,1
373,526,42,0.170226391054522,1
373,527,42,0.144386262967777,1
373,528,42,0.106988290274913,1
374,525,42,0.11015851096829,1
374,526,42,0.137512351763862,1
374,527,42,0.195653721081252,1
374,528,42,0.139878925569081,1
375,526,42,0.114007818020581,1
375,527,42,0.187430787211504,1
375,528,42,0.13613353696445,1
376,522,42,0.131747644720152,1
376,523,42,0.102190602119153,1
377,521,42,0.16016235779414,1
377,522,42,0.117918375956645,1
378,520,42,0.113368022420652,1
378,521,42,0.122007490621645,1
380,520,42,0.10553080681418,1
381,519,42,0.104295626045255,1
381,520,42,0.153429422748466,1
381,521,42,0.12612280275694,1
382,520,42,0.147508674639479,1
382,521,42,0.126301054484143,1
400,545,42,0.101855492357746,1
401,544,42,0.120062352961241,1
401,545,42,0.123169144187037,1
402,543,42,0.103650024519476,1
402,544,42,0.149026864338033,1
406,531,42,0.104752039353113,1
372,538,43,0.123245296584059,1
372,539,43,0.108775339001261,1
373,525,43,0.141631650707527,1
373,526,43,0.157753704642662,1
373,527,43,0.13380131942589,1
374,524,43,0.113577199145014,1
374,525,43,0.108074031087501,1
374,526,43,0.122463315711875,1
374,527,43,0.16355948888408,1
374,528,43,0.12045826699674,1
374,542,43,0.103151695259144,1
375,522,43,0.111270307643227,1
375,523,43,0.102285762659903,1
375,527,43,0.148933141662596,1
375,528,43,0.117449620971512,1
376,521,43,0.18269453511914,1
376,522,43,0.137809608631598,1
377,520,43,0.163118663343371,1
377,521,43,0.187930837553044,1
377,522,43,0.125328196991587,1
378,520,43,0.120909930991896,1
378,521,43,0.126384309064381,1
380,520,43,0.11002423395526,1
381,519,43,0.105407618792734,1
381,520,43,0.164001458181288,1
381,521,43,0.133821340611089,1
382,520,43,0.14504614511042,1
382,521,43,0.124406764969827,1
400,546,43,0.112824857905543,1
401,544,43,0.104802702319577,1
401,545,43,0.106480418817501,1
402,544,43,0.144030456660191,1
402,545,43,0.116891816373212,1
403,544,43,0.110530122901407,1
406,531,43,0.122449111345444,1
371,538,44,0.104136491390971,1
371,539,44,0.103761644260899,1
371,541,44,0.117590150520073,1
371,542,44,0.120906510615317,1
372,526,44,0.176613377884342,1
372,527,44,0.136451414127932,1
372,538,44,0.101638233087454,1
372,539,44,0.100683675698888,1
373,524,44,0.116744849109497,1
373,525,44,0.125310811892796,1
373,526,44,0.135808317973533,1
373,527,44,0.119223674445443,1
373,532,44,0.110068992959603,1
374,523,44,0.101917505745852,1
374,524,44,0.120261649808033,1
374,525,44,0.108636279996771,1
374,526,44,0.108854312664315,1
374,527,44,0.12453555195166,1
374,528,44,0.0998107716314604,1
374,542,44,0.11365819889101,1
375,522,44,0.11194940489506,1
375,523,44,0.10092094526146,1
375,527,44,0.107456860080422,1
376,521,44,0.177132926550967,1
376,522,44,0.135240687962257,1
377,520,44,0.160419757471101,1
377,521,44,0.189575297969133,1
377,522,44,0.124822504117983,1
378,520,44,0.117196534890491,1
378,521,44,0.119575025549142,1
380,520,44,0.104503081688409,1
381,519,44,0.101259671471989,1
381,520,44,0.148306308636327,1
381,521,44,0.119998182775165,1
382,520,44,0.123432393361524,1
382,521,44,0.105573572414338,1
400,546,44,0.106945448424321,1
402,544,44,0.120582936455175,1
402,545,44,0.107813069426013,1
403,544,44,0.100494291408424,1
406,530,44,0.135902574402003,1
406,531,44,0.139028286628175,1
407,531,44,0.193656983663346,1
407,534,44,0.144395173375554,1
370,541,45,0.141986084507315,1
371,541,45,0.112999667470329,1
371,542,45,0.133630867028721,1
372,525,45,0.118750965330698,1
372,526,45,0.137469771343327,1
372,527,45,0.126195883350793,1
372,532,45,0.109135077652622,1
372,533,45,0.105677904792922,1
373,524,45,0.120286213340472,1
373,525,45,0.123240743343899,1
373,526,45,0.121931033222889,1
373,527,45,0.112127199119663,1
373,532,45,0.117356617228732,1
374,524,45,0.129119619072088,1
374,525,45,0.124984590753327,1
374,526,45,0.108445762842727,1
374,527,45,0.105029667180735,1
374,542,45,0.109003360475566,1
375,521,45,0.113525697423784,1
375,522,45,0.118612559901351,1
375,523,45,0.102418667165134,1
375,524,45,0.110709093561266,1
375,525,45,0.100503071101172,1
376,520,45,0.121727520816428,1
376,521,45,0.167596284858921,1
376,522,45,0.144731350643027,1
377,520,45,0.141987696659333,1
377,521,45,0.173427209957487,1
377,522,45,0.131188914223733,1
378,520,45,0.108148854548401,1
378,521,45,0.108829411451385,1
381,519,45,0.109532494910949,1
381,520,45,0.125952186965986,1
382,520,45,0.102650904199109,1
400,546,45,0.100700200257075,1
401,546,45,0.102608857531607,1
405,542,45,0.10703983556782,1
406,530,45,0.153893123419163,1
406,531,45,0.172344747913531,1
406,532,45,0.103877784563724,1
407,530,45,0.189571529019144,1
407,531,45,0.208840928517668,1
407,532,45,0.123251701620456,1
407,533,45,0.107084311356268,1
407,534,45,0.12307302506941,1
407,535,45,0.101350877883127,1
408,531,45,0.132727909397657,1
369,541,46,0.139812522334601,1
370,541,46,0.122344659144751,1
370,542,46,0.168797098468269,1
370,543,46,0.144938610213638,1
371,526,46,0.123231822043204,1
371,527,46,0.134863585997943,1
371,541,46,0.103677191459566,1
371,542,46,0.133646934084308,1
371,543,46,0.113315878017198,1
372,524,46,0.108403748853983,1
372,525,46,0.107748387272742,1
372,526,46,0.113613875603429,1
372,527,46,0.118838958330719,1
372,532,46,0.108982958038201,1
372,533,46,0.115571801550788,1
373,524,46,0.117739514225976,1
373,525,46,0.11872524714884,1
373,526,46,0.10890656599696,1
373,527,46,0.103063462614904,1
373,532,46,0.104121284875988,1
374,524,46,0.124163591445134,1
374,525,46,0.129841754247056,1
374,526,46,0.101874729252774,1
375,521,46,0.108383183022831,1
375,522,46,0.118429471718094,1
375,523,46,0.10336652540849,1
375,524,46,0.110355346015378,1
375,525,46,0.104980180649528,1
376,520,46,0.102214631898559,1
376,521,46,0.146492539579569,1
376,522,46,0.152433156372888,1
376,523,46,0.112002823770042,1
377,520,46,0.113195946978546,1
377,521,46,0.140017853858542,1
377,522,46,0.13039031075709,1
380,519,46,0.109908159009949,1
381,518,46,0.100591020529517,1
381,519,46,0.131099755681374,1
381,520,46,0.108778552412378,1
382,519,46,0.100663393083632,1
384,554,46,0.147156212458039,1
384,555,46,0.166900085724192,1
385,554,46,0.12051864644699,1
401,546,46,0.107342734967619,1
405,542,46,0.105095798092239,1
406,530,46,0.162763674004712,1
406,531,46,0.193383898182964,1
406,532,46,0.114699474808069,1
407,530,46,0.172730117603397,1
407,531,46,0.199612708935376,1
407,532,46,0.123142641715007,1
407,534,46,0.108682738296485,1
407,535,46,0.105436986102471,1
408,531,46,0.11784225623838,1
369,540,47,0.105334690699748,1
369,541,47,0.128102536328222,1
369,542,47,0.144657126292675,1
369,543,47,0.151791890228888,1
370,526,47,0.117820720937434,1
370,527,47,0.117649451571337,1
370,541,47,0.104054838069832,1
370,542,47,0.155879556135655,1
370,543,47,0.178406897004601,1
370,544,47,0.139431128560185,1
371,525,47,0.101809938170312,1
371,526,47,0.116389532983268,1
371,527,47,0.132720959715308,1
371,528,47,0.103344249389049,1
371,542,47,0.112102613801385,1
371,543,47,0.115484669091371,1
372,523,47,0.115006578874619,1
372,524,47,0.108318969265079,1
372,527,47,0.106290696846547,1
372,533,47,0.115554285736968,1
373,523,47,0.102489699890207,1
373,524,47,0.111853460064138,1
373,525,47,0.109312207409163,1
374,524,47,0.111559514643791,1
374,525,47,0.120105412670214,1
375,522,47,0.115077186775849,1
375,523,47,0.107427830451175,1
375,524,47,0.102669759841971,1
376,521,47,0.121964964665705,1
376,522,47,0.160084636816775,1
376,523,47,0.13731078918991,1
377,521,47,0.109885534417099,1
377,522,47,0.127717515211764,1
377,523,47,0.101994006716284,1
381,519,47,0.172384746712253,1
381,520,47,0.106621362296985,1
382,519,47,0.114602092111834,1
383,555,47,0.115192640824775,1
384,554,47,0.133459499626353,1
384,555,47,0.178023607862271,1
384,556,47,0.100017236018982,1
385,555,47,0.11650900651932,1
401,546,47,0.114660881195904,1
406,530,47,0.155555546258752,1
406,531,47,0.194117601637954,1
406,532,47,0.122737795485894,1
407,531,47,0.178056831265349,1
407,532,47,0.122028023774039,1
407,534,47,0.104739980891733,1
407,535,47,0.114432979543708,1
368,524,48,0.119583064523395,1
368,541,48,0.11073360262911,1
368,542,48,0.103060270989625,1
368,543,48,0.108420741807688,1
369,541,48,0.10288249855086,1
369,542,48,0.138827279593094,1
369,543,48,0.197488328292137,1
369,544,48,0.19562986558855,1
369,545,48,0.135458263127201,1
370,525,48,0.113553191151446,1
370,526,48,0.132887316374917,1
370,527,48,0.131287353533115,1
370,528,48,0.101089491397796,1
370,542,48,0.131182367579388,1
370,543,48,0.201532520559007,1
370,544,48,0.195093803256657,1
370,545,48,0.122222908988619,1
371,526,48,0.114795583032777,1
371,527,48,0.123526268537827,1
371,543,48,0.105007532769242,1
372,523,48,0.123417731492493,1
372,524,48,0.104109912668508,1
373,523,48,0.10841208193705,1
373,524,48,0.10474388055675,1
375,522,48,0.11463466193977,1
375,523,48,0.117612143323618,1
376,521,48,0.107446740558632,1
376,522,48,0.161926596748014,1
376,523,48,0.162406843762736,1
377,522,48,0.118284421608131,1
377,523,48,0.106850854315361,1
381,519,48,0.182664808343075,1
381,520,48,0.100429543897639,1
383,555,48,0.105182690907437,1
384,554,48,0.104227044226966,1
384,555,48,0.154269517343739,1
385,555,48,0.101889282192614,1
401,546,48,0.11029790765327,1
406,530,48,0.129541229503608,1
406,531,48,0.165561313295178,1
406,532,48,0.125300365583434,1
406,542,48,0.105646010325967,1
407,531,48,0.147680946154128,1
407,532,48,0.122982842592662,1
407,534,48,0.102159306762745,1
407,535,48,0.124720186929421,1
407,536,48,0.121959474634508,1
407,537,48,0.111359477078504,1
367,524,49,0.113493868314343,1
368,523,49,0.109457224840369,1
368,524,49,0.128595735023684,1
368,525,49,0.105137223863356,1
368,543,49,0.123460050482971,1
368,544,49,0.139546255821539,1
368,545,49,0.118305935123239,1
369,524,49,0.109488193409205,1
369,526,49,0.124798866483661,1
369,527,49,0.125145468274658,1
369,542,49,0.128539266131371,1
369,543,49,0.237244607064666,1
369,544,49,0.282848901925739,1
369,545,49,0.192448697511535,1
369,546,49,0.139289716685182,1
369,547,49,0.179043958481851,1
370,525,49,0.111393811559325,1
370,526,49,0.141513048604998,1
370,527,49,0.13775250794998,1
370,542,49,0.110222964370261,1
370,543,49,0.214267998642754,1
370,544,49,0.252033335030308,1
370,545,49,0.157151794615161,1
370,547,49,0.11308708314564,1
370,548,49,0.138436615944573,1
370,549,49,0.107431022076455,1
371,525,49,0.0999885876419014,1
371,526,49,0.110957223364123,1
371,527,49,0.106782283389992,1
371,544,49,0.107390772740594,1
372,523,49,0.126224989230473,1
372,524,49,0.104429892165366,1
373,522,49,0.105719188956091,1
373,523,49,0.1152740000371,1
374,522,49,0.105401202863418,1
374,523,49,0.108644427900215,1
375,522,49,0.120711037183109,1
375,523,49,0.127689716482369,1
376,522,49,0.15098652225952,1
376,523,49,0.159654769552622,1
377,522,49,0.108742409706997,1
377,523,49,0.0998752250334317,1
384,555,49,0.105549433705741,1
401,546,49,0.0998363155266138,1
401,547,49,0.102455202015601,1
406,531,49,0.119333714713605,1
406,532,49,0.11401021446277,1
406,542,49,0.111387591702552,1
407,531,49,0.117360015819473,1
407,532,49,0.121146873766897,1
407,534,49,0.10061906979605,1
407,535,49,0.133884748292832,1
407,536,49,0.147504764081543,1
407,537,49,0.137744196652751,1
407,538,49,0.111681221228247,1
407,540,49,0.103279262234044,1
367,524,50,0.121988852837164,1
367,525,50,0.10475400007854,1
368,523,50,0.103761557117546,1
368,524,50,0.12096297950763,1
368,525,50,0.104684459683376,1
368,527,50,0.116432865015217,1
368,543,50,0.116472232024634,1
368,544,50,0.144308073594894,1
368,545,50,0.123150299437094,1
368,546,50,0.109627895095918,1
368,547,50,0.131377067614344,1
369,524,50,0.106866714405486,1
369,525,50,0.106585502807498,1
369,526,50,0.148057242042432,1
369,527,50,0.173239481390718,1
369,528,50,0.105747761082738,1
369,542,50,0.105591643767029,1
369,543,50,0.22184149667922,1
369,544,50,0.300674488576928,1
369,545,50,0.211097418483048,1
369,546,50,0.139889121341304,1
369,547,50,0.177111456607536,1
369,548,50,0.224145240127404,1
369,549,50,0.173589231235318,1
370,524,50,0.10096414657838,1
370,525,50,0.109330311440611,1
370,526,50,0.141889976282607,1
370,527,50,0.148736393758861,1
370,543,50,0.189486629608131,1
370,544,50,0.253721497837593,1
370,545,50,0.16377119276566,1
370,547,50,0.116515444234474,1
370,548,50,0.149171903555077,1
370,549,50,0.124449214675334,1
371,523,50,0.119256538382193,1
371,524,50,0.108883734438648,1
371,525,50,0.102374071554577,1
371,526,50,0.102286263734179,1
371,544,50,0.102815158525343,1
372,522,50,0.111819746479703,1
372,523,50,0.124220583197562,1
372,524,50,0.106781673386525,1
373,522,50,0.110161953130707,1
373,523,50,0.118524969939335,1
374,522,50,0.124005088580155,1
374,523,50,0.128819007185288,1
375,522,50,0.121241250017476,1
375,523,50,0.125985628227445,1
376,522,50,0.127153828437181,1
376,523,50,0.125878332974882,1
377,522,50,0.102791956607783,1
405,543,50,0.102182323500681,1
405,544,50,0.158633035532325,1
406,542,50,0.108364632381703,1
406,543,50,0.122723689155735,1
407,532,50,0.106879796801255,1
407,535,50,0.125090099567167,1
407,536,50,0.151549174206795,1
407,537,50,0.140779203542061,1
407,538,50,0.111455737804078,1
407,539,50,0.106594369643599,1
407,540,50,0.121695735278664,1
367,524,51,0.119873567781325,1
367,525,51,0.108800806645981,1
368,524,51,0.109162309950227,1
368,525,51,0.104780546122246,1
368,526,51,0.118558443879551,1
368,527,51,0.153000677454974,1
368,543,51,0.100918178460023,1
368,544,51,0.128598087894197,1
368,545,51,0.114102608202084,1
368,547,51,0.107115356175538,1
368,548,51,0.121008925840149,1
369,524,51,0.100739665302764,1
369,525,51,0.10447441152549,1
369,526,51,0.164235361831876,1
369,527,51,0.22482885794064,1
369,528,51,0.124923492370421,1
369,543,51,0.17293189803573,1
369,544,51,0.252296704026905,1
369,545,51,0.1898580999333,1
369,546,51,0.124704479340163,1
369,547,51,0.151340879808874,1
369,548,51,0.192697208566559,1
369,549,51,0.163570327338527,1
370,524,51,0.104669035310013,1
370,525,51,0.10340416044378,1
370,526,51,0.133945530781086,1
370,527,51,0.15913303140927,1
370,543,51,0.147692144074903,1
370,544,51,0.214511629670046,1
370,545,51,0.149785447220116,1
370,547,51,0.106948313262029,1
370,548,51,0.136715894202271,1
370,549,51,0.124732169140368,1
371,523,51,0.12945910778695,1
371,524,51,0.116045371206137,1
372,522,51,0.10062475589979,1
372,523,51,0.112985517568493,1
372,524,51,0.102626013879098,1
372,559,51,0.195166916529266,1
373,522,51,0.105131189186206,1
373,523,51,0.113204345419127,1
373,558,51,0.218798036884734,1
373,559,51,0.223077973705511,1
373,560,51,0.226861868778955,1
374,522,51,0.137117570591944,1
374,523,51,0.148760085857777,1
374,556,51,0.103856205691102,1
375,522,51,0.120769978768045,1
375,523,51,0.12577567810583,1
376,522,51,0.108547437349065,1
377,522,51,0.102484907005829,1
397,549,51,0.111558806604053,1
404,544,51,0.106190285918818,1
404,545,51,0.134959323863403,1
405,543,51,0.104488376247702,1
405,544,51,0.171988222673287,1
406,543,51,0.120949472288018,1
407,535,51,0.108732736794888,1
407,536,51,0.135840746193521,1
407,537,51,0.124198623072773,1
407,539,51,0.101417673262692,1
407,540,51,0.124910464439246,1
367,524,52,0.108473354606661,1
367,525,52,0.10632591365381,1
368,524,52,0.101013099356555,1
368,525,52,0.105243669468234,1
368,526,52,0.122780114476372,1
368,527,52,0.168797959008873,1
368,528,52,0.107123613008171,1
368,544,52,0.102931320614006,1
369,526,52,0.154934127013246,1
369,527,52,0.232172951102082,1
369,528,52,0.130770713275874,1
369,543,52,0.116747147515415,1
369,544,52,0.174570127702127,1
369,545,52,0.143943160806988,1
369,546,52,0.0998162616626576,1
369,547,52,0.112567632515286,1
369,548,52,0.142088902770152,1
369,549,52,0.130849479973466,1
370,523,52,0.139135690809929,1
370,524,52,0.109575946765007,1
370,526,52,0.11478076866288,1
370,527,52,0.14763191712552,1
370,543,52,0.103592814908667,1
370,544,52,0.157437581239146,1
370,545,52,0.122192964354172,1
370,548,52,0.106287276469968,1
370,549,52,0.105390811018652,1
370,553,52,0.103300318246553,1
371,522,52,0.116117362508085,1
371,523,52,0.13989917550558,1
371,524,52,0.117329842433727,1
371,554,52,0.11477280593906,1
371,559,52,0.196040354349727,1
372,523,52,0.100886795960263,1
372,558,52,0.227103038006544,1
372,559,52,0.231553013293566,1
372,560,52,0.223579135124793,1
373,523,52,0.104324764603692,1
373,556,52,0.116445631516334,1
373,557,52,0.211469172024112,1
373,558,52,0.261476755121193,1
373,559,52,0.244844945253652,1
373,560,52,0.254872225805186,1
373,561,52,0.199366267534971,1
374,522,52,0.130613746312479,1
374,523,52,0.148811130076407,1
374,558,52,0.190270440490715,1
374,559,52,0.20870128129555,1
374,560,52,0.222629381513525,1
375,522,52,0.110715553062258,1
375,523,52,0.117547646349971,1
375,557,52,0.103996288629982,1
377,558,52,0.121823944935788,1
397,549,52,0.104009087809856,1
404,544,52,0.104567894556708,1
404,545,52,0.145473376288165,1
405,544,52,0.161681473390813,1
407,536,52,0.106345836802737,1
407,540,52,0.113502157825734,1
368,525,53,0.105529804665628,1
368,526,53,0.125247099209319,1
368,527,53,0.165866402171705,1
368,528,53,0.11279862775649,1
368,552,53,0.116894147457887,1
369,523,53,0.11014327177455,1
369,526,53,0.137875946508564,1
369,527,53,0.201193532918422,1
369,528,53,0.127239697317989,1
369,544,53,0.106037392907145,1
369,552,53,0.10720469989752,1
369,553,53,0.109869238610212,1
370,522,53,0.123150985690994,1
370,523,53,0.168785562867003,1
370,524,53,0.120541565148654,1
370,526,53,0.100453846000022,1
370,527,53,0.126407205980207,1
370,544,53,0.104387791033269,1
370,553,53,0.101949225926102,1
370,554,53,0.12658181947245,1
371,522,53,0.112487362594866,1
371,523,53,0.155171963007608,1
371,524,53,0.118068502166881,1
371,554,53,0.122686860196454,1
371,555,53,0.107951463962441,1
371,559,53,0.200360093896683,1
371,560,53,0.215474759785898,1
372,523,53,0.105706041202808,1
372,556,53,0.102747709570635,1
372,558,53,0.234711153739725,1
372,559,53,0.245186220407236,1
372,560,53,0.24857341715501,1
372,561,53,0.191724579825302,1
373,523,53,0.10425747904277,1
373,556,53,0.103740697177581,1
373,557,53,0.192167028410948,1
373,558,53,0.269736027768865,1
373,559,53,0.262566896673075,1
373,560,53,0.265536132117209,1
373,561,53,0.199571860488969,1
374,522,53,0.113748631904897,1
374,523,53,0.133937655200619,1
374,557,53,0.129249342844959,1
374,558,53,0.178969254843061,1
374,559,53,0.209269150951046,1
374,560,53,0.231569505172995,1
375,523,53,0.105506787927692,1
375,558,53,0.138799644257484,1
376,558,53,0.144913491142327,1
377,558,53,0.117916807376303,1
377,559,53,0.154220433850536,1
388,556,53,0.103979045139138,1
388,557,53,0.186297618629407,1
398,549,53,0.103163699255928,1
399,549,53,0.113565663543749,1
404,544,53,0.10398197533436,1
404,545,53,0.154920652472391,1
405,544,53,0.144847981127209,1
367,527,54,0.100206249950198,1
367,551,54,0.101881689828042,1
367,552,54,0.143653561661339,1
368,525,54,0.101222646440165,1
368,526,54,0.123649565488463,1
368,527,54,0.144625079324853,1
368,528,54,0.11033895217222,1
368,552,54,0.124719718533903,1
368,553,54,0.114073393393214,1
369,523,54,0.112266748305509,1
369,524,54,0.100735515100609,1
369,525,54,0.100367748367914,1
369,526,54,0.12383800209497,1
369,527,54,0.153495085264451,1
369,528,54,0.112933373165039,1
369,552,54,0.10366418531423,1
369,553,54,0.104474248131705,1
369,554,54,0.103283946189233,1
370,522,54,0.116654819133616,1
370,523,54,0.182926107685053,1
370,524,54,0.126946492616136,1
370,527,54,0.100018151024181,1
370,554,54,0.112386232734481,1
371,522,54,0.10662528374784,1
371,523,54,0.158607175742519,1
371,524,54,0.114315880664007,1
371,554,54,0.114461203096946,1
371,555,54,0.101458009741905,1
371,559,54,0.197759213402872,1
371,560,54,0.239986027999957,1
372,523,54,0.116520640156857,1
372,524,54,0.101011029701937,1
372,557,54,0.144293858335544,1
372,558,54,0.214083189378288,1
372,559,54,0.247247836050956,1
372,560,54,0.272759466378152,1
372,561,54,0.220638025197626,1
373,523,54,0.113801092203003,1
373,557,54,0.145405546081291,1
373,558,54,0.232412050675053,1
373,559,54,0.264751449801102,1
373,560,54,0.268532774145652,1
373,561,54,0.195852930784691,1
374,522,54,0.1045664022268,1
374,523,54,0.116441045597417,1
374,558,54,0.151594989824285,1
374,559,54,0.202800739551387,1
374,560,54,0.234891562264898,1
375,558,54,0.117421440989951,1
375,559,54,0.194223001522604,1
375,560,54,0.227096415111766,1
376,558,54,0.124817155694733,1
376,559,54,0.218335218540479,1
376,560,54,0.225788458750722,1
377,558,54,0.101822377883858,1
377,559,54,0.155927691944901,1
377,560,54,0.151746989616597,1
387,557,54,0.122187365393785,1
388,556,54,0.101077204185117,1
388,557,54,0.189431903582864,1
388,558,54,0.153523668284017,1
389,557,54,0.110175329635291,1
398,549,54,0.11878869840226,1
398,550,54,0.113357543432533,1
399,549,54,0.137683762737907,1
365,530,55,0.11593471004159,1
365,531,55,0.1065359073471,1
365,549,55,0.114532529930832,1
366,529,55,0.103240973623612,1
366,530,55,0.125858442504711,1
366,531,55,0.108532361549111,1
366,551,55,0.110499328619275,1
366,552,55,0.159019734158314,1
367,548,55,0.10131684840404,1
367,551,55,0.116602990624814,1
367,552,55,0.180507836086062,1
367,553,55,0.160827141750352,1
368,526,55,0.112266475982533,1
368,527,55,0.119177020073186,1
368,528,55,0.10374992348001,1
368,551,55,0.100147417294452,1
368,552,55,0.12833506747101,1
368,553,55,0.123704008297835,1
368,554,55,0.107698878955696,1
369,523,55,0.110096715438565,1
369,524,55,0.109049328593923,1
369,525,55,0.103366993804008,1
369,526,55,0.112619504595764,1
369,527,55,0.114464797760229,1
369,553,55,0.101499762300593,1
369,554,55,0.101897767776548,1
370,522,55,0.10396503684525,1
370,523,55,0.169231028791224,1
370,524,55,0.126925098923138,1
370,554,55,0.101345540352797,1
370,556,55,0.103758474421457,1
370,560,55,0.190803801378685,1
371,522,55,0.104307368611982,1
371,523,55,0.152813155853667,1
371,524,55,0.109305137904705,1
371,557,55,0.133933504998464,1
371,559,55,0.198191444430457,1
371,560,55,0.245630891148367,1
371,561,55,0.233657721325015,1
372,522,55,0.10839627631152,1
372,523,55,0.129246074969247,1
372,524,55,0.104351528505778,1
372,557,55,0.120538351737536,1
372,558,55,0.17951968493517,1
372,559,55,0.238442719230092,1
372,560,55,0.279656034853674,1
372,561,55,0.24838956646742,1
373,522,55,0.108894943252342,1
373,523,55,0.120551412347468,1
373,524,55,0.102056956895427,1
373,557,55,0.104856175659154,1
373,558,55,0.177185484885345,1
373,559,55,0.245221578822447,1
373,560,55,0.259567248198976,1
373,561,55,0.200090755580452,1
374,522,55,0.100601771840611,1
374,523,55,0.104957512485001,1
374,558,55,0.126144621273781,1
374,559,55,0.19509410825839,1
374,560,55,0.242859035397274,1
375,558,55,0.103073778209237,1
375,559,55,0.186727976074917,1
375,560,55,0.26075843246789,1
375,561,55,0.181362047904413,1
376,558,55,0.106035345038365,1
376,559,55,0.203408934793175,1
376,560,55,0.257720048773678,1
376,561,55,0.162826504361746,1
377,559,55,0.144819354535967,1
377,560,55,0.168308376762532,1
387,557,55,0.113808902425956,1
387,558,55,0.100038640604899,1
388,557,55,0.163615020985356,1
398,549,55,0.134947744690461,1
398,550,55,0.125028227787009,1
399,549,55,0.155165612435807,1
399,550,55,0.136972738340362,1
400,549,55,0.107436751751871,1
364,531,56,0.100812528038235,1
364,532,56,0.109455514652079,1
364,533,56,0.117524204788193,1
364,534,56,0.102779048498719,1
364,549,56,0.167091648598464,1
365,530,56,0.131465365616099,1
365,531,56,0.151271470128739,1
365,532,56,0.13130877990487,1
365,533,56,0.102728755891502,1
365,548,56,0.111735064927071,1
365,549,56,0.169379553742361,1
365,550,56,0.152786337486985,1
365,551,56,0.122181363395393,1
366,529,56,0.111701024555065,1
366,530,56,0.158747302253075,1
366,531,56,0.1748890288,1
366,532,56,0.130992231677511,1
366,549,56,0.113939824419921,1
366,551,56,0.113327805763549,1
366,552,56,0.172832434791958,1
366,553,56,0.171160426183613,1
367,528,56,0.108327977709127,1
367,529,56,0.11185378685171,1
367,530,56,0.111943424682506,1
367,531,56,0.108006778205336,1
367,551,56,0.120386940162853,1
367,552,56,0.190525770513058,1
367,553,56,0.175820525878954,1
367,554,56,0.125272207387711,1
368,527,56,0.102284150507885,1
368,528,56,0.107163437520189,1
368,551,56,0.105581197457668,1
368,552,56,0.130835014176978,1
368,553,56,0.131345194933228,1
368,554,56,0.115237977153828,1
369,524,56,0.113990138812976,1
369,525,56,0.101077814188583,1
369,526,56,0.100294918311199,1
369,553,56,0.101968332106102,1
369,554,56,0.103952825883004,1
369,556,56,0.0998863249179355,1
370,523,56,0.135709562769499,1
370,524,56,0.121562307913319,1
370,556,56,0.102484787183719,1
370,557,56,0.134253299315698,1
370,560,56,0.193547074110212,1
371,522,56,0.102943738541714,1
371,523,56,0.140251561436587,1
371,524,56,0.106643169920907,1
371,557,56,0.126542463355951,1
371,558,56,0.161903275008345,1
371,559,56,0.197387067716723,1
371,560,56,0.235287519872073,1
371,561,56,0.242276198871015,1
372,522,56,0.114795920713267,1
372,523,56,0.13474855677286,1
372,524,56,0.101935980136547,1
372,558,56,0.148507729602332,1
372,559,56,0.219347650007915,1
372,560,56,0.266107138933388,1
372,561,56,0.265182591536783,1
373,522,56,0.107954263442635,1
373,523,56,0.114261339818364,1
373,558,56,0.130006705720109,1
373,559,56,0.205592594701841,1
373,560,56,0.234733745653818,1
374,558,56,0.105356008142313,1
374,559,56,0.179744438533763,1
374,560,56,0.238994859510491,1
375,559,56,0.176974184041769,1
375,560,56,0.272963185750074,1
375,561,56,0.21192399496579,1
376,559,56,0.171575893008792,1
376,560,56,0.246573912935668,1
376,561,56,0.182380819050732,1
377,559,56,0.124269132937732,1
377,560,56,0.160773548588665,1
377,561,56,0.147063938540834,1
388,557,56,0.127905897353676,1
388,558,56,0.118898052416522,1
398,549,56,0.126193476015685,1
398,550,56,0.117565216628386,1
399,549,56,0.144177609103529,1
399,550,56,0.125805187023515,1
363,533,57,0.191152091572133,1
363,534,57,0.173401317488925,1
364,531,57,0.113754383366151,1
364,532,57,0.134862779921934,1
364,533,57,0.148939982415755,1
364,534,57,0.123135190958383,1
364,547,57,0.108272347571579,1
364,548,57,0.133895597640198,1
364,549,57,0.214658989078846,1
364,550,57,0.229318635953841,1
365,530,57,0.134568899859101,1
365,531,57,0.195998525540606,1
365,532,57,0.184932714087611,1
365,533,57,0.12534203099877,1
365,548,57,0.124044041658649,1
365,549,57,0.209921244656574,1
365,550,57,0.196097302530478,1
365,551,57,0.136127371572272,1
365,552,57,0.173096686114997,1
366,529,57,0.113357968256376,1
366,530,57,0.17356146518468,1
366,531,57,0.241030419291862,1
366,532,57,0.196054166571072,1
366,533,57,0.104005384217382,1
366,549,57,0.130385561444388,1
366,550,57,0.110836442677786,1
366,551,57,0.114174185573109,1
366,552,57,0.17639907059511,1
366,553,57,0.195561566986157,1
367,528,57,0.120578764467182,1
367,529,57,0.12906161427819,1
367,530,57,0.12791676848688,1
367,531,57,0.13863528100206,1
367,532,57,0.108630855323088,1
367,551,57,0.116929723731478,1
367,552,57,0.171396704490552,1
367,553,57,0.170779468125958,1
367,554,57,0.124466643345801,1
368,527,57,0.100824346855396,1
368,528,57,0.124164375735305,1
368,529,57,0.120580648942176,1
368,551,57,0.110008188685511,1
368,552,57,0.129571773248601,1
368,553,57,0.134720910544331,1
368,554,57,0.122919630983461,1
368,555,57,0.101265390254486,1
369,524,57,0.11304365307742,1
369,525,57,0.101881537327175,1
369,553,57,0.106771455828464,1
369,554,57,0.112792810937722,1
369,557,57,0.115866966978068,1
370,523,57,0.109513214444244,1
370,524,57,0.113967165646717,1
370,556,57,0.104969952198547,1
370,557,57,0.128692235393477,1
370,558,57,0.149303163229533,1
371,523,57,0.124325187899122,1
371,524,57,0.10354343730665,1
371,557,57,0.125443324252941,1
371,558,57,0.158103868418185,1
371,560,57,0.216685028448975,1
372,522,57,0.107676657400851,1
372,523,57,0.12614201786613,1
372,558,57,0.133139836024148,1
372,559,57,0.196032751092236,1
372,560,57,0.235026830533561,1
373,523,57,0.100052866757168,1
373,558,57,0.105400069999838,1
373,559,57,0.168772611186262,1
373,560,57,0.206656680391374,1
374,559,57,0.164932454185967,1
374,560,57,0.221995762198692,1
375,559,57,0.166401070209961,1
375,560,57,0.251430499104688,1
375,561,57,0.215326899302823,1
376,559,57,0.13811020962548,1
376,560,57,0.204771835037868,1
376,561,57,0.17973117095837,1
377,559,57,0.101202058823176,1
377,560,57,0.137846622770503,1
377,561,57,0.142958310210567,1
388,558,57,0.108221455853815,1
398,549,57,0.100217164655078,1
398,550,57,0.100957360289817,1
399,549,57,0.120283108858545,1
399,550,57,0.108908940653311,1
403,546,57,0.100426308700684,1
363,532,58,0.132973087219454,1
363,533,58,0.215304263817054,1
363,534,58,0.186558286182081,1
363,535,58,0.0997525489791812,1
363,546,58,0.140467426413242,1
363,548,58,0.131001741195835,1
364,531,58,0.118830712391004,1
364,532,58,0.15265188618725,1
364,533,58,0.163370115486535,1
364,534,58,0.127074331914013,1
364,546,58,0.112283055005315,1
364,547,58,0.122729015793146,1
364,548,58,0.14866135243958,1
364,549,58,0.233641795877376,1
364,550,58,0.250432489862064,1
365,530,58,0.127232562456016,1
365,531,58,0.21628656547042,1
365,532,58,0.221158053152689,1
365,533,58,0.133737770136199,1
365,548,58,0.124754532303161,1
365,549,58,0.213106355970281,1
365,550,58,0.213886332545362,1
365,551,58,0.144471031663762,1
365,552,58,0.17805432589397,1
366,529,58,0.110712546616602,1
366,530,58,0.168044060081979,1
366,531,58,0.268664338821841,1
366,532,58,0.237548192718366,1
366,533,58,0.112867329396888,1
366,549,58,0.130643832554873,1
366,550,58,0.124336897787092,1
366,551,58,0.112622478362663,1
366,552,58,0.164979163022819,1
366,553,58,0.202493036374289,1
366,554,58,0.140716242469998,1
367,528,58,0.126095755638959,1
367,529,58,0.148864026091275,1
367,530,58,0.142593669745637,1
367,531,58,0.158416909125613,1
367,532,58,0.129356561847089,1
367,551,58,0.109757760476736,1
367,552,58,0.139583520497582,1
367,553,58,0.15043189839358,1
367,554,58,0.118615370274464,1
368,528,58,0.136631158185044,1
368,529,58,0.153468408505717,1
368,530,58,0.109199955878436,1
368,551,58,0.107612323820989,1
368,552,58,0.118478086815778,1
368,553,58,0.12615748581117,1
368,554,58,0.124276115298838,1
369,524,58,0.102552138102156,1
369,525,58,0.102107739684001,1
369,553,58,0.103138427683751,1
369,554,58,0.115875659527463,1
369,557,58,0.110492378936926,1
370,524,58,0.104015786955067,1
370,556,58,0.104924735691604,1
370,557,58,0.122044112615464,1
370,558,58,0.136429323288115,1
371,523,58,0.106114024592605,1
371,524,58,0.100082081566039,1
371,557,58,0.123431935858924,1
371,558,58,0.144391437104322,1
371,559,58,0.174025459964191,1
372,523,58,0.109353306392708,1
372,558,58,0.117641652241303,1
372,559,58,0.162457419585848,1
373,559,58,0.134007674884221,1
373,560,58,0.175675911485753,1
374,559,58,0.139299890671567,1
374,560,58,0.185785346432701,1
374,561,58,0.183337151985102,1
375,559,58,0.143078470000519,1
375,560,58,0.200383600815976,1
375,561,58,0.18485108255231,1
376,559,58,0.106969020701128,1
376,560,58,0.155432837525744,1
376,561,58,0.153759260337056,1
377,560,58,0.109482823200117,1
377,561,58,0.12507426126288,1
378,561,58,0.123023473180688,1
379,561,58,0.117271913890262,1
385,525,58,0.115537183854072,1
387,559,58,0.107961801342612,1
388,558,58,0.103816914932118,1
388,559,58,0.147774363827832,1
389,558,58,0.103802808601958,1
362,535,59,0.114747654188992,1
363,532,59,0.143778775765726,1
363,533,59,0.212725561306412,1
363,534,59,0.177437350959433,1
363,545,59,0.104903494499472,1
363,546,59,0.14705511527641,1
363,547,59,0.146266565974043,1
363,548,59,0.148981462651467,1
363,549,59,0.176957920913639,1
364,531,59,0.126608474445345,1
364,532,59,0.173047689765146,1
364,533,59,0.171022336648918,1
364,534,59,0.123345761976383,1
364,546,59,0.121050460540456,1
364,547,59,0.126216274895239,1
364,548,59,0.151655151416154,1
364,549,59,0.220606196088185,1
364,550,59,0.224922449901048,1
364,551,59,0.160863741958333,1
365,530,59,0.117031550738682,1
365,531,59,0.209433132954303,1
365,532,59,0.230398298517604,1
365,533,59,0.135710532239293,1
365,548,59,0.116780087702598,1
365,549,59,0.182512884801197,1
365,550,59,0.191495872097097,1
365,551,59,0.141925846665013,1
365,552,59,0.167309452514708,1
366,529,59,0.108286606402605,1
366,530,59,0.151733122930656,1
366,531,59,0.248062495680266,1
366,532,59,0.23676634256121,1
366,533,59,0.113729122686893,1
366,549,59,0.120515650894253,1
366,550,59,0.127269674631192,1
366,551,59,0.109817824032334,1
366,552,59,0.1423998956088,1
366,553,59,0.180211733867744,1
366,554,59,0.13757001887727,1
367,528,59,0.12510587251394,1
367,529,59,0.15907777163097,1
367,530,59,0.153468190647336,1
367,531,59,0.163971143187595,1
367,532,59,0.138779198248442,1
367,550,59,0.104624515949889,1
367,551,59,0.10429227102619,1
367,552,59,0.111764911525246,1
367,553,59,0.124769281315544,1
367,554,59,0.111923283675197,1
368,528,59,0.133378390951167,1
368,529,59,0.167993473365948,1
368,530,59,0.126161276546997,1
368,551,59,0.100051799251102,1
368,552,59,0.101298787944268,1
368,553,59,0.110759059380912,1
368,554,59,0.122763884026999,1
369,529,59,0.103222553697512,1
369,554,59,0.111776044088507,1
369,557,59,0.107383115018508,1
370,556,59,0.111528622325388,1
370,557,59,0.128411677370632,1
370,558,59,0.125125142087725,1
371,556,59,0.101474414477982,1
371,557,59,0.129149117096854,1
371,558,59,0.129664548240082,1
371,559,59,0.147035551593811,1
372,558,59,0.105944596129827,1
372,559,59,0.13361883035318,1
372,560,59,0.176942681719899,1
373,559,59,0.117497321063997,1
373,560,59,0.162109728502947,1
374,559,59,0.120321005323892,1
374,560,59,0.156482871349713,1
374,561,59,0.173385239540419,1
375,559,59,0.117752182690822,1
375,560,59,0.148253565122326,1
375,561,59,0.149834138568233,1
376,560,59,0.114439515295133,1
376,561,59,0.122623103941301,1
377,561,59,0.107444104472224,1
378,561,59,0.110886974929221,1
379,561,59,0.109172669116236,1
384,525,59,0.102937224576127,1
385,525,59,0.134749101418812,1
387,559,59,0.115778886834694,1
387,560,59,0.105390658517786,1
388,558,59,0.11196554820108,1
388,559,59,0.163630859289643,1
389,558,59,0.130679833652307,1
389,559,59,0.147630686225668,1
390,558,59,0.102522345968576,1
405,535,59,0.112132198969503,1
405,536,59,0.100037344347533,1
406,537,59,0.10215333744311,1
362,534,60,0.171895284288021,1
362,535,60,0.143631645108226,1
362,537,60,0.102996678128258,1
362,540,60,0.104326616399929,1
363,531,60,0.0999391991469652,1
363,532,60,0.146984224159285,1
363,533,60,0.185012079895751,1
363,534,60,0.156207324069627,1
363,535,60,0.110125952033274,1
363,540,60,0.10204987649805,1
363,545,60,0.108947697659262,1
363,546,60,0.134842181412025,1
363,547,60,0.133742475877225,1
363,548,60,0.157743203868706,1
363,549,60,0.195261510638227,1
364,531,60,0.129530543550027,1
364,532,60,0.178029773254449,1
364,533,60,0.167090493949046,1
364,534,60,0.114835647189013,1
364,546,60,0.117610389563653,1
364,547,60,0.119264827893584,1
364,548,60,0.144811337347552,1
364,549,60,0.192441007110692,1
364,550,60,0.18380288963166,1
364,551,60,0.150872669469694,1
365,530,60,0.107039269136029,1
365,531,60,0.18337901347298,1
365,532,60,0.209415704283836,1
365,533,60,0.138384362611928,1
365,548,60,0.112155607852524,1
365,549,60,0.149463724856211,1
365,550,60,0.155604967432445,1
365,551,60,0.136011046089823,1
365,552,60,0.148767460363968,1
365,553,60,0.174970235511457,1
366,529,60,0.106965534967034,1
366,530,60,0.138126647040315,1
366,531,60,0.206126020947326,1
366,532,60,0.203195019649029,1
366,533,60,0.115922749616482,1
366,549,60,0.111410706476759,1
366,550,60,0.124924788627787,1
366,551,60,0.113454218089031,1
366,552,60,0.121808542348262,1
366,553,60,0.143417011031424,1
366,554,60,0.125493834718539,1
367,528,60,0.119801325942238,1
367,529,60,0.157991747602486,1
367,530,60,0.1618805959509,1
367,531,60,0.162662522358489,1
367,532,60,0.134479730423823,1
367,550,60,0.109493868620026,1
367,551,60,0.102067032845541,1
367,553,60,0.102861388073757,1
367,554,60,0.104794696024081,1
368,528,60,0.118129273762216,1
368,529,60,0.16032403049856,1
368,530,60,0.13378744184703,1
368,554,60,0.112211902458133,1
369,554,60,0.100343424479693,1
369,557,60,0.108061896375689,1
370,556,60,0.114871419535147,1
370,557,60,0.135224021796122,1
370,558,60,0.116089204312362,1
371,556,60,0.101150480851512,1
371,557,60,0.132036481361469,1
371,558,60,0.117538223975,1
371,559,60,0.124430206531605,1
372,559,60,0.11585283886207,1
373,559,60,0.107945919466649,1
373,560,60,0.15038107203333,1
374,559,60,0.10187170102128,1
374,560,60,0.132213534867577,1
375,560,60,0.110918401000657,1
375,561,60,0.125769567178248,1
384,525,60,0.104631389381804,1
385,525,60,0.132451861043296,1
387,559,60,0.115797840513827,1
387,560,60,0.118895808475199,1
388,558,60,0.109374373298136,1
388,559,60,0.154400177907647,1
388,560,60,0.121943930439035,1
389,557,60,0.100060840373907,1
389,558,60,0.145285277362148,1
389,559,60,0.153626606368963,1
390,557,60,0.118047849192378,1
390,558,60,0.116413856871488,1
402,532,60,0.10043988127781,1
402,533,60,0.106868206735395,1
403,547,60,0.103215712944354,1
405,535,60,0.118319442342851,1
405,536,60,0.122317862563907,1
405,537,60,0.113285192664256,1
406,536,60,0.107890365579535,1
406,537,60,0.134661021275439,1
406,538,60,0.128878940025856,1
361,540,61,0.142035091750084,1
362,534,61,0.161253675781278,1
362,535,61,0.166469782743278,1
362,536,61,0.123484690265844,1
362,537,61,0.100818421107437,1
362,539,61,0.100129650943495,1
362,540,61,0.123025684443254,1
362,541,61,0.117657000364233,1
362,542,61,0.108889671079525,1
362,543,61,0.111614850672524,1
362,544,61,0.117379328964935,1
362,545,61,0.112284830551119,1
362,546,61,0.11004685854811,1
362,548,61,0.133162743832893,1
363,531,61,0.104225475646624,1
363,532,61,0.13402985286739,1
363,533,61,0.145984210619557,1
363,534,61,0.130238714002783,1
363,535,61,0.117504129138398,1
363,540,61,0.107496379590706,1
363,545,61,0.108273371505969,1
363,546,61,0.113568746239838,1
363,547,61,0.115917934946265,1
363,548,61,0.149854170646351,1
363,549,61,0.191520032591532,1
363,550,61,0.178462145889982,1
364,531,61,0.120515618215496,1
364,532,61,0.156455225121184,1
364,533,61,0.14827784543887,1
364,534,61,0.102984902882774,1
364,539,61,0.101837682435112,1
364,540,61,0.103925299476585,1
364,545,61,0.101631141797158,1
364,546,61,0.108981040884449,1
364,547,61,0.108235104681375,1
364,548,61,0.132010098711549,1
364,549,61,0.159898182721534,1
364,550,61,0.151216863925582,1
364,551,61,0.145222348968843,1
365,531,61,0.144283618991645,1
365,532,61,0.168087686222742,1
365,533,61,0.138591110215345,1
365,547,61,0.103173829670637,1
365,548,61,0.118326304881847,1
365,549,61,0.130686609047951,1
365,550,61,0.130657895313356,1
365,551,61,0.136421959674843,1
365,552,61,0.136569253726128,1
366,528,61,0.104725003128051,1
366,529,61,0.106864949752601,1
366,530,61,0.124323771819646,1
366,531,61,0.156714019091783,1
366,532,61,0.156373985730969,1
366,533,61,0.11807772846931,1
366,549,61,0.109908997764715,1
366,550,61,0.122264465474764,1
366,551,61,0.120974852789386,1
366,552,61,0.112469748744775,1
366,553,61,0.116255539186133,1
366,554,61,0.114627232968983,1
367,528,61,0.112749827479182,1
367,529,61,0.144559351451354,1
367,530,61,0.156649750869436,1
367,531,61,0.14736403846044,1
367,532,61,0.115365478771214,1
367,550,61,0.106790409507597,1
367,551,61,0.101998668885633,1
368,528,61,0.101608865777717,1
368,529,61,0.136803179162554,1
368,530,61,0.128215659292472,1
369,557,61,0.109276522206382,1
370,556,61,0.110383667604887,1
370,557,61,0.133571326333238,1
370,558,61,0.117071048463128,1
371,557,61,0.128437275730381,1
371,558,61,0.118973671060511,1
371,559,61,0.120742800935035,1
372,558,61,0.106848218228953,1
372,559,61,0.119734879136082,1
373,559,61,0.107010424686406,1
373,560,61,0.141997369571442,1
374,560,61,0.114331675396618,1
374,561,61,0.147008853049239,1
375,561,61,0.120521620213888,1
380,562,61,0.107180942441089,1
381,562,61,0.100426744417445,1
385,524,61,0.103511629983048,1
385,525,61,0.11041683654337,1
387,559,61,0.112076830262013,1
387,560,61,0.12625958514135,1
388,559,61,0.128549189580618,1
388,560,61,0.110172236046283,1
389,557,61,0.105323307599349,1
389,558,61,0.136140835220208,1
389,559,61,0.132993761979795,1
390,557,61,0.135390835958331,1
390,558,61,0.121368729849024,1
402,532,61,0.107985177546876,1
402,533,61,0.105115339989,1
405,535,61,0.104955312115355,1
405,536,61,0.132889233528668,1
405,537,61,0.149042855143187,1
405,538,61,0.119223402122467,1
406,536,61,0.107572880561138,1
406,537,61,0.153391722355661,1
406,538,61,0.150939780743911,1
406,539,61,0.106480462389177,1
361,536,62,0.120825107831316,1
361,539,62,0.118537540367909,1
361,540,62,0.15349463865477,1
361,541,62,0.14756381459567,1
362,533,62,0.116703499588814,1
362,534,62,0.143230066754826,1
362,535,62,0.172384430817601,1
362,536,62,0.126777347369253,1
362,539,62,0.107930309913662,1
362,540,62,0.135351763057727,1
362,541,62,0.126208584494396,1
362,542,62,0.114219892261409,1
362,543,62,0.125581675217693,1
362,544,62,0.133800273705662,1
362,545,62,0.12103312990626,1
362,546,62,0.109961349133631,1
362,547,62,0.113286706780003,1
363,532,62,0.115064703490627,1
363,533,62,0.11257623792133,1
363,534,62,0.11007186869023,1
363,535,62,0.120059477230614,1
363,539,62,0.099998358590282,1
363,540,62,0.111419540634102,1
363,544,62,0.104316279019758,1
363,545,62,0.111046654229457,1
363,546,62,0.101497256929213,1
363,547,62,0.104063487047551,1
363,548,62,0.13503053087518,1
363,549,62,0.173124942346992,1
363,550,62,0.175149075456288,1
364,531,62,0.105530708777908,1
364,532,62,0.124899898307776,1
364,533,62,0.124321702165028,1
364,539,62,0.106092565542093,1
364,540,62,0.110021456260904,1
364,545,62,0.118354212540433,1
364,546,62,0.110553640713618,1
364,547,62,0.107010860403168,1
364,548,62,0.122709463003466,1
364,549,62,0.131706796273745,1
364,550,62,0.131152248658237,1
364,551,62,0.139185155555298,1
364,552,62,0.132123581142128,1
365,531,62,0.107976539462076,1
365,532,62,0.129720330878496,1
365,533,62,0.135636090030561,1
365,545,62,0.107652867265663,1
365,546,62,0.112921565240798,1
365,547,62,0.12302175209948,1
365,548,62,0.131562813669848,1
365,549,62,0.120204026266301,1
365,550,62,0.116587076070094,1
365,551,62,0.134586938533034,1
365,552,62,0.126706140357475,1
365,553,62,0.112671496498351,1
366,528,62,0.101157223568399,1
366,529,62,0.0999539263735099,1
366,530,62,0.106741336907313,1
366,531,62,0.115666319409315,1
366,532,62,0.1182076918864,1
366,533,62,0.116926314247817,1
366,548,62,0.102802217737521,1
366,549,62,0.105895055134024,1
366,550,62,0.114761215873199,1
366,551,62,0.121483312464427,1
366,552,62,0.107640383980441,1
366,553,62,0.100596684847419,1
366,554,62,0.106605001132584,1
367,529,62,0.120400687026684,1
367,530,62,0.13436572513313,1
367,531,62,0.12285870688726,1
368,529,62,0.108399217399661,1
368,530,62,0.112129660919366,1
369,557,62,0.108448072141564,1
370,556,62,0.103148111488779,1
370,557,62,0.121410536872307,1
370,558,62,0.11480850203476,1
371,557,62,0.123681405490823,1
371,558,62,0.123853753255905,1
371,559,62,0.120819802979743,1
372,557,62,0.102661949619018,1
372,558,62,0.12133989629232,1
372,559,62,0.129460730831887,1
373,559,62,0.109552396274038,1
373,560,62,0.134781932676804,1
374,560,62,0.100139432784794,1
374,561,62,0.136073211978796,1
375,561,62,0.120656539909142,1
380,562,62,0.104594952567609,1
381,562,62,0.102341610655832,1
385,523,62,0.102359518614737,1
385,524,62,0.109430515402878,1
386,560,62,0.10470442640398,1
387,559,62,0.116213241981493,1
387,560,62,0.124800968817037,1
387,561,62,0.106117967829298,1
388,559,62,0.119326274849899,1
388,560,62,0.105270400691563,1
389,557,62,0.110252484180865,1
389,558,62,0.120572773361709,1
389,559,62,0.108375721373288,1
390,557,62,0.15107692259465,1
390,558,62,0.131375923857845,1
391,557,62,0.100915389872749,1
402,532,62,0.109319897810007,1
403,532,62,0.102930231322102,1
403,533,62,0.106166234353573,1
404,536,62,0.108042790195689,1
404,537,62,0.101338100489091,1
405,536,62,0.130418556096166,1
405,537,62,0.173485585110633,1
405,538,62,0.152373386926105,1
406,537,62,0.149643686771704,1
406,538,62,0.157407658390537,1
361,536,63,0.117945009143703,1
361,539,63,0.124866239187936,1
361,540,63,0.151014103130535,1
361,541,63,0.143485168025869,1
362,533,63,0.119624490294511,1
362,534,63,0.137284362968314,1
362,535,63,0.163854839490984,1
362,536,63,0.128470586276811,1
362,539,63,0.113103945384317,1
362,540,63,0.139886790256629,1
362,541,63,0.131427687009132,1
362,542,63,0.115182586660499,1
362,543,63,0.127343920767382,1
362,544,63,0.138580064795436,1
362,545,63,0.125405318858404,1
362,546,63,0.108256356766426,1
362,547,63,0.113230728069047,1
363,532,63,0.109761943357649,1
363,533,63,0.105302621946089,1
363,534,63,0.110511365294816,1
363,535,63,0.123520364575707,1
363,536,63,0.109313590809881,1
363,539,63,0.101599073043498,1
363,540,63,0.11242080685952,1
363,544,63,0.115663007961926,1
363,545,63,0.121793019938628,1
363,546,63,0.106630185561409,1
363,547,63,0.107665503051752,1
363,548,63,0.127999500207004,1
363,549,63,0.153863298606826,1
364,532,63,0.106693353598933,1
364,533,63,0.113237492571772,1
364,534,63,0.102653681893465,1
364,537,63,0.106332427619397,1
364,538,63,0.10455003016948,1
364,539,63,0.105630161128761,1
364,540,63,0.108077190034024,1
364,544,63,0.114808915965684,1
364,545,63,0.144196029029629,1
364,546,63,0.132560931841663,1
364,547,63,0.128172566904742,1
364,548,63,0.130731422516889,1
364,549,63,0.119153600297246,1
364,550,63,0.123674695452693,1
364,551,63,0.140215407838287,1
364,552,63,0.137609908746802,1
365,532,63,0.108313914950644,1
365,533,63,0.133601608648175,1
365,534,63,0.115891552296345,1
365,545,63,0.126766835702377,1
365,546,63,0.136669806261805,1
365,547,63,0.148940472597112,1
365,548,63,0.148583239317131,1
365,549,63,0.116355329217476,1
365,550,63,0.10935169424069,1
365,551,63,0.131697275862502,1
365,552,63,0.134524739965305,1
365,553,63,0.116975168989721,1
366,533,63,0.116249831296555,1
366,534,63,0.102811182609892,1
366,548,63,0.109645628768118,1
366,549,63,0.102259804833826,1
366,550,63,0.106860505441632,1
366,551,63,0.120006897110398,1
366,552,63,0.121454402657289,1
366,553,63,0.114574042845301,1
366,554,63,0.117935968020898,1
367,530,63,0.112631824487201,1
367,531,63,0.107016263291013,1
367,552,63,0.100524323186223,1
367,553,63,0.101813652655706,1
369,557,63,0.101142953844454,1
370,557,63,0.107388746657653,1
370,558,63,0.110463294843084,1
371,557,63,0.123964229240828,1
371,558,63,0.130101299829069,1
371,559,63,0.124084999034247,1
372,528,63,0.114818131375194,1
372,557,63,0.116121523603159,1
372,558,63,0.135073721299181,1
372,559,63,0.14041241717208,1
373,558,63,0.104114160906935,1
373,559,63,0.119201049852593,1
373,560,63,0.136883100509565,1
374,560,63,0.101246817827519,1
374,561,63,0.13839821840495,1
375,561,63,0.131504591017569,1
376,561,63,0.109036921559135,1
380,562,63,0.101633440203076,1
381,562,63,0.103325230352402,1
384,524,63,0.106841617120013,1
385,523,63,0.10441631958824,1
385,524,63,0.115166541390751,1
387,559,63,0.115130714580022,1
387,560,63,0.113252481228373,1
388,559,63,0.11618166340919,1
388,560,63,0.101652807813132,1
389,557,63,0.10422609654301,1
389,558,63,0.0997031278054878,1
390,557,63,0.148676014308611,1
390,558,63,0.132374619354369,1
391,557,63,0.115173970361537,1
391,558,63,0.113656183700988,1
402,532,63,0.110775061078984,1
403,532,63,0.125951195710353,1
403,533,63,0.123529318555159,1
404,536,63,0.12739840714843,1
404,537,63,0.122028982350915,1
405,536,63,0.118004266623291,1
405,537,63,0.168410356270603,1
405,538,63,0.158943058901178,1
405,539,63,0.102447980010276,1
406,537,63,0.123353626663931,1
361,536,64,0.113745189742479,1
361,537,64,0.107924623809922,1
361,538,64,0.114768078412196,1
361,539,64,0.12952346315265,1
361,540,64,0.150917755261608,1
361,541,64,0.151151582661763,1
362,534,64,0.127766380846587,1
362,535,64,0.148864178592142,1
362,536,64,0.132133776914351,1
362,537,64,0.106858555609123,1
362,538,64,0.103827078025584,1
362,539,64,0.124979285901753,1
362,540,64,0.154899650924478,1
362,541,64,0.14818268489812,1
362,542,64,0.121166764237067,1
362,543,64,0.124513787899414,1
362,544,64,0.134274159255663,1
362,545,64,0.121305768776962,1
362,546,64,0.0997043369195015,1
362,547,64,0.104260681560968,1
363,533,64,0.100459227102028,1
363,534,64,0.116894626746324,1
363,535,64,0.136778691880548,1
363,536,64,0.131825714270926,1
363,537,64,0.119879689601826,1
363,538,64,0.111092502525705,1
363,539,64,0.11786214670855,1
363,540,64,0.127532891126922,1
363,541,64,0.108498342962943,1
363,544,64,0.119282212992375,1
363,545,64,0.122456387815364,1
363,546,64,0.107031295519291,1
363,547,64,0.10832031998704,1
363,548,64,0.121163387432164,1
363,549,64,0.134543726323195,1
364,533,64,0.10246430849592,1
364,534,64,0.11750536003825,1
364,535,64,0.111013953686493,1
364,536,64,0.112311975705372,1
364,537,64,0.125905314735349,1
364,538,64,0.120462950951928,1
364,539,64,0.112950028438254,1
364,540,64,0.108665843379051,1
364,544,64,0.124245473517573,1
364,545,64,0.151786302161419,1
364,546,64,0.144264523704564,1
364,547,64,0.143487520896382,1
364,548,64,0.134596480730115,1
364,549,64,0.109672044096795,1
364,550,64,0.114652134181913,1
364,551,64,0.136542478931123,1
365,533,64,0.1248707379635,1
365,534,64,0.143384778883979,1
365,535,64,0.107334009739467,1
365,537,64,0.109481712122375,1
365,538,64,0.104529279158705,1
365,545,64,0.130273190091551,1
365,546,64,0.146877190336779,1
365,547,64,0.162425623155164,1
365,548,64,0.154515817136197,1
365,549,64,0.11294371054521,1
365,550,64,0.104415578869745,1
365,551,64,0.128127579149099,1
365,552,64,0.141690505149111,1
365,553,64,0.128875617685549,1
366,533,64,0.115024563083958,1
366,534,64,0.131374115633284,1
366,548,64,0.108391036817461,1
366,550,64,0.100331714591723,1
366,551,64,0.119225460884166,1
366,552,64,0.138769459978819,1
366,553,64,0.142918300518926,1
366,554,64,0.135261537009303,1
367,552,64,0.115299075536734,1
367,553,64,0.126433860953103,1
367,554,64,0.114783960288159,1
368,553,64,0.101352293962603,1
370,557,64,0.103086010957321,1
370,558,64,0.10479846497407,1
371,528,64,0.122537747027688,1
371,529,64,0.119741033635341,1
371,556,64,0.11099386714378,1
371,557,64,0.13627805332138,1
371,558,64,0.136511978757806,1
372,527,64,0.100270420136274,1
372,528,64,0.165566607253832,1
372,529,64,0.138733012271704,1
372,557,64,0.138809905387222,1
372,558,64,0.153760284271446,1
372,559,64,0.155443730444786,1
373,528,64,0.129928614383497,1
373,558,64,0.124460957242061,1
373,559,64,0.145073627945163,1
373,560,64,0.147237854886258,1
374,560,64,0.110744430190638,1
376,561,64,0.116494203042342,1
384,524,64,0.115563915077401,1
385,524,64,0.115420999979571,1
387,559,64,0.10795579934422,1
387,560,64,0.102722797464786,1
388,559,64,0.115257235834694,1
390,557,64,0.130774384189591,1
390,558,64,0.128417265438101,1
391,557,64,0.128879146991318,1
391,558,64,0.13927495677988,1
402,532,64,0.120595321704126,1
402,533,64,0.103910975288045,1
403,532,64,0.160525309856618,1
403,533,64,0.141269221505163,1
403,536,64,0.111367919090762,1
404,536,64,0.135904785664569,1
404,537,64,0.131772262717187,1
405,536,64,0.101165763616928,1
405,537,64,0.142064731382798,1
361,537,65,0.114409864769501,1
361,538,65,0.121356355492993,1
361,539,65,0.129623100683127,1
361,540,65,0.145522318173421,1
361,541,65,0.155895459797456,1
362,534,65,0.114863173595432,1
362,535,65,0.139285294160051,1
362,536,65,0.137841481312715,1
362,537,65,0.121388206388271,1
362,538,65,0.117474195396871,1
362,539,65,0.139103055624479,1
362,540,65,0.167347381658812,1
362,541,65,0.167560610549059,1
362,542,65,0.137406734020831,1
362,543,65,0.127338811988352,1
362,544,65,0.128004783272739,1
362,545,65,0.116815108437318,1
362,547,65,0.10638514934756,1
363,534,65,0.125870773289067,1
363,535,65,0.168105125786128,1
363,536,65,0.162746049261702,1
363,537,65,0.1432510465169,1
363,538,65,0.137905564355439,1
363,539,65,0.14917880966575,1
363,540,65,0.150933789638438,1
363,541,65,0.127783722373701,1
363,542,65,0.102798350751261,1
363,543,65,0.103422090188523,1
363,544,65,0.117733621156774,1
363,545,65,0.11716505435446,1
363,546,65,0.10763357590604,1
363,547,65,0.113782443525603,1
363,548,65,0.127556550547081,1
363,549,65,0.129724219650593,1
364,534,65,0.131891768931996,1
364,535,65,0.147430997233791,1
364,536,65,0.136223784798713,1
364,537,65,0.142032085304429,1
364,538,65,0.141944310162789,1
364,539,65,0.131568543345264,1
364,540,65,0.112944233405324,1
364,544,65,0.115234240882596,1
364,545,65,0.136984263048708,1
364,546,65,0.141860805045413,1
364,547,65,0.149381505103283,1
364,548,65,0.1416301474847,1
364,549,65,0.116236748900785,1
364,550,65,0.116114759100434,1
364,551,65,0.13319666438279,1
365,533,65,0.1098273008719,1
365,534,65,0.155044537640655,1
365,535,65,0.129852255021013,1
365,536,65,0.102763319123622,1
365,537,65,0.113865305960755,1
365,538,65,0.112146000297929,1
365,545,65,0.113600684278469,1
365,546,65,0.136570560876413,1
365,547,65,0.15655886035295,1
365,548,65,0.150406245569236,1
365,549,65,0.118742882784769,1
365,550,65,0.116918035629346,1
365,551,65,0.139110898526189,1
365,552,65,0.146356574164087,1
366,533,65,0.109704722853921,1
366,534,65,0.144440389882497,1
366,535,65,0.106123425181739,1
366,548,65,0.101813761584896,1
366,550,65,0.108478387135258,1
366,551,65,0.136338062412382,1
366,552,65,0.155568225616517,1
366,553,65,0.165811610788924,1
367,534,65,0.101135971483348,1
367,551,65,0.102559893860513,1
367,552,65,0.123134112559398,1
367,553,65,0.142720256357824,1
367,554,65,0.130108554513151,1
368,553,65,0.111500485915503,1
368,554,65,0.107470443550467,1
369,554,65,0.100411516116625,1
370,556,65,0.103612106268291,1
370,557,65,0.110725857763672,1
371,528,65,0.126256230122285,1
371,529,65,0.125953221793295,1
371,556,65,0.124221770525737,1
371,557,65,0.142986424834614,1
371,558,65,0.133988405310436,1
372,527,65,0.110624030756467,1
372,528,65,0.187943473339133,1
372,529,65,0.1639690299613,1
372,556,65,0.121783728278685,1
372,557,65,0.156993890860728,1
372,558,65,0.163255402156104,1
372,559,65,0.159094328867914,1
373,527,65,0.111818591830285,1
373,528,65,0.168737405271919,1
373,529,65,0.126712283963815,1
373,557,65,0.120935322386183,1
373,558,65,0.147558814745829,1
373,559,65,0.172549654613629,1
373,560,65,0.155648375714827,1
374,527,65,0.110698146177629,1
374,528,65,0.130478042327054,1
374,559,65,0.111161204166103,1
374,560,65,0.126490133772873,1
375,527,65,0.114843838664133,1
375,528,65,0.10446861649256,1
376,527,65,0.119185571014634,1
376,561,65,0.113318481424849,1
377,527,65,0.113030145857808,1
383,524,65,0.104668425306547,1
384,524,65,0.106175656728545,1
385,524,65,0.100342705547037,1
388,559,65,0.110503108462183,1
389,558,65,0.101689168376894,1
389,559,65,0.105859772969247,1
390,557,65,0.105477834548879,1
390,558,65,0.131461520415677,1
390,559,65,0.0999182847424046,1
391,557,65,0.132943915982259,1
391,558,65,0.159879730116677,1
392,557,65,0.117844086248779,1
392,558,65,0.115416740848225,1
402,532,65,0.125550978971833,1
402,533,65,0.102904142780996,1
403,533,65,0.145569604334982,1
403,536,65,0.113116722778353,1
404,536,65,0.117956686352916,1
404,537,65,0.120609003210443,1
361,538,66,0.118533978383382,1
361,539,66,0.118354789865142,1
361,540,66,0.127762197965675,1
361,541,66,0.138409721327458,1
361,542,66,0.127155190052061,1
362,535,66,0.122212528036772,1
362,536,66,0.130004211241648,1
362,537,66,0.127019943569236,1
362,538,66,0.126495721840342,1
362,539,66,0.139931069972534,1
362,540,66,0.154818411534263,1
362,541,66,0.166547569078156,1
362,542,66,0.152737145064592,1
362,543,66,0.131948303181824,1
362,544,66,0.118251982495224,1
362,545,66,0.106787806099946,1
363,534,66,0.122153935025245,1
363,535,66,0.187082192016323,1
363,536,66,0.1741633861051,1
363,537,66,0.15152568907334,1
363,538,66,0.169354543600241,1
363,539,66,0.181671428591043,1
363,540,66,0.16023261712196,1
363,541,66,0.146247133006473,1
363,542,66,0.1334694230756,1
363,543,66,0.118764461657391,1
363,544,66,0.110552050347438,1
363,545,66,0.10432729176091,1
363,546,66,0.10137403622901,1
363,547,66,0.109204127866429,1
363,548,66,0.122812673411388,1
363,549,66,0.120519419844242,1
364,534,66,0.132769868921807,1
364,535,66,0.185275013175586,1
364,536,66,0.153321746243736,1
364,537,66,0.143329769642817,1
364,538,66,0.169136990221135,1
364,539,66,0.16091504760702,1
364,540,66,0.115612584639681,1
364,545,66,0.107571987341777,1
364,546,66,0.122719430024389,1
364,547,66,0.136867338455712,1
364,548,66,0.136067918020141,1
364,549,66,0.116959298006677,1
364,550,66,0.109325605699585,1
364,551,66,0.118800680613206,1
365,534,66,0.139471987899511,1
365,535,66,0.144851924363902,1
365,536,66,0.106776248712842,1
365,537,66,0.104284961877513,1
365,538,66,0.113477223934047,1
365,546,66,0.11178454056536,1
365,547,66,0.132960952507641,1
365,548,66,0.132762537987291,1
365,549,66,0.117693949145624,1
365,550,66,0.127542727432817,1
365,551,66,0.156532750026006,1
365,552,66,0.15009329200516,1
366,534,66,0.127364944101133,1
366,535,66,0.103145758618266,1
366,550,66,0.120529419543922,1
366,551,66,0.172002492397232,1
366,552,66,0.175235652376834,1
366,553,66,0.166483638536299,1
367,534,66,0.100479074000523,1
367,551,66,0.112570497352994,1
367,552,66,0.12797520899754,1
367,553,66,0.141923428436985,1
367,554,66,0.139380781488373,1
368,553,66,0.105020538914578,1
368,554,66,0.106763819892215,1
369,554,66,0.102043449675815,1
370,554,66,0.102945470515842,1
370,556,66,0.102560569221494,1
370,557,66,0.109986010702342,1
371,528,66,0.104901490202368,1
371,529,66,0.105507942577111,1
371,555,66,0.104751353099213,1
371,556,66,0.118887704143432,1
371,557,66,0.127159438290488,1
371,558,66,0.117207678346671,1
372,527,66,0.109912886536813,1
372,528,66,0.164942442992728,1
372,529,66,0.149783214171712,1
372,555,66,0.112150967469012,1
372,556,66,0.145795142223746,1
372,557,66,0.154502200987394,1
372,558,66,0.149771351782875,1
372,559,66,0.138643592299289,1
373,527,66,0.126162452982253,1
373,528,66,0.176731783914328,1
373,529,66,0.140143547251367,1
373,556,66,0.115421751590985,1
373,557,66,0.131371849906123,1
373,558,66,0.149885803683249,1
373,559,66,0.170100251052016,1
373,560,66,0.144148230900872,1
374,527,66,0.118348471972098,1
374,528,66,0.14201660646647,1
374,559,66,0.12188986888183,1
374,560,66,0.131158991375124,1
375,527,66,0.114352513550745,1
375,528,66,0.114883728533664,1
376,527,66,0.132587216455311,1
376,528,66,0.124947282505608,1
377,526,66,0.102747023316735,1
377,527,66,0.139143108887796,1
377,528,66,0.122164512049635,1
378,527,66,0.104737279447811,1
381,524,66,0.100279090899831,1
382,524,66,0.100970344649315,1
387,561,66,0.107662845179506,1
388,560,66,0.101306020842512,1
388,561,66,0.115909601863198,1
389,558,66,0.107145485989608,1
389,559,66,0.125382814087663,1
390,558,66,0.125064991388776,1
390,559,66,0.116446219733962,1
391,557,66,0.114479034805417,1
391,558,66,0.150183899305752,1
391,559,66,0.10326612537368,1
392,557,66,0.119748364569856,1
392,558,66,0.123546191686755,1
399,552,66,0.104883495100111,1
403,537,66,0.101470558384641,1
361,541,67,0.114549239668643,1
361,542,67,0.110162247239522,1
362,535,67,0.105865796753477,1
362,536,67,0.117136950623332,1
362,537,67,0.12555430131214,1
362,538,67,0.130021302231625,1
362,539,67,0.132206585185228,1
362,540,67,0.130638560382057,1
362,541,67,0.150759372218738,1
362,542,67,0.160372384166188,1
362,543,67,0.13507612863429,1
362,544,67,0.1131102850632,1
362,545,67,0.102389779143835,1
363,534,67,0.111874951793408,1
363,535,67,0.178567698275498,1
363,536,67,0.161620767152992,1
363,537,67,0.145663610226314,1
363,538,67,0.186557392962719,1
363,539,67,0.196137083470819,1
363,540,67,0.15433192287693,1
363,541,67,0.155830930145052,1
363,542,67,0.164881322823984,1
363,543,67,0.136808810801699,1
363,544,67,0.109225281915208,1
363,547,67,0.106952986324298,1
363,548,67,0.118638615763699,1
363,549,67,0.119671275381796,1
364,534,67,0.125483540910044,1
364,535,67,0.197305610468127,1
364,536,67,0.153535149420687,1
364,537,67,0.134069100054698,1
364,538,67,0.188461191995359,1
364,539,67,0.187873148653798,1
364,540,67,0.121891099781681,1
364,546,67,0.10567770872038,1
364,547,67,0.124397342594856,1
364,548,67,0.131451978218596,1
364,549,67,0.121113988044309,1
364,550,67,0.108687106357021,1
364,551,67,0.111240156043319,1
365,534,67,0.11526103746344,1
365,535,67,0.14470777836622,1
365,536,67,0.106201832413003,1
365,538,67,0.115086423971197,1
365,539,67,0.107213163695615,1
365,547,67,0.110670739593319,1
365,548,67,0.12008135021205,1
365,549,67,0.120878973315979,1
365,550,67,0.136150638847346,1
365,551,67,0.171540131555577,1
365,552,67,0.162762007388099,1
366,534,67,0.102070213577901,1
366,550,67,0.133059805747947,1
366,551,67,0.208660149633248,1
366,552,67,0.20515361006445,1
366,553,67,0.162175815842775,1
367,551,67,0.128208350143795,1
367,552,67,0.142991261290669,1
367,553,67,0.140526487820287,1
367,554,67,0.144031687560043,1
368,553,67,0.100165902578066,1
368,554,67,0.108974973528543,1
369,554,67,0.105014438879915,1
369,556,67,0.104496426114874,1
370,554,67,0.112305178523889,1
370,555,67,0.102454733620082,1
370,556,67,0.101596404278333,1
370,557,67,0.108559419560011,1
371,555,67,0.105072879390575,1
371,556,67,0.108100849454183,1
371,557,67,0.109987481246412,1
371,558,67,0.109515545528919,1
372,527,67,0.106205579577153,1
372,528,67,0.12846025978956,1
372,529,67,0.116325569762653,1
372,555,67,0.129277904078687,1
372,556,67,0.153124301193181,1
372,557,67,0.14278885996195,1
372,558,67,0.135418765402755,1
372,559,67,0.124724424274929,1
373,527,67,0.133170096553246,1
373,528,67,0.162033390926301,1
373,529,67,0.133408390050208,1
373,556,67,0.129321508433612,1
373,557,67,0.131012307327305,1
373,558,67,0.14136499204938,1
373,559,67,0.152814724434009,1
373,560,67,0.132701178174328,1
374,527,67,0.115722036690214,1
374,528,67,0.132851500457107,1
374,529,67,0.104741146434071,1
374,559,67,0.123067262715237,1
374,560,67,0.129335473155824,1
375,527,67,0.104379959024477,1
375,528,67,0.110945360975286,1
376,526,67,0.10108126724392,1
376,527,67,0.133964615175248,1
376,528,67,0.141025764764575,1
377,526,67,0.111090215012706,1
377,527,67,0.149491414656416,1
377,528,67,0.145423225288896,1
378,527,67,0.108970256894598,1
385,562,67,0.12154820158316,1
387,561,67,0.116629209880948,1
388,560,67,0.107294708087563,1
388,561,67,0.133100872052735,1
389,558,67,0.104662118306421,1
389,559,67,0.136102001963823,1
389,560,67,0.112927981170113,1
390,558,67,0.112594843027053,1
390,559,67,0.124611791492035,1
391,558,67,0.125501742977763,1
391,559,67,0.10154663453123,1
392,557,67,0.106454787778995,1
392,558,67,0.116646496943468,1
399,552,67,0.11482829446866,1
362,538,68,0.127658530055152,1
362,539,68,0.117797900272041,1
362,540,68,0.108371462241942,1
362,541,68,0.131192574244531,1
362,542,68,0.155445484204752,1
362,543,68,0.129824521649132,1
362,544,68,0.10317471199708,1
363,535,68,0.142438685293508,1
363,536,68,0.133898211940768,1
363,537,68,0.134239694059815,1
363,538,68,0.183001247040605,1
363,539,68,0.182354632473355,1
363,540,68,0.138116070015925,1
363,541,68,0.150939138061688,1
363,542,68,0.176848207433049,1
363,543,68,0.143139535704668,1
363,544,68,0.103945320661784,1
363,547,68,0.107207335983928,1
363,548,68,0.112798409898109,1
364,534,68,0.11135259275367,1
364,535,68,0.172815093264843,1
364,536,68,0.139932420694496,1
364,537,68,0.124031307836289,1
364,538,68,0.185512260952319,1
364,539,68,0.189298901041362,1
364,540,68,0.123644478495271,1
364,541,68,0.102869100260438,1
364,542,68,0.106229849000778,1
364,547,68,0.113441756589647,1
364,548,68,0.122344637358912,1
364,549,68,0.118348254113717,1
364,550,68,0.10653067874596,1
365,535,68,0.127958738903949,1
365,536,68,0.104154704351609,1
365,538,68,0.114106268222882,1
365,539,68,0.114071639633248,1
365,548,68,0.10772191747947,1
365,549,68,0.116988425672195,1
365,550,68,0.131895004128952,1
365,551,68,0.16577152484685,1
365,552,68,0.164433874388497,1
366,550,68,0.131195373724725,1
366,551,68,0.207356158294735,1
366,552,68,0.209440779783471,1
366,553,68,0.148997758458353,1
367,551,68,0.127145223031138,1
367,552,68,0.145606259007558,1
367,553,68,0.130166733593754,1
367,554,68,0.134134403104355,1
368,554,68,0.106948585585005,1
368,555,68,0.105673482267791,1
369,554,68,0.102087903678425,1
369,555,68,0.104677967503627,1
369,556,68,0.105834882649236,1
370,554,68,0.109385778184372,1
370,555,68,0.104917807795093,1
370,556,68,0.100551707984695,1
370,557,68,0.103757701024205,1
371,555,68,0.10440767061052,1
371,556,68,0.104849835980272,1
371,557,68,0.101131570744055,1
371,558,68,0.104770633565917,1
372,555,68,0.127836596602731,1
372,556,68,0.146089272823717,1
372,557,68,0.127409681319639,1
372,558,68,0.118539065376575,1
372,559,68,0.113945869989989,1
373,527,68,0.125310234568086,1
373,528,68,0.13410160452512,1
373,529,68,0.109960521271783,1
373,556,68,0.125975192811003,1
373,557,68,0.120251203498671,1
373,558,68,0.122228257411868,1
373,559,68,0.127257605276894,1
374,527,68,0.105364842299656,1
374,528,68,0.113834511678624,1
374,559,68,0.110158347574505,1
374,560,68,0.115668236563066,1
375,528,68,0.101765603989812,1
376,526,68,0.101753774279732,1
376,527,68,0.127418700656605,1
376,528,68,0.135203161856157,1
377,526,68,0.111742733542077,1
377,527,68,0.14141013230589,1
377,528,68,0.141221946236521,1
378,527,68,0.104364534651114,1
385,562,68,0.126170927673268,1
387,561,68,0.114850102092582,1
388,560,68,0.112773813686913,1
388,561,68,0.134852224683382,1
389,559,68,0.126800658216003,1
389,560,68,0.124904571370045,1
389,561,68,0.0999843829751512,1
390,559,68,0.116029957725693,1
399,552,68,0.106545253471638,1
362,538,69,0.123435399807179,1
362,539,69,0.109788522080111,1
362,541,69,0.119977823909475,1
362,542,69,0.144173317293426,1
362,543,69,0.125493638645996,1
362,544,69,0.0999054964554493,1
363,536,69,0.110141202119932,1
363,537,69,0.127122957904616,1
363,538,69,0.164539884276613,1
363,539,69,0.154423499647316,1
363,540,69,0.121156851680739,1
363,541,69,0.140301647078342,1
363,542,69,0.168885102361209,1
363,543,69,0.142588495609092,1
363,544,69,0.103424900561635,1
363,547,69,0.114174152894352,1
363,548,69,0.109758991376588,1
364,535,69,0.129787278758927,1
364,536,69,0.119585896682345,1
364,537,69,0.118185230687335,1
364,538,69,0.163292993619718,1
364,539,69,0.165489365564906,1
364,540,69,0.119917596960092,1
364,541,69,0.110273736265916,1
364,542,69,0.115676046786019,1
364,547,69,0.108466916891507,1
364,548,69,0.111031447714475,1
364,549,69,0.109227950680373,1
364,550,69,0.105127071662808,1
364,551,69,0.108388128408076,1
365,535,69,0.107292714683379,1
365,536,69,0.102660076036942,1
365,538,69,0.113063641583862,1
365,539,69,0.11675641738952,1
365,549,69,0.108283589064031,1
365,550,69,0.122623648587253,1
365,551,69,0.152160452144672,1
365,552,69,0.156928097629715,1
366,550,69,0.119523643650021,1
366,551,69,0.18042042041075,1
366,552,69,0.190323336505582,1
366,553,69,0.135731784324344,1
367,551,69,0.11823815938096,1
367,552,69,0.140414181824964,1
367,553,69,0.11971546795435,1
367,554,69,0.111779976432281,1
368,555,69,0.105769884601313,1
369,555,69,0.106826846321792,1
369,556,69,0.10133947299689,1
370,555,69,0.105483019578343,1
371,555,69,0.0997118966053166,1
371,556,69,0.101815776774919,1
372,555,69,0.10796909959837,1
372,556,69,0.123931082088184,1
372,557,69,0.109792552460156,1
372,558,69,0.101300879384725,1
372,559,69,0.104725743846545,1
373,527,69,0.107956038988439,1
373,528,69,0.109157930996772,1
373,556,69,0.106866431189591,1
373,557,69,0.102206952390635,1
373,559,69,0.101073674879347,1
376,526,69,0.100567034321787,1
376,527,69,0.116794804036224,1
376,528,69,0.114810506331864,1
377,526,69,0.108046885933249,1
377,527,69,0.125751561183071,1
377,528,69,0.119708899524167,1
378,527,69,0.100296214568565,1
378,532,69,0.100671388486209,1
385,562,69,0.1210940757883,1
387,561,69,0.105659452188065,1
388,560,69,0.115904220761191,1
388,561,69,0.128063713964756,1
389,559,69,0.108570018370239,1
389,560,69,0.131201756975283,1
389,561,69,0.109078238401061,1
390,560,69,0.103513906603127,1
363,538,70,0.134572799524118,1
363,539,70,0.122044003686273,1
363,540,70,0.104795327813386,1
363,541,70,0.121208200901103,1
363,542,70,0.141292761103213,1
363,543,70,0.125622937595024,1
364,536,70,0.0998738198468753,1
364,537,70,0.108849062277337,1
364,538,70,0.130724494620379,1
364,539,70,0.129427420285457,1
364,540,70,0.109905588281055,1
364,541,70,0.110932997512174,1
364,542,70,0.115767972129814,1
364,543,70,0.102432806174051,1
365,538,70,0.104662554023183,1
365,539,70,0.109304723973781,1
365,550,70,0.107304609750973,1
365,551,70,0.131289118186,1
366,550,70,0.102398852945397,1
366,551,70,0.142279561532143,1
366,552,70,0.153161663905495,1
367,551,70,0.104283796335175,1
367,552,70,0.122536733986217,1
367,553,70,0.105806495702213,1
369,555,70,0.102568161586066,1
377,527,70,0.10226908560085,1
377,532,70,0.114714877395595,1
378,532,70,0.116089051811495,1
388,560,70,0.10592181903611,1
389,560,70,0.120652433278663,1
