x,y,z,signal,mito.p
31,456,1,0.135840637264331,1
32,456,1,0.168489591363714,1
32,457,1,0.255389029456213,1
33,456,1,0.127571539203683,1
33,457,1,0.192129426054416,1
33,458,1,0.211421504610385,1
34,457,1,0.102096966587068,1
34,458,1,0.1169319676728,1
35,459,1,0.103791970147511,1
36,459,1,0.102622168678676,1
36,460,1,0.153031068699101,1
37,460,1,0.134000877702739,1
38,460,1,0.115419769079719,1
38,461,1,0.160920189064808,1
39,460,1,0.100416483287708,1
39,461,1,0.156073559023792,1
40,461,1,0.150167276711294,1
41,461,1,0.120164615685207,1
41,462,1,0.162987959207786,1
42,462,1,0.110445659207155,1
44,433,1,0.109016519121769,1
46,463,1,0.107584960808356,1
48,463,1,0.101277753717598,1
49,463,1,0.105152898773857,1
50,463,1,0.102189229611354,1
54,463,1,0.108643676288801,1
55,463,1,0.121944409727473,1
56,462,1,0.103960167710438,1
56,463,1,0.136652214197552,1
57,462,1,0.124355513785735,1
57,463,1,0.150866395148326,1
58,461,1,0.104957207483268,1
58,462,1,0.144181465196869,1
58,463,1,0.156938151793991,1
59,461,1,0.107872130833059,1
59,462,1,0.140488122959421,1
59,463,1,0.152385249314941,1
60,461,1,0.0998748655671033,1
60,462,1,0.124014935778969,1
61,462,1,0.11639587266215,1
62,462,1,0.117742324599089,1
63,461,1,0.101784535883107,1
63,462,1,0.118570240910873,1
64,461,1,0.109625160973239,1
64,462,1,0.11700234682273,1
65,460,1,0.102993867755145,1
65,461,1,0.114357970903185,1
66,460,1,0.114429973098052,1
66,461,1,0.122196068836099,1
67,459,1,0.0997718076600474,1
67,460,1,0.122319496501764,1
67,461,1,0.124133461631064,1
68,460,1,0.104805567157285,1
69,431,1,0.107541999135654,1
70,430,1,0.143265250883331,1
70,431,1,0.146541710216124,1
70,432,1,0.134241415141023,1
71,430,1,0.158336650098112,1
71,431,1,0.174429630832324,1
71,432,1,0.181682201687976,1
71,433,1,0.139645893352016,1
72,429,1,0.15903137868877,1
72,430,1,0.157410610371598,1
72,431,1,0.170407616548623,1
72,432,1,0.199111656445284,1
72,433,1,0.188354855319671,1
72,434,1,0.144804213378498,1
72,435,1,0.103790379781331,1
73,428,1,0.183693862404969,1
73,429,1,0.180554566708752,1
73,430,1,0.171470569374575,1
73,431,1,0.168722906796674,1
73,432,1,0.195708251033976,1
73,433,1,0.213254586812604,1
73,434,1,0.177695295282347,1
73,435,1,0.125051375239973,1
74,424,1,0.224866024580411,1
74,425,1,0.238833099662717,1
74,426,1,0.220444196596193,1
74,427,1,0.192015812908808,1
74,428,1,0.179138443661621,1
74,429,1,0.185426816895354,1
74,430,1,0.187883780142783,1
74,431,1,0.171743698426633,1
75,424,1,0.221888314445262,1
75,425,1,0.259160920532873,1
75,426,1,0.258405910528236,1
75,427,1,0.210610635716901,1
75,428,1,0.171768338209506,1
75,429,1,0.177847698112663,1
75,430,1,0.191849303748332,1
75,431,1,0.174057550503689,1
76,425,1,0.23765683869289,1
76,426,1,0.260390948951091,1
76,427,1,0.230172030803264,1
76,428,1,0.19200441891549,1
76,429,1,0.187955259477536,1
76,430,1,0.1921773548982,1
76,431,1,0.173060881090106,1
77,426,1,0.220788587124624,1
77,427,1,0.223368553213874,1
77,428,1,0.203289069112038,1
77,429,1,0.183886405641954,1
31,456,2,0.11851479595295,1
32,456,2,0.139628486467387,1
32,457,2,0.217125167735784,1
33,456,2,0.100396124422018,1
33,457,2,0.155952255477341,1
33,458,2,0.178171446559509,1
36,460,2,0.136708258266023,1
37,460,2,0.114346293693972,1
37,461,2,0.150686814485,1
38,461,2,0.129931697079586,1
39,461,2,0.11645318030923,1
40,461,2,0.110546026563208,1
40,462,2,0.161051383381749,1
41,462,2,0.127120844678322,1
44,433,2,0.108902187043505,1
55,463,2,0.102123872097102,1
56,463,2,0.112989950986543,1
57,463,2,0.122666751867902,1
58,462,2,0.115978270824839,1
58,463,2,0.125663655326403,1
59,462,2,0.115900538954555,1
59,463,2,0.123371861410407,1
60,462,2,0.100593667508844,1
60,463,2,0.115542935315327,1
62,462,2,0.100045437786381,1
63,462,2,0.100641650817224,1
64,462,2,0.101803228132183,1
65,461,2,0.101381007697197,1
65,462,2,0.0999882826401682,1
66,460,2,0.100695342015182,1
66,461,2,0.113479043051527,1
67,460,2,0.111982955085709,1
67,461,2,0.11724567284829,1
69,430,2,0.142799622165963,1
69,431,2,0.122521037289878,1
70,429,2,0.144749596282422,1
70,430,2,0.154564584734747,1
70,431,2,0.151749386058786,1
70,432,2,0.14506876970327,1
71,429,2,0.145145259780783,1
71,430,2,0.15590701718456,1
71,431,2,0.179160076998838,1
71,432,2,0.208599541431698,1
71,433,2,0.155309714861813,1
72,428,2,0.169276419584872,1
72,429,2,0.150060733070144,1
72,430,2,0.143264096233913,1
72,431,2,0.168282876439055,1
72,432,2,0.222848568830487,1
72,433,2,0.207019741383043,1
72,434,2,0.1400792681361,1
73,424,2,0.193004563170247,1
73,425,2,0.199416113532507,1
73,426,2,0.167051028903357,1
73,427,2,0.169662649815343,1
73,428,2,0.184061563780149,1
73,429,2,0.169722397476288,1
73,430,2,0.158810274218056,1
73,431,2,0.157970114265269,1
73,432,2,0.193025194358912,1
73,433,2,0.215333936128524,1
73,434,2,0.170006354089874,1
73,435,2,0.108350068548944,1
74,423,2,0.17880440140628,1
74,424,2,0.24017371299505,1
74,425,2,0.26136048410334,1
74,426,2,0.22201556552551,1
74,427,2,0.181359978249795,1
74,428,2,0.172384158494624,1
74,429,2,0.178682324462577,1
74,430,2,0.186172589704643,1
74,431,2,0.166932154477852,1
74,432,2,0.163224368229754,1
74,433,2,0.179011203474292,1
75,423,2,0.173905441782187,1
75,424,2,0.230417578984308,1
75,425,2,0.282757009260701,2
75,426,2,0.270393676863104,1
75,427,2,0.202852154129265,1
75,428,2,0.158382868753607,1
75,429,2,0.161155214686057,1
75,430,2,0.182653980781547,1
75,431,2,0.171006999418907,1
75,432,2,0.150307566615635,1
76,424,2,0.183875512722912,1
76,425,2,0.2513712416251,1
76,426,2,0.279431618935572,1
76,427,2,0.233232614266484,1
76,428,2,0.188529185596019,1
76,429,2,0.183518105156227,1
76,430,2,0.19508580785408,1
76,431,2,0.181648891141545,1
76,432,2,0.14953469222377,1
77,425,2,0.197923543979539,1
77,426,2,0.241999126582263,1
77,427,2,0.237462770447239,1
77,428,2,0.216266086782621,1
77,429,2,0.199314918314607,1
77,430,2,0.177847676326825,1
77,431,2,0.149690765967803,1
78,426,2,0.175289866434906,1
78,427,2,0.196410735382992,1
78,428,2,0.196425244751156,1
78,429,2,0.169908579248553,1
29,446,3,0.103126565294914,1
29,447,3,0.103708922532736,1
29,453,3,0.100169551705946,1
31,456,3,0.117289386132405,1
31,457,3,0.145554702821732,1
32,456,3,0.118674388109833,1
32,457,3,0.176875396158977,1
32,458,3,0.195315779160894,1
33,457,3,0.128830433857363,1
33,458,3,0.150649996418638,1
33,459,3,0.152739312755481,1
35,460,3,0.125728816768112,1
36,460,3,0.129335799943395,1
36,461,3,0.161339566447923,1
37,460,3,0.105447661163132,1
37,461,3,0.13767280446135,1
38,461,3,0.104880869906622,1
40,462,3,0.120957990550709,1
44,433,3,0.125235509143458,1
56,463,3,0.101624126757295,1
57,463,3,0.106478458092073,1
58,463,3,0.10852043380276,1
59,463,3,0.106454809564833,1
66,461,3,0.102636405723864,1
67,461,3,0.105532876468798,1
68,430,3,0.109191546544935,1
69,430,3,0.159399711853255,1
69,431,3,0.130428196329518,1
70,429,3,0.164059517439782,1
70,430,3,0.160003735107051,1
70,431,3,0.150687326452195,1
70,432,3,0.149367485916476,1
70,433,3,0.106157236802445,1
71,429,3,0.14614210348107,1
71,430,3,0.145241956223119,1
71,431,3,0.17558453078791,1
71,432,3,0.228177058038243,1
71,433,3,0.173674697078121,1
72,425,3,0.146400080482741,1
72,428,3,0.171497267919147,1
72,429,3,0.144566627921274,1
72,430,3,0.131161071922661,1
72,431,3,0.168723898052307,1
72,432,3,0.245957330146217,1
72,433,3,0.227331222874635,1
72,434,3,0.132717550231648,1
73,424,3,0.208459284206114,1
73,425,3,0.222427535723677,1
73,426,3,0.174799118646227,1
73,427,3,0.169853875009125,1
73,428,3,0.193122511697633,1
73,429,3,0.16902311564547,1
73,430,3,0.153873211163154,1
73,431,3,0.155712676615932,1
73,432,3,0.191350778415458,1
73,433,3,0.209159415684617,1
73,434,3,0.154587666830197,1
74,423,3,0.166505304552273,1
74,424,3,0.26320936103817,1
74,425,3,0.297236073323818,2
74,426,3,0.229636709189866,1
74,427,3,0.179483487765194,1
74,428,3,0.17813163294041,1
74,429,3,0.183464021813183,1
74,430,3,0.194943088828792,1
74,431,3,0.178903123931557,1
74,432,3,0.16777901357585,1
74,433,3,0.17087040221412,1
75,423,3,0.16400735125049,1
75,424,3,0.247847338743349,2
75,425,3,0.314614571005848,2
75,426,3,0.281229756653504,2
75,427,3,0.203965301526163,1
75,428,3,0.162861917241552,1
75,429,3,0.163837269212569,1
75,430,3,0.191786843750546,1
75,431,3,0.192337894739041,1
75,432,3,0.16514924506074,1
76,424,3,0.186778279575052,1
76,425,3,0.270410081599182,2
76,426,3,0.300205853413904,3
76,427,3,0.242678931873834,1
76,428,3,0.196020834238804,1
76,429,3,0.189826750112297,1
76,430,3,0.211100119926971,1
76,431,3,0.202333716540382,1
76,432,3,0.157077167226804,1
77,424,3,0.138512801020352,1
77,425,3,0.216071147103446,1
77,426,3,0.276293129315364,1
77,427,3,0.259542281628532,1
77,428,3,0.239788408662697,1
77,429,3,0.228624931297572,1
77,430,3,0.20975619514725,1
77,431,3,0.166980932969322,1
78,425,3,0.151087597655311,1
78,426,3,0.201790552025273,1
78,427,3,0.218196508109399,1
78,428,3,0.220212656709037,1
78,429,3,0.192409788004718,1
78,430,3,0.143710575199605,1
79,427,3,0.134230663829929,1
79,428,3,0.135135800044802,1
28,448,4,0.108590148484629,1
29,445,4,0.110382872421797,1
29,446,4,0.148498339906118,1
29,447,4,0.146667872004468,1
29,448,4,0.111076479041794,1
29,452,4,0.105749144483457,1
30,446,4,0.109475361550574,1
30,456,4,0.12342641314897,1
31,456,4,0.118767097743799,1
31,457,4,0.158796603604659,1
32,456,4,0.0999373582436471,1
32,457,4,0.142330496821583,1
32,458,4,0.163080755985105,1
33,457,4,0.10160109912644,1
33,458,4,0.123219273400468,1
33,459,4,0.144323715826638,1
35,460,4,0.114483446437629,1
36,460,4,0.119704825572446,1
36,461,4,0.153899027381284,1
37,461,4,0.128119768926146,1
44,433,4,0.132219929011054,1
68,430,4,0.113787748377176,1
69,430,4,0.170350417830733,1
69,431,4,0.128999807855546,1
70,429,4,0.193564916711603,1
70,430,4,0.172420606201739,1
70,431,4,0.144857054928771,1
70,432,4,0.143380389037605,1
70,433,4,0.105887571698642,1
71,429,4,0.155563912020576,1
71,430,4,0.142286707287035,1
71,431,4,0.166614190171017,1
71,432,4,0.232029796360032,1
71,433,4,0.185743648338609,1
72,425,4,0.169750381385307,1
72,428,4,0.168115136378728,1
72,429,4,0.144167467795901,1
72,430,4,0.125507102293932,1
72,431,4,0.163394493839351,1
72,432,4,0.249655802948534,1
72,433,4,0.235838984791492,1
72,434,4,0.129685854789728,1
73,424,4,0.230156148927301,1
73,425,4,0.267133513337198,2
73,426,4,0.196361956891522,1
73,427,4,0.173654566963731,1
73,428,4,0.200993495353135,1
73,429,4,0.173556563371111,1
73,430,4,0.152015641678929,1
73,431,4,0.151835712442194,1
73,432,4,0.184564740389455,1
73,433,4,0.196788981103805,1
73,434,4,0.145241858186847,1
74,423,4,0.15297922929738,1
74,424,4,0.284281952569062,2
74,425,4,0.347553124250882,2
74,426,4,0.246151659821925,2
74,427,4,0.180447685387112,1
74,428,4,0.184064363260343,1
74,429,4,0.186482536823063,1
74,430,4,0.19750932984005,1
74,431,4,0.18740695350464,1
74,432,4,0.175368306344927,1
74,433,4,0.15966105476691,1
75,423,4,0.151192997539961,1
75,424,4,0.259828416825926,2
75,425,4,0.349119656724144,2
75,426,4,0.290478868854519,2
75,427,4,0.203444576424281,1
75,428,4,0.166739948921356,1
75,429,4,0.165949275499777,1
75,430,4,0.200672219598911,1
75,431,4,0.217889175291549,1
75,432,4,0.190408649847519,1
75,433,4,0.143689072577416,1
76,424,4,0.186516326657931,1
76,425,4,0.282657622267363,2
76,426,4,0.30934159211353,3
76,427,4,0.243330328432543,3
76,428,4,0.192942865676793,1
76,429,4,0.181695022653688,1
76,430,4,0.213484863121151,1
76,431,4,0.216773261093214,1
76,432,4,0.166681889662863,1
77,424,4,0.134181297120831,1
77,425,4,0.227787766897522,1
77,426,4,0.304103187346251,3
77,427,4,0.270515590413022,1
77,428,4,0.235531869832023,1
77,429,4,0.219017137058344,1
77,430,4,0.209959522374087,1
77,431,4,0.170329568783687,1
78,425,4,0.16109674149664,1
78,426,4,0.235006896491714,1
78,427,4,0.241329190275345,1
78,428,4,0.226058232783715,1
78,429,4,0.18731723942341,1
78,430,4,0.136660939425705,1
79,426,4,0.133687074490978,1
79,427,4,0.149385611733761,1
79,428,4,0.142766409655805,1
28,445,5,0.146727173055733,1
28,446,5,0.184973943786185,1
28,447,5,0.172297189428993,1
28,448,5,0.126827400332251,1
29,444,5,0.108207937741284,1
29,445,5,0.161246889492714,1
29,446,5,0.206037091156267,1
29,447,5,0.18412216108878,1
29,448,5,0.122206765682598,1
29,452,5,0.106310500173365,1
30,445,5,0.113019405439633,1
30,446,5,0.127518882833034,1
30,447,5,0.109040004255224,1
30,456,5,0.135206157408894,1
30,457,5,0.211129748666765,1
31,456,5,0.112493582451639,1
31,457,5,0.172780268602666,1
31,458,5,0.183161677952255,1
32,457,5,0.111631484159901,1
32,458,5,0.133569387393649,1
32,459,5,0.173123678768383,1
33,459,5,0.124698531806366,1
33,460,5,0.153119726167184,1
34,460,5,0.103037788004722,1
36,461,5,0.135788743398015,1
37,461,5,0.112435795516121,1
37,462,5,0.100548429216063,1
43,433,5,0.14320932663697,1
44,433,5,0.121699242798595,1
55,464,5,0.104969930412709,1
56,464,5,0.115050194122463,1
68,430,5,0.100738597796698,1
69,430,5,0.16382531968038,1
69,431,5,0.115436293637906,1
70,429,5,0.205611199807565,1
70,430,5,0.174799695970936,1
70,431,5,0.129876568016314,1
70,432,5,0.127092294337513,1
70,433,5,0.104471132756859,1
71,429,5,0.150240161232603,1
71,430,5,0.133796243325616,1
71,431,5,0.148276974005347,1
71,432,5,0.208529086031335,1
71,433,5,0.184934239096277,1
72,425,5,0.17868001516374,1
72,426,5,0.154761125673022,1
72,427,5,0.133282348083974,1
72,428,5,0.146360103469857,1
72,429,5,0.130651217953983,1
72,430,5,0.116395240872846,1
72,431,5,0.152963107777198,1
72,432,5,0.227601214766009,1
72,433,5,0.222123862926626,1
72,434,5,0.125040689286393,1
73,424,5,0.21678763974635,1
73,425,5,0.295719103632197,2
73,426,5,0.219394140986386,1
73,427,5,0.172329595863143,1
73,428,5,0.192969553328446,1
73,429,5,0.171649714321139,1
73,430,5,0.146353796469732,1
73,431,5,0.147541963400072,1
73,432,5,0.171007740137401,1
73,433,5,0.172016359083173,1
73,434,5,0.13181770797543,1
74,423,5,0.12758465427821,1
74,424,5,0.258147748346942,2
74,425,5,0.362173469473973,2
74,426,5,0.254691446920766,2
74,427,5,0.177176421976702,1
74,428,5,0.183779099496472,1
74,429,5,0.185152533193878,1
74,430,5,0.18532817062051,1
74,431,5,0.181100966420816,1
74,432,5,0.173101827572785,1
74,433,5,0.141727769825154,1
75,423,5,0.131160429240438,1
75,424,5,0.241219825368163,2
75,425,5,0.350433299188928,2
75,426,5,0.286401605685437,2
75,427,5,0.204106038040185,1
75,428,5,0.181595733696621,1
75,429,5,0.18072865734088,1
75,430,5,0.199394349480261,1
75,431,5,0.223464498044796,1
75,432,5,0.205713854676616,1
75,433,5,0.14261011805339,1
75,438,5,0.131879884757321,1
76,424,5,0.182006462102017,1
76,425,5,0.279934501436063,2
76,426,5,0.30248661280291,3
76,427,5,0.243880094056591,3
76,428,5,0.203497319938282,1
76,429,5,0.189729650631957,1
76,430,5,0.206452808518585,1
76,431,5,0.213057403192107,1
76,432,5,0.170083878994696,1
77,424,5,0.131399637742599,1
77,425,5,0.222938740414317,1
77,426,5,0.308889122042365,3
77,427,5,0.277604811054721,1
77,428,5,0.229723438611278,1
77,429,5,0.206900115346124,1
77,430,5,0.194384369225292,1
77,431,5,0.162294614017846,1
78,425,5,0.160547825520278,1
78,426,5,0.258605425233409,1
78,427,5,0.27119315176327,1
78,428,5,0.227184930971901,1
78,429,5,0.176847858859639,1
78,430,5,0.126781987752765,1
79,426,5,0.149211128956547,1
79,427,5,0.174746342453469,1
79,428,5,0.152463166364849,1
27,447,6,0.137838050043217,1
28,445,6,0.202619851737776,1
28,446,6,0.230719073197551,1
28,447,6,0.188236841434771,1
28,448,6,0.124757397140869,1
29,444,6,0.14994196757383,1
29,445,6,0.220332086673413,1
29,446,6,0.253723436777183,1
29,447,6,0.196541014694733,1
29,448,6,0.113364384185692,1
29,452,6,0.103272279872939,1
30,444,6,0.108351887666424,1
30,445,6,0.130077880053129,1
30,446,6,0.137016549660748,1
30,447,6,0.106773950306924,1
30,456,6,0.127039289393455,1
30,457,6,0.228010766736149,1
31,457,6,0.1701952590919,1
31,458,6,0.205163784050835,1
32,458,6,0.120425936813023,1
32,459,6,0.151860679012638,1
33,459,6,0.105313449507616,1
33,460,6,0.137898756281038,1
36,461,6,0.10623574206998,1
42,433,6,0.101366857795362,1
44,433,6,0.104554746803425,1
56,464,6,0.100974407708118,1
57,464,6,0.110262233343408,1
58,464,6,0.117276227486202,1
69,429,6,0.175674942015958,1
69,430,6,0.165784117061262,1
69,431,6,0.106074908120326,1
70,428,6,0.120757288517361,1
70,429,6,0.207037235411024,1
70,430,6,0.181280961015065,1
70,431,6,0.119811597964895,1
70,432,6,0.113609006468617,1
70,433,6,0.108403944926525,1
71,429,6,0.137707313228875,1
71,430,6,0.125998547229429,1
71,432,6,0.180670892191201,1
71,433,6,0.184149665709361,1
71,434,6,0.103349674062732,1
72,425,6,0.173698759536284,1
72,426,6,0.1613566574379,1
72,427,6,0.131879394575964,1
72,428,6,0.133038629913329,1
72,429,6,0.123663541103594,1
72,430,6,0.113698273940166,1
72,431,6,0.147444493560484,1
72,432,6,0.204542190518625,1
72,433,6,0.206626986294066,1
72,434,6,0.128647716033353,1
73,424,6,0.189357178158237,1
73,425,6,0.31800690921141,2
73,426,6,0.259611255591905,1
73,427,6,0.182651682375629,1
73,428,6,0.188900481634483,1
73,429,6,0.178289623838195,1
73,430,6,0.149514921575709,1
73,431,6,0.154593363826856,1
73,432,6,0.167115700163709,1
73,433,6,0.155723700250002,1
73,434,6,0.124375938008938,1
74,423,6,0.104208439121243,1
74,424,6,0.218789387907015,2
74,425,6,0.368652338075912,2
74,426,6,0.28255941170928,2
74,427,6,0.185458188502195,1
74,428,6,0.184363940319835,1
74,429,6,0.191136580055417,1
74,430,6,0.178340929486883,1
74,431,6,0.179859859903932,1
74,432,6,0.1716337888735,1
74,433,6,0.130999758684569,1
75,424,6,0.212097127021043,2
75,425,6,0.341083427486776,2
75,426,6,0.287418655750547,2
75,427,6,0.207788825039081,1
75,428,6,0.194453147116123,1
75,429,6,0.20641978118805,1
75,430,6,0.205928989827695,1
75,431,6,0.232059751887398,1
75,432,6,0.222130616536432,1
75,433,6,0.149497972193679,1
75,438,6,0.15810574200026,1
75,439,6,0.117819936647263,1
76,424,6,0.170252403345194,1
76,425,6,0.270538530900524,2
76,426,6,0.292826467194766,3
76,427,6,0.247643423298884,1
76,428,6,0.214402460835408,1
76,429,6,0.210682267552521,1
76,430,6,0.20519715995478,1
76,431,6,0.214312027821521,1
76,432,6,0.182554070928094,1
76,433,6,0.130747021176957,1
76,439,6,0.155185535584734,1
77,424,6,0.124219276047277,1
77,425,6,0.209310783687624,1
77,426,6,0.303260206127432,1
77,427,6,0.294170980192115,4
77,428,6,0.229023568562832,1
77,429,6,0.197798623983966,1
77,430,6,0.173284687004742,1
77,431,6,0.150156362006413,1
77,432,6,0.11202569890003,1
78,425,6,0.152567760173489,1
78,426,6,0.272057287030869,1
78,427,6,0.310286574626258,1
78,428,6,0.23137456549382,1
78,429,6,0.163781715325455,1
78,430,6,0.114219619938433,1
79,426,6,0.159296370730304,1
79,427,6,0.1997861677782,1
79,428,6,0.159740246288345,1
27,446,7,0.153354969646814,1
27,447,7,0.155501059877704,1
27,448,7,0.145821383265718,1
27,449,7,0.112058867838513,1
28,444,7,0.169858460928041,1
28,445,7,0.241603190760926,1
28,446,7,0.246059876086078,1
28,447,7,0.185061054459763,1
28,448,7,0.120372256507985,1
29,443,7,0.109676128941436,1
29,444,7,0.197371817630064,1
29,445,7,0.273992152668616,1
29,446,7,0.27171139327961,1
29,447,7,0.183568310620091,1
29,456,7,0.104190324196876,1
29,457,7,0.148372842585835,1
30,444,7,0.128301364779494,1
30,445,7,0.148820574237217,1
30,446,7,0.139430474985042,1
30,456,7,0.112648109401168,1
30,457,7,0.20553257471792,1
30,458,7,0.276513841640992,1
31,457,7,0.15195843206812,1
31,458,7,0.219498516936646,1
31,459,7,0.203727748747696,1
32,458,7,0.11976992165664,1
32,459,7,0.147716402605609,1
32,460,7,0.178999351978374,1
33,460,7,0.12251748619827,1
33,461,7,0.112790643246832,1
58,464,7,0.105779797157641,1
69,429,7,0.191250672489462,1
69,430,7,0.191865229195972,1
70,428,7,0.114452205545817,1
70,429,7,0.20791879934909,1
70,430,7,0.20374509027481,1
70,431,7,0.120879997250369,1
70,432,7,0.110186690949852,1
70,433,7,0.121056353609658,1
71,429,7,0.12780568249849,1
71,430,7,0.128657998948928,1
71,432,7,0.155216318973947,1
71,433,7,0.181754683171281,1
71,434,7,0.117558898735341,1
72,425,7,0.156662114332548,1
72,426,7,0.165123951702724,1
72,427,7,0.133071875102245,1
72,428,7,0.127047361046465,1
72,429,7,0.121938102727347,1
72,430,7,0.121603831720707,1
72,431,7,0.147160754805279,1
72,432,7,0.180248900507515,1
72,433,7,0.185509494150883,1
72,434,7,0.127455322650424,1
73,424,7,0.157548438476236,1
73,425,7,0.310436591907304,2
73,426,7,0.301365317502569,2
73,427,7,0.199397029138345,1
73,428,7,0.183794861550326,1
73,429,7,0.177533219539921,1
73,430,7,0.156487391911115,1
73,431,7,0.167693525947209,1
73,432,7,0.167720507707676,1
73,434,7,0.113508214288722,1
74,424,7,0.182488299482919,2
74,425,7,0.356802911812877,2
74,426,7,0.322428497551409,2
74,427,7,0.205295588371243,2
74,428,7,0.18491965347768,1
74,429,7,0.192878227095198,1
74,430,7,0.173627421809479,1
74,431,7,0.177991974825373,1
74,432,7,0.170435426170937,1
74,433,7,0.1272545770454,1
74,436,7,0.114978409785977,1
74,437,7,0.102475833204267,1
74,438,7,0.0998869131355637,1
75,424,7,0.183656020404217,2
75,425,7,0.320878870888499,2
75,426,7,0.292365108501663,2
75,427,7,0.212638417954077,1
75,428,7,0.198615178981189,1
75,429,7,0.22666237585962,1
75,430,7,0.211253296154539,1
75,431,7,0.223608524220369,1
75,432,7,0.222038462441337,1
75,433,7,0.156652844458444,1
75,437,7,0.13570988955707,1
75,438,7,0.171407804375055,1
75,439,7,0.147431618130176,1
76,424,7,0.159650347027491,1
76,425,7,0.264070598789303,2
76,426,7,0.288789181038568,1
76,427,7,0.251277039661225,4
76,428,7,0.216453314275114,1
76,429,7,0.229221471115986,1
76,430,7,0.208235979365754,1
76,431,7,0.207457331726796,1
76,432,7,0.191402323708365,1
76,433,7,0.14316498156355,1
76,439,7,0.200976219183534,1
77,424,7,0.120765774101295,1
77,425,7,0.202516216506011,1
77,426,7,0.295757359563872,4
77,427,7,0.308958357435796,4
77,428,7,0.226848884419457,4
77,429,7,0.187943516910809,1
77,430,7,0.153186358152963,1
77,431,7,0.134926470819572,1
77,432,7,0.113235324880882,1
78,425,7,0.146434709072375,1
78,426,7,0.270262221116106,1
78,427,7,0.3376998907598,4
78,428,7,0.23524719428578,1
78,429,7,0.150238178721338,1
79,426,7,0.164047230227103,1
79,427,7,0.218879559490844,1
79,428,7,0.168900276197434,1
27,445,8,0.153920856791044,1
27,446,8,0.165652182025826,1
27,447,8,0.188715345582446,1
27,448,8,0.165866271456677,1
27,449,8,0.110210350370011,1
28,444,8,0.189255743296118,1
28,445,8,0.25552163985263,1
28,446,8,0.234925068883871,1
28,447,8,0.177958370170129,1
28,448,8,0.115872860047269,1
29,443,8,0.119397645255462,1
29,444,8,0.230563413384442,1
29,445,8,0.30218189428563,1
29,446,8,0.25351414023071,1
29,447,8,0.153507884444325,1
29,456,8,0.104668915487904,1
29,457,8,0.14477588089607,1
29,458,8,0.18327815593557,1
30,444,8,0.141214528158653,1
30,445,8,0.159036596396991,1
30,446,8,0.130455101839552,1
30,456,8,0.0999183609928379,1
30,457,8,0.17213258652935,1
30,458,8,0.26340299356706,1
30,459,8,0.255404933118014,1
31,457,8,0.12900123482794,1
31,458,8,0.216420570160474,1
31,459,8,0.243729096412831,1
31,460,8,0.219253927332478,1
32,458,8,0.114213585261284,1
32,459,8,0.14542920550145,1
32,460,8,0.159481332495636,1
44,432,8,0.145312738411053,1
69,431,8,0.11092439210613,1
70,429,8,0.179929389406177,1
70,430,8,0.194877840243731,1
70,432,8,0.110069265282579,1
70,433,8,0.133057256804891,1
71,432,8,0.132565147401332,1
71,433,8,0.175738600234839,1
71,434,8,0.12546357418944,1
72,425,8,0.127667974215962,1
72,426,8,0.154755254389658,1
72,427,8,0.135212976376214,1
72,428,8,0.123819037522918,1
72,429,8,0.111088777147393,1
72,433,8,0.159839491673736,1
72,434,8,0.119860169490903,1
73,424,8,0.122275924825596,1
73,425,8,0.252624363031687,1
73,426,8,0.297728803623762,2
73,427,8,0.21322905381037,1
73,428,8,0.177318509212685,1
73,429,8,0.154585030743789,1
73,430,8,0.142842017406875,1
73,431,8,0.158716290112562,1
74,424,8,0.144553698026371,1
74,425,8,0.296793602952334,2
74,426,8,0.31751925501174,2
74,427,8,0.214483286294699,2
74,428,8,0.178113289264744,1
74,429,8,0.173320067205791,1
74,430,8,0.155950185822723,1
74,431,8,0.158624876735962,1
74,432,8,0.156228042401645,1
74,436,8,0.139121137870089,1
74,437,8,0.11479235872874,1
74,438,8,0.103550790027003,1
75,424,8,0.149916401892838,1
75,425,8,0.26890300267805,2
75,426,8,0.267193598678633,2
75,427,8,0.19953227562117,1
75,428,8,0.185235972953739,1
75,429,8,0.219901859942932,1
75,430,8,0.206433528051881,1
75,431,8,0.196923290795592,1
75,432,8,0.2004092427474,1
75,433,8,0.159668745167753,1
75,437,8,0.138676815702367,1
75,438,8,0.163191384470895,1
75,439,8,0.165803310384614,1
75,440,8,0.102058590833283,1
76,424,8,0.140337234244852,1
76,425,8,0.239184113085926,1
76,426,8,0.266406650635366,1
76,427,8,0.229853107919553,1
76,428,8,0.197859123256325,1
76,429,8,0.225976339818358,1
76,430,8,0.211471873468035,1
76,431,8,0.190161576657809,1
76,432,8,0.1843572847463,1
76,433,8,0.154842866137512,1
76,438,8,0.211886414395096,1
76,439,8,0.217553934815114,1
76,440,8,0.123753353221095,1
77,425,8,0.186059739063368,1
77,426,8,0.266848271359165,1
77,427,8,0.287734898976173,4
77,428,8,0.209638203048187,1
77,429,8,0.171661957962142,1
77,430,8,0.141264461299542,1
77,431,8,0.12093125932738,1
77,432,8,0.110613813198406,1
78,425,8,0.132989241418393,1
78,426,8,0.235399542651501,1
78,427,8,0.313077253341456,1
78,428,8,0.220922766101383,1
78,429,8,0.135258007703533,1
79,426,8,0.149500749888035,1
79,427,8,0.204825449985392,1
79,428,8,0.163353830572568,1
26,449,9,0.145400862126103,1
27,445,9,0.160171496953216,1
27,446,9,0.171864283040428,1
27,447,9,0.207371234094689,1
27,448,9,0.165227684970761,1
27,449,9,0.100567764147362,1
28,444,9,0.195204192098228,1
28,445,9,0.249155425819422,1
28,446,9,0.207907165711553,1
28,447,9,0.163993288492007,1
28,448,9,0.106327776342966,1
28,457,9,0.116045403884894,1
29,443,9,0.127042208695758,1
29,444,9,0.24222667966105,1
29,445,9,0.292872435313123,1
29,446,9,0.20918553690448,1
29,447,9,0.119620427235709,1
29,456,9,0.105262819219909,1
29,457,9,0.144375282905383,1
29,458,9,0.166334144115367,1
30,443,9,0.105943550409599,1
30,444,9,0.153667422136613,1
30,445,9,0.157367289232568,1
30,446,9,0.112882023944675,1
30,457,9,0.140960309214052,1
30,458,9,0.217241133751905,1
30,459,9,0.261592350778067,1
31,457,9,0.108259613749219,1
31,458,9,0.191316378577124,1
31,459,9,0.25351392237233,1
31,460,9,0.248092952281907,1
32,458,9,0.103649055049681,1
32,459,9,0.135937682280075,1
32,460,9,0.143421542485745,1
32,461,9,0.133482973866889,1
43,432,9,0.186087516006925,1
44,431,9,0.138765647457154,1
44,432,9,0.12693622059348,1
69,430,9,0.173983217224146,1
69,431,9,0.109577308379887,1
70,431,9,0.110188553639008,1
70,432,9,0.112999068359781,1
70,433,9,0.141479422163916,1
70,434,9,0.10406418419437,1
71,432,9,0.114355618032672,1
71,433,9,0.162259418996422,1
71,434,9,0.128338607669699,1
72,426,9,0.134539815765259,1
72,427,9,0.133704535840202,1
72,433,9,0.132421578728359,1
72,434,9,0.110333189818047,1
73,425,9,0.186159866775202,1
73,426,9,0.259417819135558,1
73,427,9,0.219626225519494,1
73,428,9,0.163676195618695,1
73,429,9,0.124203786316399,1
73,430,9,0.116724413993375,1
74,424,9,0.114909370465089,1
74,425,9,0.225830636133252,1
74,426,9,0.285545814393824,2
74,427,9,0.21883378744503,1
74,428,9,0.162338000514391,1
74,429,9,0.139855549364817,1
74,430,9,0.127666198670158,1
74,431,9,0.129840196559633,1
74,436,9,0.14270518055787,1
74,437,9,0.113459217938871,1
74,438,9,0.101476582168871,1
74,439,9,0.101702348808935,1
75,424,9,0.122877290207145,1
75,425,9,0.21568553776936,1
75,426,9,0.245065309005871,1
75,427,9,0.189062829699885,1
75,428,9,0.163264301670962,1
75,429,9,0.185088657116616,1
75,430,9,0.182026428822621,1
75,431,9,0.154861841602484,1
75,432,9,0.167480307949881,1
75,437,9,0.134247504282768,1
75,438,9,0.147142574523398,1
75,439,9,0.177984839963401,1
75,440,9,0.137162710848453,1
76,425,9,0.208545360052384,1
76,426,9,0.247641941861894,1
76,427,9,0.205472184374751,1
76,428,9,0.170825795710643,1
76,429,9,0.195029948965233,1
76,430,9,0.197021566711189,1
76,431,9,0.155102782078773,1
76,432,9,0.157075914541114,1
76,438,9,0.168919229876567,1
76,439,9,0.210885834423577,1
76,440,9,0.154658960985327,1
77,425,9,0.169083876347886,1
77,426,9,0.237059449226791,1
77,427,9,0.249223179775863,1
77,428,9,0.184895438518649,1
77,429,9,0.145286606298272,1
77,430,9,0.126789678153608,1
77,431,9,0.102625120659737,1
77,442,9,0.103245483292095,1
78,426,9,0.199962698424194,1
78,427,9,0.262851114716718,1
78,428,9,0.196318014856106,1
78,429,9,0.117881122173522,1
79,427,9,0.179806484600626,1
79,428,9,0.153248992437455,1
26,446,10,0.149966552892107,1
26,447,10,0.177389585509434,1
26,448,10,0.160729301551517,1
26,449,10,0.118591024600405,1
27,444,10,0.154313437593316,1
27,445,10,0.167991784963497,1
27,446,10,0.164361273083082,1
27,447,10,0.187872495078655,1
27,448,10,0.138082726790737,1
28,443,10,0.117759862198746,1
28,444,10,0.207171610460326,1
28,445,10,0.249484217687785,1
28,446,10,0.183096255080489,1
28,447,10,0.137361593764322,1
28,456,10,0.104653926831302,1
28,457,10,0.138120525219813,1
28,458,10,0.124622107086368,1
29,443,10,0.139876365733106,1
29,444,10,0.236986793456781,1
29,445,10,0.262352219024596,1
29,446,10,0.165683205059258,1
29,457,10,0.138382652423639,1
29,458,10,0.14550629468951,1
29,459,10,0.147172421121573,1
30,443,10,0.127132685281321,1
30,444,10,0.158434936906627,1
30,445,10,0.141806536522746,1
30,457,10,0.113375930679876,1
30,458,10,0.166321671723064,1
30,459,10,0.230769028124278,1
30,460,10,0.273238558743455,1
31,458,10,0.153755676566691,1
31,459,10,0.223908493424946,1
31,460,10,0.244660811350166,1
31,461,10,0.214787242307646,1
32,459,10,0.115502380977733,1
32,460,10,0.124670308253128,1
32,461,10,0.121798401040634,1
42,432,10,0.144413124906135,1
43,431,10,0.186507350892641,1
43,432,10,0.160253716706145,1
44,432,10,0.108873211878853,1
69,431,10,0.11106936596566,1
70,431,10,0.1037955103462,1
70,432,10,0.112295298646318,1
70,433,10,0.145994842108542,1
70,434,10,0.113716672080428,1
71,433,10,0.145145946034683,1
71,434,10,0.130052085620837,1
72,433,10,0.112023923354226,1
72,434,10,0.105522909447874,1
73,426,10,0.205414756905562,1
73,427,10,0.209301437563086,1
74,425,10,0.169986038795861,1
74,426,10,0.252641552057935,1
74,427,10,0.228490883035842,1
74,428,10,0.153856033029825,1
74,429,10,0.113906655481438,1
74,430,10,0.102745748845207,1
74,436,10,0.132742375194145,1
74,437,10,0.10487475897904,1
75,425,10,0.176706958951831,1
75,426,10,0.23663900433761,1
75,427,10,0.195124521288355,1
75,428,10,0.15001985194498,1
75,429,10,0.148332516999542,1
75,430,10,0.149455195700601,1
75,431,10,0.121916752606025,1
75,437,10,0.123071510953663,1
75,438,10,0.125259833031679,1
75,439,10,0.167060342349138,1
75,440,10,0.158068205001242,1
76,425,10,0.174956946150226,1
76,426,10,0.226937073492021,1
76,427,10,0.188411128139442,1
76,428,10,0.151896789039262,1
76,429,10,0.160734998548176,1
76,430,10,0.169254056422079,1
76,431,10,0.124922882366954,1
76,439,10,0.176415725868326,1
76,440,10,0.174452037566793,1
76,441,10,0.120768736975274,1
77,426,10,0.206299458004312,1
77,427,10,0.21130854503992,1
77,428,10,0.163579412033008,1
77,429,10,0.125847571371507,1
77,430,10,0.11383171219843,1
77,440,10,0.111728169709318,1
77,441,10,0.103935778464703,1
78,427,10,0.21333865836177,1
78,428,10,0.16976979256704,1
26,445,11,0.135206288123922,1
26,446,11,0.13432422311158,1
26,447,11,0.141666715013923,1
26,448,11,0.122237342106349,1
27,444,11,0.172445518307588,1
27,445,11,0.182580736793909,1
27,446,11,0.150519869607763,1
27,447,11,0.146252721073941,1
27,448,11,0.106701240072319,1
27,457,11,0.117681041036559,1
28,443,11,0.129164192896808,1
28,444,11,0.222615765364722,1
28,445,11,0.251670448325344,1
28,446,11,0.16103397649712,1
28,447,11,0.108596106911345,1
28,456,11,0.106708690828944,1
28,457,11,0.156482021702028,1
28,458,11,0.136274349728905,1
29,443,11,0.143111638939001,1
29,444,11,0.210941540811558,1
29,445,11,0.214336885462775,1
29,446,11,0.126768600355262,1
29,457,11,0.127228749934352,1
29,458,11,0.130771791674859,1
29,459,11,0.138975368827469,1
30,443,11,0.136081501490186,1
30,444,11,0.138610358003292,1
30,445,11,0.111027046975182,1
30,458,11,0.127770988551341,1
30,459,11,0.187819577277949,1
30,460,11,0.254404963149962,1
31,458,11,0.115336961109162,1
31,459,11,0.173543099723175,1
31,460,11,0.215044293411198,1
31,461,11,0.215422887705421,1
32,460,11,0.107851565001908,1
32,461,11,0.112470794465003,1
32,462,11,0.111928174595847,1
42,432,11,0.110950349932207,1
43,431,11,0.156839614448337,1
43,432,11,0.129526752814201,1
44,431,11,0.120594733486498,1
69,431,11,0.10695921707399,1
69,432,11,0.104705406766694,1
69,433,11,0.102769037906119,1
70,432,11,0.106092554649174,1
70,433,11,0.141715341004527,1
70,434,11,0.12034809601355,1
71,433,11,0.126494687013033,1
71,434,11,0.130371476900067,1
72,434,11,0.102791063388422,1
73,427,11,0.181043190378217,1
73,434,11,0.100559333028024,1
74,426,11,0.23076172986852,1
74,427,11,0.234461248391065,1
74,428,11,0.14933491608854,1
74,436,11,0.11937050010121,1
75,425,11,0.150305856427345,1
75,426,11,0.231894484519693,1
75,427,11,0.212817323256422,1
75,428,11,0.146612873656226,1
75,429,11,0.12284767236027,1
75,430,11,0.116165901355336,1
75,438,11,0.113847027642603,1
75,439,11,0.16399825566309,1
75,440,11,0.18002963694012,1
75,441,11,0.117620792301338,1
76,426,11,0.197833873469986,1
76,427,11,0.179780777311687,1
76,429,11,0.135949849670645,1
76,430,11,0.136224285872988,1
76,439,11,0.150532799502666,1
76,440,11,0.188300891798738,1
76,441,11,0.144970188785941,1
77,427,11,0.175692054791773,1
77,440,11,0.105694723459923,1
25,450,12,0.12326120024586,1
25,451,12,0.14244412086011,1
26,445,12,0.127920014576754,1
26,446,12,0.117939540898344,1
26,447,12,0.110814373623807,1
27,444,12,0.188363809299124,1
27,445,12,0.194695035276369,1
27,446,12,0.132838864671018,1
27,447,12,0.102929512389445,1
27,457,12,0.132964928423091,1
27,458,12,0.120657367770989,1
28,443,12,0.134894565459698,1
28,444,12,0.233320084406391,1
28,445,12,0.245867528921635,1
28,446,12,0.137058552756574,1
28,456,12,0.10446918292435,1
28,457,12,0.165699130506897,1
28,458,12,0.151415267553012,1
28,459,12,0.11846987355482,1
29,443,12,0.135770595794891,1
29,444,12,0.179766507587742,1
29,445,12,0.168755541982124,1
29,457,12,0.118075135954578,1
29,458,12,0.124849376949259,1
29,459,12,0.132090728098298,1
29,460,12,0.146068957529703,1
30,443,12,0.132038224228515,1
30,444,12,0.111612998876287,1
30,459,12,0.143441629028459,1
30,460,12,0.204479120517372,1
30,461,12,0.237915022660023,1
31,459,12,0.12025849086151,1
31,460,12,0.161735687448884,1
31,461,12,0.182220322781568,1
31,462,12,0.140699336659645,1
32,462,12,0.100820120402808,1
43,431,12,0.124882883568232,1
44,431,12,0.11569570850489,1
50,428,12,0.10592932425733,1
68,431,12,0.109554400571142,1
68,432,12,0.107183502277064,1
69,431,12,0.100875859469545,1
69,432,12,0.107249099435535,1
69,433,12,0.1024941006295,1
70,433,12,0.128270167459358,1
70,434,12,0.121066919741129,1
71,433,12,0.109119391849201,1
71,434,12,0.12575907729721,1
74,427,12,0.230918500759372,1
74,439,12,0.102556495269772,1
75,426,12,0.214800226667144,1
75,427,12,0.228265791756759,1
75,438,12,0.102458992751428,1
75,439,12,0.156008266867055,1
75,440,12,0.178508026864986,1
75,441,12,0.122597091650629,1
76,440,12,0.170772638265719,1
76,441,12,0.141864748282106,1
25,449,13,0.106578465981797,1
25,450,13,0.11232199719089,1
25,451,13,0.118372806753238,1
25,452,13,0.122723536654868,1
25,453,13,0.119924405034493,1
26,444,13,0.120999743109397,1
26,445,13,0.122683319997765,1
26,446,13,0.109505447792967,1
27,443,13,0.128243153020134,1
27,444,13,0.19404215728067,1
27,445,13,0.184613235665029,1
27,446,13,0.115041741217287,1
27,457,13,0.13101622877816,1
27,458,13,0.135694868221711,1
28,443,13,0.130754254075201,1
28,444,13,0.219437429446659,1
28,445,13,0.204865361640762,1
28,446,13,0.107908829077311,1
28,457,13,0.154459555209345,1
28,458,13,0.161007659204715,1
28,459,13,0.134852693078901,1
29,443,13,0.115855028338798,1
29,444,13,0.145884104693561,1
29,445,13,0.124908852287228,1
29,457,13,0.108226281416951,1
29,458,13,0.122472814337279,1
29,459,13,0.128408681817896,1
29,460,13,0.146739634555117,1
30,443,13,0.108474095325156,1
30,459,13,0.11115987522998,1
30,460,13,0.158049730610547,1
30,461,13,0.18781707190657,1
31,460,13,0.115993008944302,1
31,461,13,0.136729477672317,1
31,462,13,0.119950155895109,1
44,431,13,0.104463878072777,1
67,430,13,0.112630865910325,1
67,432,13,0.102463317240287,1
68,431,13,0.117201000987299,1
68,432,13,0.135571309841018,1
69,431,13,0.100529671609473,1
69,432,13,0.115618837175211,1
69,433,13,0.104047409099045,1
70,433,13,0.109626021513843,1
70,434,13,0.112617456726984,1
71,434,13,0.113519194351116,1
73,435,13,0.105581959962001,1
75,439,13,0.136781066536899,1
75,440,13,0.15724060458411,1
75,441,13,0.113415101616751,1
76,441,13,0.119849777646137,1
25,448,14,0.100280321799683,1
26,444,14,0.113194509113232,1
26,445,14,0.111768876547777,1
26,458,14,0.108104945191743,1
27,443,14,0.131164851765569,1
27,444,14,0.190802276370019,1
27,445,14,0.158903975107655,1
27,457,14,0.111953108487534,1
27,458,14,0.142811430090205,1
27,459,14,0.146121701043704,1
28,443,14,0.132860726759536,1
28,444,14,0.195572655977741,1
28,445,14,0.154811418280238,1
28,457,14,0.12001835646123,1
28,458,14,0.146517419006661,1
28,459,14,0.141731843776875,1
28,460,14,0.139035465061823,1
29,443,14,0.101690943922698,1
29,444,14,0.119237889704793,1
29,458,14,0.104744773776112,1
29,459,14,0.114678854512323,1
29,460,14,0.144447807960364,1
29,461,14,0.175186383704007,1
30,460,14,0.12217252923805,1
30,461,14,0.148734019102509,1
30,462,14,0.136677605591839,1
52,427,14,0.129157962147116,1
67,430,14,0.114735846264751,1
67,431,14,0.100527079094741,1
67,432,14,0.117191992543251,1
68,431,14,0.117630192890471,1
68,432,14,0.159710955229041,1
68,433,14,0.125356442330662,1
69,431,14,0.103856881052083,1
69,432,14,0.134421028483106,1
69,433,14,0.119688911017725,1
70,433,14,0.100315331641484,1
70,434,14,0.102326992358477,1
71,434,14,0.104170923908062,1
71,435,14,0.101981479859385,1
72,435,14,0.111683051238646,1
73,435,14,0.123845703388733,1
73,436,14,0.0998834382943894,1
75,440,14,0.120798082499173,1
26,444,15,0.106657505002366,1
26,445,15,0.104055458966217,1
26,458,15,0.128289219174763,1
27,443,15,0.127019649460422,1
27,444,15,0.165109660192941,1
27,445,15,0.124960441151811,1
27,457,15,0.103640362500285,1
27,458,15,0.153499475110825,1
27,459,15,0.183631108298368,1
28,443,15,0.133513005644687,1
28,444,15,0.15881239833727,1
28,445,15,0.109170490532427,1
28,457,15,0.100912764679259,1
28,458,15,0.132102797452596,1
28,459,15,0.151470080721631,1
28,460,15,0.151308244623425,1
29,459,15,0.108469825300891,1
29,460,15,0.143493435751422,1
29,461,15,0.190303249962869,1
30,460,15,0.104147961634722,1
30,461,15,0.133354633494736,1
30,462,15,0.14240648582482,1
52,427,15,0.125564213868469,1
67,430,15,0.114078218956349,1
67,431,15,0.104119237007208,1
67,432,15,0.119914873730332,1
67,433,15,0.101525654769155,1
68,431,15,0.119917782139716,1
68,432,15,0.172994586784817,1
68,433,15,0.155966873774695,1
69,432,15,0.156470605922872,1
69,433,15,0.149296137296751,1
70,433,15,0.103774715763749,1
71,434,15,0.106120091948512,1
71,435,15,0.11595641962924,1
72,434,15,0.121509727793103,1
72,435,15,0.146195805571947,1
72,436,15,0.107908240859683,1
73,436,15,0.111503666647863,1
26,458,16,0.135105888089112,1
26,459,16,0.156503273787078,1
27,443,16,0.131657135455832,1
27,444,16,0.134785200552517,1
27,458,16,0.151107814913053,1
27,459,16,0.192995587404956,1
27,460,16,0.141586869917346,1
28,442,16,0.108446688740846,1
28,443,16,0.156094985395548,1
28,444,16,0.137019011460452,1
28,458,16,0.115702342292587,1
28,459,16,0.149102994949218,1
28,460,16,0.153504965142022,1
28,461,16,0.169779661551692,1
29,441,16,0.105510240983028,1
29,442,16,0.108639231977832,1
29,443,16,0.106887095057013,1
29,459,16,0.103272878983486,1
29,460,16,0.140088919262372,1
29,461,16,0.187501460470248,1
29,462,16,0.207879258052968,1
30,461,16,0.118429961899451,1
30,462,16,0.136918208387638,1
30,463,16,0.12541615731285,1
52,427,16,0.118700999511053,1
67,431,16,0.108249744764567,1
67,432,16,0.116965474291773,1
67,433,16,0.11286469331048,1
68,431,16,0.12142539481388,1
68,432,16,0.173496140349185,1
68,433,16,0.186532796751523,1
68,434,16,0.124455271138321,1
69,432,16,0.16886064775796,1
69,433,16,0.18868460576491,1
69,434,16,0.135541408778248,1
70,433,16,0.116127841496204,1
70,434,16,0.107399715827128,1
71,434,16,0.115117338075438,1
71,435,16,0.150522952303852,1
71,436,16,0.12268610858504,1
72,435,16,0.201829069387006,1
72,436,16,0.146380429656789,1
73,436,16,0.132405130420606,1
24,449,17,0.124659524263277,1
26,458,17,0.127810769491683,1
26,459,17,0.139538445598586,1
27,443,17,0.138417923695497,1
27,444,17,0.11339976438674,1
27,458,17,0.130312600672645,1
27,459,17,0.160269424295403,1
27,460,17,0.130223191593149,1
28,442,17,0.127120833785403,1
28,443,17,0.180063394096231,1
28,444,17,0.126739015187144,1
28,459,17,0.13177143485534,1
28,460,17,0.149163635829524,1
28,461,17,0.167815036459122,1
29,441,17,0.135103938256604,1
29,442,17,0.129678382247265,1
29,443,17,0.124015066493997,1
29,459,17,0.100123289478774,1
29,460,17,0.137925814291938,1
29,461,17,0.171086953444675,1
29,462,17,0.193840747207584,1
30,461,17,0.104680560018359,1
30,462,17,0.120544440879281,1
30,463,17,0.117273504256442,1
67,432,17,0.114456954858519,1
67,433,17,0.119293683236126,1
68,432,17,0.159160666744879,1
68,433,17,0.203269919360362,1
68,434,17,0.169337648682807,1
69,433,17,0.214353791273128,1
69,434,17,0.178945421136197,1
69,435,17,0.103497665260836,1
70,434,17,0.120719032585685,1
70,435,17,0.115624000418837,1
70,436,17,0.102324846453426,1
71,435,17,0.192183193502807,1
71,436,17,0.172749822893944,1
71,437,17,0.102004921421164,1
72,436,17,0.200071801901318,1
72,437,17,0.108899126133254,1
24,448,18,0.113649408305343,1
24,449,18,0.114781008307099,1
26,457,18,0.102254184087601,1
26,458,18,0.114378286197198,1
26,459,18,0.112643338302628,1
27,443,18,0.132784694184623,1
27,458,18,0.10604938601101,1
27,459,18,0.119073798772345,1
27,460,18,0.115855322447612,1
27,461,18,0.116078158892453,1
28,441,18,0.109863955544476,1
28,442,18,0.142507920686939,1
28,443,18,0.187080906651876,1
28,444,18,0.117964736220088,1
28,459,18,0.112185182127723,1
28,460,18,0.140988009907176,1
28,461,18,0.158689090493715,1
28,462,18,0.187696835866185,1
29,441,18,0.150064502020133,1
29,442,18,0.140720174813772,1
29,443,18,0.132844975598601,1
29,460,18,0.127586941791208,1
29,461,18,0.144670698869801,1
29,462,18,0.162792518454335,1
29,463,18,0.158128867667386,1
30,441,18,0.102914491054086,1
30,462,18,0.103252443867363,1
30,463,18,0.110861561749096,1
67,432,18,0.11397542247935,1
67,433,18,0.119066958019186,1
67,434,18,0.106930067622634,1
68,432,18,0.1384021943204,1
68,433,18,0.195985933326193,1
68,434,18,0.191849739465094,1
68,435,18,0.107750892644122,1
69,433,18,0.205872390220353,1
69,434,18,0.19950772298165,1
69,435,18,0.115740554652586,1
70,434,18,0.124187697474974,1
70,435,18,0.12120982394604,1
70,436,18,0.115392852676766,1
71,435,18,0.206926846569453,1
71,436,18,0.206127415240963,1
71,437,18,0.123039572915032,1
72,436,18,0.239244154855685,1
72,437,18,0.13333719393135,1
25,458,19,0.103758877459462,1
26,456,19,0.100870064436615,1
26,457,19,0.112490445290955,1
26,458,19,0.106070289522652,1
27,443,19,0.119126411571318,1
27,460,19,0.106725019314588,1
27,461,19,0.118714234407689,1
28,441,19,0.116158624885416,1
28,442,19,0.152161552329496,1
28,443,19,0.178283000943418,1
28,444,19,0.113962895622452,1
28,459,19,0.101782008725889,1
28,460,19,0.133649112668117,1
28,461,19,0.147479971797804,1
28,462,19,0.16802653337524,1
29,441,19,0.137410949580501,1
29,442,19,0.144619698222847,1
29,443,19,0.141209833310546,1
29,460,19,0.116839236252996,1
29,461,19,0.124298859713797,1
29,462,19,0.13546998390809,1
58,428,19,0.104253328840615,1
67,433,19,0.115035641182623,1
67,434,19,0.109030669023605,1
68,433,19,0.171897146977177,1
68,434,19,0.18906174040798,1
68,435,19,0.113761322155581,1
69,434,19,0.196108151877844,1
69,435,19,0.12154011903723,1
70,435,19,0.121794207266803,1
70,436,19,0.12171794594059,1
71,436,19,0.22306104610932,1
71,437,19,0.146842899427635,1
72,437,19,0.171435298102717,1
25,457,20,0.103131325500536,1
26,455,20,0.10131707715534,1
26,456,20,0.119143872920542,1
26,457,20,0.118014549538866,1
27,443,20,0.0997588124076303,1
27,460,20,0.101536133757274,1
27,461,20,0.119064354611535,1
28,441,20,0.107956943100719,1
28,442,20,0.141909529072288,1
28,443,20,0.156429659440193,1
28,444,20,0.105645378536663,1
28,460,20,0.122994519801875,1
28,461,20,0.136234906469054,1
28,462,20,0.143775409853742,1
29,441,20,0.115750412744319,1
29,442,20,0.138305334484279,1
29,443,20,0.14440180716325,1
29,460,20,0.10730907584778,1
29,461,20,0.1133197123247,1
29,462,20,0.117349830940169,1
58,428,20,0.108831023603403,1
67,433,20,0.104091057025647,1
67,434,20,0.102553717575417,1
68,434,20,0.160846356859542,1
68,435,20,0.108371810815352,1
69,434,20,0.165067003521973,1
69,435,20,0.116976628640872,1
70,435,20,0.116685874845804,1
70,436,20,0.121601772959008,1
70,437,20,0.103909188849322,1
71,436,20,0.22122626461173,1
71,437,20,0.172256809378105,1
72,437,20,0.220906296007791,1
25,457,21,0.102354834659548,1
26,453,21,0.110059374512089,1
26,454,21,0.115982170489856,1
26,455,21,0.115096990102668,1
26,456,21,0.129759294849909,1
26,457,21,0.118927005795335,1
27,456,21,0.106036837368274,1
27,457,21,0.107277606204668,1
27,461,21,0.1184168903966,1
28,442,21,0.114060735821287,1
28,443,21,0.121615203928187,1
28,460,21,0.108941477802489,1
28,461,21,0.128447057571681,1
28,462,21,0.132800292844691,1
29,442,21,0.124352768770136,1
29,443,21,0.136477012487681,1
29,461,21,0.111754759324699,1
29,462,21,0.118247244075441,1
51,429,21,0.104756211341106,1
69,435,21,0.110718897188404,1
69,436,21,0.102634107317946,1
70,436,21,0.127787186321957,1
70,437,21,0.118994324035015,1
71,437,21,0.198704958419933,1
71,438,21,0.118341609433101,1
25,453,22,0.106503010731594,1
25,454,22,0.101076670432084,1
25,456,22,0.103308498828753,1
25,457,22,0.105884053285791,1
25,458,22,0.102506714629751,1
26,452,22,0.101039111647227,1
26,453,22,0.135825387177672,1
26,454,22,0.129797158636498,1
26,455,22,0.12356194284769,1
26,456,22,0.137036374773405,1
26,457,22,0.124777723327801,1
26,458,22,0.103319805678719,1
27,456,22,0.119862794684392,1
27,457,22,0.116304067140465,1
27,460,22,0.104660713119865,1
27,461,22,0.126411454218633,1
28,460,22,0.104475609746585,1
28,461,22,0.131869634520503,1
28,462,22,0.145070632392427,1
29,442,22,0.114911952086902,1
29,443,22,0.12812461627512,1
29,461,22,0.120094007783977,1
29,462,22,0.141259962523977,1
29,463,22,0.158154400669621,1
30,442,22,0.110524861621509,1
30,443,22,0.110985653882822,1
30,462,22,0.113231218250404,1
30,463,22,0.138189499183187,1
31,463,22,0.101785320173278,1
47,430,22,0.103137785001527,1
48,429,22,0.116027833606479,1
48,430,22,0.130041552168124,1
49,429,22,0.109847332950018,1
49,430,22,0.109066550298929,1
50,429,22,0.118831278822795,1
51,429,22,0.125882962465475,1
69,436,22,0.112570540924671,1
69,437,22,0.109071571934607,1
70,437,22,0.125791265872979,1
25,452,23,0.101813543726515,1
25,453,23,0.111488569062071,1
25,456,23,0.106576080432527,1
25,457,23,0.112243524602112,1
26,452,23,0.122898433363006,1
26,453,23,0.144498917536509,1
26,454,23,0.13071196776348,1
26,455,23,0.131764768388886,1
26,456,23,0.14473278850834,1
26,457,23,0.136330263082348,1
26,458,23,0.115280394180577,1
26,459,23,0.108678163270488,1
27,454,23,0.101208747075468,1
27,455,23,0.11963098247426,1
27,456,23,0.13362803486977,1
27,457,23,0.12170112727359,1
27,458,23,0.103332735573621,1
27,459,23,0.0997237372083152,1
27,460,23,0.111921235806417,1
27,461,23,0.130569586418683,1
28,460,23,0.102134928409929,1
28,461,23,0.129845555875802,1
28,462,23,0.157702747567384,1
29,442,23,0.105925860309074,1
29,443,23,0.114289879266254,1
29,461,23,0.124841762798849,1
29,462,23,0.165973435994212,1
30,442,23,0.121017738211654,1
30,443,23,0.126595370263738,1
30,461,23,0.104500652567462,1
30,462,23,0.139153990913919,1
30,463,23,0.160656928997402,1
31,462,23,0.10273877737702,1
31,463,23,0.118796475946456,1
47,430,23,0.135423830610109,1
48,429,23,0.161389673875516,1
48,430,23,0.179380353607705,1
48,431,23,0.115770935003794,1
49,429,23,0.147309606543987,1
49,430,23,0.141034555350242,1
49,431,23,0.102723080680681,1
50,429,23,0.136072166258568,1
50,430,23,0.106171452061795,1
51,429,23,0.128675514762748,1
69,437,23,0.119064256575264,1
69,438,23,0.100413117375724,1
70,438,23,0.122412195242811,1
25,451,24,0.129710233142544,1
25,452,24,0.132527142006795,1
25,453,24,0.110765878348232,1
25,456,24,0.113564803003145,1
25,457,24,0.121756528659837,1
25,458,24,0.113481210742417,1
26,451,24,0.126541689958699,1
26,452,24,0.143375204008141,1
26,453,24,0.135217475151778,1
26,454,24,0.128033366292305,1
26,455,24,0.145258829354715,1
26,456,24,0.160796423718653,1
26,457,24,0.155578639247121,1
26,458,24,0.135441008743438,1
26,459,24,0.13466316718049,1
27,451,24,0.101114632254945,1
27,452,24,0.112271541189888,1
27,453,24,0.109043054272555,1
27,454,24,0.12097071348015,1
27,455,24,0.144436076286556,1
27,456,24,0.145305124260643,1
27,457,24,0.12615213738792,1
27,458,24,0.110532878809924,1
27,459,24,0.110690096310457,1
27,460,24,0.123160473423479,1
28,460,24,0.101626893558731,1
28,461,24,0.123230122747833,1
29,443,24,0.102895286837815,1
29,461,24,0.119037405529826,1
29,462,24,0.167361139415562,1
30,442,24,0.123619370316879,1
30,443,24,0.141989461312218,1
30,461,24,0.107630406066599,1
30,462,24,0.147826628053395,1
30,463,24,0.167377446115368,1
31,442,24,0.102031358535678,1
31,443,24,0.110567638114587,1
31,462,24,0.111790215776181,1
31,463,24,0.127652462699246,1
47,429,24,0.128475281124918,1
47,430,24,0.166952088519699,1
47,431,24,0.109937744178067,1
48,429,24,0.194405610417424,1
48,430,24,0.223351080971731,1
48,431,24,0.135792120202918,1
49,429,24,0.178935475901112,1
49,430,24,0.170325734476184,1
49,431,24,0.116800599069154,1
50,429,24,0.138297186580836,1
50,430,24,0.112982358621971,1
69,438,24,0.126973310982818,1
69,439,24,0.111192793631324,1
70,439,24,0.131433155254492,1
24,451,25,0.118954270771697,1
24,452,25,0.114600697818197,1
25,450,25,0.11242672171456,1
25,451,25,0.180028558541135,1
25,452,25,0.165847797065982,1
25,453,25,0.107253663568613,1
25,455,25,0.105449404030179,1
25,456,25,0.121743108583577,1
25,457,25,0.126937571315441,1
26,450,25,0.104681104664312,1
26,451,25,0.166764109415791,1
26,452,25,0.160499003457132,1
26,453,25,0.119394747738997,1
26,454,25,0.130111103456207,1
26,455,25,0.171797182659129,1
26,456,25,0.180771597227744,1
26,457,25,0.167077531375386,1
26,458,25,0.158933157237769,1
27,446,25,0.102196571438788,1
27,451,25,0.128627422525178,1
27,452,25,0.136297366466841,1
27,453,25,0.118822194128314,1
27,454,25,0.142713219532123,1
27,455,25,0.171071986573911,1
27,456,25,0.151281556971772,1
27,457,25,0.123794735420535,1
27,458,25,0.116296485668811,1
27,459,25,0.128165355792337,1
28,455,25,0.102252964080668,1
28,460,25,0.103837524334945,1
29,461,25,0.11304967686165,1
30,442,25,0.112107297756573,1
30,443,25,0.138880273644233,1
30,461,25,0.107387744509101,1
30,462,25,0.143120854348511,1
31,442,25,0.102675021121868,1
31,443,25,0.125618722035355,1
31,462,25,0.113835415790904,1
47,430,25,0.182721538665445,1
47,431,25,0.12637305667901,1
47,433,25,0.109734057484901,1
48,429,25,0.1904354682142,1
48,430,25,0.240482875823299,1
48,431,25,0.155045637825479,1
48,432,25,0.102817489610018,1
48,433,25,0.100254396652363,1
49,429,25,0.180434831742643,1
49,430,25,0.182519954305655,1
49,431,25,0.130260249303729,1
49,432,25,0.106693418956447,1
50,430,25,0.113421179865576,1
50,431,25,0.101115351187602,1
50,432,25,0.104649754843309,1
50,433,25,0.102128458016018,1
66,446,25,0.101079371876006,1
67,446,25,0.128925899399846,1
68,445,25,0.107307289409057,1
68,446,25,0.122886287758274,1
69,439,25,0.12421742425104,1
25,450,26,0.122961100326254,1
25,451,26,0.202514865784049,1
25,452,26,0.178932306061671,1
25,453,26,0.110773699464104,1
25,455,26,0.118517573647305,1
25,456,26,0.12892881870215,1
26,450,26,0.111682789808589,1
26,451,26,0.186296572909179,1
26,452,26,0.166730450295952,1
26,453,26,0.11667966588195,1
26,454,26,0.135721185514116,1
26,455,26,0.187874956878359,1
26,456,26,0.187789796037289,1
26,457,26,0.167220217721916,1
26,458,26,0.16923357773428,1
27,446,26,0.115975100985397,1
27,447,26,0.106808873005373,1
27,451,26,0.143661557063916,1
27,452,26,0.149053355917144,1
27,453,26,0.127841258772081,1
27,454,26,0.153338020264785,1
27,455,26,0.180341185317639,1
27,456,26,0.152354585747838,1
27,457,26,0.126059493111469,1
27,458,26,0.124458244905219,1
27,459,26,0.143865211078324,1
28,446,26,0.116006919201919,1
28,447,26,0.110066716339524,1
28,452,26,0.109657131690627,1
28,453,26,0.104659318826228,1
28,454,26,0.110064319897334,1
28,455,26,0.108788018359026,1
30,443,26,0.116578296377346,1
30,461,26,0.106969892134651,1
31,443,26,0.117807932650479,1
46,433,26,0.134754711272119,1
46,434,26,0.127698343674251,1
47,430,26,0.182795022297302,1
47,431,26,0.145552251914948,1
47,432,26,0.105317719531881,1
47,433,26,0.121039741908119,1
47,434,26,0.105112170149559,1
48,430,26,0.236363522415038,1
48,431,26,0.177796359785218,1
48,432,26,0.117041997048043,1
48,433,26,0.104843757731446,1
49,430,26,0.183408043102227,1
49,431,26,0.145537350401698,1
49,432,26,0.116836763560374,1
49,433,26,0.105904335901048,1
50,430,26,0.115735326051446,1
50,431,26,0.108125576380408,1
50,432,26,0.107077840962357,1
50,433,26,0.107109822572664,1
54,432,26,0.100554453000293,1
66,446,26,0.120467536870845,1
66,447,26,0.121134739055084,1
67,446,26,0.140717723906988,1
67,447,26,0.10198665399593,1
68,445,26,0.125462626505483,1
68,446,26,0.136182337241758,1
69,445,26,0.116525226075773,1
25,451,27,0.189842326986527,1
25,452,27,0.175592057794968,1
25,453,27,0.135185787650285,1
25,454,27,0.127696884023099,1
26,450,27,0.118335563863033,1
26,451,27,0.185458733148147,1
26,452,27,0.17178694331523,1
26,453,27,0.13894874653333,1
26,454,27,0.150771626752661,1
26,455,27,0.188905775593138,1
26,456,27,0.182352225138247,1
26,457,27,0.160610732127745,1
27,446,27,0.103551443602146,1
27,447,27,0.10243361225006,1
27,451,27,0.145653044094843,1
27,452,27,0.154912755106086,1
27,453,27,0.141273404386075,1
27,454,27,0.153358640560531,1
27,455,27,0.172703103164173,1
27,456,27,0.154551110193893,1
27,457,27,0.13610556394835,1
27,458,27,0.134260978823623,1
28,446,27,0.111219742713034,1
28,447,27,0.1126245589102,1
28,452,27,0.119301700424541,1
28,453,27,0.11827261368389,1
28,454,27,0.118251742851005,1
28,455,27,0.117562286433163,1
28,456,27,0.106798317766821,1
28,457,27,0.102527803321016,1
28,458,27,0.105266413883193,1
28,459,27,0.103436468841658,1
41,463,27,0.105148868393811,1
41,464,27,0.113073619497704,1
42,463,27,0.115997660220733,1
42,464,27,0.116501773621076,1
43,463,27,0.101605205756919,1
45,433,27,0.112309731764049,1
45,434,27,0.107379858035714,1
46,432,27,0.108873996169024,1
46,433,27,0.16934648284015,1
46,434,27,0.157786470543141,1
47,430,27,0.166786429006908,1
47,431,27,0.161539691156562,1
47,432,27,0.121330539274863,1
47,433,27,0.12520433360916,1
47,434,27,0.111930799789336,1
48,430,27,0.209266819866371,1
48,431,27,0.195811058403894,1
48,432,27,0.134972253758306,1
48,433,27,0.102786368540315,1
49,430,27,0.169453560234332,1
49,431,27,0.155391509790899,1
49,432,27,0.122725061663534,1
49,433,27,0.103412221203871,1
50,431,27,0.110165242792258,1
50,432,27,0.103691352254321,1
50,433,27,0.10047069734578,1
53,432,27,0.102229271981752,1
53,433,27,0.109573223535247,1
53,434,27,0.101777923881248,1
54,432,27,0.109396823604281,1
54,433,27,0.123763930245485,1
54,434,27,0.112259755051484,1
55,432,27,0.100660081636243,1
55,433,27,0.106300162793194,1
65,447,27,0.114985511969192,1
66,446,27,0.11810217217964,1
66,447,27,0.120910018135248,1
67,446,27,0.126294867306127,1
26,450,28,0.125921806614778,1
26,451,28,0.16823529616868,1
26,452,28,0.171657982046692,1
26,453,28,0.170923995375807,1
26,454,28,0.17014591416864,1
26,455,28,0.176731010517076,1
26,456,28,0.16955978798083,1
27,450,28,0.101495285310866,1
27,451,28,0.138466647722371,1
27,452,28,0.154997218800337,1
27,453,28,0.153802755762791,1
27,454,28,0.149425675889998,1
27,455,28,0.159467226165477,1
27,456,28,0.160061805258463,1
27,457,28,0.147039440365909,1
28,447,28,0.102282603713381,1
28,451,28,0.104107298367938,1
28,452,28,0.128138177959327,1
28,453,28,0.130223409451529,1
28,454,28,0.126363296623549,1
28,455,28,0.1343221752428,1
28,456,28,0.135572399132922,1
28,457,28,0.123115986742112,1
28,458,28,0.117857528110877,1
29,453,28,0.100491720679531,1
29,454,28,0.102082838471071,1
29,455,28,0.11263876327663,1
29,456,28,0.117195423812749,1
29,457,28,0.103391088940929,1
40,463,28,0.109531895800401,1
41,463,28,0.127138534778846,1
42,462,28,0.122849567728184,1
42,463,28,0.158941370498726,1
43,462,28,0.107922074866866,1
43,463,28,0.135549110072011,1
44,463,28,0.109918975678557,1
45,433,28,0.116657575042133,1
45,434,28,0.112838267088884,1
45,463,28,0.120162339065127,1
46,431,28,0.107713475467213,1
46,432,28,0.12483368025292,1
46,433,28,0.173689500555099,1
46,434,28,0.159989617883972,1
47,431,28,0.169936399763786,1
47,432,28,0.146179215656246,1
47,433,28,0.131150843471681,1
47,434,28,0.114221439055913,1
48,431,28,0.203568102126217,1
48,432,28,0.155157475425282,1
48,433,28,0.105485034768365,1
49,430,28,0.153389500200177,1
49,431,28,0.157832111873926,1
49,432,28,0.124896042214435,1
50,431,28,0.110926516225344,1
52,433,28,0.100763499009627,1
52,434,28,0.101098478056006,1
53,432,28,0.10285305499069,1
53,433,28,0.129319493243589,1
53,434,28,0.141561217093002,1
54,432,28,0.112625452129561,1
54,433,28,0.157827939885933,1
54,434,28,0.168268160105429,1
54,435,28,0.103476162638647,1
55,432,28,0.0997314602879159,1
55,433,28,0.118492944757351,1
55,434,28,0.111340556078128,1
65,447,28,0.115167870326874,1
26,452,29,0.168895592242246,1
26,453,29,0.202905224430837,1
26,454,29,0.192881996045187,1
27,450,29,0.103230026239975,1
27,451,29,0.124277182804904,1
27,452,29,0.151604096304604,1
27,453,29,0.164691753353896,1
27,454,29,0.148591278291384,1
27,455,29,0.145772212629162,1
27,456,29,0.159958050204589,1
27,457,29,0.146985237200756,1
28,451,29,0.105080003359628,1
28,452,29,0.13004728184354,1
28,453,29,0.134694059498893,1
28,454,29,0.129474140015228,1
28,455,29,0.14702521421364,1
28,456,29,0.162392606717548,1
28,457,29,0.137105621059754,1
28,458,29,0.131868599693194,1
29,452,29,0.109725114398368,1
29,453,29,0.113673579692698,1
29,454,29,0.11578735063279,1
29,455,29,0.136128319256229,1
29,456,29,0.152873938341921,1
29,457,29,0.124726025534028,1
29,458,29,0.105446397584524,1
29,459,29,0.106794625067266,1
30,455,29,0.111482937422926,1
30,456,29,0.12858770694235,1
30,457,29,0.111058941442137,1
41,462,29,0.12125109721629,1
41,463,29,0.145851698259411,1
42,461,29,0.111557673740473,1
42,462,29,0.16481427690728,1
42,463,29,0.193655785442251,1
43,461,29,0.10099701051513,1
43,462,29,0.142213594014425,1
43,463,29,0.165112361636864,1
45,433,29,0.103468602952832,1
45,434,29,0.106779178908065,1
46,431,29,0.113809937253265,1
46,432,29,0.142504979598797,1
46,433,29,0.151069177729211,1
46,434,29,0.142425722719848,1
46,461,29,0.110694714908131,1
47,431,29,0.167986556362356,1
47,432,29,0.175928888637583,1
47,433,29,0.136645634874451,1
47,434,29,0.117150076590777,1
47,460,29,0.105325823863648,1
47,461,29,0.124752201218486,1
47,462,29,0.105588059996664,1
48,431,29,0.196114970845164,1
48,432,29,0.170198755718912,1
48,433,29,0.113298830598897,1
48,460,29,0.10236936581355,1
48,461,29,0.112345253573045,1
48,462,29,0.1078482426616,1
49,431,29,0.15879511127475,1
49,432,29,0.128172806548961,1
50,431,29,0.118770550799136,1
50,432,29,0.102682776880226,1
51,431,29,0.1066286932315,1
51,432,29,0.10059439733442,1
52,431,29,0.100722639670301,1
52,432,29,0.100676802266972,1
52,433,29,0.105090384311475,1
52,434,29,0.116378770779254,1
53,432,29,0.106480015779496,1
53,433,29,0.148234219298107,1
53,434,29,0.180594914080883,1
53,435,29,0.121526328601723,1
54,432,29,0.116429858569561,1
54,433,29,0.186926641132404,1
54,434,29,0.220016736667149,1
54,435,29,0.127441684715784,1
55,432,29,0.100792201851303,1
55,433,29,0.131230154815226,1
55,434,29,0.138402009140776,1
63,439,29,0.101228288972229,1
63,440,29,0.114442608884141,1
64,439,29,0.104702029961791,1
64,440,29,0.107731198246494,1
27,451,30,0.117261979548096,1
27,452,30,0.148766795895907,1
27,453,30,0.1680777083089,1
27,454,30,0.148235265018335,1
28,451,30,0.108641595741264,1
28,452,30,0.129018162424132,1
28,453,30,0.134408163945718,1
28,454,30,0.129122069978873,1
28,455,30,0.14699326528209,1
28,456,30,0.170258405343586,1
28,457,30,0.142595935472798,1
29,451,30,0.104920302273554,1
29,452,30,0.115971898467199,1
29,453,30,0.124014151488798,1
29,454,30,0.126470439375246,1
29,455,30,0.147704333251311,1
29,456,30,0.174154094445157,1
29,457,30,0.144222400786629,1
29,458,30,0.111346394682735,1
30,452,30,0.100937960001004,1
30,453,30,0.118318984840251,1
30,454,30,0.123861748658482,1
30,455,30,0.132860138541907,1
30,456,30,0.147837738830818,1
30,457,30,0.12735121902314,1
31,453,30,0.101233779003426,1
31,454,30,0.109377859032229,1
31,455,30,0.109812595431194,1
31,456,30,0.106725356995078,1
33,460,30,0.104234353375644,1
33,461,30,0.110004594022227,1
33,462,30,0.111369117311857,1
34,460,30,0.111079518166207,1
34,461,30,0.118805397247151,1
34,462,30,0.119764442518362,1
34,463,30,0.115763734784307,1
35,460,30,0.111049911212251,1
35,461,30,0.121047029270958,1
35,462,30,0.120400970242579,1
35,463,30,0.113344994789797,1
36,461,30,0.107150278873986,1
36,462,30,0.104732432098837,1
40,462,30,0.107624469425721,1
41,461,30,0.104202720338746,1
41,462,30,0.141056428331678,1
42,461,30,0.128522403892694,1
42,462,30,0.186499551562607,1
42,463,30,0.199530815970019,1
43,461,30,0.116590550911268,1
43,462,30,0.158673023438128,1
43,463,30,0.171237624300863,1
44,462,30,0.105177440520458,1
45,434,30,0.102008211082714,1
45,461,30,0.100936805351585,1
45,462,30,0.10220598292084,1
46,432,30,0.159403829376653,1
46,433,30,0.138610641219187,1
46,434,30,0.12781410272491,1
46,460,30,0.10825721730703,1
46,461,30,0.162720527152387,1
46,462,30,0.136316886577764,1
47,432,30,0.199416723535973,1
47,433,30,0.150935401790456,1
47,434,30,0.123231996329909,1
47,460,30,0.131670958570097,1
47,461,30,0.178255354714889,1
47,462,30,0.137800894296365,1
48,431,30,0.175114468652492,1
48,432,30,0.17537668299967,1
48,433,30,0.127246243962333,1
48,434,30,0.104390862836438,1
48,460,30,0.13648805790759,1
48,461,30,0.150465263404605,1
48,462,30,0.120580311261686,1
49,431,30,0.155266949261654,1
49,432,30,0.129183582292703,1
49,433,30,0.101473848046192,1
49,460,30,0.131259173551553,1
49,461,30,0.118782838011815,1
50,432,30,0.108761058384397,1
51,432,30,0.105578267262445,1
52,432,30,0.104601804213686,1
52,433,30,0.111790847565485,1
52,434,30,0.129202437935565,1
52,435,30,0.108114040779143,1
53,432,30,0.110649160720697,1
53,433,30,0.16362451961076,1
53,434,30,0.20645411566887,1
53,435,30,0.137383771747491,1
54,432,30,0.116757757218562,1
54,433,30,0.196408491441669,1
54,434,30,0.24288648555326,1
54,435,30,0.144646309624066,1
55,432,30,0.102048471311493,1
55,433,30,0.143150853447552,1
55,434,30,0.164994925076672,1
55,435,30,0.110548608185021,1
56,433,30,0.104361648027568,1
56,434,30,0.114105353217683,1
57,434,30,0.114616089512803,1
58,434,30,0.115172249280329,1
63,439,30,0.114090168488538,1
63,440,30,0.131801281453515,1
64,440,30,0.118972080694331,1
28,450,31,0.10276630378344,1
28,451,31,0.107652540478092,1
28,452,31,0.122798283865334,1
28,453,31,0.134833543327225,1
28,454,31,0.132695328676803,1
29,450,31,0.101214411393369,1
29,451,31,0.106167214716287,1
29,452,31,0.119045509861593,1
29,453,31,0.136900529180032,1
29,454,31,0.14269630282885,1
29,455,31,0.156041087232128,1
29,456,31,0.181319282304255,1
29,457,31,0.168601919144875,1
30,452,31,0.112389783826088,1
30,453,31,0.141806002769713,1
30,454,31,0.154434991676905,1
30,455,31,0.156520811386736,1
30,456,31,0.158427704008384,1
30,457,31,0.142139881631268,1
30,458,31,0.107156052121078,1
31,453,31,0.127646798381344,1
31,454,31,0.144529145386851,1
31,455,31,0.138948365281164,1
31,456,31,0.120902872380357,1
31,457,31,0.10346191470054,1
32,453,31,0.107838362784029,1
32,454,31,0.122606448668086,1
32,455,31,0.116551194794769,1
32,460,31,0.108773465419186,1
32,461,31,0.121241108409529,1
33,454,31,0.108661812999006,1
33,455,31,0.108007115885827,1
33,459,31,0.103195539258288,1
33,460,31,0.118540633956917,1
33,461,31,0.130866363997981,1
33,462,31,0.133553995699042,1
34,454,31,0.10030809874324,1
34,455,31,0.106587006030326,1
34,456,31,0.113824108940938,1
34,459,31,0.104023433784234,1
34,460,31,0.117956392244101,1
34,461,31,0.128840433557043,1
34,462,31,0.13267034032052,1
35,454,31,0.100659242881477,1
35,455,31,0.106343778041038,1
35,456,31,0.122787162194992,1
35,457,31,0.102929425246093,1
35,460,31,0.11338770592536,1
35,461,31,0.125457920764457,1
35,462,31,0.127560875035941,1
35,463,31,0.125880718524152,1
36,454,31,0.100410862541482,1
36,456,31,0.105484588158685,1
36,461,31,0.10646678088286,1
36,462,31,0.104979439931033,1
40,461,31,0.101406606056946,1
40,462,31,0.12227576143181,1
41,461,31,0.12201800228852,1
41,462,31,0.164787589255628,1
41,463,31,0.158345440683779,1
42,458,31,0.103347408335571,1
42,459,31,0.112105500424931,1
42,460,31,0.112674099906002,1
42,461,31,0.143846181148758,1
42,462,31,0.206433963768642,1
42,463,31,0.200347719540651,1
43,458,31,0.107279044069981,1
43,459,31,0.107582738652871,1
43,460,31,0.103393528954795,1
43,461,31,0.130259279833935,1
43,462,31,0.172993628207941,1
44,455,31,0.10225919483036,1
44,461,31,0.110042817275145,1
44,462,31,0.123650426029068,1
45,454,31,0.113528115651811,1
45,455,31,0.112688304272433,1
45,461,31,0.137760568710071,1
45,462,31,0.132622313440464,1
46,432,31,0.160629119375088,1
46,433,31,0.137371963823249,1
46,434,31,0.11822417287291,1
46,454,31,0.109029688660891,1
46,460,31,0.128985952062525,1
46,461,31,0.202019913328621,1
46,462,31,0.175523737406737,1
47,432,31,0.194898297145692,1
47,433,31,0.163883106615897,1
47,434,31,0.127901572864816,1
47,460,31,0.151499099457959,1
47,461,31,0.215239363805402,1
47,462,31,0.168797033110754,1
48,432,31,0.164318246052867,1
48,433,31,0.141227000550957,1
48,434,31,0.115657093106886,1
48,459,31,0.101222962334817,1
48,460,31,0.175888127334528,1
48,461,31,0.188851637785499,1
49,432,31,0.128917032563746,1
49,433,31,0.108339894562559,1
49,459,31,0.115490420552625,1
49,460,31,0.17900861095956,1
49,461,31,0.14722225622619,1
50,460,31,0.116300439798424,1
51,451,31,0.104213079504755,1
51,452,31,0.101443021085303,1
52,432,31,0.115535266700321,1
52,433,31,0.121199998533064,1
52,434,31,0.139181767857476,1
52,435,31,0.112076688654065,1
53,432,31,0.122924336724488,1
53,433,31,0.171345997952411,1
53,434,31,0.206622019122983,1
53,435,31,0.13956443610342,1
54,433,31,0.189105769586748,1
54,434,31,0.23051886134556,1
54,435,31,0.153705133422337,1
55,433,31,0.160528294516435,1
55,434,31,0.191401452274841,1
55,435,31,0.144337059652465,1
56,434,31,0.150602971687134,1
56,435,31,0.117462093363815,1
57,434,31,0.12829652832344,1
57,435,31,0.101873792461736,1
62,440,31,0.102102565547456,1
63,440,31,0.132469278820844,1
28,450,32,0.111830214574903,1
28,451,32,0.110913553651684,1
28,452,32,0.11471754616076,1
29,450,32,0.103987672331019,1
29,451,32,0.105320834906727,1
29,452,32,0.115052677708005,1
29,453,32,0.139554501761254,1
29,454,32,0.152919122170107,1
30,452,32,0.113041910210373,1
30,453,32,0.152096074993134,1
30,454,32,0.17397669236564,1
30,455,32,0.170636945173213,1
30,456,32,0.158282969793073,1
30,457,32,0.146992796886571,1
31,452,32,0.103101958190798,1
31,453,32,0.146440765535363,1
31,454,32,0.174530368547624,1
31,455,32,0.164660011387808,1
31,456,32,0.131687374199093,1
31,457,32,0.107328879174598,1
32,453,32,0.136837764180513,1
32,454,32,0.163104437191102,1
32,455,32,0.146073031481425,1
32,456,32,0.110714126089863,1
32,460,32,0.106030268938092,1
33,453,32,0.124402037442963,1
33,454,32,0.138708808205593,1
33,455,32,0.125426745230159,1
33,456,32,0.113567907485072,1
33,457,32,0.103110683418951,1
33,459,32,0.106340978560845,1
33,460,32,0.113861308259467,1
33,461,32,0.122192964354172,1
34,438,32,0.104293883178208,1
34,439,32,0.11056737668453,1
34,453,32,0.119115061149676,1
34,454,32,0.127696546342609,1
34,455,32,0.126225969593187,1
34,456,32,0.148978684957111,1
34,457,32,0.135413852696267,1
34,458,32,0.109202079997649,1
34,459,32,0.108766907881923,1
34,460,32,0.11459361742082,1
34,461,32,0.119809931348282,1
35,452,32,0.0999333714352777,1
35,453,32,0.13528977145546,1
35,454,32,0.143554871814819,1
35,455,32,0.133371070909571,1
35,456,32,0.158660354973282,1
35,457,32,0.138520545885791,1
35,458,32,0.105204476745521,1
35,459,32,0.10373922663351,1
35,460,32,0.113799795945637,1
35,461,32,0.124655210667336,1
35,462,32,0.125548364671263,1
36,452,32,0.109206796631594,1
36,453,32,0.151746543006916,1
36,454,32,0.150321564016604,1
36,455,32,0.12334715627002,1
36,456,32,0.124554374915765,1
36,457,32,0.109176732175038,1
36,460,32,0.102231058420475,1
36,461,32,0.113044067008344,1
36,462,32,0.112676561705706,1
37,452,32,0.118915633587856,1
37,453,32,0.138608408170783,1
37,454,32,0.129039425402102,1
37,455,32,0.12199696806185,1
37,456,32,0.114792685516311,1
38,452,32,0.119269239525796,1
38,453,32,0.109676433943169,1
38,454,32,0.103212608462427,1
38,455,32,0.1203604812625,1
38,456,32,0.114178695241592,1
40,455,32,0.107270220805557,1
40,456,32,0.102512237339705,1
40,461,32,0.104332792685026,1
40,462,32,0.119399769374676,1
41,455,32,0.130582396491476,1
41,456,32,0.120660788147568,1
41,459,32,0.109687991330273,1
41,460,32,0.113355038061154,1
41,461,32,0.128842960714261,1
41,462,32,0.166874040754763,1
42,455,32,0.117067824159092,1
42,456,32,0.10760275983807,1
42,457,32,0.104048672677654,1
42,458,32,0.13557379342656,1
42,459,32,0.146252579465994,1
42,460,32,0.132366809131416,1
42,461,32,0.147445931425798,1
42,462,32,0.2004731406105,1
43,455,32,0.109187842952461,1
43,458,32,0.130832334518894,1
43,459,32,0.132239677873277,1
43,460,32,0.11531753903451,1
43,461,32,0.131462631493419,1
44,454,32,0.121918822260643,1
44,455,32,0.137548341968377,1
44,456,32,0.105424677103954,1
44,460,32,0.102751870665709,1
44,461,32,0.133483594763274,1
45,433,32,0.103923600181215,1
45,434,32,0.10139120346942,1
45,453,32,0.0997559366770032,1
45,454,32,0.14775664104855,1
45,455,32,0.151383830588657,1
45,456,32,0.105216437170629,1
45,460,32,0.116034064356171,1
45,461,32,0.169821642861679,1
46,432,32,0.148618815590722,1
46,433,32,0.143837031096763,1
46,434,32,0.117442834682949,1
46,453,32,0.109220892068834,1
46,454,32,0.135288050374251,1
46,455,32,0.119694455513518,1
46,459,32,0.107948000014186,1
46,460,32,0.133152341095208,1
46,461,32,0.200836375888874,1
47,432,32,0.172814385225106,1
47,433,32,0.183710190890613,1
47,434,32,0.140208806729347,1
47,435,32,0.100029828233394,1
47,453,32,0.106816683228326,1
47,454,32,0.112871141918552,1
47,459,32,0.105053969283118,1
47,460,32,0.150063935588342,1
47,461,32,0.206858155821974,1
48,432,32,0.150009340278104,1
48,433,32,0.16303430857831,1
48,434,32,0.134537473787665,1
48,435,32,0.108233427171842,1
48,459,32,0.108847907627919,1
48,460,32,0.190576335443251,1
49,433,32,0.11902235151571,1
49,434,32,0.111416044007089,1
49,435,32,0.109647349849327,1
49,459,32,0.122252984338093,1
49,460,32,0.19647476396112,1
50,451,32,0.103349630491056,1
50,452,32,0.112986900969211,1
51,433,32,0.108962359528292,1
51,434,32,0.105362347821196,1
51,451,32,0.116243371795563,1
51,452,32,0.124958012030865,1
52,433,32,0.140248446061741,1
52,434,32,0.142942624407146,1
52,435,32,0.111418407770521,1
52,452,32,0.107960722943627,1
53,433,32,0.175424905952269,1
53,434,32,0.186657629603744,1
53,435,32,0.133626912899109,1
54,434,32,0.202605429512964,1
54,435,32,0.157049880464604,1
55,434,32,0.210803592884811,1
55,435,32,0.177302518407532,1
55,436,32,0.112407550177046,1
55,453,32,0.117556338899366,1
55,454,32,0.100663937729584,1
56,435,32,0.145694949154398,1
56,453,32,0.107345599805327,1
29,450,33,0.103842644006895,1
29,451,33,0.106346425020366,1
29,452,33,0.114346598695705,1
29,454,33,0.158004688390308,1
30,452,33,0.115892924804145,1
30,453,33,0.155481125835857,1
30,454,33,0.183045352469806,1
30,455,33,0.182110707337248,1
31,452,33,0.116703750125952,1
31,453,33,0.158305224026676,1
31,454,33,0.190602783450685,1
31,455,33,0.185362635816359,1
31,456,33,0.142144761658999,1
32,452,33,0.117771430478769,1
32,453,33,0.160392590531011,1
32,454,33,0.191309624967318,1
32,455,33,0.168688016776983,1
32,456,33,0.120473963693079,1
33,452,33,0.112794107195088,1
33,453,33,0.145867187990289,1
33,454,33,0.160293987827843,1
33,455,33,0.133152395559803,1
33,456,33,0.118889806476807,1
33,457,33,0.11811877298826,1
34,439,33,0.138217145411715,1
34,452,33,0.105913551310557,1
34,453,33,0.135589991197175,1
34,454,33,0.147616961147675,1
34,455,33,0.130477704646564,1
34,456,33,0.159198868211959,1
34,457,33,0.160532030787667,1
34,458,33,0.120942794928645,1
34,459,33,0.111136008844359,1
35,438,33,0.100712585506025,1
35,439,33,0.108016309509498,1
35,452,33,0.1119455379088,1
35,453,33,0.166804064642837,1
35,454,33,0.184779102143281,1
35,455,33,0.144404225391278,1
35,456,33,0.163131331808217,1
35,457,33,0.15433965684945,1
35,458,33,0.112841654786706,1
35,459,33,0.1039417259985,1
35,460,33,0.113096091589688,1
35,461,33,0.125058510101946,1
36,452,33,0.125879956019819,1
36,453,33,0.191396942606358,1
36,454,33,0.194842002540083,1
36,455,33,0.139436171981701,1
36,456,33,0.127972965056217,1
36,457,33,0.11614710017707,1
36,458,33,0.102073764669509,1
36,460,33,0.103146989518118,1
36,461,33,0.114827488392651,1
37,452,33,0.136588098476071,1
37,453,33,0.160376730440885,1
37,454,33,0.15048112349473,1
37,455,33,0.147051270075988,1
37,456,33,0.140067503783535,1
37,457,33,0.109850350288593,1
38,451,33,0.103736851977159,1
38,452,33,0.137333740570331,1
38,453,33,0.118216580508338,1
38,454,33,0.111436424658617,1
38,455,33,0.149243818606592,1
38,456,33,0.149536304375788,1
38,457,33,0.104863637308698,1
39,435,33,0.104471252578968,1
39,436,33,0.108110936297216,1
39,452,33,0.100993927819041,1
39,455,33,0.113505698024423,1
39,456,33,0.115483340155248,1
40,436,33,0.106057991417053,1
40,455,33,0.133153768067603,1
40,456,33,0.136903557411526,1
40,457,33,0.101469414628142,1
40,460,33,0.101240358326527,1
40,461,33,0.105379776491663,1
41,436,33,0.102198760915515,1
41,454,33,0.102397088292512,1
41,455,33,0.165069824788005,1
41,456,33,0.163147235470018,1
41,457,33,0.122495929111486,1
41,458,33,0.122291828487397,1
41,459,33,0.136170670925464,1
41,460,33,0.13052982726418,1
41,461,33,0.129233820435324,1
42,436,33,0.100044141529015,1
42,455,33,0.133753379689186,1
42,456,33,0.126879130804781,1
42,457,33,0.118998267271708,1
42,458,33,0.166267011055312,1
42,459,33,0.184774962834045,1
42,460,33,0.149039238694065,1
42,461,33,0.139446977757391,1
43,436,33,0.101154293373177,1
43,454,33,0.101547353463887,1
43,455,33,0.125201185555557,1
43,456,33,0.10762914248799,1
43,458,33,0.140174875286532,1
43,459,33,0.149288708325964,1
43,460,33,0.121656139517946,1
44,434,33,0.106980011656441,1
44,435,33,0.108751298328935,1
44,454,33,0.145482864020651,1
44,455,33,0.165797373743736,1
44,456,33,0.126115515394101,1
44,460,33,0.110805724646087,1
45,433,33,0.121827016738958,1
45,434,33,0.120488821634653,1
45,435,33,0.109431125406344,1
45,453,33,0.121422878549582,1
45,454,33,0.173309413930968,1
45,455,33,0.173396459247032,1
45,456,33,0.119980982855997,1
45,460,33,0.12003666745814,1
46,433,33,0.152705522920613,1
46,434,33,0.132509931194708,1
46,435,33,0.107102829318639,1
46,453,33,0.129621956926628,1
46,454,33,0.154154749548713,1
46,455,33,0.129821297345095,1
46,458,33,0.107215930497052,1
46,459,33,0.125261989829649,1
46,460,33,0.122132595796842,1
47,433,33,0.197311340143543,1
47,434,33,0.160638204069569,1
47,435,33,0.115311079533518,1
47,449,33,0.103770020915642,1
47,453,33,0.123384148623087,1
47,454,33,0.130692719975533,1
47,455,33,0.107411109820446,1
47,458,33,0.103902674883735,1
47,459,33,0.118954564880512,1
47,460,33,0.134051104952441,1
48,433,33,0.180858903973865,1
48,434,33,0.15497785119028,1
48,435,33,0.123494864252229,1
48,448,33,0.104409119368753,1
48,449,33,0.129899878863064,1
48,450,33,0.108169627345014,1
48,453,33,0.114688581889027,1
48,459,33,0.109770766622072,1
49,433,33,0.140372810518443,1
49,434,33,0.133417747067665,1
49,435,33,0.123513883288877,1
49,449,33,0.101452846498279,1
49,452,33,0.122276469471548,1
49,453,33,0.110953824773382,1
49,459,33,0.112531217486929,1
50,434,33,0.12351441704191,1
50,435,33,0.108763694470805,1
50,451,33,0.107351830555019,1
50,452,33,0.137968024353226,1
50,453,33,0.105281053966386,1
51,434,33,0.121744818771867,1
51,451,33,0.115552161617755,1
51,452,33,0.13682550964659,1
51,453,33,0.107594524791274,1
52,434,33,0.135310958182996,1
52,435,33,0.104719012022578,1
52,452,33,0.110877977378093,1
52,453,33,0.101414786639146,1
53,434,33,0.153793856247934,1
53,435,33,0.120392190549831,1
54,435,33,0.14909569669346,1
54,436,33,0.101266327045523,1
54,453,33,0.119588837770487,1
54,454,33,0.11420499074816,1
55,435,33,0.18850439331228,1
55,436,33,0.122294061535801,1
55,452,33,0.115260089779483,1
55,453,33,0.168855735051472,1
55,454,33,0.146058827114994,1
29,454,34,0.146717380321514,1
29,455,34,0.144778124837393,1
30,452,34,0.101971338551757,1
30,453,34,0.139776346950462,1
30,454,34,0.176056869543407,1
30,455,34,0.187521960943885,1
30,456,34,0.156953826704492,1
31,452,34,0.109117082550364,1
31,453,34,0.146933376013197,1
31,454,34,0.181089746714202,1
31,455,34,0.18683470489569,1
31,456,34,0.143096966177052,1
32,452,34,0.114895645387096,1
32,453,34,0.155136081732284,1
32,454,34,0.181702604125341,1
32,455,34,0.161714075897505,1
32,456,34,0.113672969689231,1
33,452,34,0.109596305630696,1
33,453,34,0.143348004389293,1
33,454,34,0.155497541464853,1
33,455,34,0.124788736068952,1
33,456,34,0.107117905118593,1
34,452,34,0.100603318635115,1
34,453,34,0.130967777074262,1
34,454,34,0.145523756038734,1
34,455,34,0.119805704895693,1
34,456,34,0.136600723369241,1
34,457,34,0.147158794079851,1
35,439,34,0.12948071933833,1
35,440,34,0.116799444419736,1
35,452,34,0.106083905671454,1
35,453,34,0.165524941838497,1
35,454,34,0.189135463684056,1
35,455,34,0.133782703427247,1
35,456,34,0.136830324316807,1
35,457,34,0.137444804772883,1
36,439,34,0.101051387966987,1
36,452,34,0.120464704711894,1
36,453,34,0.190584505132532,1
36,454,34,0.197960797762663,1
36,455,34,0.1331501625114,1
36,456,34,0.117803793341243,1
36,457,34,0.109772977884638,1
37,438,34,0.106555547280133,1
37,452,34,0.123783297855541,1
37,453,34,0.147205502916703,1
37,454,34,0.140212009247546,1
37,455,34,0.137341245791551,1
37,456,34,0.141995430631853,1
37,457,34,0.112182426219205,1
38,437,34,0.112010862744295,1
38,438,34,0.101660029818457,1
38,452,34,0.122666414187412,1
38,453,34,0.104584669652033,1
38,455,34,0.135802958657364,1
38,456,34,0.151262712221829,1
38,457,34,0.108937501887039,1
39,436,34,0.134671543835233,1
39,437,34,0.111214655719842,1
39,455,34,0.103237226459462,1
39,456,34,0.113707783458489,1
40,436,34,0.11771615980755,1
40,437,34,0.102133653938401,1
40,455,34,0.128662780940388,1
40,456,34,0.141483419865204,1
40,457,34,0.107164853599664,1
41,436,34,0.113110034526062,1
41,437,34,0.101608506311389,1
41,455,34,0.161293543864971,1
41,456,34,0.170841677586607,1
41,457,34,0.130966186708082,1
41,458,34,0.136803124697959,1
41,459,34,0.155830189426557,1
42,436,34,0.11416041692344,1
42,437,34,0.109376954919948,1
42,438,34,0.107162370014123,1
42,455,34,0.125485763065528,1
42,456,34,0.124673478092569,1
42,457,34,0.11813491629428,1
42,458,34,0.167855242223306,1
42,459,34,0.194663402239471,1
42,460,34,0.142847049935472,1
43,436,34,0.119391381827013,1
43,437,34,0.112547175613326,1
43,455,34,0.122219336111173,1
43,456,34,0.10628303912446,1
43,458,34,0.122264214937626,1
43,459,34,0.137683915238773,1
44,435,34,0.134364864592526,1
44,436,34,0.121547918367264,1
44,437,34,0.107690709266415,1
44,454,34,0.152469800152545,1
44,455,34,0.174517307937693,1
44,456,34,0.131225688718418,1
45,434,34,0.148390205898788,1
45,435,34,0.133992228725019,1
45,436,34,0.118618801543962,1
45,453,34,0.140546258468348,1
45,454,34,0.198019053093699,1
45,455,34,0.190270745492448,1
45,456,34,0.126783349367645,1
46,434,34,0.151393666894552,1
46,435,34,0.129332161708435,1
46,436,34,0.113624496199494,1
46,446,34,0.124020796169413,1
46,447,34,0.130909282099006,1
46,453,34,0.150934780894071,1
46,454,34,0.182675102151569,1
46,455,34,0.147484732003425,1
46,458,34,0.106630937172823,1
46,459,34,0.121948799573847,1
47,434,34,0.175267318092489,1
47,435,34,0.138109131226495,1
47,436,34,0.116228927784913,1
47,446,34,0.102354202870244,1
47,447,34,0.104560127905432,1
47,448,34,0.105152985917209,1
47,449,34,0.134908453931477,1
47,450,34,0.120956868580048,1
47,453,34,0.136882196397285,1
47,454,34,0.152506934113559,1
47,455,34,0.122444481854851,1
47,458,34,0.109846799196985,1
48,434,34,0.169306974222785,1
48,435,34,0.137224647986126,1
48,436,34,0.112846970531198,1
48,448,34,0.108316376750347,1
48,449,34,0.156341699118929,1
48,450,34,0.131887738551951,1
48,453,34,0.123809931042599,1
48,454,34,0.11299987443579,1
49,434,34,0.162078596540325,1
49,435,34,0.133985322614347,1
49,436,34,0.102115114190192,1
49,449,34,0.100064413251352,1
49,452,34,0.125385450174071,1
49,453,34,0.121378141331076,1
50,435,34,0.120554712901937,1
50,452,34,0.136828559663922,1
50,453,34,0.108898777559844,1
51,451,34,0.101382412883754,1
51,452,34,0.126956405172465,1
51,453,34,0.102547944328324,1
52,452,34,0.100901708366432,1
54,453,34,0.126951917289819,1
30,454,35,0.15690905680723,1
30,455,35,0.178961542656379,1
31,453,35,0.131209153267313,1
31,454,35,0.159123053495427,1
31,455,35,0.168169884189833,1
31,456,35,0.132315852056138,1
32,452,35,0.110616928573252,1
32,454,35,0.150594976284557,1
32,455,35,0.132791349758157,1
33,452,35,0.102917072675899,1
33,453,35,0.125928745404208,1
33,454,35,0.13210639211588,1
34,453,35,0.112475086275106,1
34,454,35,0.126453642494083,1
34,455,35,0.102408079247826,1
35,453,35,0.138430820911642,1
35,454,35,0.158911916045637,1
35,455,35,0.110929827672732,1
35,456,35,0.101610968111092,1
36,452,35,0.101448031828062,1
36,453,35,0.156447937758345,1
36,454,35,0.164468045475532,1
37,453,35,0.116572479558577,1
37,454,35,0.113722499792115,1
38,455,35,0.106133947741533,1
40,455,35,0.110930709999175,1
40,456,35,0.128262139378024,1
41,455,35,0.135864362042004,1
41,456,35,0.152082012234651,1
42,437,35,0.125839859184825,1
42,438,35,0.120035523701641,1
42,455,35,0.111086522313151,1
42,456,35,0.117012390094087,1
42,458,35,0.14097022177038,1
43,437,35,0.132977782067561,1
43,438,35,0.114159599954512,1
43,455,35,0.11161648461038,1
43,456,35,0.101461408332646,1
44,437,35,0.131147020057097,1
44,438,35,0.101534390890227,1
44,454,35,0.146030636240514,1
44,455,35,0.163884620731644,1
44,456,35,0.121882897413643,1
45,436,35,0.151360389026879,1
45,437,35,0.118535677678753,1
45,446,35,0.100034294330201,1
45,447,35,0.125085513648251,1
45,453,35,0.149441601337637,1
45,454,35,0.215811372770133,1
45,455,35,0.200719843440963,1
46,436,35,0.141317901960362,1
46,437,35,0.109084850402919,1
46,446,35,0.150450459927627,1
46,447,35,0.182528450782507,1
46,448,35,0.114233443052697,1
46,453,35,0.156350402561244,1
46,454,35,0.204499054559219,1
46,455,35,0.167032249510928,1
47,436,35,0.145847515378499,1
47,437,35,0.112990147059086,1
47,438,35,0.101149990670155,1
47,446,35,0.108182306702779,1
47,447,35,0.125294995374347,1
47,448,35,0.113614071675971,1
47,449,35,0.144746578943847,1
47,450,35,0.132488417679601,1
47,453,35,0.13365669413977,1
47,454,35,0.162079130293358,1
48,436,35,0.128126587893466,1
48,437,35,0.103274632743452,1
48,448,35,0.10629292989495,1
48,449,35,0.16163419812217,1
48,450,35,0.136167272334723,1
48,453,35,0.119353376432476,1
48,454,35,0.12161925609407,1
49,436,35,0.107166770753416,1
49,452,35,0.11235519880813,1
49,453,35,0.118562060328673,1
50,439,35,0.117365952460351,1
50,440,35,0.106180199075785,1
50,452,35,0.119827251089558,1
51,439,35,0.100749218392763,1
31,454,36,0.131100964795388,1
31,455,36,0.138311140410128,1
44,455,36,0.147256950173339,1
45,454,36,0.23149122865676,1
46,446,36,0.150831200126901,1
46,447,36,0.21400118748374,1
46,454,36,0.22784963867768,1
47,447,36,0.141924376120942,1
47,448,36,0.125890184470799,1
