x,y,z,signal,mito.p
852,446,20,0.199572971566711,1
852,447,20,0.20169519541198,1
852,448,20,0.194070849229426,1
852,449,20,0.169823309478293,1
853,445,20,0.161187152724688,1
853,446,20,0.173770129941847,1
853,447,20,0.161063746844862,1
853,448,20,0.164467282971199,1
853,449,20,0.153818321744102,1
854,445,20,0.168049125289333,1
854,446,20,0.153994819711339,1
851,446,21,0.19209731372908,1
851,447,21,0.188896233396057,1
851,448,21,0.17176534265677,1
851,449,21,0.158325920572856,1
852,445,21,0.173812329110216,1
852,446,21,0.237892082172521,1
852,447,21,0.24052788536478,1
852,448,21,0.240279962527385,1
852,449,21,0.215586542921107,1
852,450,21,0.152506335003012,1
853,444,21,0.151114753702482,1
853,445,21,0.185608663285841,1
853,446,21,0.199420274627581,1
853,447,21,0.185854472896942,1
853,448,21,0.208882735540951,1
853,449,21,0.202385958980107,1
853,450,21,0.150364296938005,1
854,444,21,0.160277452376737,1
854,445,21,0.215192458896007,1
854,446,21,0.193731992303869,1
854,447,21,0.13363975565066,1
854,448,21,0.128310645546518,1
854,449,21,0.125256652299319,1
855,445,21,0.158571708398118,1
855,446,21,0.144713551613312,1
851,446,22,0.175370964217173,1
851,447,22,0.167578431364611,1
851,448,22,0.155212353951416,1
851,449,22,0.150267589602751,1
852,445,22,0.154626598122853,1
852,446,22,0.227625157402063,1
852,447,22,0.23175466301087,1
852,448,22,0.248776613666819,1
852,449,22,0.232922972149797,1
852,450,22,0.14906897636305,1
853,444,22,0.145293022227587,1
853,445,22,0.16370866741036,1
853,446,22,0.17938427505856,1
853,447,22,0.172713200900125,1
853,448,22,0.219993273319532,1
853,449,22,0.226246571353951,1
853,450,22,0.15342971685728,1
854,444,22,0.154745537905872,1
854,445,22,0.205255197427436,1
854,446,22,0.184424548521384,1
854,447,22,0.119905168139465,1
854,448,22,0.122246306978721,1
854,449,22,0.125713512216858,1
855,445,22,0.147679094357891,1
855,446,22,0.137974178852484,1
848,449,23,0.131154732243779,1
849,449,23,0.172107652637663,1
849,450,23,0.167204608168929,1
849,451,23,0.120193144240178,1
851,448,23,0.11587512577443,1
852,446,23,0.170850315671407,1
852,447,23,0.174687716763185,1
852,448,23,0.198642302349604,1
852,449,23,0.195549911562782,1
853,441,23,0.129620780491371,1
853,442,23,0.167251763615462,1
853,443,23,0.169830411661508,1
853,444,23,0.123133698628474,1
853,445,23,0.121154651311093,1
853,446,23,0.132704653015502,1
853,447,23,0.130957080227763,1
853,448,23,0.179902244251924,1
853,449,23,0.196584281369168,1
854,441,23,0.10750145569098,1
854,442,23,0.13300894670894,1
854,443,23,0.142681259707653,1
854,445,23,0.152882380354178,1
854,446,23,0.138189695255729,1
855,452,23,0.130170894688828,1
855,453,23,0.130570544995559,1
856,452,23,0.144981049026226,1
856,453,23,0.14379624800787,1
857,452,23,0.12213977423049,1
857,453,23,0.117537668436128,1
859,453,23,0.1004579526305,1
859,455,23,0.1001102615476,1
861,442,23,0.153183460636498,1
861,443,23,0.139274379455171,1
862,442,23,0.133943265053926,1
862,443,23,0.125595781547852,1
863,449,23,0.119863796832944,1
863,454,23,0.102342209766379,1
863,455,23,0.10367965325927,1
864,449,23,0.112619602632036,1
864,453,23,0.109219780991092,1
864,454,23,0.141829411652734,1
864,455,23,0.144504037208459,1
864,456,23,0.127870974655228,1
865,452,23,0.103268358422083,1
865,453,23,0.145226967566517,1
865,454,23,0.170908418501577,1
865,455,23,0.163684539594682,1
865,456,23,0.156444343095061,1
865,457,23,0.12382936401017,1
866,452,23,0.115632213679794,1
866,453,23,0.140312104280622,1
866,454,23,0.136699729110413,1
866,455,23,0.119785237100813,1
866,456,23,0.115803984120167,1
849,449,24,0.115357069437714,1
852,446,24,0.106537878965447,1
852,447,24,0.114228737311671,1
852,448,24,0.135426052765594,1
852,449,24,0.13666883679201,1
852,452,24,0.102052196689806,1
853,441,24,0.105767597088314,1
853,442,24,0.129686682651575,1
853,443,24,0.134427564234531,1
853,448,24,0.126823620489343,1
853,449,24,0.142943223517694,1
854,442,24,0.103678770932827,1
854,443,24,0.114340008479685,1
855,452,24,0.105805569804094,1
855,453,24,0.105536482025001,1
856,452,24,0.112472635368321,1
856,453,24,0.114347274056686,1
859,429,24,0.108119421881149,1
861,441,24,0.100331093695338,1
861,442,24,0.13926960835663,1
861,443,24,0.12174694289108,1
862,442,24,0.109391431609355,1
862,443,24,0.106742458877974,1
863,449,24,0.122028100024472,1
863,455,24,0.108418541438042,1
864,449,24,0.111278128759099,1
864,453,24,0.108355090184622,1
864,454,24,0.145911500384952,1
864,455,24,0.173569732910232,1
864,456,24,0.148291167478859,1
865,436,24,0.117780460708655,1
865,437,24,0.127636940289611,1
865,438,24,0.110152334683193,1
865,452,24,0.11892377059838,1
865,453,24,0.149748498438725,1
865,454,24,0.174663512697074,1
865,455,24,0.192071453939274,1
865,456,24,0.177756960097043,1
865,457,24,0.12686061284241,1
866,452,24,0.124692616951326,1
866,453,24,0.144169145305433,1
866,454,24,0.136189286924107,1
866,455,24,0.127302571246699,1
866,456,24,0.120825728727701,1
867,452,24,0.103964034696698,1
867,453,24,0.102825681085137,1
868,455,24,0.101399187979078,1
858,428,25,0.114650783459952,1
858,429,25,0.122219466826201,1
858,430,25,0.100951489006454,1
858,432,25,0.102695608738857,1
859,428,25,0.117999648025617,1
859,429,25,0.145887764714359,1
859,430,25,0.133610834950603,1
859,431,25,0.116661855959317,1
861,442,25,0.107191563037155,1
863,449,25,0.101409351072544,1
864,436,25,0.116127808817447,1
864,437,25,0.123683616753388,1
864,438,25,0.110596591493401,1
864,453,25,0.109244257380179,1
864,454,25,0.132240821629777,1
864,455,25,0.162805502813833,1
864,456,25,0.13605099042395,1
865,435,25,0.108843190993973,1
865,436,25,0.161650733573276,1
865,437,25,0.170572568021675,1
865,438,25,0.139633889355232,1
865,452,25,0.126379581537517,1
865,453,25,0.147356239130406,1
865,454,25,0.157159811803576,1
865,455,25,0.178881131128012,1
865,456,25,0.159426976829617,1
865,457,25,0.109864837870919,1
866,436,25,0.121311988633735,1
866,437,25,0.125092496009357,1
866,438,25,0.101554499218778,1
866,452,25,0.124146609384348,1
866,453,25,0.136678487918281,1
866,454,25,0.124744369209695,1
866,455,25,0.119764039480358,1
866,456,25,0.110213226100638,1
867,446,25,0.111369792672837,1
867,447,25,0.114054003997319,1
867,448,25,0.0999536540505338,1
867,451,25,0.11072962671366,1
867,452,25,0.122692480942679,1
867,453,25,0.108268371656129,1
867,455,25,0.10251444860227,1
868,446,25,0.112854758968313,1
868,447,25,0.1095348695673,1
868,448,25,0.100398444613774,1
868,451,25,0.126579869639941,1
868,452,25,0.122407565752218,1
868,455,25,0.107638782721342,1
869,446,25,0.103282029035481,1
841,427,26,0.127549688008085,1
842,427,26,0.108913809788122,1
855,428,26,0.109715125591606,1
856,428,26,0.139102859551936,1
856,429,26,0.1058396101761,1
857,427,26,0.100376048772224,1
857,428,26,0.154405548116735,1
857,429,26,0.131784854931599,1
858,428,26,0.149294350858028,1
858,429,26,0.156671732780062,1
858,430,26,0.126967308984426,1
858,431,26,0.109243375053737,1
859,428,26,0.127247333254237,1
859,429,26,0.164865244875478,1
859,430,26,0.159236056637568,1
859,431,26,0.135305675117261,1
860,430,26,0.10848723218552,1
863,431,26,0.115604469414995,1
863,432,26,0.117528758028352,1
864,431,26,0.107058211922243,1
864,432,26,0.114164371053052,1
864,435,26,0.103888252658923,1
864,436,26,0.141922066822105,1
864,437,26,0.149998512716576,1
864,438,26,0.123935461041639,1
864,454,26,0.106577060795241,1
864,455,26,0.125965530791813,1
864,456,26,0.107117153507179,1
865,435,26,0.129466231756004,1
865,436,26,0.190937849640415,1
865,437,26,0.20242105596526,1
865,438,26,0.159354462667555,1
865,439,26,0.104789500101698,1
865,452,26,0.108239755957806,1
865,453,26,0.127747884670053,1
865,454,26,0.128122601085097,1
865,455,26,0.140962629405808,1
865,456,26,0.122709147108814,1
866,436,26,0.134867757985936,1
866,437,26,0.141081699903856,1
866,438,26,0.113899520619466,1
866,441,26,0.102842162071648,1
866,442,26,0.11201545955613,1
866,443,26,0.100495685702062,1
866,452,26,0.107445673052566,1
866,453,26,0.116808616257569,1
866,454,26,0.108978295868851,1
866,455,26,0.10704414916376,1
867,442,26,0.103452274467188,1
867,445,26,0.110533695778852,1
867,446,26,0.14142320380874,1
867,447,26,0.148851401198106,1
867,448,26,0.145715885344796,1
867,449,26,0.128056982140788,1
867,450,26,0.109592100963946,1
867,451,26,0.119782524763972,1
867,452,26,0.124678270976948,1
867,453,26,0.103424018235193,1
867,455,26,0.100878571806387,1
868,445,26,0.142694690676832,1
868,446,26,0.177965810033835,1
868,447,26,0.17088234085339,1
868,448,26,0.16394640536845,1
868,449,26,0.145609091166509,1
868,450,26,0.123706350275429,1
868,451,26,0.13019065444397,1
868,452,26,0.121404600231429,1
868,455,26,0.100424565833637,1
869,441,26,0.106057359627749,1
869,445,26,0.137901403260365,1
869,446,26,0.161533275227247,1
869,447,26,0.141557295642147,1
869,448,26,0.127732906906371,1
869,449,26,0.114955491084313,1
870,446,26,0.106151419983676,1
843,424,27,0.107061305511251,1
850,433,27,0.108249091189425,1
852,426,27,0.11614937679715,1
852,427,27,0.133518931392646,1
853,426,27,0.11615050966073,1
853,427,27,0.127607518515279,1
855,427,27,0.1029805130364,1
855,428,27,0.120497960793729,1
856,427,27,0.129231467564811,1
856,428,27,0.177977214920072,1
856,429,27,0.133688011282015,1
857,427,27,0.137484106424786,1
857,428,27,0.218759889882249,1
857,429,27,0.188987908202714,1
857,430,27,0.124748410482659,1
858,427,27,0.10158995567026,1
858,428,27,0.184844525015047,1
858,429,27,0.198970745644557,1
858,430,27,0.161670177433766,1
858,431,27,0.120226389429094,1
859,428,27,0.121038881367515,1
859,429,27,0.16533240949443,1
859,430,27,0.168314171795462,1
859,431,27,0.137288567635064,1
860,430,27,0.112622707113962,1
860,431,27,0.102870592590347,1
862,431,27,0.100286661478566,1
863,431,27,0.166789435452564,1
863,432,27,0.154821940840033,1
863,433,27,0.116875553245082,1
864,432,27,0.15548279245247,1
864,433,27,0.131541855693611,1
864,434,27,0.110980588675468,1
864,435,27,0.120806742369811,1
864,436,27,0.163584117774034,1
864,437,27,0.173398779438788,1
864,438,27,0.131172030199218,1
865,433,27,0.120333270750733,1
865,434,27,0.12093523524283,1
865,435,27,0.144282595057255,1
865,436,27,0.204653537937072,1
865,437,27,0.222717744872793,1
865,438,27,0.168990469567102,1
865,439,27,0.114503816196238,1
865,442,27,0.102218673171524,1
866,435,27,0.111907249298367,1
866,436,27,0.141936968335354,1
866,437,27,0.152817839808855,1
866,438,27,0.127193032052813,1
866,439,27,0.105849577197024,1
866,440,27,0.107520627228494,1
866,441,27,0.118173597049798,1
866,442,27,0.130870960809817,1
866,443,27,0.116474181857143,1
866,447,27,0.0999315414248787,1
866,448,27,0.102143424886782,1
867,441,27,0.111591387324908,1
867,442,27,0.125653808127589,1
867,443,27,0.116214494667182,1
867,444,27,0.108134563038618,1
867,445,27,0.134373829464897,1
867,446,27,0.172664313479465,1
867,447,27,0.187779534907551,1
867,448,27,0.196301196189106,1
867,449,27,0.175672458430416,1
867,450,27,0.132258882089548,1
867,451,27,0.117836439419611,1
867,452,27,0.112599842876893,1
868,440,27,0.103002854413355,1
868,441,27,0.117267992439407,1
868,442,27,0.108171217711194,1
868,444,27,0.114989553242157,1
868,445,27,0.178793955096919,1
868,446,27,0.238200482496437,1
868,447,27,0.241647198153856,1
868,448,27,0.236483714883747,1
868,449,27,0.203185390308596,1
868,450,27,0.143423579461606,1
868,451,27,0.11823076308893,1
868,452,27,0.106683844080609,1
869,440,27,0.130651109024793,1
869,441,27,0.147619967593331,1
869,442,27,0.11070313513455,1
869,444,27,0.101904891745601,1
869,445,27,0.155393394265893,1
869,446,27,0.194245179505774,1
869,447,27,0.182054151301582,1
869,448,27,0.166693338120776,1
869,449,27,0.143994357526486,1
869,450,27,0.109995955937427,1
870,442,27,0.102466192970914,1
870,445,27,0.101288254491555,1
870,446,27,0.114327579659058,1
870,447,27,0.106465441053818,1
845,424,28,0.115467915781885,1
845,425,28,0.110304683048914,1
850,432,28,0.141164322694789,1
850,433,28,0.12252306337282,1
851,426,28,0.103769291090066,1
851,427,28,0.111697288283834,1
851,432,28,0.121608787998871,1
852,426,28,0.151901320493583,1
852,427,28,0.179827551506053,1
852,428,28,0.114164066051319,1
853,426,28,0.130788621234779,1
853,427,28,0.156855136857972,1
853,428,28,0.111254491124778,1
854,427,28,0.103186574385916,1
855,427,28,0.113212449750894,1
855,428,28,0.123092272857357,1
856,427,28,0.146033697150764,1
856,428,28,0.20268381495839,1
856,429,28,0.162580629393131,1
856,430,28,0.102959903633572,1
857,427,28,0.165208981828766,1
857,428,28,0.276189646584465,1
857,429,28,0.259133993237001,1
857,430,28,0.177266571774693,1
857,431,28,0.103549068945795,1
858,427,28,0.120036732815654,1
858,428,28,0.226563838513967,1
858,429,28,0.265149324562029,1
858,430,28,0.223948230793611,1
858,431,28,0.145708096907681,1
859,428,28,0.119865223805338,1
859,429,28,0.173725087721609,1
859,430,28,0.187125197260701,1
859,431,28,0.145614701019815,1
860,430,28,0.120420479460583,1
860,431,28,0.114367622029456,1
862,431,28,0.12079038120541,1
862,432,28,0.103889472665856,1
863,430,28,0.128074748491746,1
863,431,28,0.203616749902658,1
863,432,28,0.182980060313068,1
863,433,28,0.136025272242092,1
863,434,28,0.112529605334911,1
864,431,28,0.186751679066752,1
864,432,28,0.191960259021694,1
864,433,28,0.175328394689557,1
864,434,28,0.153176216845335,1
864,435,28,0.138479109221755,1
864,436,28,0.16973101377525,1
864,437,28,0.178063290766341,1
864,438,28,0.129442147512002,1
865,432,28,0.127707820513817,1
865,433,28,0.176312352066617,1
865,434,28,0.181476652305654,1
865,435,28,0.168769256167197,1
865,436,28,0.212360147444231,1
865,437,28,0.23018765124917,1
865,438,28,0.175182658325695,1
865,439,28,0.130912070686281,1
865,440,28,0.114220774587851,1
865,441,28,0.110856485648823,1
865,442,28,0.113427519544459,1
866,433,28,0.117506590938102,1
866,434,28,0.138202516221442,1
866,435,28,0.14141979432508,1
866,436,28,0.167371367866543,1
866,437,28,0.179250510012724,1
866,438,28,0.162577851698775,1
866,439,28,0.152226790021638,1
866,440,28,0.145370514453652,1
866,441,28,0.139880319862718,1
866,442,28,0.146929955636618,1
866,443,28,0.127343583086892,1
866,444,28,0.10200076032609,1
866,448,28,0.105412542392141,1
866,449,28,0.104089248801086,1
867,435,28,0.102821095166221,1
867,436,28,0.125566141915139,1
867,437,28,0.131610698941956,1
867,438,28,0.130051889548295,1
867,439,28,0.132767123906208,1
867,440,28,0.137417354616897,1
867,441,28,0.141237403288642,1
867,442,28,0.149367180914742,1
867,443,28,0.139394691745989,1
867,444,28,0.137818551718132,1
867,445,28,0.165304414692492,1
867,446,28,0.198618032925978,1
867,447,28,0.212499642165482,1
867,448,28,0.221744571485584,1
867,449,28,0.199369818626578,1
867,450,28,0.139124972177591,1
867,451,28,0.10470590784097,1
868,439,28,0.0998134403966257,1
868,440,28,0.132026176660055,1
868,441,28,0.149861545152543,1
868,442,28,0.132680971809505,1
868,443,28,0.116410338458638,1
868,444,28,0.14133360954962,1
868,445,28,0.211138680860379,1
868,446,28,0.281266378647323,1
868,447,28,0.296054409466147,1
868,448,28,0.281341321930332,1
868,449,28,0.22865850327406,1
868,450,28,0.1450390973918,1
868,451,28,0.10232218858118,1
869,440,28,0.163411748223114,1
869,441,28,0.191724666968654,1
869,442,28,0.139155951639347,1
869,444,28,0.112833212774448,1
869,445,28,0.163790919842045,1
869,446,28,0.206966910725689,1
869,447,28,0.20589197568879,1
869,448,28,0.184344485566426,1
869,449,28,0.150963799630399,1
869,450,28,0.111940004305927,1
870,440,28,0.159951154986835,1
870,441,28,0.177060205423443,1
870,442,28,0.122831681555117,1
870,445,28,0.105833455676842,1
870,446,28,0.116243132151344,1
870,447,28,0.113615346147499,1
870,448,28,0.104837788411811,1
845,423,29,0.109468597047849,1
850,432,29,0.147825495189815,1
850,433,29,0.122055931432624,1
851,426,29,0.128014793865339,1
851,427,29,0.129880914291012,1
851,432,29,0.132122524528981,1
851,433,29,0.104462581815411,1
852,426,29,0.160435617561226,1
852,427,29,0.19377074930982,1
852,428,29,0.124983730212723,1
853,426,29,0.125062464231558,1
853,427,29,0.168104940606504,1
853,428,29,0.129435383009277,1
854,427,29,0.112926532411881,1
854,428,29,0.108529235281346,1
855,427,29,0.119121978153267,1
855,428,29,0.1298674070714,1
855,429,29,0.105399242137991,1
856,427,29,0.151407261257516,1
856,428,29,0.214919634845682,1
856,429,29,0.188812445062786,1
856,430,29,0.122133336515337,1
857,427,29,0.179750091958746,1
857,428,29,0.306095284380645,2
857,429,29,0.315119588518472,2
857,430,29,0.224837180130788,1
857,431,29,0.119991592559144,1
858,427,29,0.13662426296729,1
858,428,29,0.254552322558762,1
858,429,29,0.318574539222687,2
858,430,29,0.278675737497412,1
858,431,29,0.167578257077907,1
859,428,29,0.122981459191944,1
859,429,29,0.178373869674066,1
859,430,29,0.199459184134399,1
859,431,29,0.154249507051459,1
860,430,29,0.127083133392599,1
860,431,29,0.127584926601186,1
861,430,29,0.113208354013334,1
861,431,29,0.118906200319965,1
862,430,29,0.108369436159,1
862,431,29,0.134243016400122,1
862,432,29,0.109079992161027,1
863,430,29,0.124495901726347,1
863,431,29,0.201700772586529,1
863,432,29,0.185835192430237,1
863,433,29,0.156978488273203,1
863,434,29,0.140253533054934,1
863,435,29,0.112858734883764,1
864,431,29,0.181661744786015,1
864,432,29,0.200454121573853,1
864,433,29,0.222544416744998,1
864,434,29,0.222594153813343,3
864,435,29,0.179502223585946,1
864,436,29,0.174878386418096,1
864,437,29,0.169936977088496,1
864,438,29,0.124414313762723,1
865,432,29,0.135342743720761,1
865,433,29,0.22316768778674,1
865,434,29,0.261511917463861,3
865,435,29,0.225810963521463,3
865,436,29,0.234736556026931,1
865,437,29,0.234137902982223,1
865,438,29,0.181925440570183,1
865,439,29,0.143722502945955,1
865,440,29,0.12396171297653,1
865,441,29,0.118305336012692,1
865,442,29,0.112522917082619,1
866,433,29,0.132572031726167,1
866,434,29,0.178015786746399,1
866,435,29,0.194616998404352,1
866,436,29,0.224562634999254,3
866,437,29,0.231055860468491,3
866,438,29,0.218620068373427,3
866,439,29,0.200907680936922,1
866,440,29,0.174723184107586,1
866,441,29,0.158345734792593,1
866,442,29,0.152431979937631,1
866,443,29,0.127152379678948,1
866,444,29,0.107438102473832,1
866,445,29,0.100778204450334,1
866,448,29,0.100148876945604,1
866,449,29,0.103442427268374,1
867,435,29,0.139076357079907,1
867,436,29,0.183466548970401,1
867,437,29,0.197157401411642,1
867,438,29,0.19949589327157,1
867,439,29,0.189001328278974,1
867,440,29,0.176006555150352,1
867,441,29,0.170348391747791,1
867,442,29,0.16501518590609,1
867,443,29,0.151987744913262,1
867,444,29,0.16286807174081,1
867,445,29,0.188520493046623,1
867,446,29,0.205058362380347,1
867,447,29,0.211367148944365,1
867,448,29,0.218463863914365,1
867,449,29,0.199299493941243,1
867,450,29,0.138945184548804,1
868,436,29,0.108159453358629,1
868,437,29,0.118153739258385,1
868,438,29,0.119663465158843,1
868,439,29,0.124682257785317,1
868,440,29,0.150268755145088,1
868,441,29,0.172084004110423,1
868,442,29,0.151969880526033,1
868,443,29,0.131594490278422,1
868,444,29,0.162974789668665,1
868,445,29,0.228457637846926,1
868,446,29,0.290987851389674,1
868,447,29,0.314371114265261,1
868,448,29,0.291939936085617,1
868,449,29,0.227283555460907,1
868,450,29,0.14366344153891,1
869,439,29,0.10494490937767,1
869,440,29,0.17408357368728,1
869,441,29,0.213587212988469,1
869,442,29,0.159846234390623,1
869,443,29,0.110382109917464,1
869,444,29,0.123351121292552,1
869,445,29,0.169428822415188,1
869,446,29,0.209476247127871,1
869,447,29,0.222968695941682,1
869,448,29,0.200731106719252,1
869,449,29,0.156505103797478,1
869,450,29,0.116918449560269,1
869,451,29,0.100316039681222,1
870,440,29,0.180470713017967,1
870,441,29,0.196073555966967,1
870,442,29,0.133776548927989,1
870,445,29,0.116910323442664,1
870,446,29,0.126168128193074,1
870,447,29,0.133534453802281,1
870,448,29,0.130700955022329,1
870,449,29,0.118272657255566,1
870,450,29,0.110971787196882,1
870,451,29,0.10893123845859,1
871,441,29,0.114932125772968,1
871,446,29,0.101437531054106,1
871,447,29,0.111539809353244,1
871,448,29,0.112722976433744,1
871,449,29,0.108621923129474,1
871,450,29,0.106102870243506,1
871,451,29,0.10258983849496,1
872,449,29,0.100823213991815,1
873,450,29,0.100780176068681,1
873,451,29,0.105004678824453,1
873,452,29,0.105827420999692,1
874,451,29,0.106774081021953,1
874,452,29,0.109034492438188,1
875,451,29,0.10492933250344,1
875,452,29,0.103365926297942,1
850,426,30,0.099933186255654,1
850,432,30,0.137211358624895,1
850,433,30,0.107057438524991,1
851,426,30,0.154879259380032,1
851,427,30,0.149886282971687,1
851,432,30,0.126616513419598,1
852,426,30,0.155014157289447,1
852,427,30,0.187200293044576,1
852,428,30,0.129646357065282,1
853,426,30,0.113445590897149,1
853,427,30,0.16918105207866,1
853,428,30,0.148804823076282,1
854,427,30,0.129902874415801,1
854,428,30,0.13300826045504,1
855,427,30,0.120998501316626,1
855,428,30,0.138661336864408,1
855,429,30,0.11963894519808,1
856,427,30,0.146226785033702,1
856,428,30,0.219769815978305,2
856,429,30,0.224889030425427,2
856,430,30,0.152583849014914,1
857,427,30,0.185899874583509,2
857,428,30,0.320857695053882,2
857,429,30,0.368354264239248,2
857,430,30,0.276206552394818,2
857,431,30,0.139258116327041,1
858,427,30,0.152764649685173,1
858,428,30,0.27200565459461,2
858,429,30,0.351002192778814,2
858,430,30,0.314892427584771,2
858,431,30,0.183465285391792,1
859,428,30,0.128858265265515,1
859,429,30,0.176801651097063,2
859,430,30,0.198513504474852,1
859,431,30,0.157281747139331,1
860,430,30,0.130247297622988,1
860,431,30,0.140210538703475,1
861,430,30,0.142948059973748,1
861,431,30,0.157161391276837,1
861,432,30,0.109041060868371,1
862,430,30,0.128835270313417,1
862,431,30,0.158713163844797,1
862,432,30,0.128033605936524,1
862,433,30,0.108408705132147,1
863,431,30,0.180310314785074,1
863,432,30,0.185207694935906,1
863,433,30,0.194129670992253,1
863,434,30,0.189911148449034,3
863,435,30,0.145224375051785,1
863,436,30,0.105488248179483,1
864,431,30,0.148847131173841,1
864,432,30,0.189466608422932,1
864,433,30,0.269282904122558,3
864,434,30,0.317752995268542,3
864,435,30,0.25681406291112,3
864,436,30,0.196806453345948,1
864,437,30,0.166403118078741,1
864,438,30,0.129408651785948,1
864,439,30,0.104545182820506,1
865,432,30,0.125082474523838,1
865,433,30,0.24001635388657,3
865,434,30,0.338314164250414,3
865,435,30,0.322282445292894,3
865,436,30,0.291700074008313,3
865,437,30,0.26456921126553,3
865,438,30,0.217819395252166,3
865,439,30,0.175100798039094,1
865,440,30,0.149008553341124,1
865,441,30,0.137722846531429,1
865,442,30,0.116617401956707,1
866,433,30,0.126556613257786,1
866,434,30,0.204769743597411,3
866,435,30,0.266485580726744,3
866,436,30,0.314321290053563,3
866,437,30,0.329302365183647,3
866,438,30,0.31948296509911,3
866,439,30,0.271586756499932,3
866,440,30,0.222688137918837,3
866,441,30,0.195565989511288,1
866,442,30,0.163666773243724,1
866,443,30,0.130010224132959,1
866,444,30,0.12138946996688,1
866,445,30,0.120737267332162,1
866,446,30,0.108841197589789,1
866,447,30,0.100321638641609,1
866,448,30,0.101081441530624,1
866,449,30,0.10222837876239,1
867,435,30,0.164800922188535,1
867,436,30,0.230424811882552,3
867,437,30,0.266951993734283,3
867,438,30,0.28668172799152,3
867,439,30,0.259982616987884,3
867,440,30,0.225875209957972,1
867,441,30,0.206585963560954,1
867,442,30,0.179664887546,1
867,443,30,0.162386136323637,1
867,444,30,0.190513875445464,1
867,445,30,0.220536241762098,1
867,446,30,0.218142435659275,1
867,447,30,0.211314405430364,1
867,448,30,0.208038839316932,1
867,449,30,0.188341609530116,1
867,450,30,0.13681743799358,1
868,436,30,0.114261198210416,1
868,437,30,0.136145954892158,1
868,438,30,0.154918985855778,1
868,439,30,0.161097177213402,1
868,440,30,0.17148654928681,1
868,441,30,0.191009895406959,1
868,442,30,0.176087838112243,1
868,443,30,0.150614071571638,1
868,444,30,0.180388286299576,1
868,445,30,0.242097119281965,1
868,446,30,0.288874189378772,1
868,447,30,0.308548347963057,1
868,448,30,0.281753226770985,1
868,449,30,0.219388040951723,1
868,450,30,0.149650647346971,1
868,451,30,0.103306135065321,1
869,439,30,0.117373414109895,1
869,440,30,0.17591357319341,1
869,441,30,0.220272872765501,1
869,442,30,0.18274820453126,1
869,443,30,0.127520277126672,1
869,444,30,0.13108218540296,1
869,445,30,0.177871891285855,1
869,446,30,0.219685199783188,1
869,447,30,0.242555340814384,1
869,448,30,0.228888256722493,1
869,449,30,0.180845625505553,1
869,450,30,0.130843782976807,1
869,451,30,0.104864661243088,1
870,439,30,0.124223644107813,1
870,440,30,0.188823120123447,1
870,441,30,0.196123249463636,1
870,442,30,0.135674237033046,1
870,444,30,0.10028206466673,1
870,445,30,0.12863706275853,1
870,446,30,0.148705000366182,1
870,447,30,0.169508743762199,1
870,448,30,0.182533831884514,1
870,449,30,0.161149517689398,1
870,450,30,0.124321582342919,1
870,451,30,0.107518002035005,1
871,440,30,0.133123017357147,1
871,441,30,0.112077255085855,1
871,445,30,0.0997895849039238,1
871,446,30,0.110426356954613,1
871,447,30,0.127993323921907,1
871,448,30,0.139568717020604,1
871,449,30,0.130286773561597,1
871,450,30,0.110235578370512,1
871,451,30,0.0997674069207544,1
872,448,30,0.104756690629544,1
872,449,30,0.106997897829508,1
872,450,30,0.10254697485853,1
873,449,30,0.103081566646352,1
873,450,30,0.109992350381224,1
873,451,30,0.113697250005776,1
873,452,30,0.109410439753083,1
874,449,30,0.103594742955338,1
874,450,30,0.114520776471186,1
874,451,30,0.120305602736367,1
874,452,30,0.115477806552375,1
875,449,30,0.100534213956713,1
875,450,30,0.112403574261595,1
875,451,30,0.117372727855995,1
875,452,30,0.110246416824959,1
850,426,31,0.133946293285419,1
850,427,31,0.11645966159606,1
850,432,31,0.111372101971674,1
851,425,31,0.106890112395588,1
851,426,31,0.183361203550346,1
851,427,31,0.17368880340828,1
851,428,31,0.107344793729318,1
851,432,31,0.104428617693838,1
852,426,31,0.144388986197538,1
852,427,31,0.174406276413898,1
852,428,31,0.140954285429822,1
853,426,31,0.101686314432105,1
853,427,31,0.167496178932925,1
853,428,31,0.175460416868346,1
853,429,31,0.113208005439925,1
854,427,31,0.154280214190238,1
854,428,31,0.169742974200358,1
854,429,31,0.113751398706333,1
854,473,31,0.103591747402601,1
855,427,31,0.124428027947797,1
855,428,31,0.150392988886762,1
855,429,31,0.139347362012752,1
855,471,31,0.10029548474299,1
855,472,31,0.101359494182089,1
856,427,31,0.135422490781067,1
856,428,31,0.221875482586631,2
856,429,31,0.26893666179789,2
856,430,31,0.20155454604131,2
856,431,31,0.105599170774087,1
857,427,31,0.183324047803494,2
857,428,31,0.331093052144955,2
857,429,31,0.417507167122459,2
857,430,31,0.333609882875439,2
857,431,31,0.170184496887886,2
858,427,31,0.160128502601757,1
858,428,31,0.278750375778687,2
858,429,31,0.353489874057941,2
858,430,31,0.319355234730424,2
858,431,31,0.189947726871177,1
859,428,31,0.132290079409684,1
859,429,31,0.167122660738977,2
859,430,31,0.182267118761772,1
859,431,31,0.151770616357999,1
860,430,31,0.136556792226744,1
860,431,31,0.160931996989049,1
860,432,31,0.120917305498087,1
861,430,31,0.168036598432435,1
861,431,31,0.211823387965519,1
861,432,31,0.160289434587683,1
861,433,31,0.103067983176307,1
862,430,31,0.139235567984624,1
862,431,31,0.192648212216708,1
862,432,31,0.179514336511921,1
862,433,31,0.160699912455941,1
862,434,31,0.134735441698333,1
862,435,31,0.103652911143022,1
863,431,31,0.151939358566878,1
863,432,31,0.195710298902755,1
863,433,31,0.262448076712165,3
863,434,31,0.278722925622702,3
863,435,31,0.205027361132754,3
863,436,31,0.135435442461808,1
863,437,31,0.105366792132165,1
864,431,31,0.109875273287361,1
864,432,31,0.171768087672368,1
864,433,31,0.307167561545298,3
864,434,31,0.416196138958244,3
864,435,31,0.355786428179557,3
864,436,31,0.245206568380007,3
864,437,31,0.189642616208812,3
864,438,31,0.156835932641701,3
864,439,31,0.137994842719907,1
864,440,31,0.125003228537808,1
864,441,31,0.106183194628522,1
865,432,31,0.110186843450718,1
865,433,31,0.222936496472994,3
865,434,31,0.372417148755195,3
865,435,31,0.415799331703384,3
865,436,31,0.373888215685973,3
865,437,31,0.33758425153125,3
865,438,31,0.298280551759076,3
865,439,31,0.25547490922994,3
865,440,31,0.230736850441428,3
865,441,31,0.198286299969475,1
865,442,31,0.139910144675055,1
866,433,31,0.107173393648193,1
866,434,31,0.202917119498431,3
866,435,31,0.319482485810672,3
866,436,31,0.400856512504974,3
866,437,31,0.444267714189491,3
866,438,31,0.439384897871418,3
866,439,31,0.370401305157289,3
866,440,31,0.320000836256203,3
866,441,31,0.273458639279779,3
866,442,31,0.193666765504646,1
866,443,31,0.139033035940877,1
866,444,31,0.138143879638239,1
866,445,31,0.157992324927195,1
866,446,31,0.161715982158337,1
866,447,31,0.145331343516777,1
866,448,31,0.119702407344418,1
866,449,31,0.104482744608557,1
867,435,31,0.170145434880202,3
867,436,31,0.247394149739528,3
867,437,31,0.310850087114137,3
867,438,31,0.355937011892393,3
867,439,31,0.32895464142199,3
867,440,31,0.283112771996612,3
867,441,31,0.246009354727561,1
867,442,31,0.198875040457854,1
867,443,31,0.170394773797072,1
867,444,31,0.200012980138492,1
867,445,31,0.246601450235006,1
867,446,31,0.251164494021683,1
867,447,31,0.229898945322882,1
867,448,31,0.202434301754815,1
867,449,31,0.177773898586153,1
867,450,31,0.138627100419859,1
868,436,31,0.108716506345515,1
868,437,31,0.148352135146736,3
868,438,31,0.206749270203231,3
868,439,31,0.231189908730221,3
868,440,31,0.210685992930834,1
868,441,31,0.207097015750726,1
868,442,31,0.205056902729196,1
868,443,31,0.174391255078539,1
868,444,31,0.182335482721679,1
868,445,31,0.241689745895634,1
868,446,31,0.285633262747893,1
868,447,31,0.292880931789976,1
868,448,31,0.26700739512053,1
868,449,31,0.226356328406217,1
868,450,31,0.170797321620268,1
868,451,31,0.116544800651292,1
869,438,31,0.119418810197161,1
869,439,31,0.162825393284004,1
869,440,31,0.188720966328672,1
869,441,31,0.211572502254145,1
869,442,31,0.198222075318803,1
869,443,31,0.146358872570005,1
869,444,31,0.132069356191137,1
869,445,31,0.181918904818757,1
869,446,31,0.240644809957776,1
869,447,31,0.267418036382574,1
869,448,31,0.265931588650108,1
869,449,31,0.227525639693696,1
869,450,31,0.156368898737777,1
869,451,31,0.110227670111288,1
870,439,31,0.130936536182449,1
870,440,31,0.178585660698998,1
870,441,31,0.172747905740193,1
870,442,31,0.128993729606721,1
870,445,31,0.134451321690962,1
870,446,31,0.181759083910574,1
870,447,31,0.217581711758671,1
870,448,31,0.241046061523606,1
870,449,31,0.209096912115154,1
870,450,31,0.133541185626249,1
871,440,31,0.122536537913675,1
871,446,31,0.118690673023801,1
871,447,31,0.141120511374402,1
871,448,31,0.156624163402606,1
871,449,31,0.141083649736364,1
871,450,31,0.104564114713801,1
872,449,31,0.103217063666315,1
873,449,31,0.100753401273676,1
873,450,31,0.105845742889521,1
873,451,31,0.107718911033815,1
873,452,31,0.10016096808574,1
874,449,31,0.103021742734973,1
874,450,31,0.11048255352395,1
874,451,31,0.111464321424283,1
874,452,31,0.10151627596586,1
875,450,31,0.105091604318408,1
875,451,31,0.105601610787952,1
850,426,32,0.145509987389065,1
850,427,32,0.128197773119405,1
851,425,32,0.100740318877906,1
851,426,32,0.17320500530195,1
851,427,32,0.167002871308272,1
851,428,32,0.117627948949148,1
852,426,32,0.119527238313305,1
852,427,32,0.145526893199418,1
852,428,32,0.138184150759937,1
852,429,32,0.101149391559608,1
853,427,32,0.147558368136149,1
853,428,32,0.174423607048094,1
853,429,32,0.118801475796296,1
854,427,32,0.159503423335453,1
854,428,32,0.181679467565296,1
854,429,32,0.117904846951195,1
854,474,32,0.107349521256183,1
854,475,32,0.109824708357168,1
854,476,32,0.104755666695154,1
855,427,32,0.119669565193507,1
855,428,32,0.146764394160099,1
855,429,32,0.140914068772719,1
855,430,32,0.110178368759704,1
855,472,32,0.102323571981898,1
855,477,32,0.107765478262719,1
856,427,32,0.119834287915259,1
856,428,32,0.213031499830625,2
856,429,32,0.287430027958026,2
856,430,32,0.236227731286261,2
856,431,32,0.130222124087082,1
857,427,32,0.168597093581739,2
857,428,32,0.336532823413644,2
857,429,32,0.449941922861801,2
857,430,32,0.372257850707125,2
857,431,32,0.20133180763274,2
858,427,32,0.152236560970019,1
858,428,32,0.280091250541077,2
858,429,32,0.348131276821953,2
858,430,32,0.300865354304381,2
858,431,32,0.186051569374087,1
858,468,32,0.101539205560444,1
859,428,32,0.131709715576048,1
859,429,32,0.160464658083392,2
859,430,32,0.165636213006511,1
859,431,32,0.144641189952116,1
859,432,32,0.103284414584751,1
860,430,32,0.147214968863351,1
860,431,32,0.190354272395661,1
860,432,32,0.149547905334568,1
861,430,32,0.180491060990737,1
861,431,32,0.267276101647457,1
861,432,32,0.224592176595696,1
861,433,32,0.138802389273083,1
861,437,32,0.100648360855354,1
862,430,32,0.136074050733562,1
862,431,32,0.219831077754997,1
862,432,32,0.239054835922736,1
862,433,32,0.223969210555686,3
862,434,32,0.181223849440528,3
862,435,32,0.13644097871149,1
862,436,32,0.132307823974804,1
862,437,32,0.141359436660669,1
862,438,32,0.116990157646322,1
863,431,32,0.129995856372743,1
863,432,32,0.20961145003902,3
863,433,32,0.332758993397395,3
863,434,32,0.371626584262805,3
863,435,32,0.27061691634595,3
863,436,32,0.183493476266273,3
863,437,32,0.157037157535163,1
863,438,32,0.130157855864735,1
863,439,32,0.104548984449252,1
864,432,32,0.157345557859079,3
864,433,32,0.326256356446106,3
864,434,32,0.47757107129324,3
864,435,32,0.438706530445161,3
864,436,32,0.315029133718747,3
864,437,32,0.243167152505295,3
864,438,32,0.200882496508097,3
864,439,32,0.186148015279284,3
864,440,32,0.17876233295294,3
864,441,32,0.153335416857134,1
864,442,32,0.109148835409372,1
865,433,32,0.193069986042013,3
865,434,32,0.357533369177993,3
865,435,32,0.473174340594495,3
865,436,32,0.473879156028186,3
865,437,32,0.440380162098444,3
865,438,32,0.387086599257327,3
865,439,32,0.358003442206329,3
865,440,32,0.355112918995193,3
865,441,32,0.304877869962678,3
865,442,32,0.195133845627055,1
865,443,32,0.115110453750604,1
865,445,32,0.110829580138789,1
865,446,32,0.131728015680038,1
865,447,32,0.128054792664061,1
866,434,32,0.18038756736692,3
866,435,32,0.335538212761761,3
866,436,32,0.464344496847405,3
866,437,32,0.537866689637881,3
866,438,32,0.527897054413917,3
866,439,32,0.466410665731284,3
866,440,32,0.43171750287281,3
866,441,32,0.363042462983464,3
866,442,32,0.231895704526626,3
866,443,32,0.148756306014869,1
866,444,32,0.146453172570151,1
866,445,32,0.193841030423479,1
866,446,32,0.236110349190665,1
866,447,32,0.223583601221601,1
866,448,32,0.152432241367688,1
866,449,32,0.106420997944127,1
867,435,32,0.158514782003205,3
867,436,32,0.244413563873752,3
867,437,32,0.325371284988109,3
867,438,32,0.379290275668939,3
867,439,32,0.367264906977538,3
867,440,32,0.316318027471468,3
867,441,32,0.261112822696002,3
867,442,32,0.206698639915524,1
867,443,32,0.16998877291854,1
867,444,32,0.183145839647968,1
867,445,32,0.24684039730711,1
867,446,32,0.284279599698549,1
867,447,32,0.259888349666495,1
867,448,32,0.203822081426599,1
867,449,32,0.174590954963335,1
867,450,32,0.142193474792954,1
868,436,32,0.102910406209446,1
868,437,32,0.157502611965826,3
868,438,32,0.248825457515803,3
868,439,32,0.305733574110938,3
868,440,32,0.253994801176356,3
868,441,32,0.211330919095632,1
868,442,32,0.21800616524206,1
868,443,32,0.187588407750041,1
868,444,32,0.165202467863179,1
868,445,32,0.222840137711149,1
868,446,32,0.283414004779798,1
868,447,32,0.280974470202837,1
868,448,32,0.264646812420785,1
868,449,32,0.261695811723127,1
868,450,32,0.202590484428039,1
868,451,32,0.124243273147926,1
869,438,32,0.151965926396421,1
869,439,32,0.215822134974147,1
869,440,32,0.210128035831666,1
869,441,32,0.194296180152728,1
869,442,32,0.192207048995509,1
869,443,32,0.149044837654453,1
869,444,32,0.1209196583686,1
869,445,32,0.173856478111093,1
869,446,32,0.261686400241075,1
869,447,32,0.294584257540567,1
869,448,32,0.305778409365714,1
869,449,32,0.294078194307716,1
869,450,32,0.191536851258533,1
869,451,32,0.111436511801969,1
870,439,32,0.129799086683169,1
870,440,32,0.159885993545126,1
870,441,32,0.145324230440643,1
870,442,32,0.116689916118769,1
870,445,32,0.125356878047424,1
870,446,32,0.200724505610313,1
870,447,32,0.251571780264662,1
870,448,32,0.27070935365694,1
870,449,32,0.235759967556761,1
870,450,32,0.135183075313444,1
871,440,32,0.104503953121932,1
871,446,32,0.115998891120585,1
871,447,32,0.14070461972538,1
871,448,32,0.149099759752262,1
871,449,32,0.12963659700982,1
849,426,33,0.114167279462436,1
849,427,33,0.100653121060975,1
850,425,33,0.107551574011492,1
850,426,33,0.157438365529317,1
850,427,33,0.145014021892166,1
850,428,33,0.121377019360415,1
850,429,33,0.100149922665832,1
851,426,33,0.152137021475813,1
851,427,33,0.163018524738618,1
851,428,33,0.161360567995836,1
851,429,33,0.139396151397141,1
852,426,33,0.101640836495105,1
852,427,33,0.132917195651849,1
852,428,33,0.157108331868183,1
852,429,33,0.137044130531763,1
853,427,33,0.134160034142861,1
853,428,33,0.168063253405331,1
853,429,33,0.125198908935477,1
854,427,33,0.149058214159036,1
854,428,33,0.175026050828628,1
854,429,33,0.118680357429468,1
854,474,33,0.101805591895615,1
854,475,33,0.106963062274412,1
854,476,33,0.104271530908334,1
854,477,33,0.104377965620293,1
855,427,33,0.111163371856992,1
855,428,33,0.139523827301232,1
855,429,33,0.136568491221795,1
855,430,33,0.117400243369495,1
855,472,33,0.101777455485729,1
855,473,33,0.108383400881212,1
855,477,33,0.113538028208139,1
855,478,33,0.102779059391638,1
856,427,33,0.104575911745123,1
856,428,33,0.19531582273257,1
856,429,33,0.274920055084287,2
856,430,33,0.241928017606757,2
856,431,33,0.147278354759256,1
856,470,33,0.101761824146904,1
856,471,33,0.10702413887148,1
856,478,33,0.100711409070769,1
857,427,33,0.142680649704187,1
857,428,33,0.316698168560195,2
857,429,33,0.441167110141711,2
857,430,33,0.361232953058052,2
857,431,33,0.204482845895684,2
857,432,33,0.099849593994926,1
857,468,33,0.100856600788679,1
857,469,33,0.113803717396492,1
858,427,33,0.130652644926378,1
858,428,33,0.257647000858583,2
858,429,33,0.326915334476468,2
858,430,33,0.258492531020458,2
858,431,33,0.159640772151653,1
858,468,33,0.110901713048685,1
859,428,33,0.121449337449935,1
859,429,33,0.149964733774627,2
859,430,33,0.148051653974964,1
859,431,33,0.132696777435035,1
859,432,33,0.103457176280757,1
859,468,33,0.102666993040534,1
860,430,33,0.147722851213682,1
860,431,33,0.202895486161214,1
860,432,33,0.167690367000686,1
860,433,33,0.104519562674919,1
860,437,33,0.100186119835808,1
861,430,33,0.166615824108873,1
861,431,33,0.27919071113804,1
861,432,33,0.262302678028793,1
861,433,33,0.165379804585182,1
861,434,33,0.102682003482974,1
861,435,33,0.103578327326342,1
861,436,33,0.152169166479906,1
861,437,33,0.189807709289812,1
861,438,33,0.156259479366,1
861,439,33,0.106569294143964,1
862,430,33,0.120925714831588,1
862,431,33,0.212022140166359,1
862,432,33,0.264097787515232,1
862,433,33,0.269590367655436,3
862,434,33,0.225603889130475,3
862,435,33,0.171186013650442,3
862,436,33,0.202275243350964,1
862,437,33,0.262781007889764,4
862,438,33,0.221184980448561,4
862,439,33,0.142845731892268,1
863,431,33,0.115756251348925,1
863,432,33,0.213324715425396,3
863,433,33,0.376102005408709,3
863,434,33,0.431079090673599,3
863,435,33,0.311924782506817,3
863,436,33,0.22627023077411,3
863,437,33,0.222240046801127,3
863,438,33,0.190819857541353,1
863,439,33,0.144861139773412,1
863,440,33,0.114413208895647,1
864,432,33,0.149448932272152,3
864,433,33,0.317858765512439,3
864,434,33,0.467072214490541,3
864,435,33,0.454877373764685,3
864,436,33,0.357224140992229,3
864,437,33,0.278237232148459,3
864,438,33,0.225776563683128,3
864,439,33,0.220484173609077,3
864,440,33,0.228286096157853,3
864,441,33,0.209238912207785,3
864,442,33,0.152597181947822,1
864,443,33,0.101807792265261,1
865,433,33,0.163180916375696,3
865,434,33,0.299508205520943,3
865,435,33,0.450549704172666,3
865,436,33,0.511260822021244,3
865,437,33,0.477178969779405,3
865,438,33,0.406763350356344,3
865,439,33,0.411526170278251,3
865,440,33,0.442767584950709,3
865,441,33,0.395146139341445,3
865,442,33,0.255581245905627,3
865,443,33,0.148901563090294,1
865,444,33,0.13339052566298,1
865,445,33,0.163582015440659,1
865,446,33,0.196125536976635,1
865,447,33,0.194216291484474,1
865,448,33,0.128406078410245,1
866,434,33,0.148299151988516,3
866,435,33,0.294102398373827,3
866,436,33,0.445491555429694,3
866,437,33,0.521314202006803,3
866,438,33,0.493595121635754,3
866,439,33,0.466594102487951,3
866,440,33,0.45662363940214,3
866,441,33,0.383393725415398,3
866,442,33,0.243047373967509,3
866,443,33,0.152789746970646,1
866,444,33,0.157182632468968,1
866,445,33,0.228752574522906,1
866,446,33,0.314623285341082,1
866,447,33,0.32135253858012,1
866,448,33,0.201887651505613,1
866,449,33,0.111638967595283,1
867,435,33,0.137184801688271,3
867,436,33,0.231632400887544,3
867,437,33,0.31688241139287,3
867,438,33,0.342335808174868,3
867,439,33,0.334252543313076,3
867,440,33,0.288348758535864,3
867,441,33,0.228661095788792,3
867,442,33,0.188017915547866,1
867,443,33,0.155689703449673,1
867,444,33,0.153883330684944,1
867,445,33,0.224272186205919,1
867,446,33,0.306444903510216,1
867,447,33,0.297882546283121,1
867,448,33,0.214672975586896,1
867,449,33,0.172179861797993,1
867,450,33,0.138397608401483,1
868,436,33,0.109694712261322,1
868,437,33,0.170380525858965,3
868,438,33,0.253246588353202,3
868,439,33,0.31908785713962,3
868,440,33,0.262042359049528,3
868,441,33,0.189809800730268,1
868,442,33,0.196597941089647,1
868,443,33,0.174806732796638,1
868,444,33,0.137860347848496,1
868,445,33,0.184888227406244,1
868,446,33,0.263728190772138,1
868,447,33,0.264649056362108,1
868,448,33,0.254065234790881,1
868,449,33,0.283502564211609,1
868,450,33,0.214179482782619,1
868,451,33,0.115114288058106,1
869,438,33,0.159044036260697,1
869,439,33,0.229906744652916,1
869,440,33,0.213122956778901,1
869,441,33,0.1684720210853,1
869,442,33,0.165146696117684,1
869,443,33,0.133314155407576,1
869,444,33,0.102703201103429,1
869,445,33,0.141212959578311,1
869,446,33,0.231830630228269,1
869,447,33,0.272968937211329,1
869,448,33,0.296343943254282,1
869,449,33,0.320265882762332,1
869,450,33,0.205849449732851,1
869,451,33,0.101302317250038,1
870,439,33,0.114689104749141,1
870,440,33,0.133507319540947,1
870,441,33,0.12474191830291,1
870,442,33,0.111544939918113,1
870,446,33,0.16562052720309,1
870,447,33,0.219531740339724,1
870,448,33,0.233582560183626,1
870,449,33,0.213162367359995,1
870,450,33,0.124644807929651,1
871,447,33,0.115672245157274,1
871,448,33,0.119309074930732,1
871,449,33,0.10483438982107,1
849,426,34,0.127273498045776,1
849,427,34,0.11684168715978,1
850,426,34,0.151595490898561,1
850,427,34,0.148155180277539,1
850,428,34,0.14477690483046,1
850,429,34,0.137794532831644,1
850,430,34,0.100147308365262,1
851,426,34,0.125124248868364,1
851,427,34,0.152488209185726,1
851,428,34,0.197106662194744,1
851,429,34,0.201756827547919,1
851,430,34,0.130291119836294,1
852,427,34,0.124685079051349,1
852,428,34,0.167281523070285,1
852,429,34,0.16481587816638,1
852,430,34,0.108719599934523,1
853,427,34,0.116951509569562,1
853,428,34,0.146094969820376,1
853,429,34,0.119766773603037,1
853,478,34,0.100570955772642,1
854,427,34,0.119160462836243,1
854,428,34,0.147189784434526,1
854,429,34,0.110992091597976,1
854,474,34,0.104893658193577,1
854,475,34,0.112776776560892,1
854,476,34,0.108782321362367,1
854,477,34,0.106012110442049,1
854,478,34,0.105816713260274,1
855,428,34,0.120428126289751,1
855,429,34,0.12176251976531,1
855,430,34,0.113547668441492,1
855,472,34,0.106930492446476,1
855,473,34,0.112944701800843,1
855,474,34,0.118142029370415,1
855,475,34,0.122403143227087,1
855,477,34,0.114113882373293,1
855,478,34,0.10671920249582,1
856,428,34,0.160704955877458,1
856,429,34,0.232828269111646,2
856,430,34,0.217235752649898,1
856,431,34,0.149436187556873,1
856,470,34,0.10248898095755,1
856,471,34,0.110285206509667,1
856,472,34,0.117910652877044,1
856,473,34,0.119988618792246,1
856,478,34,0.106128479496174,1
857,427,34,0.109759329057078,1
857,428,34,0.257264899044429,2
857,429,34,0.381556133544695,2
857,430,34,0.310986205030486,2
857,431,34,0.183531231123672,1
857,432,34,0.100430382652405,1
857,468,34,0.106473480028071,1
858,427,34,0.101170316857088,1
858,428,34,0.204229171597035,1
858,429,34,0.281166904510632,2
858,430,34,0.215857885534442,1
858,431,34,0.133119248407159,1
859,429,34,0.130104611276458,1
859,430,34,0.129530696050894,1
859,431,34,0.116689099149841,1
859,480,34,0.115672669981116,1
860,430,34,0.129166077371802,1
860,431,34,0.179013229557233,1
860,432,34,0.156414311317263,1
860,433,34,0.10048911727188,1
860,436,34,0.112013487937784,1
860,437,34,0.139180841959357,1
860,438,34,0.134196067919052,1
860,439,34,0.11214895227899,1
860,468,34,0.103908818490075,1
861,430,34,0.137022344693679,1
861,431,34,0.238907934016536,1
861,432,34,0.245076506926646,1
861,433,34,0.160365717699734,1
861,434,34,0.105351977762268,1
861,435,34,0.112823746827801,1
861,436,34,0.190697421131321,1
861,437,34,0.279240992852337,4
861,438,34,0.259347908381147,4
861,439,34,0.191769480437593,1
861,440,34,0.120579036790158,1
861,468,34,0.103033136728291,1
862,430,34,0.1053732189544,1
862,431,34,0.179249605900444,1
862,432,34,0.240564093427675,1
862,433,34,0.263709890668148,3
862,434,34,0.230824124508792,3
862,435,34,0.175174118277166,3
862,436,34,0.232820317280746,4
862,437,34,0.352453347453584,4
862,438,34,0.330282640754072,4
862,439,34,0.232980878907424,4
862,440,34,0.143503990989974,1
862,467,34,0.101518258477126,1
863,431,34,0.104665048501644,1
863,432,34,0.198878744050329,3
863,433,34,0.364955412068099,3
863,434,34,0.412308020435407,3
863,435,34,0.290950880822445,3
863,436,34,0.223287771326259,3
863,437,34,0.248643850769536,4
863,438,34,0.231787668555568,4
863,439,34,0.187000756553565,1
863,440,34,0.1513199000468,1
863,441,34,0.125404970284994,1
864,432,34,0.138382728674072,1
864,433,34,0.283135189624,3
864,434,34,0.391825062612256,3
864,435,34,0.385158116870138,3
864,436,34,0.326680722786143,3
864,437,34,0.2662591387257,3
864,438,34,0.223460511236426,3
864,439,34,0.228652642883615,3
864,440,34,0.25205207085106,3
864,441,34,0.246207409781582,3
864,442,34,0.179328154739656,1
864,443,34,0.119944012288769,1
864,444,34,0.103919711409117,1
864,445,34,0.104649003231895,1
864,446,34,0.107137425229517,1
864,447,34,0.100035459872539,1
865,433,34,0.137382355668016,1
865,434,34,0.231482078604764,3
865,435,34,0.360127496061997,3
865,436,34,0.441087373974324,3
865,437,34,0.414579673344094,3
865,438,34,0.351917328693367,3
865,439,34,0.379192065110856,3
865,440,34,0.424874091842213,3
865,441,34,0.396743694848139,3
865,442,34,0.266961775575582,3
865,443,34,0.163629933391524,1
865,444,34,0.152689662830488,1
865,445,34,0.178275517508036,1
865,446,34,0.207654144988047,1
865,447,34,0.208713633865744,1
865,448,34,0.13878945937818,1
866,434,34,0.116750121282314,1
866,435,34,0.218067209160371,3
866,436,34,0.349063383904373,3
866,437,34,0.41813830285175,3
866,438,34,0.381603583100042,3
866,439,34,0.383024586174904,3
866,440,34,0.384886491040908,3
866,441,34,0.327922864130336,3
866,442,34,0.216750146319007,3
866,443,34,0.142685910984084,1
866,444,34,0.148405880809289,1
866,445,34,0.214852142319298,1
866,446,34,0.306122298819869,1
866,447,34,0.327956261820118,1
866,448,34,0.204732838387697,1
866,449,34,0.110194076348962,1
867,435,34,0.109175054665506,1
867,436,34,0.204508269968728,3
867,437,34,0.300274849163116,3
867,438,34,0.28693413871156,3
867,439,34,0.271916550516847,3
867,440,34,0.239791916182629,3
867,441,34,0.191550162405602,3
867,442,34,0.16149764448906,1
867,443,34,0.136093734238271,1
867,444,34,0.126998822199214,1
867,445,34,0.187713959534919,1
867,446,34,0.287333364194448,1
867,447,34,0.298680365459592,1
867,448,34,0.20489357430108,1
867,449,34,0.158478421439443,1
867,450,34,0.125162417656687,1
868,436,34,0.107552913840534,1
868,437,34,0.173011045985489,1
868,438,34,0.218086816414646,3
868,439,34,0.268592685200383,1
868,440,34,0.230822141997526,1
868,441,34,0.162786189668372,1
868,442,34,0.158913070695055,1
868,443,34,0.143921756221071,1
868,444,34,0.111239023179738,1
868,445,34,0.146913605365136,1
868,446,34,0.231323281630971,1
868,447,34,0.24631226502028,1
868,448,34,0.224971250178356,1
868,449,34,0.258876658917554,1
868,450,34,0.191138911140092,1
869,438,34,0.138495274313614,1
869,439,34,0.19835980538717,1
869,440,34,0.186147187417437,1
869,441,34,0.141783345498106,1
869,442,34,0.132873939870334,1
869,445,34,0.107671036654625,1
869,446,34,0.17756563686699,1
869,447,34,0.220512059481825,1
869,448,34,0.237688842089036,1
869,449,34,0.275770683132273,1
869,450,34,0.18071160992258,1
870,440,34,0.107620656904056,1
870,441,34,0.106260033279444,1
870,446,34,0.116755981672758,1
870,447,34,0.158678840256896,1
870,448,34,0.163693384644944,1
870,449,34,0.157950027722556,1
870,450,34,0.100790883808099,1
849,427,35,0.122913520055879,1
850,427,35,0.136828254662189,1
850,428,35,0.148858307308778,1
850,429,35,0.158258613226095,1
850,430,35,0.113439730506705,1
851,427,35,0.136250592272475,1
851,428,35,0.203108007011722,1
851,429,35,0.231399902423512,1
851,430,35,0.148792840865336,1
852,427,35,0.113939780848245,1
852,428,35,0.159271425945698,1
852,429,35,0.167007740443084,1
852,430,35,0.112035262882949,1
852,434,35,0.104865794106668,1
853,428,35,0.119260143938396,1
853,429,35,0.1076908726602,1
853,476,35,0.103536149943811,1
853,477,35,0.101228659331476,1
853,478,35,0.103028441880184,1
854,428,35,0.11269448055753,1
854,473,35,0.101231262739127,1
854,474,35,0.110624608081177,1
854,475,35,0.118240719216935,1
854,476,35,0.114867138617963,1
854,477,35,0.109241588615014,1
854,478,35,0.108882449074201,1
855,429,35,0.105211175890731,1
855,430,35,0.103481413025625,1
855,471,35,0.102235099693439,1
855,472,35,0.115663095105278,1
855,473,35,0.122615359075862,1
855,474,35,0.124341843172337,1
855,475,35,0.12435988184627,1
855,476,35,0.119471924070409,1
855,477,35,0.114431410963366,1
855,478,35,0.112374675347377,1
856,428,35,0.123585526017416,1
856,429,35,0.183495317169591,1
856,430,35,0.182338957562854,1
856,431,35,0.137533451348047,1
856,469,35,0.101990793305166,1
856,470,35,0.109036039232692,1
856,471,35,0.118117945126413,1
856,472,35,0.128273979981023,1
856,473,35,0.129349949845231,1
856,474,35,0.12416910326217,1
856,479,35,0.110040693155932,1
857,428,35,0.18553875253143,1
857,429,35,0.294449141772771,2
857,430,35,0.252036254332612,1
857,431,35,0.154791495131311,1
857,434,35,0.103155159207399,1
857,435,35,0.105907952350169,1
857,468,35,0.114024222756658,1
857,473,35,0.129399131374705,1
858,428,35,0.150957557987788,1
858,429,35,0.226933544186251,1
858,430,35,0.18778068955697,1
858,431,35,0.120336789163584,1
859,429,35,0.119624969582949,1
859,430,35,0.124310863710582,1
859,431,35,0.11023775695432,1
860,431,35,0.143608595691534,1
860,432,35,0.135006860562102,1
860,436,35,0.136100738385215,1
860,437,35,0.193565243499174,4
860,438,35,0.19994603225806,4
860,439,35,0.171495045763663,1
860,440,35,0.131995665593818,1
860,441,35,0.103525322382283,1
861,430,35,0.125284875852557,1
861,431,35,0.188396793057983,1
861,432,35,0.202854049497178,1
861,433,35,0.143116366465866,1
861,434,35,0.104834629465289,1
861,435,35,0.117246195708404,1
861,436,35,0.213907355879113,4
861,437,35,0.358190037909518,4
861,438,35,0.381779002668294,4
861,439,35,0.310553777930358,4
861,440,35,0.195034284347011,1
861,441,35,0.119128045509174,1
861,467,35,0.105121058771497,1
862,430,35,0.117909291262164,1
862,431,35,0.165024749889009,1
862,432,35,0.20863522663448,1
862,433,35,0.227839595406323,1
862,434,35,0.207618220141046,3
862,435,35,0.166252795795962,1
862,436,35,0.2309554713266,4
862,437,35,0.378024605619615,4
862,438,35,0.404006047545091,4
862,439,35,0.323351214937615,4
862,440,35,0.197035030359124,4
862,441,35,0.119553577391548,1
862,473,35,0.115567019559328,1
863,431,35,0.113673732193564,1
863,432,35,0.1844498418794,1
863,433,35,0.311161689956252,3
863,434,35,0.33874308383061,3
863,435,35,0.245709951954774,3
863,436,35,0.209993094350574,1
863,437,35,0.246443786124793,4
863,438,35,0.246990458159833,4
863,439,35,0.215594189750275,4
863,440,35,0.185224753247126,1
863,441,35,0.166784936677,1
863,442,35,0.123553849408842,1
863,472,35,0.104198482993238,1
863,473,35,0.103501009386982,1
864,432,35,0.128648217107629,1
864,433,35,0.23532701759652,1
864,434,35,0.296984969754063,3
864,435,35,0.293937022076932,3
864,436,35,0.273476351166141,3
864,437,35,0.238080987174546,3
864,438,35,0.208903061727884,1
864,439,35,0.216758141721584,1
864,440,35,0.262325771017162,3
864,441,35,0.27656423228448,3
864,442,35,0.200544075299302,1
864,443,35,0.135196092351699,1
864,444,35,0.119129712125787,1
864,445,35,0.123783079997161,1
864,446,35,0.146573288788427,1
864,447,35,0.162553418881364,1
864,448,35,0.133408684159022,1
865,433,35,0.12502901207718,1
865,434,35,0.179049862443972,1
865,435,35,0.262158063635592,3
865,436,35,0.32380573287756,3
865,437,35,0.307253354175672,3
865,438,35,0.26807527154589,3
865,439,35,0.290380832583141,3
865,440,35,0.339908669739776,3
865,441,35,0.331776517457324,3
865,442,35,0.235466316245228,3
865,443,35,0.158630170694617,1
865,444,35,0.149968862190944,1
865,445,35,0.167754776830982,1
865,446,35,0.202416829512672,1
865,447,35,0.221694267985449,1
865,448,35,0.168211320853868,1
865,449,35,0.111721013061507,1
866,435,35,0.154065994044359,1
866,436,35,0.23887479775681,3
866,437,35,0.295109906241856,3
866,438,35,0.264707093834763,3
866,439,35,0.265818498364614,3
866,440,35,0.279220666665405,3
866,441,35,0.245865219622798,3
866,442,35,0.174184845155613,1
866,443,35,0.125368489899123,1
866,444,35,0.128240985329245,1
866,445,35,0.17465184638078,1
866,446,35,0.247686428543262,1
866,447,35,0.274051867650804,1
866,448,35,0.186784510324744,1
866,449,35,0.117439501449722,1
867,436,35,0.16553059526348,1
867,437,35,0.259340174408627,1
867,438,35,0.227221749038263,3
867,439,35,0.203348784094226,1
867,440,35,0.193805519507402,1
867,441,35,0.162585019239505,1
867,442,35,0.131445987113123,1
867,443,35,0.110689758629967,1
867,444,35,0.103663150486921,1
867,445,35,0.14630014884345,1
867,446,35,0.233444329040983,1
867,447,35,0.257598745227227,1
867,448,35,0.17911911962324,1
867,449,35,0.141207360617924,1
867,450,35,0.112294263819009,1
868,437,35,0.155080495166413,1
868,438,35,0.166512079947918,1
868,439,35,0.191940804268285,1
868,440,35,0.179257002192473,1
868,441,35,0.13741175565651,1
868,442,35,0.119966135807343,1
868,445,35,0.112671256854133,1
868,446,35,0.179347478778036,1
868,447,35,0.207167863296175,1
868,448,35,0.184676882990991,1
868,449,35,0.207224724333574,1
868,450,35,0.157692943940246,1
869,438,35,0.111668291333344,1
869,439,35,0.151704158658924,1
869,440,35,0.144549471573783,1
869,441,35,0.118001423571421,1
869,446,35,0.122526941251999,1
869,447,35,0.157160868416723,1
869,448,35,0.172771576053271,1
869,449,35,0.208394275265272,1
869,450,35,0.14981223290804,1
870,447,35,0.108298185575547,1
870,448,35,0.114298844138625,1
870,449,35,0.118561994971158,1
850,428,36,0.134945293783677,1
850,429,36,0.152578358983717,1
850,430,36,0.114516517339841,1
851,428,36,0.174119814428932,1
851,429,36,0.211648948759981,1
851,430,36,0.14430016533567,1
851,434,36,0.121158725262814,1
851,435,36,0.134569902007653,1
851,436,36,0.113695790354624,1
852,428,36,0.132241725742057,1
852,429,36,0.144972574335211,1
852,430,36,0.104398967168206,1
852,434,36,0.125081210945229,1
852,435,36,0.14129961274929,1
852,436,36,0.118077118465844,1
852,476,36,0.110433949319185,1
853,435,36,0.108339720275854,1
853,436,36,0.100752453589719,1
853,475,36,0.110605066184415,1
853,476,36,0.12086428966111,1
853,477,36,0.118750736579398,1
854,472,36,0.102357078600871,1
854,473,36,0.115099506366966,1
854,474,36,0.123543577386185,1
854,475,36,0.125104075182298,1
854,476,36,0.121013435508633,1
854,477,36,0.11626784818465,1
855,471,36,0.110677493203125,1
855,472,36,0.128838167829882,1
855,473,36,0.142842551159908,1
855,474,36,0.141090512275361,1
855,475,36,0.129531774449879,1
855,476,36,0.119411043545884,1
855,477,36,0.116865194079073,1
856,429,36,0.13247705636504,1
856,430,36,0.141764086817239,1
856,431,36,0.114427565762944,1
856,434,36,0.107867937059228,1
856,435,36,0.117812878035724,1
856,436,36,0.106539589153737,1
856,469,36,0.112287553780879,1
856,470,36,0.119221615683744,1
856,471,36,0.129224289131163,1
856,472,36,0.14141331303825,1
856,473,36,0.143637603534942,1
856,474,36,0.132982259057287,1
856,475,36,0.12271839519708,1
857,428,36,0.119418036799909,1
857,429,36,0.196847802866631,1
857,430,36,0.189841194122947,1
857,431,36,0.126086616479883,1
857,433,36,0.100344873237926,1
857,434,36,0.141010198783264,1
857,435,36,0.160558914511862,1
857,436,36,0.144936551451939,1
857,437,36,0.102074135028756,1
857,468,36,0.119262692881451,1
857,473,36,0.134157550557319,1
857,474,36,0.122947451498695,1
858,429,36,0.166759251173899,1
858,430,36,0.161031939521259,1
858,431,36,0.112896598670354,1
858,434,36,0.117349907190602,1
858,435,36,0.133382835262136,1
858,436,36,0.130019907937988,1
858,437,36,0.100095109497213,1
858,467,36,0.10023351492656,1
859,436,36,0.11269073339338,1
859,437,36,0.115115442707525,1
859,438,36,0.10337209169012,1
859,440,36,0.0998511952540252,1
859,467,36,0.10591920473554,1
860,436,36,0.149483920328115,1
860,437,36,0.227219243666884,4
860,438,36,0.245755658643074,4
860,439,36,0.22656562495269,4
860,440,36,0.198473200674396,1
860,441,36,0.157973861429419,1
860,442,36,0.110089918257083,1
860,443,36,0.113687359235286,1
861,431,36,0.146899041532377,1
861,432,36,0.163718972111773,1
861,433,36,0.128237357987204,1
861,434,36,0.102937856365431,1
861,435,36,0.119771653630768,1
861,436,36,0.218468569655391,4
861,437,36,0.392198951165452,4
861,438,36,0.469994305381061,4
861,439,36,0.418604911931831,4
861,440,36,0.279978225613097,4
861,441,36,0.170376201370106,1
861,442,36,0.117333829242096,1
861,443,36,0.135317929651183,1
861,446,36,0.100891120449123,1
861,473,36,0.125334351490845,1
862,431,36,0.162932013175587,1
862,432,36,0.192951819656245,1
862,433,36,0.192302950254754,1
862,434,36,0.172974042739504,1
862,435,36,0.155500210230019,1
862,436,36,0.213023831215619,4
862,437,36,0.35360039361454,4
862,438,36,0.43301585167926,4
862,439,36,0.384270736113304,4
862,440,36,0.232599583169279,4
862,441,36,0.135846247117637,1
862,442,36,0.102055856710604,1
862,443,36,0.108575116256351,1
862,444,36,0.133079031750056,1
862,445,36,0.122581591026832,1
862,473,36,0.116468332359617,1
863,432,36,0.173733595091381,1
863,433,36,0.240304820168639,1
863,434,36,0.250985436218472,3
863,435,36,0.207401037121188,1
863,436,36,0.201165450973131,1
863,437,36,0.232401114184335,4
863,438,36,0.245917549205876,4
863,439,36,0.22448729957116,4
863,440,36,0.18857158083693,1
863,441,36,0.172841693773144,1
863,442,36,0.130910970501458,1
863,443,36,0.101944738043457,1
863,445,36,0.102426651674792,1
863,446,36,0.11553334954657,1
863,447,36,0.127661634537079,1
863,448,36,0.107292540396674,1
863,472,36,0.107578871666611,1
863,473,36,0.104476426715513,1
864,432,36,0.113403457086295,1
864,433,36,0.179932853354432,1
864,434,36,0.21401404112821,1
864,435,36,0.219268480272318,1
864,436,36,0.219725568941157,1
864,437,36,0.201693648617476,1
864,438,36,0.18131569853389,1
864,439,36,0.187237350755157,1
864,440,36,0.233830090875935,1
864,441,36,0.254663103545418,1
864,442,36,0.185901421378013,1
864,443,36,0.130977722309347,1
864,444,36,0.120070076040842,1
864,445,36,0.124636453060746,1
864,446,36,0.161315493096841,1
864,447,36,0.207718391424556,1
864,448,36,0.177987955338247,1
864,449,36,0.115975199021669,1
865,433,36,0.111430183016006,1
865,434,36,0.139448295800595,1
865,435,36,0.178094651480263,1
865,436,36,0.209510973753777,3
865,437,36,0.205938793454833,3
865,438,36,0.190628795741357,1
865,439,36,0.200134392614134,1
865,440,36,0.236160696262477,3
865,441,36,0.236876099613477,3
865,442,36,0.177595777573979,1
865,443,36,0.134530415176126,1
865,444,36,0.128592020538291,1
865,445,36,0.139231951535502,1
865,446,36,0.173240995506465,1
865,447,36,0.209154993159486,1
865,448,36,0.182547382675802,1
865,449,36,0.136617411321213,1
865,450,36,0.106454014381743,1
866,435,36,0.105287219358563,1
866,436,36,0.150597525227613,1
866,437,36,0.193727918352147,1
866,438,36,0.180516092918696,1
866,439,36,0.172840419301616,1
866,440,36,0.186094552832626,1
866,441,36,0.171170414990374,1
866,442,36,0.130073228776698,1
866,443,36,0.103645808959806,1
866,444,36,0.104413138855879,1
866,445,36,0.132648826805412,1
866,446,36,0.18034799339204,1
866,447,36,0.199658067050267,1
866,448,36,0.155656490939514,1
866,449,36,0.122981415620267,1
866,450,36,0.102612877018733,1
867,436,36,0.12186825733045,1
867,437,36,0.193767982508383,1
867,438,36,0.170664449793794,1
867,439,36,0.14671094260636,1
867,440,36,0.15054229812807,1
867,441,36,0.134253517174079,1
867,445,36,0.114555818991744,1
867,446,36,0.178000329694279,1
867,447,36,0.201082534073384,1
867,448,36,0.147584576499364,1
867,449,36,0.12133978736313,1
867,450,36,0.100165325253357,1
868,437,36,0.121163692433897,1
868,438,36,0.120739413237213,1
868,439,36,0.127030150234379,1
868,440,36,0.128893623680725,1
868,446,36,0.132314544905853,1
868,447,36,0.159362566999322,1
868,448,36,0.142419524648913,1
868,449,36,0.149576978535491,1
868,450,36,0.121605694409863,1
869,447,36,0.107890888439649,1
869,448,36,0.119956876826158,1
869,449,36,0.142424502712915,1
869,450,36,0.116636834924277,1
848,436,37,0.106750650353094,1
848,437,37,0.104151632548439,1
849,435,37,0.0998303679928169,1
849,436,37,0.129538223057952,1
849,437,37,0.127544394049431,1
849,438,37,0.102280425129573,1
850,430,37,0.10629941118178,1
850,434,37,0.106161169146219,1
850,435,37,0.131892967153091,1
850,436,37,0.137111307163494,1
850,437,37,0.117426626019415,1
851,429,37,0.162944376638699,1
851,430,37,0.121191142589883,1
851,434,37,0.148879788145129,1
851,437,37,0.116305995187135,1
852,434,37,0.136394977914376,1
852,437,37,0.119360304328986,1
853,435,37,0.119231016272877,1
853,436,37,0.134507550939056,1
853,437,37,0.11764373278884,1
853,474,37,0.118413949308459,1
854,436,37,0.102398547943664,1
854,437,37,0.111386284552267,1
854,472,37,0.114830778054201,1
854,473,37,0.133577589761687,1
854,475,37,0.133139149770248,1
854,476,37,0.128427766212057,1
855,469,37,0.103396905759698,1
855,470,37,0.11182865688748,1
855,471,37,0.122582876391279,1
855,472,37,0.144977203825804,1
855,475,37,0.137408967069235,1
855,476,37,0.123897945828458,1
856,434,37,0.121713839310112,1
856,435,37,0.148290110865711,1
856,436,37,0.138070385113463,1
856,437,37,0.102365836507781,1
856,468,37,0.111742973186296,1
856,469,37,0.129829913644058,1
856,475,37,0.131159917273243,1
857,429,37,0.122239455332643,1
857,430,37,0.139604325972952,1
857,433,37,0.102070496793796,1
857,434,37,0.168458187078116,1
857,435,37,0.212635803653506,1
857,436,37,0.199545368909859,1
857,437,37,0.130785288001552,1
857,468,37,0.128382462561762,1
857,474,37,0.133757943822265,1
858,434,37,0.131134297127656,1
858,435,37,0.161264241912748,1
858,436,37,0.164859025018705,1
858,437,37,0.121066200808472,1
858,467,37,0.109645639661037,1
858,474,37,0.128471130922763,1
859,435,37,0.106730269701566,1
859,436,37,0.123737242593832,1
859,437,37,0.125289450878554,1
859,438,37,0.111027253940644,1
859,439,37,0.10777046721964,1
859,440,37,0.123444179499927,1
859,441,37,0.121506841169557,1
859,474,37,0.128908165727646,1
860,435,37,0.100144236562092,1
860,436,37,0.151115363705949,1
860,437,37,0.226142021116986,4
860,438,37,0.252099781836464,4
860,439,37,0.254347971397535,4
860,440,37,0.249438358498618,4
860,441,37,0.194620462352607,1
860,442,37,0.126684626842368,1
860,474,37,0.128270799248663,1
861,435,37,0.123262137036898,1
861,436,37,0.203045133083012,4
861,437,37,0.35519742626112,4
861,438,37,0.46035402845725,4
861,439,37,0.442852985435998,4
861,440,37,0.320633584137512,4
861,441,37,0.192420942353816,4
861,442,37,0.125278568852431,1
861,450,37,0.113993700797503,1
862,432,37,0.190031188416877,1
862,433,37,0.17668173095133,1
862,434,37,0.149691833473869,1
862,435,37,0.144919852607048,1
862,436,37,0.188760180837223,4
862,437,37,0.294653689006541,4
862,438,37,0.393955717576864,4
862,439,37,0.366499962630735,4
862,440,37,0.22684759905501,4
862,441,37,0.133982773671291,1
862,442,37,0.105583005682229,1
862,443,37,0.120345971894336,1
862,446,37,0.109006149062841,1
862,449,37,0.11170266938584,1
862,450,37,0.134686957315678,1
862,451,37,0.10085408452438,1
862,473,37,0.121323208340348,1
863,433,37,0.17674313433597,1
863,434,37,0.180689540868601,1
863,435,37,0.180622113699731,1
863,436,37,0.191982480576539,1
863,437,37,0.208040124681379,4
863,438,37,0.222578359080732,4
863,439,37,0.204057455621258,4
863,440,37,0.165861848931546,1
863,441,37,0.151634019153213,1
863,442,37,0.126027435250728,1
863,443,37,0.10198211164869,1
863,444,37,0.101190708401534,1
863,445,37,0.105566568267394,1
863,446,37,0.124974787126189,1
863,447,37,0.151291665600643,1
863,448,37,0.124674458455283,1
863,449,37,0.101256261988329,1
863,473,37,0.109145142709817,1
864,433,37,0.132264186941122,1
864,434,37,0.157658642138183,1
864,435,37,0.172243509123955,1
864,436,37,0.178823692765903,1
864,437,37,0.166251096500591,1
864,438,37,0.150583451576211,1
864,439,37,0.152903305651658,1
864,440,37,0.182340395428167,1
864,441,37,0.195367564098019,1
864,442,37,0.150948582222497,1
864,443,37,0.113312032816776,1
864,444,37,0.110206788385484,1
864,445,37,0.117982208462231,1
864,446,37,0.156544231162676,1
864,447,37,0.224098705577257,1
864,448,37,0.199407878485711,1
864,449,37,0.134368284969105,1
864,450,37,0.102806651155571,1
865,435,37,0.120832743767565,1
865,436,37,0.129994995832139,1
865,437,37,0.133818748096357,1
865,438,37,0.132589808970043,1
865,439,37,0.135700173073285,1
865,440,37,0.154134281753833,1
865,441,37,0.154760036381117,1
865,442,37,0.124801513462989,1
865,443,37,0.105417302597762,1
865,444,37,0.104633949217779,1
865,445,37,0.113967361719259,1
865,446,37,0.139514688142156,1
865,447,37,0.182174213055263,1
865,448,37,0.178705003520022,1
865,449,37,0.158244811897669,1
865,450,37,0.140828363285697,1
866,437,37,0.118496604778149,1
866,438,37,0.120660450467078,1
866,439,37,0.113692163012583,1
866,440,37,0.121265356047316,1
866,441,37,0.116194124908574,1
866,446,37,0.127460867146217,1
866,447,37,0.140786011616462,1
866,448,37,0.128548917257642,1
866,449,37,0.126266796253756,1
866,450,37,0.118636153963996,1
867,437,37,0.119750761012046,1
867,438,37,0.115477414407289,1
867,439,37,0.103335491482139,1
867,440,37,0.112116839953654,1
867,446,37,0.126073599441628,1
867,447,37,0.140283967870737,1
867,448,37,0.115378267058169,1
868,447,37,0.113031812474421,1
868,448,37,0.10582676742455,1
847,436,38,0.105058587880792,1
847,437,38,0.105623080731384,1
848,435,38,0.105543061348102,1
849,435,38,0.110200317991573,1
849,439,38,0.110056280923081,1
850,434,38,0.110178728226032,1
850,438,38,0.113532864964514,1
853,438,38,0.109617666644938,1
853,471,38,0.104272336984343,1
854,436,38,0.113728414647155,1
854,437,38,0.144002276678629,1
854,438,38,0.113789578387575,1
854,470,38,0.106307428370195,1
855,436,38,0.104445893863438,1
855,437,38,0.108691125844148,1
855,468,38,0.103166879988289,1
855,469,38,0.118030932489106,1
855,470,38,0.128750218401538,1
856,434,38,0.124221792311576,1
856,435,38,0.173075227064485,1
856,436,38,0.164505201222384,1
856,437,38,0.113449163774595,1
856,468,38,0.120525617915176,1
857,434,38,0.176205525209573,1
857,435,38,0.250261449247267,1
857,436,38,0.240103715097286,1
857,437,38,0.146813739083359,1
857,467,38,0.105723448087437,1
858,434,38,0.139489983001768,1
858,435,38,0.185860965076691,1
858,436,38,0.189097948470876,1
858,437,38,0.130302840617183,1
858,467,38,0.117156492520093,1
859,435,38,0.114593029203191,1
859,436,38,0.128365981575251,1
859,437,38,0.12509893372451,1
859,438,38,0.11313575270792,1
859,439,38,0.117055471588898,1
859,440,38,0.141604886805441,1
859,441,38,0.149572218329869,1
859,442,38,0.132073103355288,1
859,446,38,0.100793792217483,1
860,436,38,0.140122338737992,1
860,437,38,0.199045579998375,1
860,438,38,0.231550093991262,4
860,439,38,0.258530569093752,4
860,440,38,0.265407966031761,1
860,441,38,0.19979708248308,1
861,435,38,0.120234308581237,1
861,436,38,0.177380903852958,1
861,437,38,0.290805460353235,4
861,438,38,0.39253257948987,4
861,439,38,0.401646161992164,4
861,440,38,0.308533228591426,4
861,441,38,0.178344502364328,1
861,449,38,0.112721124637507,1
861,450,38,0.142777357039442,1
861,451,38,0.117702478301233,1
862,435,38,0.131126791906436,1
862,436,38,0.168793993986342,1
862,437,38,0.24770156970073,4
862,438,38,0.331540555045037,4
862,439,38,0.30412412353665,4
862,440,38,0.194392190341164,1
862,441,38,0.11747694041247,1
862,446,38,0.113491667944697,1
862,449,38,0.124884016431812,1
862,450,38,0.173698890251313,1
862,451,38,0.141422081838079,1
863,434,38,0.127816422916665,1
863,435,38,0.151478991129407,1
863,436,38,0.174094695357622,1
863,437,38,0.18358935573968,1
863,438,38,0.191771746164754,4
863,439,38,0.166158713654196,1
863,440,38,0.128039095967721,1
863,446,38,0.116308653059381,1
863,447,38,0.147841322601183,1
863,448,38,0.125988482172234,1
863,449,38,0.106097870393666,1
863,450,38,0.113847125678874,1
864,436,38,0.140569296992122,1
864,437,38,0.130991251314797,1
864,438,38,0.118823392349408,1
864,439,38,0.114205818610007,1
864,440,38,0.121658851854788,1
864,441,38,0.125797997696947,1
864,447,38,0.191798324887216,1
864,448,38,0.180606199145011,1
864,449,38,0.131278639197881,1
864,450,38,0.10655444709531,1
865,447,38,0.141188679261767,1
865,448,38,0.150237285501976,1
847,435,39,0.108020884535496,1
847,439,39,0.113521841330443,1
848,433,39,0.101221219467771,1
848,434,39,0.10150410857529,1
848,440,39,0.100913015216397,1
849,440,39,0.106308234446204,1
850,434,39,0.105835841226112,1
850,439,39,0.118155656412136,1
850,471,39,0.101829654353778,1
851,470,39,0.101583463490511,1
852,470,39,0.107546269159918,1
853,469,39,0.103333029682436,1
853,470,39,0.114224053356483,1
854,436,39,0.122575730636388,1
854,438,39,0.13665462153266,1
854,468,39,0.10095948440903,1
854,469,39,0.113750451022377,1
854,470,39,0.127464265736958,1
855,435,39,0.100305495335589,1
855,436,39,0.118215807111086,1
855,437,39,0.126216732397839,1
855,438,39,0.100733630625614,1
855,468,39,0.113772215074623,1
856,434,39,0.120686244899369,1
856,435,39,0.193498055974524,1
856,436,39,0.195009295990729,1
856,437,39,0.134404427674486,1
856,467,39,0.10451193763159,1
857,434,39,0.165770773235436,1
857,435,39,0.268992346400032,1
857,436,39,0.262008612786336,1
857,437,39,0.15703980451449,1
857,467,39,0.115490725554358,1
858,434,39,0.139927747632227,1
858,435,39,0.207013445275836,1
858,436,39,0.201977278443491,1
858,437,39,0.133259320453119,1
858,441,39,0.115964415031817,1
858,442,39,0.11861052292549,1
858,445,39,0.104673948016501,1
858,446,39,0.106725749140164,1
858,466,39,0.106284161095122,1
859,435,39,0.123276472118357,1
859,436,39,0.128287912024478,1
859,437,39,0.118999574421993,1
859,438,39,0.116511773320757,1
859,439,39,0.134267089751205,1
859,440,39,0.158887112868978,1
859,441,39,0.17199581503786,1
859,442,39,0.161441273633018,1
859,446,39,0.134508694695556,1
860,437,39,0.157503287326807,1
860,438,39,0.199225552806787,1
860,439,39,0.245684506095892,1
860,440,39,0.244186555440918,1
860,441,39,0.177739335354033,1
861,436,39,0.141093638543126,1
861,437,39,0.21534443690248,1
861,438,39,0.290053435008416,4
861,439,39,0.311180905065442,4
861,440,39,0.246354485974487,1
861,441,39,0.141075414689569,1
861,449,39,0.116914419180224,1
861,450,39,0.165716308640226,1
861,451,39,0.162623939639242,1
861,452,39,0.11898914989847,1
862,436,39,0.14919870013592,1
862,437,39,0.205054833074578,1
862,438,39,0.249194727471326,4
862,439,39,0.219261029515694,1
862,440,39,0.149846480245508,1
862,446,39,0.106574936676028,1
862,449,39,0.126475417439248,1
862,450,39,0.193160026910814,1
862,451,39,0.186660592477723,1
862,452,39,0.125553920059974,1
863,437,39,0.158483562897231,1
863,438,39,0.157558656034297,1
863,439,39,0.127135604583624,1
863,448,39,0.116804324447467,1
863,449,39,0.107132741274329,1
863,450,39,0.121948363857085,1
863,451,39,0.117275279802246,1
864,449,39,0.122770180134206,1
864,450,39,0.105611240128386,1
846,435,40,0.106473196812176,1
847,434,40,0.110393329624078,1
848,434,40,0.107782002820906,1
854,436,40,0.11683066352571,1
854,438,40,0.140499571417334,1
854,469,40,0.129030471422649,1
855,436,40,0.12027247736956,1
855,437,40,0.127442937401474,1
855,438,40,0.100236837266868,1
856,435,40,0.179723458771688,1
856,436,40,0.195238352292343,1
856,437,40,0.140128830917741,1
857,434,40,0.134498999997609,1
857,435,40,0.240452571722524,1
857,436,40,0.236682271012044,1
857,437,40,0.145594233224936,1
857,467,40,0.119206104167028,1
858,435,40,0.19503190969066,1
858,436,40,0.182135042118388,1
858,440,40,0.104222251342588,1
858,441,40,0.127929633024269,1
858,442,40,0.126443566543969,1
858,466,40,0.109493977549216,1
859,439,40,0.151204075638626,1
859,440,40,0.168959054388585,1
859,441,40,0.175569324272927,1
859,442,40,0.166190499191961,1
860,438,40,0.171860350696654,1
860,439,40,0.221213171323041,1
860,440,40,0.203672848435724,1
860,441,40,0.147685847967697,1
861,437,40,0.153374674937361,1
861,438,40,0.20200503360121,1
861,439,40,0.217831246748084,1
861,440,40,0.172487347116709,1
861,449,40,0.108527296341757,1
861,455,40,0.106632571110679,1
862,437,40,0.159296599481604,1
862,438,40,0.17214146425837,1
862,439,40,0.145631998975254,1
862,449,40,0.113566850871924,1
862,450,40,0.1759425701439,1
862,451,40,0.199698937282512,1
862,452,40,0.143899806989201,1
863,450,40,0.110455103367965,1
863,451,40,0.117281891804104,1
863,452,40,0.100046200290714,1
846,435,41,0.121813302553884,1
849,435,41,0.105237885328222,1
850,435,41,0.118166451294907,1
852,435,41,0.114983921603012,1
853,436,41,0.141590562616901,1
854,436,41,0.100530946081001,1
854,437,41,0.148595515636891,1
854,438,41,0.131811161331086,1
855,437,41,0.114311349209685,1
857,435,41,0.183727826526542,1
857,436,41,0.186018476686037,1
858,440,41,0.114486659848747,1
858,441,41,0.124637193779241,1
858,442,41,0.115113416624583,1
859,441,41,0.155040986549048,1
859,442,41,0.142766126439909,1
859,443,41,0.128941182165262,1
860,439,41,0.192983888409905,1
860,440,41,0.166014426048567,1
861,438,41,0.144022199827557,1
861,439,41,0.145952011150869,1
861,446,41,0.103205669672997,1
863,451,41,0.10268045668847,1
852,436,42,0.132451664970753,1
853,436,42,0.106684432298238,1
854,437,42,0.119115867225685,1
858,441,42,0.106372971064071,1
