x,y,z,signal,mito.p
264,170,37,0.178422212448774,1
282,166,37,0.200358547102179,1
286,164,37,0.184386760985228,1
287,163,37,0.210177947186717,1
287,169,37,0.177038582979145,1
287,170,37,0.18900705795439,1
288,163,37,0.202508046816729,1
288,167,37,0.194269143927666,1
288,168,37,0.182455457332007,1
288,169,37,0.189103787075482,1
288,170,37,0.192353188397376,1
289,163,37,0.194089083975902,1
289,164,37,0.181271647569284,1
289,165,37,0.243165758211657,1
289,166,37,0.252541467917778,1
289,167,37,0.228488116234405,1
289,168,37,0.158592012799213,1
290,164,37,0.214124604256485,1
290,165,37,0.261197373533605,1
290,166,37,0.201384769005122,1
291,172,37,0.114938225807631,1
291,173,37,0.127600830262987,1
263,170,38,0.163205283835592,1
263,171,38,0.128084628369317,1
264,169,38,0.111481216341717,1
264,170,38,0.224639473650176,1
264,171,38,0.170921784113241,1
265,170,38,0.163108249712767,1
265,171,38,0.120523461117206,1
269,169,38,0.114412816750561,1
269,185,38,0.127769485328514,1
270,169,38,0.118853021089202,1
270,185,38,0.107713431895536,1
271,185,38,0.106777849971941,1
278,162,38,0.129719960519248,1
279,162,38,0.103896825386209,1
280,161,38,0.132754204904224,1
281,165,38,0.14181376942099,1
281,166,38,0.123531540710644,1
282,162,38,0.116811579131549,1
282,166,38,0.206383137408392,1
283,161,38,0.10984140720206,1
284,166,38,0.130619737417952,1
285,160,38,0.1565439588397,1
285,165,38,0.136533884417999,1
286,164,38,0.153376973343279,1
286,170,38,0.114985446611678,1
287,162,38,0.220387684132204,1
287,163,38,0.190056830348302,1
287,164,38,0.136233305209955,1
287,168,38,0.115795705501695,1
287,169,38,0.150036942934956,1
287,170,38,0.171084437180376,1
287,171,38,0.116417386177258,1
288,162,38,0.245047858549565,1
288,163,38,0.187345059938644,1
288,164,38,0.131569131562892,1
288,165,38,0.119581702908514,1
288,166,38,0.146001421431643,1
288,167,38,0.179656881250504,1
288,168,38,0.160954207650976,1
288,169,38,0.155030344167144,1
288,170,38,0.159981731410586,1
288,171,38,0.109928539661476,1
289,163,38,0.183268515702218,1
289,164,38,0.160110670893286,1
289,165,38,0.188710596269744,1
289,166,38,0.206485291203168,1
289,167,38,0.204192919962463,1
289,168,38,0.142173900217436,1
289,169,38,0.10779195894891,1
289,170,38,0.104752104710627,1
290,164,38,0.21221609948282,1
290,165,38,0.236641553280665,1
290,166,38,0.182032114926361,1
290,167,38,0.134222581284,1
291,163,38,0.178579190305087,1
291,164,38,0.192917550532939,1
291,165,38,0.176544981245677,1
291,166,38,0.120794531407565,1
291,171,38,0.105563975752662,1
291,172,38,0.116459977490712,1
291,173,38,0.121549269089226,1
291,174,38,0.105345801477171,1
292,163,38,0.15690768429943,1
292,164,38,0.140673444191082,1
292,170,38,0.119260884656891,1
292,171,38,0.151099754152962,1
292,172,38,0.184815179491148,1
292,173,38,0.184309399474192,1
292,174,38,0.127448982971542,1
293,169,38,0.126055473624342,1
293,170,38,0.175053860450942,1
293,171,38,0.210969448470143,1
293,172,38,0.227944385287507,1
293,173,38,0.201815453238203,1
293,174,38,0.124816382297481,1
294,170,38,0.218882413435633,1
294,171,38,0.217942441665664,1
294,172,38,0.192957767190042,1
262,170,39,0.101674375792835,1
263,171,39,0.140402776938728,1
264,170,39,0.230774561727151,1
264,171,39,0.168444418428447,1
265,170,39,0.147788121584582,1
265,171,39,0.107951126281951,1
268,185,39,0.121066462238529,1
269,169,39,0.105082149264679,1
269,185,39,0.126931874318782,1
269,186,39,0.127819919543678,1
270,185,39,0.113447595194253,1
270,186,39,0.120276028461168,1
271,185,39,0.102595382990752,1
271,186,39,0.106703004725204,1
272,185,39,0.104849923123624,1
273,184,39,0.100002454327842,1
274,184,39,0.100125468062583,1
281,165,39,0.131929556468153,1
281,166,39,0.114899599516708,1
282,162,39,0.109422661608249,1
282,166,39,0.200826419760869,1
284,161,39,0.150191851136652,1
284,166,39,0.117043870630118,1
285,160,39,0.13254106315733,1
285,161,39,0.220555565800478,1
285,165,39,0.121653394502348,1
286,159,39,0.142992786299335,1
286,160,39,0.215569375680697,1
286,161,39,0.255304347903581,1
286,162,39,0.24672852702855,1
286,164,39,0.139720564312049,1
286,170,39,0.116833985866018,1
287,161,39,0.241109610813297,1
287,162,39,0.202384847902365,1
287,163,39,0.171322142459709,1
287,164,39,0.123421565799996,1
287,169,39,0.117182243380708,1
287,170,39,0.141354110023257,1
287,171,39,0.105084066418431,1
288,162,39,0.206112361226847,1
288,163,39,0.164366218468327,1
288,164,39,0.118542442181478,1
288,165,39,0.10144623449642,1
288,166,39,0.118787630896193,1
288,167,39,0.138945424193023,1
288,168,39,0.124259078773456,1
288,169,39,0.115398233778773,1
288,170,39,0.120232282498295,1
289,162,39,0.237151799394429,1
289,163,39,0.161918710274627,1
289,164,39,0.133210770712949,1
289,165,39,0.139732622773428,1
289,166,39,0.154310169717603,1
289,167,39,0.154735690707059,1
289,168,39,0.117242993190205,1
290,163,39,0.173095771109798,1
290,164,39,0.193810443106809,1
290,165,39,0.195025962156863,1
290,166,39,0.157277912831828,1
290,167,39,0.123974501263485,1
291,163,39,0.200050647852539,1
291,164,39,0.229943170574192,1
291,165,39,0.189231691730873,1
291,166,39,0.13027593510715,1
291,167,39,0.10207568182326,1
291,169,39,0.102543728768655,1
291,170,39,0.110962212321044,1
291,171,39,0.113167494674008,1
291,172,39,0.114803469506163,1
291,173,39,0.109059513473228,1
292,162,39,0.164989990584346,1
292,163,39,0.191949583961033,1
292,164,39,0.189605362425689,1
292,165,39,0.135048003117323,1
292,166,39,0.100978753982816,1
292,168,39,0.104176969478131,1
292,169,39,0.119790215164816,1
292,170,39,0.138775766978944,1
292,171,39,0.159342295276985,1
292,172,39,0.180749386565817,1
292,173,39,0.168087991224475,1
292,174,39,0.120615255745973,1
293,163,39,0.154110556976159,1
293,164,39,0.118873477991163,1
293,168,39,0.113128476238,1
293,169,39,0.142504892455445,1
293,170,39,0.175312599956946,1
293,171,39,0.202340143362616,1
293,173,39,0.202730632724433,1
293,174,39,0.134656849287446,1
294,169,39,0.153061950124585,1
294,170,39,0.189980514557494,1
294,171,39,0.201586309793237,1
294,173,39,0.177864593030097,1
294,174,39,0.119947824810434,1
295,170,39,0.166735090679464,1
295,171,39,0.165087177208039,1
295,172,39,0.162128649503323,1
262,171,40,0.0998504654284493,1
264,171,40,0.144953217618073,1
265,170,40,0.119042448951342,1
268,185,40,0.102524045263946,1
269,185,40,0.125402149018962,1
269,186,40,0.116541031701303,1
270,185,40,0.11484364259159,1
270,186,40,0.114425245571188,1
271,185,40,0.100224103444508,1
273,184,40,0.100875075179374,1
274,184,40,0.109250978311228,1
279,162,40,0.101883323765898,1
280,161,40,0.106017763867031,1
281,164,40,0.109241109326576,1
281,165,40,0.117021235144349,1
282,166,40,0.176682569706096,1
284,161,40,0.126385757822613,1
284,166,40,0.103142163954982,1
285,160,40,0.108766679130623,1
285,161,40,0.180976177140271,1
285,165,40,0.107246452456208,1
286,159,40,0.122154621279145,1
286,160,40,0.168187160359433,1
286,161,40,0.210031829570688,1
286,162,40,0.241411431814111,1
286,164,40,0.127744823759803,1
286,170,40,0.1057020326086,1
287,158,40,0.139648474973829,1
287,159,40,0.20938075979955,1
287,160,40,0.241483586509845,1
287,161,40,0.216825568890454,1
287,162,40,0.19159645731153,1
287,163,40,0.152179863326405,1
287,164,40,0.10942514519379,1
287,170,40,0.110962419286506,1
288,161,40,0.219188918391636,1
288,162,40,0.180137705589935,1
288,163,40,0.140136052923066,1
288,164,40,0.103782754738002,1
289,162,40,0.199773270562054,1
289,163,40,0.140178382806463,1
289,164,40,0.108757736044089,1
289,165,40,0.103931813442172,1
289,166,40,0.110257723674924,1
289,167,40,0.109916437628421,1
290,162,40,0.193455835020317,1
290,163,40,0.158340059581772,1
290,164,40,0.166142929814505,1
290,165,40,0.155916602953317,1
290,166,40,0.135759278052006,1
290,167,40,0.1155302777434,1
291,162,40,0.173359052963042,1
291,163,40,0.210503601894395,1
291,164,40,0.260399924716381,1
291,165,40,0.203043215929261,1
291,166,40,0.14038898650322,1
291,167,40,0.11131075305163,1
291,168,40,0.101990074372509,1
291,169,40,0.112059085696893,1
291,170,40,0.127051304283158,1
291,171,40,0.124905028872644,1
291,172,40,0.112377333219623,1
292,161,40,0.164391097895419,1
292,162,40,0.16383953493973,1
292,163,40,0.219887437718121,1
292,164,40,0.257356900638657,1
292,165,40,0.182171457146745,1
292,166,40,0.120255702274236,1
292,167,40,0.104230203173489,1
292,168,40,0.118019146350702,1
292,169,40,0.145184103930087,1
292,170,40,0.172167182440228,1
292,171,40,0.18501709063851,1
292,173,40,0.150740756220096,1
292,174,40,0.113417857525269,1
293,162,40,0.180157378201725,1
293,163,40,0.166488235348135,1
293,164,40,0.152452883449273,1
293,165,40,0.112424227236099,1
293,168,40,0.134779220339963,1
293,169,40,0.173428538893611,1
293,170,40,0.195364296222307,1
293,174,40,0.137993513783784,1
294,163,40,0.12411304830078,1
294,168,40,0.125033946569506,1
294,169,40,0.163619846548491,1
294,170,40,0.180446040556337,1
294,174,40,0.136754781923251,1
295,169,40,0.142773827733672,1
295,170,40,0.15434784832457,1
295,171,40,0.16458426202879,1
295,173,40,0.153325166620315,1
295,174,40,0.107628619627876,1
296,170,40,0.122067641320594,1
296,171,40,0.123441314662219,1
296,172,40,0.127514427629146,1
262,171,41,0.12457603003882,1
264,171,41,0.112036199673986,1
269,185,41,0.116547273343914,1
270,185,41,0.113890196280766,1
270,186,41,0.105469697538354,1
271,185,41,0.104915247959118,1
274,184,41,0.106754462874758,1
282,163,41,0.154640029092032,1
282,165,41,0.233094993127308,1
282,166,41,0.138315759007802,1
283,162,41,0.140671439893978,1
283,166,41,0.143231461048463,1
284,161,41,0.112453692582107,1
285,161,41,0.152704379164114,1
285,162,41,0.276405805669934,1
286,159,41,0.101086931561821,1
286,160,41,0.128468745373493,1
286,161,41,0.173775630865964,1
286,162,41,0.227122122400705,1
286,163,41,0.188572691914673,1
286,164,41,0.116234733710762,1
287,158,41,0.113397836340069,1
287,159,41,0.165848112960634,1
287,160,41,0.206534570768914,1
287,161,41,0.202969013364747,1
287,162,41,0.179339254624159,1
287,163,41,0.132991441788039,1
288,158,41,0.179868378166623,1
288,161,41,0.222476139928443,1
288,162,41,0.160732297104253,1
288,163,41,0.118000007491945,1
289,162,41,0.161633457403676,1
289,163,41,0.118385910934845,1
290,161,41,0.210107164998782,1
290,162,41,0.16209991398289,1
290,163,41,0.137976357436293,1
290,164,41,0.137436722226954,1
290,165,41,0.128173547267456,1
290,166,41,0.123848372153898,1
290,167,41,0.117271587102691,1
290,168,41,0.104024348789434,1
290,170,41,0.100220835568795,1
291,160,41,0.235214471956978,1
291,161,41,0.180596406410792,1
291,162,41,0.156336928020389,1
291,163,41,0.196017936722339,1
291,164,41,0.264941966955146,1
291,165,41,0.222097872421791,1
291,166,41,0.16053654045615,1
291,167,41,0.126355105148429,1
291,168,41,0.107543731109782,1
291,169,41,0.111739759775178,1
291,170,41,0.132203458917463,1
291,171,41,0.12942977315597,1
291,172,41,0.106937409450068,1
292,161,41,0.161663500074393,1
292,162,41,0.156032525397761,1
292,163,41,0.229577473496116,1
292,164,41,0.331569029135413,2
292,165,41,0.265405896377143,1
292,166,41,0.161091218786686,1
292,167,41,0.117655813036058,1
292,168,41,0.124015981499197,1
292,169,41,0.159582898072784,1
292,170,41,0.201274314806037,1
292,173,41,0.134179750326327,1
292,174,41,0.105616599444554,1
293,162,41,0.165952173016242,1
293,163,41,0.17574870886371,1
293,164,41,0.208018883489248,1
293,165,41,0.166128583840126,1
293,166,41,0.110206962672189,1
293,167,41,0.101221589827018,1
293,168,41,0.149239417867299,1
293,169,41,0.20806933949025,1
293,174,41,0.132265374269297,1
294,164,41,0.104113409295521,1
294,168,41,0.136685154384735,1
294,169,41,0.185349368240966,1
294,170,41,0.188865188576787,1
294,174,41,0.144436653611265,1
295,170,41,0.149344196855564,1
295,171,41,0.163713220650519,1
270,185,42,0.109553877711028,1
271,185,42,0.110464536635855,1
282,163,42,0.129933962806746,1
282,164,42,0.209890047336437,1
282,165,42,0.179305715326429,1
282,166,42,0.101984758628017,1
283,162,42,0.120284230829207,1
283,163,42,0.225251829987039,1
283,165,42,0.242260099136671,1
283,166,42,0.112223786632808,1
284,161,42,0.102627876568254,1
284,162,42,0.192398568298104,1
284,165,42,0.165420849104132,1
285,161,42,0.132188851513028,1
285,162,42,0.24096859108338,1
285,163,42,0.248526098314692,1
285,164,42,0.162925858676328,1
286,160,42,0.104059173451611,1
286,161,42,0.147213062602519,1
286,162,42,0.197050367589136,1
286,163,42,0.163411595722247,1
287,159,42,0.134226611664045,1
287,160,42,0.17905147459599,1
287,161,42,0.188474219926533,1
287,162,42,0.158742313296154,1
287,163,42,0.11243433586497,1
288,158,42,0.15006532988198,1
288,160,42,0.287536887493828,1
288,161,42,0.224236501003138,1
288,162,42,0.142594573857918,1
289,161,42,0.20250610787714,1
289,162,42,0.132907174166331,1
289,163,42,0.0998456834369899,1
290,161,42,0.175429992945461,1
290,162,42,0.134271294417955,1
290,163,42,0.117772824772406,1
290,164,42,0.113223201061989,1
290,165,42,0.108055502232211,1
290,166,42,0.114235926638239,1
290,167,42,0.122433730543757,1
290,168,42,0.114669693567409,1
290,169,42,0.103259371763874,1
290,170,42,0.101058697115665,1
291,160,42,0.207554823352222,1
291,161,42,0.159772620043737,1
291,162,42,0.13863948566881,1
291,163,42,0.166684547535109,1
291,164,42,0.237233953789843,2
291,165,42,0.226809343123335,1
291,166,42,0.176199948035023,1
291,167,42,0.144246866282797,1
291,168,42,0.117714732835156,1
291,169,42,0.112936488539885,1
291,170,42,0.13136938810642,1
291,171,42,0.127783406479049,1
291,172,42,0.10178369712834,1
292,161,42,0.152560505489407,1
292,162,42,0.142935402401821,1
292,163,42,0.216079338578565,2
292,164,42,0.361545361976175,2
292,165,42,0.334500422578795,2
292,166,42,0.201445246491643,1
292,167,42,0.132677475182493,1
292,168,42,0.128338727491808,1
292,169,42,0.170499432963227,1
292,172,42,0.160839603249736,1
292,173,42,0.123059463385203,1
292,174,42,0.103897097709185,1
293,163,42,0.179060853399285,1
293,164,42,0.254856322143385,2
293,165,42,0.222958282311078,1
293,166,42,0.13326317654646,1
293,167,42,0.105280051817834,1
293,168,42,0.156204045300996,1
293,173,42,0.176773961296859,1
293,174,42,0.132337812180926,1
261,171,43,0.109656587044675,1
270,184,43,0.101665781279711,1
270,185,43,0.111940124128036,1
271,184,43,0.113124903360554,1
271,185,43,0.117799752068278,1
282,163,43,0.109043620704345,1
282,164,43,0.157597652684467,1
282,165,43,0.129998710317532,1
283,162,43,0.103881869408365,1
283,163,43,0.172719845580741,1
283,164,43,0.238262898922547,1
283,165,43,0.171353002099355,1
284,162,43,0.156323682230834,1
284,163,43,0.208440635528714,1
284,164,43,0.207189278775012,1
284,165,43,0.130504076403565,1
285,161,43,0.117183049456717,1
285,162,43,0.193602105137212,1
285,163,43,0.194168907286642,1
285,164,43,0.131831171623366,1
286,161,43,0.129477277175912,1
286,162,43,0.162675517610906,1
286,163,43,0.132654207907419,1
287,159,43,0.113453597192645,1
287,160,43,0.157094574111433,1
287,161,43,0.169272977422455,1
287,162,43,0.137710929677997,1
288,157,43,0.103025021503605,1
288,158,43,0.131336055774151,1
288,159,43,0.210599416010288,1
288,160,43,0.273120632001907,1
288,161,43,0.214966147609991,1
288,162,43,0.128715088737627,1
289,160,43,0.301981355646068,1
289,161,43,0.195210836778843,1
289,162,43,0.117401572305618,1
289,169,43,0.101254301262901,1
290,160,43,0.228421974429983,1
290,161,43,0.152635121984845,1
290,162,43,0.116141533895439,1
290,163,43,0.102263148959972,1
290,166,43,0.105478945626621,1
290,167,43,0.124281452829168,1
290,168,43,0.126735496774294,1
290,169,43,0.113472038904583,1
290,170,43,0.103880812795218,1
291,160,43,0.182427604138017,1
291,161,43,0.141272500273795,1
291,162,43,0.123902302996075,1
291,163,43,0.13799173823798,1
291,164,43,0.193682255235523,1
291,165,43,0.215512732501679,3
291,166,43,0.186826774850627,1
291,167,43,0.162826787577641,1
291,168,43,0.133193429185834,1
291,169,43,0.117690267338987,1
291,170,43,0.125737759854645,1
291,171,43,0.121042399780365,1
292,160,43,0.176351512110573,1
292,161,43,0.13933374586395,1
292,162,43,0.128211040694799,1
292,163,43,0.184493282840539,1
292,164,43,0.332492269381733,2
292,165,43,0.367490063614135,3
292,166,43,0.244671072479904,3
292,167,43,0.155461300723201,1
292,168,43,0.133993710162009,1
292,172,43,0.143672951057234,1
292,173,43,0.120068398531309,1
293,163,43,0.170848757983984,1
293,164,43,0.270677873120909,1
293,165,43,0.272891706415321,3
293,166,43,0.168234392056399,1
261,171,44,0.113850894628863,1
270,184,44,0.117865414584263,1
270,185,44,0.116666017054391,1
271,184,44,0.12311987551421,1
271,185,44,0.11830546672772,1
272,184,44,0.107305764400391,1
278,162,44,0.100240464608909,1
279,161,44,0.102513391989123,1
282,164,44,0.110491409467131,1
283,163,44,0.132586214306759,1
283,164,44,0.153366320068456,1
283,165,44,0.109622840781483,1
284,162,44,0.126772325733574,1
284,163,44,0.156575624555355,1
284,164,44,0.14483000781079,1
285,161,44,0.104795469421333,1
285,162,44,0.146991380807096,1
285,163,44,0.142851221923465,1
285,164,44,0.102173848809666,1
286,161,44,0.114205644323302,1
286,162,44,0.129612752410037,1
286,163,44,0.102959718453949,1
287,159,44,0.100193930058761,1
287,160,44,0.134166885788938,1
287,161,44,0.14215964138641,1
287,162,44,0.11418076489621,1
288,158,44,0.116353422956644,1
288,159,44,0.17359682359989,1
288,160,44,0.231230909677495,1
288,161,44,0.184209674800363,1
288,162,44,0.110582583199513,1
289,156,44,0.144851259895841,1
289,159,44,0.245637753687364,1
289,160,44,0.264722038919689,1
289,161,44,0.175651707419641,1
289,162,44,0.102678986144399,1
289,169,44,0.116132220449659,1
289,170,44,0.109094000454915,1
290,160,44,0.192023285451271,1
290,161,44,0.131734496966868,1
290,162,44,0.100128006112719,1
290,167,44,0.122291959202426,1
290,168,44,0.142125459406456,1
290,169,44,0.134639159186921,1
290,170,44,0.111298258873489,1
291,160,44,0.154719253292224,1
291,161,44,0.123310000523168,1
291,162,44,0.108943384063321,1
291,163,44,0.115163088335414,1
291,164,44,0.152135747004285,1
291,165,44,0.19149345386907,3
291,166,44,0.184408655752502,1
291,167,44,0.172329432469358,1
291,168,44,0.148362385383555,1
291,169,44,0.126527278626807,1
291,170,44,0.119452970391276,1
292,159,44,0.192341402258972,1
292,160,44,0.156547335644603,1
292,161,44,0.126750518109652,1
292,162,44,0.114395616831394,1
292,163,44,0.149167121563618,1
292,164,44,0.267627158642341,3
292,165,44,0.357056956470773,3
292,166,44,0.271448721429833,3
292,167,44,0.170580933783499,1
292,168,44,0.13670180965795,1
293,160,44,0.162794413822249,1
293,163,44,0.149512034952162,1
293,164,44,0.2441831132785,1
293,165,44,0.294947906749864,3
293,166,44,0.201818851828944,1
293,167,44,0.12379616239293,1
261,171,45,0.114622984730557,1
269,184,45,0.113200620040815,1
269,185,45,0.107487098823683,1
270,183,45,0.109659952956659,1
270,184,45,0.146644572050638,1
270,185,45,0.131684868827713,1
271,183,45,0.102132967684502,1
271,184,45,0.134638276860479,1
271,185,45,0.120704643039631,1
272,184,45,0.113942623900115,1
283,163,45,0.109118324343135,1
283,164,45,0.102635414468231,1
284,162,45,0.106769898141041,1
284,163,45,0.121037312787173,1
284,164,45,0.102340902616094,1
285,162,45,0.113366377589876,1
285,163,45,0.105900305521002,1
286,161,45,0.10375605619343,1
286,162,45,0.106303419775988,1
287,160,45,0.116508276693744,1
287,161,45,0.119736632896048,1
288,156,45,0.10423212032724,1
288,157,45,0.103746513996349,1
288,158,45,0.110126387750035,1
288,159,45,0.142752390468998,1
288,160,45,0.183116101978983,1
288,161,45,0.149953361567147,1
288,170,45,0.104232087648483,1
288,171,45,0.103168513926145,1
289,156,45,0.140271713336815,1
289,157,45,0.177540692082384,1
289,158,45,0.176713516489095,1
289,159,45,0.192105287345819,1
289,160,45,0.210846707058379,1
289,161,45,0.150726824176641,1
289,169,45,0.136603217847701,1
289,170,45,0.138825188152637,1
289,171,45,0.11394313586731,1
290,156,45,0.207919082564985,1
290,159,45,0.194224657246299,1
290,160,45,0.160416957990907,1
290,161,45,0.118587255650417,1
290,167,45,0.11447308727162,1
290,168,45,0.150103792779117,1
290,169,45,0.16007059584413,1
290,170,45,0.13101885397165,1
290,171,45,0.105509663658319,1
291,159,45,0.180754201236034,1
291,160,45,0.135436063358193,1
291,161,45,0.112792974331507,1
291,162,45,0.102102391260751,1
291,163,45,0.102492978658839,1
291,164,45,0.123355641853954,1
291,165,45,0.162767279560915,1
291,166,45,0.168721545181794,1
291,167,45,0.166199758173146,1
291,168,45,0.159746063107113,1
291,169,45,0.142066561393197,1
291,171,45,0.112757801095921,1
292,158,45,0.21932917561722,1
292,159,45,0.174586989940804,1
292,160,45,0.141774456876167,1
292,161,45,0.121151056647809,1
292,162,45,0.107918708954882,1
292,163,45,0.122271905338469,1
292,164,45,0.202078408303876,1
292,165,45,0.313416807413832,3
292,166,45,0.267233967836603,1
292,167,45,0.170338914908225,1
292,168,45,0.137566533143177,1
293,159,45,0.179648602632032,1
293,160,45,0.148491444688364,1
293,161,45,0.121024099676375,1
293,162,45,0.107349848043754,1
293,163,45,0.125234528780745,1
293,164,45,0.196338515329743,1
293,165,45,0.281250932488122,1
293,166,45,0.214238282759607,1
293,167,45,0.125572459808183,1
260,170,46,0.128723149497718,1
260,171,46,0.107692430347624,1
261,171,46,0.115306471828764,1
263,171,46,0.113481984139669,1
269,183,46,0.100820283796593,1
269,184,46,0.136093135127723,1
269,185,46,0.121898180179059,1
269,186,46,0.100494607303077,1
270,183,46,0.12854222900535,1
270,184,46,0.171639899801083,1
270,185,46,0.147240371150557,1
270,186,46,0.110128206867515,1
271,183,46,0.112722769468282,1
271,184,46,0.143906026845974,1
271,185,46,0.126053785221891,1
272,184,46,0.115925625347109,1
272,185,46,0.100731266862182,1
279,161,46,0.100442114326213,1
284,163,46,0.100250311807723,1
287,160,46,0.103228468552552,1
287,161,46,0.103301832362299,1
287,172,46,0.111398277656132,1
288,156,46,0.10563403900794,1
288,157,46,0.103704815902257,1
288,158,46,0.104730711017629,1
288,159,46,0.118205055799991,1
288,160,46,0.136294545200809,1
288,161,46,0.115252573665344,1
288,170,46,0.123741218509282,1
288,171,46,0.126791355663141,1
288,172,46,0.123902945678298,1
289,156,46,0.132187838471557,1
289,157,46,0.159554935949603,1
289,158,46,0.152020543492497,1
289,159,46,0.145058791789428,1
289,160,46,0.148674500192864,1
289,161,46,0.116357747445503,1
289,169,46,0.151137530796199,1
289,170,46,0.173275689453614,1
289,171,46,0.132638315138537,1
289,172,46,0.112009610058605,1
290,155,46,0.142469719219859,1
290,156,46,0.174047049729732,1
290,157,46,0.224318633612714,1
290,158,46,0.207998666231506,1
290,159,46,0.154567471358294,1
290,160,46,0.124741776694963,1
290,167,46,0.103810923826644,1
290,168,46,0.147048013093195,1
290,169,46,0.175752597635808,1
290,170,46,0.152747438873087,1
290,171,46,0.113105230748764,1
291,156,46,0.190844344823359,1
291,158,46,0.222499842920278,1
291,159,46,0.155078686941852,1
291,160,46,0.114872018645694,1
291,164,46,0.103133569441858,1
291,165,46,0.138137126028433,1
291,166,46,0.150179858032787,1
291,167,46,0.153383857668113,1
291,168,46,0.164103938763635,1
291,169,46,0.161301593732143,1
292,157,46,0.205855331909133,1
292,158,46,0.205550700535206,1
292,159,46,0.155200546027174,1
292,160,46,0.127969348607096,1
292,161,46,0.114851420135786,1
292,162,46,0.102133643045482,1
292,163,46,0.104843866660637,1
292,164,46,0.156181747495717,1
292,165,46,0.259615569187846,1
292,166,46,0.244790415300928,1
292,167,46,0.164732634479061,1
292,168,46,0.144930593025223,1
293,158,46,0.170597240483305,1
293,159,46,0.156443003266019,1
293,160,46,0.137520499667306,1
293,161,46,0.117685202131633,1
293,162,46,0.101217406946106,1
293,163,46,0.106317395391119,1
293,164,46,0.157182207645126,1
293,165,46,0.249709069322649,1
293,166,46,0.214171748810099,1
293,167,46,0.128653282314983,1
294,164,46,0.109015952689979,1
294,165,46,0.136918230173476,1
294,166,46,0.121114935728266,1
260,171,47,0.112020611906837,1
262,171,47,0.100832843332249,1
268,184,47,0.11574494449896,1
268,185,47,0.105818379876887,1
269,183,47,0.1136965201802,1
269,184,47,0.157702083099322,1
269,185,47,0.137391157146601,1
269,186,47,0.106123599468443,1
270,183,47,0.142654223482591,1
270,184,47,0.191633493236273,1
270,185,47,0.165361134121944,1
270,186,47,0.122324093313599,1
271,183,47,0.125087136693188,1
271,184,47,0.157013149541595,1
271,185,47,0.138716662000222,1
271,186,47,0.10595888763961,1
272,183,47,0.106477477729359,1
272,184,47,0.121310006122469,1
272,185,47,0.106302853344198,1
276,163,47,0.100673131353255,1
277,162,47,0.161789139002623,1
278,161,47,0.158966979751394,1
278,162,47,0.120803300207394,1
279,161,47,0.115526280042111,1
284,162,47,0.104541021725432,1
287,156,47,0.115873230406517,1
287,160,47,0.102091868700956,1
287,171,47,0.100958220830422,1
287,172,47,0.137955268745027,1
287,173,47,0.101867648855397,1
288,155,47,0.13527179813904,1
288,156,47,0.103198284273887,1
288,157,47,0.101796387379024,1
288,158,47,0.105273973569008,1
288,159,47,0.10877000147093,1
288,160,47,0.109158573678995,1
288,170,47,0.129944234829403,1
288,171,47,0.14033282261264,1
288,172,47,0.147112662567709,1
288,173,47,0.110973421134738,1
289,155,47,0.115708507684764,1
289,156,47,0.120470423494391,1
289,157,47,0.139331556387222,1
289,158,47,0.134655858031813,1
289,159,47,0.118232168275487,1
289,160,47,0.107867621164575,1
289,169,47,0.142124544401257,1
289,170,47,0.185231223641037,1
289,171,47,0.141867787406519,1
289,172,47,0.119111629880178,1
290,155,47,0.130471201573896,1
290,156,47,0.145419554375179,1
290,157,47,0.170220062268558,1
290,158,47,0.163614160444751,1
290,159,47,0.125374622612543,1
290,168,47,0.125464630802587,1
290,169,47,0.164059495653944,1
290,170,47,0.161157763629113,1
290,171,47,0.117580325107097,1
291,155,47,0.151258365947131,1
291,156,47,0.156658998957702,1
291,157,47,0.177554929127572,1
291,158,47,0.177100454759303,1
291,159,47,0.130539968571808,1
291,160,47,0.099880224883272,1
291,165,47,0.115333181266255,1
291,166,47,0.127740357662995,1
291,167,47,0.132935953258439,1
291,168,47,0.155148434302477,1
291,169,47,0.1741176794168,1
292,156,47,0.164896790769023,1
292,157,47,0.184405583949332,1
292,158,47,0.180449210395778,1
292,159,47,0.13692170501465,1
292,160,47,0.11770934084023,1
292,161,47,0.107745653150063,1
292,164,47,0.126368666832637,1
292,165,47,0.196318167356973,1
292,166,47,0.203308567437123,1
292,167,47,0.155801976766238,1
292,168,47,0.153102754999316,1
293,157,47,0.153906467244989,1
293,158,47,0.154047650368692,1
293,159,47,0.140370882471773,1
293,160,47,0.134902353896813,1
293,161,47,0.118950610750899,1
293,162,47,0.101662883763246,1
293,164,47,0.13131856174617,1
293,165,47,0.201718571616244,1
293,166,47,0.195593396095597,1
293,167,47,0.136768430750811,1
294,158,47,0.148134952126878,1
294,159,47,0.153858549294124,1
294,160,47,0.136222052824585,1
294,161,47,0.110436389333051,1
294,164,47,0.104206064464892,1
294,165,47,0.132809214145386,1
294,166,47,0.12953926877818,1
267,184,48,0.103371394543301,1
267,185,48,0.108067408192724,1
268,184,48,0.134376465551305,1
268,185,48,0.12629665374485,1
269,183,48,0.114757185493154,1
269,184,48,0.162482386156292,1
269,185,48,0.146467235328635,1
269,186,48,0.10999694719306,1
270,183,48,0.140050772259887,1
270,184,48,0.190870836402469,1
270,185,48,0.172448884219572,1
270,186,48,0.127627310949178,1
271,183,48,0.126756269570907,1
271,184,48,0.162375461262976,1
271,185,48,0.147627418349956,1
271,186,48,0.111184874479181,1
272,183,48,0.106286219856821,1
272,184,48,0.120789379056858,1
276,162,48,0.204124076714118,1
276,163,48,0.123905178726702,1
277,161,48,0.256844301654381,1
277,162,48,0.228669505122292,1
277,163,48,0.134281294117636,1
278,160,48,0.2102552215544,1
278,161,48,0.179624812496844,1
278,162,48,0.167852388278517,1
278,163,48,0.101102050933452,1
279,161,48,0.128833701733075,1
279,162,48,0.109878846164807,1
283,162,48,0.108246150101283,1
284,162,48,0.114611590737239,1
285,157,48,0.138763152978693,1
286,156,48,0.172943444529915,1
286,157,48,0.103935375426699,1
287,155,48,0.190236258510761,1
287,156,48,0.117179400328838,1
287,159,48,0.101450940237447,1
287,171,48,0.103374324738524,1
287,172,48,0.146487027762534,1
287,173,48,0.111812589831893,1
288,155,48,0.128444301663163,1
288,156,48,0.0998055866019965,1
288,157,48,0.10212820747888,1
288,158,48,0.115203566422574,1
288,159,48,0.107665535730509,1
288,170,48,0.124031776231808,1
288,171,48,0.144433298592201,1
288,174,48,0.103248348129803,1
289,155,48,0.108440991744187,1
289,156,48,0.109572461030914,1
289,157,48,0.122420942256801,1
289,158,48,0.122575534563845,1
289,169,48,0.121130501709576,1
289,170,48,0.172108251748211,1
290,155,48,0.116886729380019,1
290,156,48,0.123426456720646,1
290,157,48,0.13011640830778,1
290,158,48,0.122060375743593,1
290,168,48,0.101950130038383,1
290,169,48,0.141053694208999,1
291,155,48,0.127162520986577,1
291,156,48,0.130684746358795,1
291,157,48,0.135896605082368,1
291,158,48,0.128582957629648,1
291,159,48,0.0999475866946275,1
291,167,48,0.108665767128618,1
291,168,48,0.136680067391542,1
292,155,48,0.132815401323402,1
292,156,48,0.141406406927578,1
292,157,48,0.151550612072108,1
292,158,48,0.142305443107787,1
292,159,48,0.111954557245767,1
292,160,48,0.100833834587881,1
292,165,48,0.132490618049247,1
292,166,48,0.150197755098773,1
292,167,48,0.137866273596455,1
293,156,48,0.131827250172511,1
293,157,48,0.137797354097676,1
293,158,48,0.133479978314152,1
293,159,48,0.122909685748376,1
293,160,48,0.128558394097209,1
293,161,48,0.115416000129731,1
293,164,48,0.106357829906602,1
293,165,48,0.146396932429138,1
293,166,48,0.160946212248399,1
293,167,48,0.137856339254288,1
294,157,48,0.121628624004446,1
294,158,48,0.125880653166638,1
294,159,48,0.133215280381432,1
294,160,48,0.134753523943943,1
294,161,48,0.112687944806105,1
294,165,48,0.119147979551021,1
294,166,48,0.127023015372406,1
295,161,48,0.101652611740589,1
260,171,49,0.103425771995159,1
267,184,49,0.11021263788301,1
267,185,49,0.128281038592562,1
267,186,49,0.106110724038136,1
268,184,49,0.145631116648812,1
268,185,49,0.153152677247286,1
268,186,49,0.112328870622806,1
269,183,49,0.110178096436728,1
269,184,49,0.157262706316846,1
269,185,49,0.151035224500557,1
269,186,49,0.113100644829848,1
270,183,49,0.133272588028512,1
270,184,49,0.179989082602527,1
270,185,49,0.165859877313199,1
270,186,49,0.123339727299234,1
271,183,49,0.132651179675925,1
271,184,49,0.170081319158721,1
271,186,49,0.111121118224028,1
272,183,49,0.115598707060821,1
273,183,49,0.101384373609181,1
276,162,49,0.222680861448917,1
276,163,49,0.164987049496205,1
276,164,49,0.0999550483441712,1
277,161,49,0.280492109961821,1
277,162,49,0.294027476876657,1
277,163,49,0.185283596795791,1
278,160,49,0.2190187709962,1
278,161,49,0.215153701890056,1
278,162,49,0.213311382492489,1
278,163,49,0.12445766758051,1
279,160,49,0.13016917360762,1
279,161,49,0.137172100544668,1
279,162,49,0.117276772132154,1
283,161,49,0.100424925299965,1
283,162,49,0.12034740975965,1
284,157,49,0.164594403336418,1
284,158,49,0.100816863420014,1
284,161,49,0.113044099687101,1
284,162,49,0.124617956884213,1
285,156,49,0.249441059942541,1
285,157,49,0.154848269025357,1
286,155,49,0.253519673833584,1
286,156,49,0.1759693994035,1
286,157,49,0.111691928967665,1
286,159,49,0.100365046923992,1
286,160,49,0.103582619136444,1
287,155,49,0.17344150146727,1
287,156,49,0.118015126863576,1
287,157,49,0.102079853811253,1
287,158,49,0.120648511827808,1
287,159,49,0.116169702984082,1
288,155,49,0.118938595861196,1
288,156,49,0.100063966641672,1
288,157,49,0.112752790353162,1
288,158,49,0.135769299537525,1
288,159,49,0.112004065562812,1
288,170,49,0.101885741993925,1
289,154,49,0.11184582412789,1
289,155,49,0.102190623904991,1
289,156,49,0.102445986606092,1
289,157,49,0.114176876124112,1
289,158,49,0.116521544269137,1
290,154,49,0.102339290464076,1
290,155,49,0.104983720848216,1
290,156,49,0.106566679843394,1
290,157,49,0.105914956497113,1
291,154,49,0.107578599343635,1
291,155,49,0.107526117259691,1
291,156,49,0.107597062841411,1
291,157,49,0.105584748549275,1
292,155,49,0.110195285462976,1
292,156,49,0.115032286163558,1
292,157,49,0.116987085843153,1
292,158,49,0.107266114175078,1
292,166,49,0.10638253504699,1
293,155,49,0.111120508220562,1
293,156,49,0.115348747247566,1
293,157,49,0.118042892914214,1
293,158,49,0.11283922566576,1
293,159,49,0.107983053427663,1
293,160,49,0.117420613128104,1
293,161,49,0.106604314878684,1
294,156,49,0.112970485340215,1
294,157,49,0.113662370879003,1
294,158,49,0.113802530068316,1
294,159,49,0.123118742650629,1
294,160,49,0.135290719139416,1
294,161,49,0.1145670060196,1
267,184,50,0.106415006838654,1
267,185,50,0.142160316747391,1
268,169,50,0.104524366452217,1
268,184,50,0.144257704737244,1
268,185,50,0.180114819567028,1
268,186,50,0.139077174048835,1
269,184,50,0.14452483179091,1
269,185,50,0.154354808899837,1
269,186,50,0.117449359541455,1
270,183,50,0.118915622694937,1
270,184,50,0.157388672032647,1
270,186,50,0.110083001253491,1
271,183,50,0.128972521093346,1
275,162,50,0.112396058147456,1
275,163,50,0.109597209742977,1
276,161,50,0.183906100039582,1
276,162,50,0.219346255714278,1
276,163,50,0.200058686826792,1
276,164,50,0.118504502144455,1
277,161,50,0.292052133151749,1
277,162,50,0.307422542994232,1
277,163,50,0.217051836604794,1
277,164,50,0.110379778832789,1
278,160,50,0.238702820350976,1
278,161,50,0.256192839738157,1
278,162,50,0.224572220768011,1
278,163,50,0.13182714124332,1
279,160,50,0.141585323122842,1
279,161,50,0.143914131177742,1
279,162,50,0.112068006997589,1
283,157,50,0.124861021479715,1
283,161,50,0.119505931763658,1
283,162,50,0.122049776933366,1
284,156,50,0.232220313514076,1
284,157,50,0.172879633810167,1
284,158,50,0.104329285165094,1
284,160,50,0.107198501826585,1
284,161,50,0.131925983590707,1
284,162,50,0.117935989806736,1
285,156,50,0.240848877903108,1
285,157,50,0.154953603552493,1
285,158,50,0.102333364716117,1
285,159,50,0.102666121607011,1
285,160,50,0.109557080229226,1
286,155,50,0.229513967778101,1
286,156,50,0.166785710074252,1
286,157,50,0.116114955172977,1
286,158,50,0.111774867653251,1
286,159,50,0.116184201459327,1
286,160,50,0.101172070617053,1
287,154,50,0.211706201942466,1
287,155,50,0.153913983359128,1
287,156,50,0.115428810202524,1
287,157,50,0.11561384821829,1
287,158,50,0.143737851068886,1
287,159,50,0.120895955376765,1
288,154,50,0.139806520336209,1
288,155,50,0.108300483981465,1
288,156,50,0.101597014281799,1
288,157,50,0.121495773963811,1
288,158,50,0.143892574090958,1
288,159,50,0.103733159277604,1
289,154,50,0.103492589160562,1
289,157,50,0.104328500874923,1
289,158,50,0.102138588430727,1
293,156,50,0.100000221279438,1
294,156,50,0.107801119893824,1
294,157,50,0.104498441304897,1
294,158,50,0.102322166795342,1
260,170,51,0.136851826938996,1
262,170,51,0.119432110451311,1
267,184,51,0.100434325889098,1
267,185,51,0.145182273919688,1
268,169,51,0.106905035694675,1
268,184,51,0.138755898294612,1
268,185,51,0.199082245563871,1
268,186,51,0.17123333249076,1
269,169,51,0.105985684220453,1
269,184,51,0.146184596758253,1
269,185,51,0.171941481157678,1
269,186,51,0.13545781651752,1
270,183,51,0.11556779295658,1
270,184,51,0.149777865748462,1
270,186,51,0.106764724004496,1
271,183,51,0.131513501425345,1
275,162,51,0.119435007967776,1
275,163,51,0.121397345547347,1
276,161,51,0.169670220394077,1
276,162,51,0.226754617098068,1
276,163,51,0.229340443577763,1
276,164,51,0.125402737236591,1
277,161,51,0.2801569348429,1
277,162,51,0.289039391388962,1
277,163,51,0.231459573834024,1
277,164,51,0.118730530214576,1
278,160,51,0.264228023255298,1
278,161,51,0.272632956016398,1
278,162,51,0.206728660800403,1
278,163,51,0.13240690596641,1
279,160,51,0.157667476295526,1
279,161,51,0.143913499388437,1
283,157,51,0.137928101804937,1
283,160,51,0.11143332017669,1
283,161,51,0.141063497836137,1
283,162,51,0.119498099754867,1
284,156,51,0.231418050026636,1
284,157,51,0.172800649254194,1
284,158,51,0.108681834184205,1
284,159,51,0.115009846750332,1
284,160,51,0.143740476262375,1
284,161,51,0.149352824047445,1
284,162,51,0.105408413975824,1
285,155,51,0.24305794009898,1
285,156,51,0.219337998881644,1
285,157,51,0.149057320939675,1
285,158,51,0.114974292262579,1
285,159,51,0.139113665327626,1
285,160,51,0.134124240010889,1
285,161,51,0.102140549156155,1
286,155,51,0.208895698114611,1
286,156,51,0.156519471557694,1
286,157,51,0.121395232321053,1
286,158,51,0.130350333744206,1
286,159,51,0.138689821847703,1
286,160,51,0.102372306901692,1
287,154,51,0.197297593279712,1
287,155,51,0.139389517609444,1
287,156,51,0.114560938663694,1
287,157,51,0.127140549968869,1
287,158,51,0.154192613335303,1
287,159,51,0.120769956982207,1
288,154,51,0.128765000092677,1
288,155,51,0.104502678650404,1
288,156,51,0.109808837374124,1
288,157,51,0.128545834561553,1
288,158,51,0.135300588124068,1
289,156,51,0.106020487096792,1
289,157,51,0.103837687728731,1
294,156,51,0.104032474907039,1
260,170,52,0.120907262226731,1
261,170,52,0.149610517833221,1
262,170,52,0.0998869131355637,1
267,185,52,0.134658308938597,1
268,184,52,0.124071687887177,1
268,185,52,0.190847329483177,1
268,186,52,0.18715203741322,1
269,169,52,0.101551775989018,1
269,184,52,0.143551843583325,1
269,185,52,0.178615049794574,1
269,186,52,0.150895206919192,1
270,183,52,0.108340624388134,1
270,184,52,0.141812189947729,1
270,185,52,0.134386944539424,1
270,186,52,0.104385808522003,1
271,183,52,0.124142372038841,1
271,184,52,0.135917759131148,1
272,183,52,0.119659031740793,1
275,162,52,0.120990222698154,1
275,163,52,0.118073730768021,1
276,161,52,0.152732515573999,1
276,162,52,0.222788919205813,1
276,163,52,0.218288335416923,1
276,164,52,0.113084479737989,1
277,160,52,0.205207704300413,1
277,161,52,0.235208132278096,1
277,162,52,0.244304264324085,1
277,163,52,0.203900052941101,1
277,164,52,0.108505575861187,1
278,160,52,0.278754580445438,1
278,161,52,0.24877785545959,1
278,162,52,0.1697370484524,1
278,163,52,0.116031624342306,1
279,159,52,0.182113539496199,1
279,160,52,0.183886264034007,1
279,161,52,0.139524666055998,1
280,159,52,0.134326717590041,1
280,160,52,0.106743177810631,1
281,158,52,0.113064240694409,1
281,159,52,0.113181753505034,1
282,161,52,0.102293910563347,1
283,157,52,0.153100086234151,1
283,160,52,0.133009022959373,1
283,161,52,0.147163739465097,1
283,162,52,0.106299803326866,1
284,156,52,0.228277621466839,1
284,157,52,0.16788691883188,1
284,158,52,0.111977312553645,1
284,159,52,0.140443745207244,1
284,160,52,0.169541912700682,1
284,161,52,0.145264580815969,1
285,155,52,0.225965577614344,1
285,156,52,0.196732054708891,1
285,157,52,0.139651568562837,1
285,158,52,0.123529057125102,1
285,159,52,0.165694914947228,1
285,160,52,0.145688500546325,1
286,155,52,0.193090312228945,1
286,156,52,0.144095879531957,1
286,157,52,0.121235149982813,1
286,158,52,0.135533903557028,1
286,159,52,0.147041346626741,1
287,154,52,0.183928136414804,1
287,155,52,0.126955217844289,1
287,156,52,0.111962890328834,1
287,157,52,0.126357229267642,1
287,158,52,0.140410772341304,1
287,159,52,0.107740097761351,1
288,154,52,0.116055403584575,1
288,156,52,0.112194136107176,1
288,157,52,0.121569301167344,1
288,158,52,0.109851711903473,1
289,156,52,0.10633829890276,1
295,158,52,0.0999656689402371,1
259,170,53,0.113184672807337,1
260,170,53,0.108473398178337,1
267,185,53,0.1232123128252,1
268,184,53,0.110929326598456,1
268,185,53,0.164929218989011,1
268,186,53,0.180860788448859,1
269,184,53,0.138587134299894,1
269,185,53,0.175286032127403,1
270,183,53,0.105470470935606,1
270,184,53,0.142342228495392,1
270,185,53,0.141532002284131,1
271,183,53,0.1167034342313,1
271,184,53,0.124239504197938,1
271,185,53,0.105491755699414,1
272,183,53,0.11686647944352,1
272,184,53,0.107464038514071,1
273,183,53,0.103290492833577,1
275,162,53,0.113666237865263,1
275,163,53,0.102694813555767,1
276,161,53,0.133489455153719,1
276,162,53,0.195615247291195,1
276,163,53,0.173749912684106,1
277,160,53,0.167227820979408,1
277,161,53,0.179087835159752,1
277,162,53,0.189750739323223,1
277,163,53,0.154213930777868,1
278,160,53,0.257865883173812,1
278,161,53,0.198746220797264,1
278,162,53,0.130783980851267,1
279,159,53,0.23100891198742,1
279,160,53,0.215127101381755,1
279,161,53,0.134766802412255,1
280,158,53,0.186020742413198,1
280,159,53,0.187667359627257,1
280,160,53,0.13623199805967,1
281,158,53,0.14080342939401,1
281,159,53,0.131435802233819,1
282,157,53,0.132816305435683,1
282,158,53,0.11720747138121,1
282,159,53,0.101775037257702,1
282,160,53,0.105389427617934,1
282,161,53,0.111132839004917,1
283,156,53,0.204695541032898,1
283,157,53,0.166266553552712,1
283,158,53,0.112140041871213,1
283,159,53,0.117513006867417,1
283,160,53,0.157429760123273,1
283,161,53,0.145536587897366,1
284,156,53,0.215117058110399,1
284,157,53,0.158861525402149,1
284,158,53,0.117654516778692,1
284,159,53,0.157350383422215,1
284,160,53,0.179418424359756,1
284,161,53,0.129156339102179,1
285,155,53,0.211601172417063,1
285,156,53,0.175831843621838,1
285,157,53,0.133313632547462,1
285,158,53,0.130283483900046,1
285,159,53,0.171115972181002,1
285,160,53,0.139468295199956,1
286,154,53,0.24427077949095,1
286,155,53,0.177384956018841,1
286,156,53,0.135416292710132,1
286,157,53,0.12268724144862,1
286,158,53,0.134227287025026,1
286,159,53,0.138926394263456,1
287,154,53,0.172985763520393,1
287,155,53,0.12156718794105,1
287,156,53,0.111930560145117,1
287,157,53,0.11849841300271,1
287,158,53,0.117168169729306,1
288,153,53,0.144611779070703,1
288,154,53,0.110135701195816,1
288,156,53,0.111435433402984,1
288,157,53,0.10816193694417,1
289,156,53,0.100140816185513,1
295,156,53,0.106427533695552,1
259,170,54,0.123986853833678,1
268,185,54,0.135200253446773,1
269,184,54,0.121302751438387,1
270,184,54,0.130461844556439,1
271,183,54,0.10136301259494,1
271,184,54,0.110183662718358,1
272,183,54,0.108707182006815,1
273,182,54,0.103556073092739,1
273,183,54,0.103548088583081,1
276,161,54,0.108272195070713,1
276,162,54,0.142874837771948,1
276,163,54,0.118064253928455,1
277,161,54,0.12764343246936,1
277,162,54,0.131435922055928,1
277,163,54,0.10539538604465,1
278,160,54,0.207335222104336,1
278,161,54,0.145495314627116,1
279,159,54,0.291894403684022,1
279,160,54,0.232955193404323,1
279,161,54,0.124515933804466,1
280,158,54,0.259803493827158,1
280,159,54,0.267136802998749,1
280,160,54,0.17036284665136,1
281,157,54,0.14628866770678,1
281,158,54,0.172609718169226,1
281,159,54,0.156373386620422,1
281,160,54,0.105232351725349,1
282,157,54,0.160694912606101,1
282,158,54,0.132955560512715,1
282,159,54,0.113620672784911,1
282,160,54,0.120597718146315,1
282,161,54,0.109686978288802,1
283,156,54,0.198646703088897,1
283,157,54,0.171930468416527,1
283,158,54,0.125837059704632,1
283,159,54,0.135767916136806,1
283,160,54,0.170681715070475,1
283,161,54,0.130961295787432,1
284,155,54,0.233433545051132,1
284,156,54,0.193851095480674,1
284,157,54,0.14612288837188,1
284,158,54,0.122993506760404,1
284,159,54,0.156626080556358,1
284,160,54,0.168610088834156,1
284,161,54,0.106310511066284,1
285,154,54,0.244481078185974,1
285,155,54,0.202542729870959,1
285,156,54,0.157181194603655,1
285,157,54,0.128779226244946,1
285,158,54,0.133610410126761,1
285,159,54,0.152325882906163,1
285,160,54,0.118753808382568,1
286,154,54,0.213484579905256,1
286,155,54,0.159050648262555,1
286,156,54,0.128277487500955,1
286,157,54,0.124968926735745,1
286,158,54,0.131730030870061,1
286,159,54,0.118240523144392,1
287,153,54,0.202382843605261,1
287,154,54,0.153296638065344,1
287,155,54,0.117431767477203,1
287,156,54,0.111232727072532,1
287,157,54,0.10971928668668,1
288,153,54,0.1278421846702,1
288,154,54,0.101660748751114,1
288,156,54,0.101539968064777,1
295,156,54,0.102913870157701,1
259,169,55,0.148351895502517,1
259,170,55,0.123182934622544,1
269,184,55,0.106063089303165,1
272,183,55,0.105491940879038,1
273,182,55,0.115495398616627,1
273,183,55,0.111107894220311,1
278,159,55,0.175522408470613,1
278,160,55,0.1551868318421,1
278,161,55,0.109799741786724,1
279,158,55,0.288391328063479,1
279,159,55,0.309223512871115,1
279,160,55,0.21803492254833,1
279,161,55,0.116092962369431,1
280,158,55,0.311762020510492,1
280,159,55,0.31158910631362,1
280,160,55,0.183746475203941,1
281,157,55,0.174497471932117,1
281,158,55,0.19492322014446,1
281,159,55,0.172170537459293,1
281,160,55,0.11520725912213,1
282,156,55,0.158337064029035,1
282,157,55,0.175881471760994,1
282,158,55,0.142162931047961,1
282,159,55,0.125226762129468,1
282,160,55,0.126623267029404,1
283,155,55,0.192779210461107,1
283,156,55,0.171010768368895,1
283,157,55,0.159219673687329,1
283,158,55,0.132832982494736,1
283,159,55,0.146213800674204,1
283,160,55,0.163020082426041,1
283,161,55,0.107103319499996,1
284,155,55,0.234253781854991,1
284,156,55,0.161958120855721,1
284,157,55,0.128213927318345,1
284,158,55,0.122479709555033,1
284,159,55,0.140120497834674,1
284,160,55,0.13898240565317,1
285,154,55,0.240335538200337,1
285,155,55,0.18981352610858,1
285,156,55,0.141137275576808,1
285,157,55,0.125883169430936,1
285,158,55,0.13112595315167,1
285,159,55,0.122358373329824,1
286,153,55,0.21695227532475,1
286,154,55,0.17790788149037,1
286,155,55,0.143332590908849,1
286,156,55,0.127283323458752,1
286,157,55,0.128934210697075,1
286,158,55,0.127221560607784,1
287,153,55,0.165081806998951,1
287,154,55,0.135417283965765,1
287,155,55,0.117029219654007,1
287,156,55,0.11246173155636,1
287,157,55,0.102835757035251,1
288,153,55,0.114617440234764,1
288,154,55,0.101264802036858,1
259,170,56,0.107278956926629,1
273,182,56,0.111475475773382,1
273,183,56,0.105022009458649,1
278,159,56,0.149646965540335,1
278,160,56,0.116362039255606,1
279,158,56,0.288994948279271,1
279,159,56,0.281494018869462,1
279,160,56,0.180193749658406,1
279,161,56,0.104747366290844,1
280,157,56,0.244256291908624,1
280,158,56,0.33250595088805,1
280,159,56,0.301603436712826,1
280,160,56,0.172341109678571,1
281,156,56,0.138879565604495,1
281,157,56,0.194645494280566,1
281,158,56,0.207241521214737,1
281,159,56,0.172584925885487,1
281,160,56,0.116991998549641,1
282,156,56,0.151755148412959,1
282,157,56,0.170917350695191,1
282,158,56,0.1431507663042,1
282,159,56,0.129453258289425,1
282,160,56,0.117116308541747,1
283,155,56,0.174234604009797,1
283,156,56,0.139482042063787,1
283,157,56,0.135208172598916,1
283,158,56,0.129607665416845,1
283,159,56,0.140118297465028,1
283,160,56,0.132938687381119,1
284,154,56,0.291824972218048,1
284,155,56,0.211578602288808,1
284,156,56,0.129789337520626,1
284,157,56,0.110128904014334,1
284,158,56,0.116379762034887,1
284,159,56,0.117146460141656,1
284,160,56,0.101968201391073,1
285,153,56,0.245303188571909,1
285,154,56,0.224599017348854,1
285,155,56,0.167470526108582,1
285,156,56,0.121558408248302,1
285,157,56,0.11904600004295,1
285,158,56,0.120201913040006,1
286,153,56,0.186785163899887,1
286,154,56,0.147892192533109,1
286,155,56,0.1264386647304,1
286,156,56,0.119036098379541,1
286,157,56,0.123341012663681,1
286,158,56,0.111200712783468,1
287,153,56,0.131617387194248,1
287,154,56,0.116686898780194,1
287,155,56,0.114316719418773,1
287,156,56,0.107946986972715,1
295,155,56,0.102504514260104,1
278,159,57,0.137975235465631,1
279,158,57,0.274975434684696,1
279,159,57,0.226428395958599,1
279,160,57,0.138485743009452,1
280,157,57,0.25047937298562,1
280,158,57,0.311173410737141,1
280,159,57,0.244744948256847,1
280,160,57,0.146002281972247,1
281,156,57,0.158414654291371,1
281,157,57,0.21357799757896,1
281,158,57,0.212702599033072,1
281,159,57,0.162875871070844,1
281,160,57,0.113410025516477,1
282,156,57,0.14306321991386,1
282,157,57,0.159554293267379,1
282,158,57,0.144722167912274,1
282,159,57,0.127483589775338,1
282,160,57,0.101206917065069,1
283,155,57,0.160576059966434,1
283,156,57,0.117604245957313,1
283,157,57,0.113327424511382,1
283,158,57,0.121122582557433,1
283,159,57,0.121034981702498,1
284,154,57,0.260727017289373,1
284,155,57,0.184153587160216,1
284,156,57,0.112644765275022,1
284,157,57,0.0998274813692708,1
284,158,57,0.108387017330334,1
285,153,57,0.245488520696489,1
285,154,57,0.211401526996862,1
285,155,57,0.155060343266185,1
285,156,57,0.113927809530218,1
285,157,57,0.111877642344411,1
285,158,57,0.105752238072465,1
286,152,57,0.192728384100857,1
286,153,57,0.171853618872686,1
286,154,57,0.139226058466301,1
286,155,57,0.121985192816366,1
286,156,57,0.112938634444936,1
286,157,57,0.110362916594113,1
287,152,57,0.133727487220624,1
287,153,57,0.114257472832104,1
287,154,57,0.110831791401355,1
287,155,57,0.112944189833648,1
287,156,57,0.100130457019504,1
295,155,57,0.102715074385185,1
278,159,58,0.132432308253615,1
279,158,58,0.239444235992648,1
279,159,58,0.167741705328131,1
279,160,58,0.100091950550691,1
280,157,58,0.239821130991499,1
280,158,58,0.25340351174492,1
280,159,58,0.175869032047448,1
280,160,58,0.112285571269614,1
281,156,58,0.166308807185676,1
281,157,58,0.213728232718387,1
281,158,58,0.196460821024747,1
281,159,58,0.141997304213928,1
281,160,58,0.100294940097038,1
282,155,58,0.141405045312697,1
282,156,58,0.126077357498697,1
282,157,58,0.140791523433497,1
282,158,58,0.135439189625958,1
282,159,58,0.113259539839913,1
283,154,58,0.216076571777129,1
283,155,58,0.141931151516586,1
283,158,58,0.103371590615844,1
284,153,58,0.256367039299476,1
284,154,58,0.21408214365806,1
284,155,58,0.148500257059869,1
285,153,58,0.228826472085687,1
285,154,58,0.185199329174082,1
285,155,58,0.135120048883867,1
285,156,58,0.102408580322101,1
286,152,58,0.153721657980523,1
286,153,58,0.152074125761265,1
286,154,58,0.127976516147825,1
286,155,58,0.112503059291206,1
286,156,58,0.0997064065741194,1
287,152,58,0.102994619366559,1
287,154,58,0.1021634569649,1
287,155,58,0.103441436012741,1
295,155,58,0.10308761221642,1
277,159,59,0.138949193143011,1
278,158,59,0.213016380458994,1
278,159,59,0.133070273843146,1
279,157,59,0.172304498577671,1
279,158,59,0.193915537989726,1
279,159,59,0.121676857849964,1
280,156,59,0.170816122798534,1
280,157,59,0.20274089385417,1
280,158,59,0.184421008322696,1
280,159,59,0.12390327246587,1
281,156,59,0.155070615288842,1
281,157,59,0.1832580367141,1
281,158,59,0.167241578736158,1
281,159,59,0.124309905133706,1
282,155,59,0.144181693948169,1
282,156,59,0.108316039069857,1
282,157,59,0.11826544614316,1
282,158,59,0.123803787436259,1
282,159,59,0.102493370803924,1
283,154,59,0.205459962519586,1
283,155,59,0.126338025051371,1
284,153,59,0.216919574781786,1
284,154,59,0.171919477461213,1
284,155,59,0.117731486144642,1
285,152,59,0.189206768732105,1
285,153,59,0.191426266344419,1
285,154,59,0.148887467653054,1
285,155,59,0.110912159358046,1
286,152,59,0.131925231979293,1
286,153,59,0.128506151657483,1
286,154,59,0.109860132129893,1
295,155,59,0.10063112825743,1
277,159,60,0.165342768660439,1
278,158,60,0.215168494474115,1
278,159,60,0.129074173813845,1
279,157,60,0.138171209972115,1
279,158,60,0.146462072085009,1
280,156,60,0.150547341549587,1
280,157,60,0.153471306022182,1
280,158,60,0.12936018918913,1
281,155,60,0.133663447749576,1
281,156,60,0.129771200810421,1
281,157,60,0.138233953185797,1
281,158,60,0.133548091736921,1
281,159,60,0.106722317870666,1
282,154,60,0.208482115764426,1
282,155,60,0.134498945533013,1
282,158,60,0.105015495493062,1
283,153,60,0.22386080422538,1
283,154,60,0.181498045998652,1
283,155,60,0.11073826479846,1
284,153,60,0.171110634650672,1
284,154,60,0.134130013257981,1
285,152,60,0.156179928378237,1
285,153,60,0.141255256782951,1
285,154,60,0.109948070665318,1
286,151,60,0.0999173261655289,1
286,152,60,0.109392008934064,1
276,159,61,0.152722624803509,1
277,158,61,0.262396444275906,1
277,159,61,0.166903538779529,1
278,157,61,0.133764523145366,1
278,158,61,0.18481038660677,1
278,159,61,0.115204873572859,1
279,157,61,0.111731905980549,1
279,158,61,0.11268607122403,1
280,156,61,0.120099737459393,1
280,157,61,0.11433608702883,1
280,158,61,0.10079087291518,1
281,155,61,0.11743019889686,1
281,156,61,0.103296756262026,1
281,157,61,0.103586050405942,1
281,158,61,0.109872473807167,1
282,154,61,0.174202339183594,1
282,155,61,0.115178665209644,1
283,153,61,0.188420343548952,1
283,154,61,0.151449721855942,1
284,152,61,0.148776033091254,1
284,153,61,0.141387681999744,1
284,154,61,0.112108201868854,1
285,151,61,0.128982161326698,1
285,152,61,0.130279431734162,1
285,153,61,0.108893832174599,1
289,150,61,0.0998093991236612,1
290,150,61,0.11587978794378,1
291,150,61,0.115336035211044,1
276,159,62,0.140622160328233,1
277,158,62,0.211534442395012,1
277,159,62,0.142596044401988,1
278,157,62,0.103554155938987,1
278,158,62,0.130626327633973,1
281,154,62,0.111300426564378,1
282,153,62,0.154020853787849,1
282,154,62,0.125528289021468,1
283,152,62,0.145323642223014,1
283,153,62,0.143397926637262,1
283,154,62,0.111223359162156,1
284,151,62,0.126687241142938,1
284,152,62,0.126805429314543,1
284,153,62,0.109764775516599,1
285,151,62,0.113743980628466,1
285,152,62,0.103358007145799,1
290,150,62,0.101972057484414,1
291,150,62,0.111553207643666,1
292,150,62,0.146121646579109,1
292,151,62,0.103070717298986,1
293,151,62,0.102201059321433,1
277,159,63,0.110805833575278,1
283,153,63,0.111454376189198,1
284,152,63,0.112529474619882,1
292,151,63,0.109500665801508,1
