x,y,z,signal,mito.p
917,538,21,0.108021047929281,1
917,539,21,0.0999643182182759,1
923,524,21,0.121502865254107,1
923,525,21,0.112221673406514,1
936,560,21,0.0999341339396106,1
936,561,21,0.11590115985094,1
936,562,21,0.105715779472431,1
937,560,21,0.121051059651003,1
937,561,21,0.133333729983095,1
938,561,21,0.106065572888707,1
916,539,22,0.106442456994639,1
917,538,22,0.11875060586437,1
917,539,22,0.11154031042752,1
922,524,22,0.114606133384799,1
922,525,22,0.128343313410725,1
923,524,22,0.144057176990601,1
923,525,22,0.145692541819289,1
934,562,22,0.108244494377589,1
934,563,22,0.135562225146537,1
935,561,22,0.104569430458293,1
935,562,22,0.134220228413487,1
935,563,22,0.177903458965238,1
936,560,22,0.104426537146301,1
936,561,22,0.132126522230269,1
936,562,22,0.144551181762073,1
936,563,22,0.173338922848652,1
937,560,22,0.120604199433145,1
937,561,22,0.140530877666661,1
937,562,22,0.12651041638813,1
937,563,22,0.126275565053585,1
938,561,22,0.107464931733432,1
941,524,22,0.111020086399914,1
941,525,22,0.109487528941143,1
916,528,23,0.115510703167881,1
916,538,23,0.0998578181488027,1
916,539,23,0.11016385939154,1
917,527,23,0.12429087520414,1
917,528,23,0.14810400534388,1
917,529,23,0.112575464524078,1
917,538,23,0.111013724935194,1
917,539,23,0.107030478550363,1
918,527,23,0.137768901793139,1
918,528,23,0.137473921545482,1
919,526,23,0.113669483955138,1
919,527,23,0.129204910628187,1
922,524,23,0.10895328572673,1
922,525,23,0.12586744005584,1
923,524,23,0.12706822098643,1
923,525,23,0.142758849969989,1
924,525,23,0.10947176688729,1
932,563,23,0.1036206354239,1
933,562,23,0.109780809893429,1
933,563,23,0.133332978371681,1
934,561,23,0.100857918831883,1
934,562,23,0.141200541650604,1
934,563,23,0.200940185407344,1
934,564,23,0.203009426094393,1
935,561,23,0.118649726541122,1
935,562,23,0.177932924311247,1
935,563,23,0.270141810789016,1
935,564,23,0.258762217910099,1
936,561,23,0.134190131278174,1
936,562,23,0.17294736598077,1
936,563,23,0.238341284367973,1
936,564,23,0.219357932923491,1
937,560,23,0.105950434734433,1
937,561,23,0.131578553937864,1
937,562,23,0.136389520561936,1
937,563,23,0.152748800487967,1
937,564,23,0.137927851267799,1
938,561,23,0.101841560314291,1
938,562,23,0.102388482886469,1
938,563,23,0.100898592991586,1
940,524,23,0.105240020340355,1
941,524,23,0.137862493753547,1
941,525,23,0.142483836442937,1
941,526,23,0.106176484590392,1
942,524,23,0.100257610063481,1
942,525,23,0.114478141586056,1
943,563,23,0.105472878270715,1
943,565,23,0.110444254020599,1
944,563,23,0.11341965485691,1
944,564,23,0.117813117679943,1
944,565,23,0.116485161919537,1
945,562,23,0.104872351643931,1
945,564,23,0.120061710279017,1
945,565,23,0.118184794970573,1
946,561,23,0.100002269148218,1
946,562,23,0.109724155821492,1
947,561,23,0.102958160766526,1
950,528,23,0.113310409771839,1
951,528,23,0.113784164606812,1
969,561,23,0.104363728575105,1
969,562,23,0.113289212151383,1
970,561,23,0.101689179269813,1
913,534,24,0.105847050039806,1
914,533,24,0.109478596747529,1
914,534,24,0.124740382401325,1
914,535,24,0.119280067087323,1
915,527,24,0.106447119163989,1
915,528,24,0.104560770587655,1
915,533,24,0.10097836183773,1
915,534,24,0.118711282426628,1
915,535,24,0.118021030825696,1
915,539,24,0.102527498319283,1
916,527,24,0.130325595925062,1
916,528,24,0.147873903322037,1
916,529,24,0.10915283311066,1
916,538,24,0.102642080934685,1
916,539,24,0.110924686214945,1
916,540,24,0.100129400406357,1
917,527,24,0.156459201036635,1
917,528,24,0.194406372921757,1
917,529,24,0.131268247353115,1
917,538,24,0.100435066607593,1
917,539,24,0.100389752064379,1
918,527,24,0.158599300162052,1
918,528,24,0.177001133123479,1
918,529,24,0.111445629175207,1
919,526,24,0.107082100093702,1
919,527,24,0.133691083085185,1
919,528,24,0.113512647706772,1
922,525,24,0.105238266580389,1
923,524,24,0.101962994575771,1
923,525,24,0.128448615259104,1
924,525,24,0.122704365117354,1
931,562,24,0.10332399945255,1
931,563,24,0.10565985522607,1
932,562,24,0.110476802062696,1
932,563,24,0.118231089876502,1
932,564,24,0.125573124276245,1
933,562,24,0.126233540171921,1
934,561,24,0.10228852946134,1
934,562,24,0.161371417343202,1
934,565,24,0.17301672119631,1
935,561,24,0.114410093520801,1
935,565,24,0.167378862194844,1
936,561,24,0.116571107050778,1
936,562,24,0.168120713553277,1
936,564,24,0.222571932258498,1
936,565,24,0.132288913867347,1
937,561,24,0.109659212238164,1
937,562,24,0.127237965343861,1
937,563,24,0.151898847800961,1
937,564,24,0.133776222140417,1
940,524,24,0.118969455500842,1
940,525,24,0.115360958209812,1
941,524,24,0.136735621278656,1
941,525,24,0.149316735806659,1
941,526,24,0.118008209859984,1
942,524,24,0.104025699511395,1
942,525,24,0.117630922716047,1
942,565,24,0.105502964513108,1
943,563,24,0.108773062381181,1
943,564,24,0.12235535599125,1
943,565,24,0.125407018153774,1
943,566,24,0.121097430807365,1
944,562,24,0.0997588995509826,1
944,563,24,0.118990544192107,1
944,564,24,0.135064059279991,1
944,565,24,0.138818968295865,1
944,566,24,0.13047172443401,1
945,562,24,0.108818006565148,1
945,563,24,0.123071990242101,1
945,564,24,0.133211968934044,1
945,565,24,0.135182269237435,1
945,566,24,0.129987490610919,1
946,561,24,0.108776776866575,1
946,562,24,0.121274342705526,1
946,563,24,0.127210754832094,1
946,564,24,0.127368408049389,1
946,565,24,0.126533977772017,1
947,561,24,0.112500651956097,1
947,562,24,0.124824835202657,1
948,561,24,0.100798999032785,1
950,528,24,0.130380626952062,1
950,529,24,0.106701250965238,1
951,528,24,0.132226355833289,1
951,529,24,0.120049935033533,1
963,548,24,0.102308724933244,1
963,549,24,0.104143038035315,1
913,529,25,0.10140894803454,1
913,530,25,0.106287853794677,1
913,531,25,0.116172175676704,1
913,532,25,0.137415589964013,1
913,533,25,0.153518308967848,1
913,534,25,0.144178251785752,1
913,535,25,0.117291096320695,1
914,527,25,0.123880353764205,1
914,528,25,0.117509020059048,1
914,529,25,0.110303550185334,1
914,530,25,0.106328092237618,1
914,531,25,0.111179471591336,1
914,532,25,0.134870775324511,1
914,533,25,0.163789885014736,1
914,534,25,0.17484592551935,1
914,535,25,0.158500131027094,1
914,536,25,0.132133515484294,1
914,537,25,0.116043737268281,1
914,538,25,0.10985163565304,1
914,539,25,0.110100124922225,1
915,526,25,0.117413587195322,1
915,527,25,0.147902998308798,1
915,528,25,0.134772641016862,1
915,529,25,0.111298912448631,1
915,532,25,0.103573948372887,1
915,533,25,0.130845874417263,1
915,534,25,0.163841038162557,1
915,535,25,0.175180250990586,1
915,536,25,0.155338690026464,1
915,537,25,0.132334337339752,1
915,538,25,0.118600817334624,1
915,539,25,0.115285165279118,1
915,540,25,0.116220997739851,1
916,527,25,0.14236634541815,1
916,528,25,0.153946248185331,1
916,529,25,0.111990307806062,1
916,534,25,0.108249951730029,1
916,535,25,0.129545357919924,1
916,536,25,0.129928984742744,1
916,537,25,0.120935322386183,1
916,538,25,0.11506115239902,1
916,539,25,0.113877484244244,1
916,540,25,0.111806424439715,1
916,541,25,0.109518867869227,1
917,527,25,0.148894961981354,1
917,528,25,0.191638765409089,1
917,529,25,0.125546044479507,1
918,527,25,0.143812532921837,1
918,528,25,0.17900815345696,1
918,529,25,0.115123024179178,1
919,527,25,0.115699139774388,1
919,528,25,0.11652549839875,1
923,525,25,0.103329587520018,1
924,525,25,0.12051967038138,1
929,562,25,0.104061319356662,1
930,562,25,0.108802658442218,1
930,563,25,0.125457180045962,1
931,562,25,0.120941422420846,1
931,563,25,0.132661996344534,1
932,562,25,0.130679158291326,1
935,561,25,0.101021726548436,1
936,562,25,0.145877721443003,1
936,565,25,0.125319667835977,1
937,562,25,0.114751020100976,1
937,563,25,0.143332471086739,1
937,564,25,0.127411903475123,1
937,565,25,0.0998256622517908,1
939,524,25,0.10715739195012,1
939,525,25,0.106413863082154,1
940,524,25,0.119767590571965,1
940,525,25,0.124544560395708,1
940,526,25,0.109983124078796,1
941,524,25,0.120005546388437,1
941,525,25,0.133862178164577,1
941,526,25,0.114120723126451,1
942,524,25,0.0997182144983609,1
942,525,25,0.105867942658528,1
942,565,25,0.103443233344383,1
943,563,25,0.108915389261383,1
943,564,25,0.12300878952582,1
943,565,25,0.128526989811611,1
943,566,25,0.12779067205605,1
944,562,25,0.101318286269354,1
944,563,25,0.120110554128002,1
944,564,25,0.135716414415576,1
944,565,25,0.14295088123978,1
944,566,25,0.139679105862175,1
944,567,25,0.140016546708257,1
945,562,25,0.114240392735046,1
945,563,25,0.13029412628195,1
945,564,25,0.139437686097448,1
945,565,25,0.142768904134265,1
945,566,25,0.142740658795189,1
945,567,25,0.141032997662819,1
946,561,25,0.112625092663233,1
946,562,25,0.127582366765211,1
946,563,25,0.137106514279116,1
946,564,25,0.135331774551285,1
946,565,25,0.132912043301142,1
946,566,25,0.133665190616623,1
947,561,25,0.114856430878545,1
947,562,25,0.128299382268229,1
947,563,25,0.135190547855906,1
948,561,25,0.104871327709541,1
948,562,25,0.11665590842552,1
950,528,25,0.124338106901106,1
950,529,25,0.113020854197865,1
951,528,25,0.125933233286853,1
951,529,25,0.124911248729417,1
955,558,25,0.111583435494007,1
959,554,25,0.103045914122328,1
959,555,25,0.107757635361009,1
960,554,25,0.101230827022366,1
962,535,25,0.100284875039843,1
962,536,25,0.105879260401413,1
962,537,25,0.102464352067596,1
962,547,25,0.102109504336885,1
962,548,25,0.111561704120518,1
962,549,25,0.1046491775186,1
963,536,25,0.100398640686317,1
963,545,25,0.105083445522045,1
963,546,25,0.121812932194636,1
963,547,25,0.128099159523319,1
963,548,25,0.132158220624682,1
963,549,25,0.124167229680094,1
963,550,25,0.106584250121809,1
964,545,25,0.120370208639205,1
964,546,25,0.134025974988211,1
964,547,25,0.137104488196174,1
964,548,25,0.132701635676928,1
964,549,25,0.123167096318257,1
965,545,25,0.120451110348929,1
965,546,25,0.126384603173195,1
912,532,26,0.160811107373522,1
912,533,26,0.156137522244407,1
912,534,26,0.129040318621463,1
912,535,26,0.10055403906937,1
913,529,26,0.14514290691027,1
913,530,26,0.139129318452289,1
913,531,26,0.162076243669812,1
913,532,26,0.209825365183166,1
913,533,26,0.21819319666201,1
913,534,26,0.184008035975977,1
913,535,26,0.140805270297328,1
913,536,26,0.119642714148068,1
913,537,26,0.108103071609667,1
913,538,26,0.106728592192034,1
914,527,26,0.159519501283959,1
914,528,26,0.149547545868239,1
914,529,26,0.140699685233054,1
914,530,26,0.125442387461903,1
914,531,26,0.137904333455587,1
914,532,26,0.185314249469975,1
914,533,26,0.214714172606713,1
914,534,26,0.213291404878966,1
914,535,26,0.198776808113934,1
914,536,26,0.189454952999557,1
914,537,26,0.163383219668143,1
914,538,26,0.133405862892991,1
914,539,26,0.124487013104409,1
914,540,26,0.120997455596398,1
915,526,26,0.138001422043008,1
915,527,26,0.165579221254083,1
915,528,26,0.146433129599114,1
915,529,26,0.125053706324648,1
915,530,26,0.101835906889308,1
915,532,26,0.114181821509357,1
915,533,26,0.141981041085798,1
915,534,26,0.18361175158123,1
915,535,26,0.230761555581815,1
915,536,26,0.254004583017656,2
915,537,26,0.217912333637432,1
915,538,26,0.158134684486155,1
915,539,26,0.133731942424512,1
915,540,26,0.135107195239397,1
915,541,26,0.133982501348315,1
915,542,26,0.107738714360633,1
916,527,26,0.129152014613319,1
916,528,26,0.135397251887647,1
916,529,26,0.10393411184809,1
916,534,26,0.112045099188843,1
916,535,26,0.163904347808029,1
916,536,26,0.198990745043918,1
916,537,26,0.180979564838093,1
916,538,26,0.138474817411653,1
916,539,26,0.122487258347929,1
916,540,26,0.128910573062754,1
916,541,26,0.13039099701099,1
916,542,26,0.10367942450797,1
917,527,26,0.118589989773096,1
917,528,26,0.15221619121141,1
917,529,26,0.104558047357894,1
917,536,26,0.100933548368792,1
917,537,26,0.100952120795758,1
918,527,26,0.112311670703638,1
918,528,26,0.147618638657208,1
918,529,26,0.101852736449228,1
919,528,26,0.103733932674856,1
926,560,26,0.101075178102175,1
927,555,26,0.0997221141633779,1
927,556,26,0.105005887938467,1
927,557,26,0.10273855951864,1
927,560,26,0.102111802742803,1
927,561,26,0.10070832637468,1
928,556,26,0.104996084311329,1
928,557,26,0.101972613023285,1
928,562,26,0.111810945001117,1
929,562,26,0.110659552565463,1
929,563,26,0.146587852621186,1
930,562,26,0.112441753942837,1
930,563,26,0.140261343277887,1
931,562,26,0.123987300443359,1
931,563,26,0.148550963598009,1
931,564,26,0.150829479045692,1
932,562,26,0.138403708436147,1
936,562,26,0.11747795345394,1
936,565,26,0.129547863291304,1
937,563,26,0.12365869375462,1
937,564,26,0.117034677006447,1
937,565,26,0.103620929532715,1
938,524,26,0.113395962757994,1
938,525,26,0.119657463160451,1
938,526,26,0.108015895578575,1
939,523,26,0.105244573580514,1
939,524,26,0.127113208742074,1
939,525,26,0.136157337992557,1
939,526,26,0.121750679162311,1
940,524,26,0.121026507011483,1
940,525,26,0.131639260175684,1
940,526,26,0.11945099877293,1
941,524,26,0.104899812692836,1
941,525,26,0.114963301307266,1
941,526,26,0.105308798231185,1
943,564,26,0.10321609419652,1
943,565,26,0.113313819255499,1
944,563,26,0.100346637890811,1
944,564,26,0.105046235310598,1
944,565,26,0.114764690714374,1
944,566,26,0.13253537705359,1
945,562,26,0.110091573980777,1
945,563,26,0.119053134904922,1
945,564,26,0.120104987846371,1
945,565,26,0.124576454862663,1
945,566,26,0.142236414679818,1
946,561,26,0.103829093215606,1
946,562,26,0.121639647638517,1
946,563,26,0.133960051042169,1
946,564,26,0.132978718858598,1
946,565,26,0.130351684466168,1
947,561,26,0.102214261539312,1
947,562,26,0.120407996175361,1
947,563,26,0.136734194306262,1
948,562,26,0.115783777755344,1
949,562,26,0.105853313468255,1
950,528,26,0.0999837729716849,1
950,529,26,0.111300764244868,1
951,529,26,0.111075291713619,1
951,530,26,0.109252394390704,1
952,530,26,0.110918466358172,1
953,530,26,0.103312082599118,1
955,558,26,0.101724483220428,1
956,558,26,0.112550900991638,1
959,554,26,0.102221036934956,1
959,555,26,0.111860987071196,1
960,554,26,0.105347337378756,1
960,555,26,0.115528839878086,1
961,535,26,0.107059181392038,1
961,536,26,0.113712946702115,1
961,537,26,0.114532094214071,1
961,538,26,0.105047782105102,1
962,534,26,0.103496989899855,1
962,535,26,0.11108619552558,1
962,536,26,0.118553716352686,1
962,537,26,0.12128247971605,1
962,538,26,0.111313911998152,1
962,545,26,0.104678936973422,1
962,546,26,0.125152298134897,1
962,547,26,0.12842455280094,1
962,548,26,0.122493423740107,1
962,549,26,0.102997593133457,1
963,535,26,0.11217998620534,1
963,536,26,0.114398078631097,1
963,537,26,0.113355005382396,1
963,538,26,0.105501668255742,1
963,544,26,0.100975573250455,1
963,545,26,0.139792533828159,1
963,546,26,0.166820414914319,1
963,547,26,0.167695040062955,1
963,548,26,0.151766727585901,1
963,549,26,0.128314458068183,1
963,550,26,0.112842014253034,1
963,551,26,0.10578958989186,1
964,537,26,0.110100168493901,1
964,538,26,0.106783024108486,1
964,543,26,0.101170469357954,1
964,544,26,0.124331603828438,1
964,545,26,0.156505397906292,1
964,546,26,0.172531321830881,1
964,547,26,0.172853512590304,1
964,548,26,0.160731218705268,1
964,549,26,0.143071923356174,1
964,550,26,0.134388861693175,1
965,543,26,0.109556960407117,1
965,544,26,0.136048517731327,1
965,545,26,0.15153057999399,1
965,546,26,0.152070531097981,1
965,547,26,0.156106749748113,1
912,529,27,0.206223033284314,1
912,530,27,0.173004978629583,1
912,531,27,0.175344897461906,1
912,532,27,0.222785825616806,1
912,533,27,0.208345954276401,1
912,534,27,0.154898311095436,1
912,535,27,0.11278202694787,1
913,528,27,0.171274398795549,1
913,529,27,0.187926480385427,1
913,530,27,0.162648328884977,1
913,531,27,0.197855092876279,1
913,532,27,0.289730459958822,1
913,533,27,0.291457532272925,1
913,534,27,0.23064188597322,1
913,535,27,0.175992928108631,1
913,536,27,0.147895547552174,1
913,537,27,0.122696522215644,1
913,538,27,0.109994223963299,1
913,539,27,0.114352371942797,1
913,540,27,0.114299780929663,1
914,526,27,0.144095040777191,1
914,527,27,0.170875271348932,1
914,528,27,0.165128058333203,1
914,529,27,0.154982088535788,1
914,530,27,0.129866753496258,1
914,531,27,0.151682634250897,1
914,532,27,0.228810372351343,1
914,533,27,0.259523567593617,1
914,534,27,0.250807903423926,1
914,535,27,0.249339232935336,1
914,536,27,0.258469590532955,2
914,537,27,0.213340096227083,1
914,538,27,0.149414064038299,1
914,539,27,0.133575868680478,1
914,540,27,0.130585707938865,1
914,541,27,0.120325253562319,1
914,542,27,0.108747616522299,1
915,526,27,0.130380735881252,1
915,527,27,0.155006750104499,1
915,528,27,0.143746434689091,1
915,529,27,0.126221263852161,1
915,530,27,0.100432637486647,1
915,532,27,0.116999863237189,1
915,533,27,0.142806528276636,1
915,534,27,0.186598677125888,1
915,535,27,0.270938998176183,2
915,536,27,0.349911354080114,2
915,537,27,0.29865753390128,2
915,538,27,0.181535245317181,1
915,539,27,0.144963544105325,1
915,540,27,0.1545548900368,1
915,541,27,0.147183096182234,1
915,542,27,0.116782647538573,1
916,527,27,0.106212594617016,1
916,528,27,0.111123024484861,1
916,534,27,0.102872172063608,1
916,535,27,0.172670369942452,1
916,536,27,0.246097892373534,2
916,537,27,0.223903395538835,1
916,538,27,0.146060210515713,1
916,539,27,0.1272188809497,1
916,540,27,0.149125652220825,1
916,541,27,0.148514831785547,1
916,542,27,0.115405967751293,1
917,528,27,0.108763313218639,1
917,536,27,0.103576377493833,1
917,537,27,0.103421512863813,1
917,540,27,0.105048065320997,1
917,541,27,0.106465353910466,1
918,528,27,0.110551407665215,1
919,550,27,0.106413274864526,1
926,556,27,0.100009709011924,1
926,559,27,0.100277184638999,1
926,560,27,0.105159369167768,1
926,561,27,0.105821146678324,1
927,555,27,0.103132534614549,1
927,556,27,0.110939674871546,1
927,557,27,0.108655614928071,1
927,558,27,0.10383667468726,1
927,559,27,0.102012971288336,1
927,560,27,0.104341539699016,1
927,561,27,0.102613432557605,1
927,562,27,0.110216461297593,1
928,555,27,0.101035266446805,1
928,556,27,0.109463335767951,1
928,557,27,0.10709838500767,1
928,558,27,0.101332022240265,1
928,560,27,0.100309329643092,1
928,562,27,0.111449474375629,1
928,563,27,0.153400131689162,1
929,562,27,0.108137515019678,1
929,563,27,0.141595714967608,1
930,562,27,0.107656864966951,1
930,563,27,0.136569656764133,1
930,564,27,0.142354417671799,1
931,562,27,0.115082665914128,1
931,563,27,0.149761025295624,1
932,562,27,0.131068024608205,1
935,562,27,0.114068034077045,1
935,566,27,0.146572983786694,1
936,563,27,0.137526512558617,1
936,565,27,0.140821446282105,1
936,566,27,0.136437482084478,1
937,525,27,0.100938471968198,1
937,563,27,0.110121660223171,1
937,564,27,0.115855769057293,1
937,565,27,0.113476766431447,1
938,523,27,0.101298406692102,1
938,524,27,0.12273170634415,1
938,525,27,0.131524285415197,1
938,526,27,0.121706628197706,1
939,523,27,0.107241321891339,1
939,524,27,0.133192437930201,1
939,525,27,0.144832480503412,1
939,526,27,0.133834510150211,1
940,524,27,0.118068240736824,1
940,525,27,0.126826888365056,1
940,526,27,0.120107667504455,1
945,562,27,0.118248747298269,1
945,563,27,0.118420920776646,1
945,564,27,0.109245771495926,1
945,565,27,0.115806598420737,1
946,561,27,0.100794881509387,1
946,562,27,0.12740352682038,1
946,563,27,0.141160760710262,1
946,564,27,0.140152479444981,1
947,562,27,0.12912904144706,1
947,563,27,0.15688551720918,1
947,564,27,0.164358375566617,1
948,561,27,0.100795633120801,1
948,562,27,0.134410233600336,1
948,563,27,0.16329297183388,1
949,561,27,0.105499108419768,1
949,562,27,0.127078950511687,1
949,563,27,0.145505259862201,1
950,529,27,0.102766881108149,1
950,530,27,0.115827305859836,1
950,561,27,0.10514763749396,1
950,562,27,0.115336972002081,1
951,530,27,0.120343292236252,1
951,562,27,0.104396091437579,1
952,530,27,0.119084419368411,1
952,531,27,0.10300336638055,1
953,530,27,0.110354354759746,1
953,531,27,0.112616607079299,1
956,558,27,0.106930786555291,1
957,557,27,0.101544118266931,1
958,556,27,0.105399645175995,1
959,533,27,0.110354910298617,1
959,534,27,0.111869516226806,1
959,555,27,0.111316057903203,1
959,556,27,0.128633511666922,1
960,533,27,0.110804722497535,1
960,534,27,0.129975268755754,1
960,535,27,0.122336631063417,1
960,536,27,0.103945396912217,1
960,554,27,0.103993510935626,1
960,555,27,0.11943951763626,1
961,533,27,0.104490946976596,1
961,534,27,0.12200219666299,1
961,535,27,0.129726626985702,1
961,536,27,0.134874979991261,1
961,537,27,0.134230663829929,1
961,538,27,0.119209600794041,1
961,547,27,0.0998401716199547,1
962,534,27,0.112483354000659,1
962,535,27,0.119785041028271,1
962,536,27,0.13494934594956,1
962,537,27,0.147081116674163,1
962,538,27,0.139596809858813,1
962,539,27,0.105545686541591,1
962,545,27,0.130517605409015,1
962,546,27,0.156320131139226,1
962,547,27,0.15028510541657,1
962,548,27,0.123881758950762,1
963,535,27,0.121613221416921,1
963,536,27,0.127104897444845,1
963,537,27,0.136759509450115,1
963,538,27,0.137431450054138,1
963,539,27,0.11525284598832,1
963,540,27,0.103587183269523,1
963,541,27,0.112353564870274,1
963,542,27,0.114552463972679,1
963,543,27,0.107554417063362,1
963,544,27,0.127056500205541,1
963,545,27,0.173413005591057,1
963,546,27,0.209834994523599,1
963,547,27,0.199795143543491,1
963,548,27,0.160957595348798,1
963,549,27,0.126360431785841,1
963,550,27,0.110161375805998,1
963,551,27,0.109541546926673,1
963,552,27,0.107686820494317,1
964,537,27,0.126172474467772,1
964,538,27,0.12757111437984,1
964,539,27,0.112678391716105,1
964,540,27,0.105846407357582,1
964,541,27,0.117606380969445,1
964,542,27,0.124063234982001,1
964,543,27,0.123433471760509,1
964,544,27,0.148004890673517,1
964,545,27,0.183765940850269,1
964,549,27,0.157310123193436,1
964,550,27,0.144094812025891,1
964,551,27,0.142605194453983,1
965,540,27,0.116124388440867,1
965,541,27,0.111637246514074,1
965,542,27,0.109562047400309,1
965,543,27,0.122259694376223,1
965,544,27,0.157997575314174,1
965,545,27,0.179717478559134,1
965,550,27,0.167284475051345,1
911,529,28,0.168755890555533,1
911,532,28,0.147450495558876,1
911,533,28,0.130634747860392,1
912,528,28,0.204380278169985,1
912,529,28,0.259231179860693,1
912,530,28,0.194310297375806,1
912,531,28,0.179573931671999,1
912,532,28,0.24419960515793,1
912,533,28,0.221780953835185,1
912,534,28,0.15221369673295,1
912,535,28,0.108692563709461,1
912,545,28,0.125588494185013,1
912,546,28,0.137985921419212,1
913,527,28,0.139032415044492,1
913,528,28,0.182030818668995,1
913,529,28,0.211969178793977,1
913,530,28,0.168110855461544,1
913,531,28,0.197262779510454,1
913,532,28,0.315168410581618,1
913,533,28,0.31275623901729,1
913,534,28,0.233138543017637,1
913,535,28,0.180019833312982,1
913,536,28,0.154751692405131,1
913,537,28,0.125694493180211,1
913,538,28,0.109057062566443,1
913,539,28,0.113228157340153,1
913,540,28,0.115335534136768,1
913,541,28,0.114088937588687,1
913,546,28,0.121467234515921,1
914,526,28,0.1294462650354,1
914,527,28,0.15413113370023,1
914,528,28,0.155978638127261,1
914,529,28,0.147622603679739,1
914,530,28,0.119690043881306,1
914,531,28,0.139833164416185,1
914,532,28,0.224946566823807,1
914,533,28,0.256586270188115,1
914,534,28,0.24611033208708,1
914,535,28,0.258323734346984,1
914,536,28,0.283232310890178,2
914,537,28,0.228774839649428,1
914,538,28,0.147510722508259,1
914,539,28,0.132401775401541,1
914,540,28,0.136416273571103,1
914,541,28,0.125854281409637,1
914,542,28,0.116736123881345,1
914,543,28,0.113285911596913,1
915,526,28,0.106701218286481,1
915,527,28,0.128341657687031,1
915,528,28,0.127259892789893,1
915,529,28,0.111383997039268,1
915,532,28,0.104904834328514,1
915,533,28,0.127425443373492,1
915,534,28,0.162509727383087,1
915,535,28,0.252942545196903,2
915,536,28,0.366521900969685,2
915,537,28,0.3176311252903,2
915,538,28,0.176960197533719,1
915,539,28,0.141491458839457,1
915,540,28,0.161475379362539,1
915,541,28,0.148155779388086,1
915,542,28,0.121307370036061,1
915,543,28,0.11046845808671,1
915,544,28,0.102125658535825,1
916,535,28,0.144838580538076,1
916,536,28,0.230546594717441,2
916,537,28,0.217264204954436,1
916,538,28,0.134950391669788,1
916,539,28,0.120423976087596,1
916,540,28,0.151939238744768,1
916,541,28,0.149123996497131,1
916,542,28,0.120197076583952,1
916,543,28,0.106294857941621,1
917,540,28,0.100997500696487,1
917,541,28,0.105124185039262,1
918,549,28,0.118568933760588,1
918,550,28,0.146681030650671,1
919,550,28,0.114662526026679,1
919,551,28,0.110731979584173,1
925,561,28,0.100496459099314,1
926,561,28,0.10348363518111,1
926,562,28,0.113940216565007,1
927,556,28,0.10537594218416,1
927,557,28,0.102350564635284,1
927,562,28,0.109103771403295,1
927,563,28,0.132591737016714,1
928,556,28,0.103728584251606,1
928,557,28,0.100053520332311,1
928,562,28,0.105742434445327,1
928,563,28,0.144313879520744,1
929,562,28,0.101889500050995,1
929,563,28,0.134791453088047,1
929,564,28,0.157155639815582,1
930,563,28,0.129441722688159,1
930,564,28,0.139599097371812,1
931,563,28,0.137698794966184,1
932,562,28,0.109923844813369,1
935,566,28,0.161625930396618,1
936,563,28,0.106010563647545,1
936,564,28,0.137507689594512,1
936,565,28,0.154332467522882,1
936,566,28,0.14858335913924,1
937,526,28,0.0998077869716429,1
937,564,28,0.110753100954196,1
937,565,28,0.120993991648143,1
937,566,28,0.123315022158847,1
938,524,28,0.106027316957031,1
938,525,28,0.114352546229502,1
938,526,28,0.11357121893246,1
939,524,28,0.113213931187884,1
939,525,28,0.122756171840318,1
939,526,28,0.120893755007119,1
940,524,28,0.102760181962938,1
940,525,28,0.108437985298531,1
940,526,28,0.108688566008173,1
942,564,28,0.100140249753723,1
942,565,28,0.123911670906451,1
944,565,28,0.108301878275102,1
945,562,28,0.122957723521351,1
945,563,28,0.124205779720584,1
945,564,28,0.114015704493967,1
946,562,28,0.130411203375813,1
946,563,28,0.146345539637098,1
946,564,28,0.145597076276806,1
947,562,28,0.135715837090867,1
947,563,28,0.171846189901899,1
947,564,28,0.176708734497635,1
948,562,28,0.148767591078997,1
948,563,28,0.186982674307956,1
949,561,28,0.106718036953482,1
949,562,28,0.141553940623082,1
949,563,28,0.164516301106888,1
950,530,28,0.107698007522173,1
950,561,28,0.106370955874048,1
950,562,28,0.122702927252041,1
950,563,28,0.135269695805665,1
951,530,28,0.10830053844606,1
951,562,28,0.106085496037634,1
951,563,28,0.119350097663844,1
952,530,28,0.104406831855754,1
952,531,28,0.103110661633113,1
952,562,28,0.102336414733449,1
953,531,28,0.110658800954049,1
954,561,28,0.103972019206356,1
955,560,28,0.110780039142986,1
956,558,28,0.108955170201725,1
956,559,28,0.120376657247278,1
957,557,28,0.110143478740012,1
958,533,28,0.117855066311173,1
958,556,28,0.115949687805272,1
959,533,28,0.14391459957326,1
959,534,28,0.143089264883289,1
959,555,28,0.111677081919011,1
960,533,28,0.129187002669282,1
960,534,28,0.155941863632575,1
960,535,28,0.13337562414973,1
960,554,28,0.101448957726181,1
960,555,28,0.122659170396249,1
961,533,28,0.110858152265436,1
961,534,28,0.130448718588993,1
961,535,28,0.134434927847804,1
961,536,28,0.132849615982113,1
961,537,28,0.127084614829588,1
961,538,28,0.108929179696891,1
961,547,28,0.10187330228038,1
961,554,28,0.103924025005057,1
961,555,28,0.123339487655015,1
962,534,28,0.111144941037973,1
962,535,28,0.115815966331113,1
962,536,28,0.131261406599957,1
962,537,28,0.1456719542023,1
962,538,28,0.141557774930585,1
962,539,28,0.107443080537834,1
962,544,28,0.102314378358227,1
962,545,28,0.136696526592215,1
962,546,28,0.164775672402196,1
962,547,28,0.153409238169481,1
962,548,28,0.117403925176131,1
962,554,28,0.108510619282703,1
963,535,28,0.12140266129184,1
963,536,28,0.122917452399653,1
963,537,28,0.134393654577554,1
963,538,28,0.142847932261915,1
963,539,28,0.12499956851701,1
963,540,28,0.116466404312947,1
963,541,28,0.124034619283677,1
963,542,28,0.131549023234341,1
963,543,28,0.122943268617782,1
963,544,28,0.134998276941897,1
963,545,28,0.177868950197714,1
963,548,28,0.152302060092218,1
963,549,28,0.118701064868567,1
963,550,28,0.10250183460202,1
963,551,28,0.106146224061293,1
963,552,28,0.111568130942753,1
963,553,28,0.111766392962236,1
964,537,28,0.116519256756138,1
964,538,28,0.121178169123304,1
964,539,28,0.11187606287115,1
964,540,28,0.110974488640804,1
964,541,28,0.125305310968679,1
964,542,28,0.13922731115199,1
964,543,28,0.135050933312546,1
964,544,28,0.150113334976198,1
964,550,28,0.142466985097179,1
964,551,28,0.148464234176597,1
964,552,28,0.148160408878679,1
965,540,28,0.112839530667493,1
965,541,28,0.109307153094728,1
965,542,28,0.109338840596221,1
965,543,28,0.120797341780678,1
965,544,28,0.158403009760915,1
965,551,28,0.183132942431822,1
911,529,29,0.15787687087827,1
911,532,29,0.143772000370082,1
911,533,29,0.125393107896158,1
911,545,29,0.120083441652506,1
911,546,29,0.133800883709128,1
912,528,29,0.194343782208941,1
912,529,29,0.251038833307615,1
912,530,29,0.178237926044422,1
912,531,29,0.157780141757177,1
912,532,29,0.227873428812868,1
912,533,29,0.208083522070843,1
912,534,29,0.141637979493491,1
912,535,29,0.107192053218512,1
912,544,29,0.119734040381316,1
912,545,29,0.139193706496746,1
912,546,29,0.158726148204295,1
912,547,29,0.135210155110182,1
913,527,29,0.127623923251356,1
913,528,29,0.170299907365136,1
913,529,29,0.201071728297694,1
913,530,29,0.150612709956757,1
913,531,29,0.16507362641675,1
913,532,29,0.282911100493469,1
913,533,29,0.288746807583495,1
913,534,29,0.210087492386992,1
913,535,29,0.166155641851027,1
913,536,29,0.146521776174278,1
913,537,29,0.120701091948023,1
913,538,29,0.105839490353991,1
913,539,29,0.109568343507516,1
913,540,29,0.116604864206889,1
913,541,29,0.120620723991332,1
913,542,29,0.124611628098249,1
913,543,29,0.122905600903735,1
913,545,29,0.129881197506907,1
913,546,29,0.135157683919157,1
913,547,29,0.119280971199604,1
914,526,29,0.109756769221104,1
914,527,29,0.13182202157137,1
914,528,29,0.14024697551767,1
914,529,29,0.133139857809986,1
914,530,29,0.106647766732742,1
914,531,29,0.114952234101519,1
914,532,29,0.185732276131129,1
914,533,29,0.219947849847127,1
914,534,29,0.215382474975775,1
914,535,29,0.234264239057272,1
914,536,29,0.264981137892021,1
914,537,29,0.215854988017977,1
914,538,29,0.138525480378117,1
914,539,29,0.127138088169165,1
914,540,29,0.139383570075647,1
914,541,29,0.131411881383603,1
914,542,29,0.126702937839277,1
914,543,29,0.126033164926144,1
914,544,29,0.123348801100796,1
914,545,29,0.119024432063247,1
914,546,29,0.114528815445439,1
915,527,29,0.107456664007879,1
915,528,29,0.112418148987274,1
915,533,29,0.108417038215214,1
915,534,29,0.136187413342031,1
915,535,29,0.209732818942986,1
915,536,29,0.319978483986329,2
915,537,29,0.289687084355197,1
915,538,29,0.165483951784142,1
915,539,29,0.13658583274891,1
915,540,29,0.162461929254331,1
915,541,29,0.148524515590575,1
915,542,29,0.129276226569155,1
915,543,29,0.125085644363279,1
915,544,29,0.117003425221716,1
915,545,29,0.109152016141732,1
915,546,29,0.105516689591101,1
915,547,29,0.10299937957218,1
916,535,29,0.115299217144682,1
916,536,29,0.185254033413511,1
916,537,29,0.1862372065004,1
916,538,29,0.125729906060016,1
916,539,29,0.116013411381668,1
916,540,29,0.14828216992773,1
916,541,29,0.147593563157573,1
916,542,29,0.128729314889896,1
916,543,29,0.122272395519826,1
916,544,29,0.111593870910449,1
916,545,29,0.102010923419556,1
916,546,29,0.101310683011862,1
916,547,29,0.104064837769513,1
916,548,29,0.107585418310955,1
916,549,29,0.10884447635842,1
917,541,29,0.105042215823472,1
917,542,29,0.106566342162904,1
917,543,29,0.11147482219824,1
917,544,29,0.109371236137451,1
917,545,29,0.103783299383954,1
917,546,29,0.102943139431167,1
917,547,29,0.105684484116024,1
917,548,29,0.116098049362624,1
917,549,29,0.134799274203919,1
917,550,29,0.150990127815723,1
917,551,29,0.145429630325293,1
918,548,29,0.104087680220744,1
918,549,29,0.133197666531342,1
918,550,29,0.170152210275846,1
918,551,29,0.167199739034118,1
918,552,29,0.131065050841307,1
919,549,29,0.099722647916411,1
919,550,29,0.119580330400715,1
919,551,29,0.117467420001227,1
926,561,29,0.100599506113451,1
926,562,29,0.115250754547864,1
927,562,29,0.107857741287004,1
927,563,29,0.129066581449273,1
928,562,29,0.101461299403455,1
928,563,29,0.135214076561037,1
929,563,29,0.129518615803676,1
929,564,29,0.156990927986749,1
930,563,29,0.12027282594297,1
930,564,29,0.142155959579774,1
931,563,29,0.120324425700471,1
931,564,29,0.146321237534715,1
932,563,29,0.148020336832718,1
935,563,29,0.113392901847743,1
935,566,29,0.170600541037775,1
936,564,29,0.130542691801568,1
936,565,29,0.160533043829138,1
936,566,29,0.151341903743264,1
937,526,29,0.100736048853642,1
937,564,29,0.108911032093767,1
937,565,29,0.127998759488509,1
937,566,29,0.127013407817811,1
938,524,29,0.10422392885212,1
938,525,29,0.109707936265038,1
938,526,29,0.111074311350905,1
938,565,29,0.104801765528539,1
939,524,29,0.108716277594215,1
939,525,29,0.116369010723793,1
939,526,29,0.116900334635902,1
939,527,29,0.101686140145401,1
940,524,29,0.101180283878011,1
940,525,29,0.106977081461219,1
940,526,29,0.108113267381891,1
941,565,29,0.123126367693959,1
942,564,29,0.100521055310511,1
942,565,29,0.131868370941894,1
942,566,29,0.160457381613472,1
943,565,29,0.121998416820083,1
944,563,29,0.103153950093386,1
944,564,29,0.104340537550465,1
944,565,29,0.121641096396749,1
945,562,29,0.121564464711289,1
945,563,29,0.12987343085563,1
945,564,29,0.123366687273863,1
946,562,29,0.131715695788602,1
946,563,29,0.152734846658674,1
946,564,29,0.152338997980689,1
947,562,29,0.139702667246063,1
947,563,29,0.183364721963197,1
947,564,29,0.18534716787132,1
948,562,29,0.153192893904389,1
948,563,29,0.201506595411687,1
949,561,29,0.100858877408759,1
949,562,29,0.14582590382712,1
949,563,29,0.177495497361279,1
950,561,29,0.102544774488883,1
950,562,29,0.127722057559005,1
950,563,29,0.147242048660089,1
951,562,29,0.111033560940769,1
954,561,29,0.114177747557636,1
955,559,29,0.100769991189376,1
955,560,29,0.116677988372418,1
956,558,29,0.114275359005171,1
957,532,29,0.10543552645132,1
957,533,29,0.107306831906457,1
957,556,29,0.104945388666108,1
958,532,29,0.115241713425059,1
958,533,29,0.147653430640628,1
958,534,29,0.111124113776765,1
958,555,29,0.100807865868885,1
959,532,29,0.107153666571808,1
959,533,29,0.168836225833467,1
959,534,29,0.163281338196343,1
959,555,29,0.114501234574425,1
960,533,29,0.137996498443601,1
960,534,29,0.165500378306057,1
960,535,29,0.129311650341879,1
960,554,29,0.100026081069244,1
961,533,29,0.106270860840971,1
961,534,29,0.124580343634761,1
961,535,29,0.124490553303098,1
961,536,29,0.118135232188932,1
961,537,29,0.109769328756759,1
961,546,29,0.0999720412978767,1
961,547,29,0.100698740605923,1
961,554,29,0.109073859447606,1
962,534,29,0.102480440909021,1
962,535,29,0.105308776445347,1
962,536,29,0.11917652989183,1
962,537,29,0.132716319331796,1
962,538,29,0.131496377756611,1
962,539,29,0.103731939270671,1
962,544,29,0.104708358747755,1
962,545,29,0.137644885909846,1
962,546,29,0.166986836931442,1
962,547,29,0.153809574730111,1
962,548,29,0.11603078558754,1
962,554,29,0.118177649215682,1
962,555,29,0.140520300642271,1
963,535,29,0.113202918446733,1
963,536,29,0.112992750466737,1
963,537,29,0.122760670615882,1
963,538,29,0.136604688391772,1
963,539,29,0.127973978097688,1
963,540,29,0.122967341968865,1
963,541,29,0.126629595815368,1
963,542,29,0.138657350056039,1
963,543,29,0.133589517508038,1
963,544,29,0.136355393046578,1
963,545,29,0.17115454400733,1
963,547,29,0.186181173324848,1
963,548,29,0.149013041223769,1
963,549,29,0.116329371391399,1
963,551,29,0.101320279673538,1
963,552,29,0.111816217173934,1
963,553,29,0.119556071870009,1
963,554,29,0.129672097032978,1
964,537,29,0.102967975286582,1
964,538,29,0.109724842075392,1
964,539,29,0.10822288282621,1
964,540,29,0.113660834977418,1
964,541,29,0.127209110001319,1
964,542,29,0.143759342798155,1
964,543,29,0.137353674612178,1
964,544,29,0.142401638475846,1
964,550,29,0.135626580512237,1
964,551,29,0.145422865822567,1
964,553,29,0.15337025241223,1
965,540,29,0.1037857285049,1
965,541,29,0.102467020832762,1
965,542,29,0.104569702781269,1
965,543,29,0.113150861186631,1
910,546,30,0.116615354087927,1
911,531,30,0.106211352824245,1
911,532,30,0.122461649095261,1
911,533,30,0.106773579947677,1
911,545,30,0.121097300092337,1
911,546,30,0.134299038682755,1
911,547,30,0.122825407233748,1
912,528,30,0.156198468126446,1
912,529,30,0.197817359804718,1
912,530,30,0.144399149291004,1
912,531,30,0.129408586428434,1
912,532,30,0.180241438857972,1
912,533,30,0.167684049107642,1
912,534,30,0.122323134736724,1
912,535,30,0.103491499868658,1
912,540,30,0.101097617515402,1
912,541,30,0.111440651111205,1
912,542,30,0.120937446505396,1
912,544,30,0.12114239677717,1
912,545,30,0.140504560374256,1
912,546,30,0.159624302058062,1
912,547,30,0.133527024831494,1
912,548,30,0.114214979554921,1
913,527,30,0.111923610462768,1
913,528,30,0.145256117017873,1
913,529,30,0.167591470188704,1
913,530,30,0.126154196149619,1
913,531,30,0.12767981481896,1
913,532,30,0.210595385630243,1
913,533,30,0.224163518445557,1
913,534,30,0.169033540168994,1
913,535,30,0.142971784751422,1
913,536,30,0.133948395618795,1
913,537,30,0.11529457676117,1
913,538,30,0.104399163240748,1
913,539,30,0.106627516796243,1
913,540,30,0.117636979179034,1
913,541,30,0.128458451564999,1
913,542,30,0.135426379553165,1
913,543,30,0.131745629530129,1
913,544,30,0.130226056430857,1
913,545,30,0.135765704874241,1
913,546,30,0.139733450635275,1
913,547,30,0.122254552918435,1
914,527,30,0.110326022277317,1
914,528,30,0.119968096532771,1
914,529,30,0.114397991487745,1
914,532,30,0.134590413374209,1
914,533,30,0.16425908660955,1
914,534,30,0.166520053564656,1
914,535,30,0.188312612579627,1
914,536,30,0.219623349788867,1
914,537,30,0.185926148304238,1
914,538,30,0.12921102155577,1
914,539,30,0.121472114543651,1
914,540,30,0.138229846555318,1
914,541,30,0.139483327428234,1
914,542,30,0.138633538135013,1
914,543,30,0.136929025056246,1
914,544,30,0.135441629639824,1
914,545,30,0.132506325638505,1
914,546,30,0.126292634257724,1
914,547,30,0.115593696318062,1
914,548,30,0.110756967940455,1
915,534,30,0.108981977675487,1
915,535,30,0.160591037730117,1
915,536,30,0.24133276315279,1
915,537,30,0.228826493871525,1
915,538,30,0.146290672003883,1
915,539,30,0.127088253064548,1
915,540,30,0.1529878782751,1
915,541,30,0.149300113212201,1
915,542,30,0.137844204542476,1
915,543,30,0.135952311470349,1
915,544,30,0.131957191803762,1
915,545,30,0.126094197951536,1
915,546,30,0.121234638015618,1
915,547,30,0.115524951105988,1
915,548,30,0.112914593772611,1
915,549,30,0.10791987449722,1
916,536,30,0.131753603146868,1
916,537,30,0.138788980089742,1
916,538,30,0.106988420989942,1
916,539,30,0.10258221345163,1
916,540,30,0.129332423138492,1
916,541,30,0.13621676975885,1
916,542,30,0.12893654178175,1
916,543,30,0.130002217837463,1
916,544,30,0.126680313246427,1
916,545,30,0.119111183270497,1
916,546,30,0.11653072699989,1
916,547,30,0.117071092034804,1
916,548,30,0.120096731013737,1
916,549,30,0.12035514373217,1
916,550,30,0.115564862761358,1
916,551,30,0.110940415590041,1
917,542,30,0.10243463618445,1
917,543,30,0.113669015559619,1
917,544,30,0.119021392938834,1
917,545,30,0.115229970858332,1
917,546,30,0.111317746305655,1
917,547,30,0.112158189474337,1
917,548,30,0.121809762355195,1
917,549,30,0.139709769429278,1
917,550,30,0.15471009234731,1
917,551,30,0.145675690473531,1
917,552,30,0.134588158539967,1
918,544,30,0.102029005665165,1
918,545,30,0.103849147079563,1
918,548,30,0.102095038540398,1
918,549,30,0.127805704284328,1
918,550,30,0.161322246706647,1
918,551,30,0.154613526620003,1
918,552,30,0.123292223279292,1
918,553,30,0.108118561340545,1
918,554,30,0.107464419766237,1
918,555,30,0.107767983634099,1
919,550,30,0.112657324810678,1
919,551,30,0.110166898515952,1
922,561,30,0.123645600465932,1
923,561,30,0.112144377252992,1
925,562,30,0.117901884077215,1
926,562,30,0.114814841713643,1
926,563,30,0.139325826711806,1
927,562,30,0.110013188535351,1
927,563,30,0.140299315993667,1
928,563,30,0.133980649552078,1
929,563,30,0.126560229706908,1
930,524,30,0.117601860408043,1
930,563,30,0.115448482814314,1
931,524,30,0.122525623208795,1
931,563,30,0.110736696218118,1
932,524,30,0.100295757065966,1
932,525,30,0.10126670829769,1
932,563,30,0.122696870789053,1
933,563,30,0.130205926316467,1
934,563,30,0.112393019023044,1
935,564,30,0.136478417674237,1
936,564,30,0.113443946066374,1
936,565,30,0.148963336834181,1
936,566,30,0.145002475397981,1
937,525,30,0.100501905558835,1
937,526,30,0.103451533748693,1
937,565,30,0.119857664119523,1
937,566,30,0.121546001213513,1
938,524,30,0.101328482041577,1
938,525,30,0.109385396932206,1
938,526,30,0.110956319251842,1
938,527,30,0.101068152169393,1
938,565,30,0.100195814533756,1
938,566,30,0.107828308619753,1
939,525,30,0.108564364945256,1
939,526,30,0.108604864818254,1
939,566,30,0.101327392749673,1
940,525,30,0.100823747744849,1
940,526,30,0.101390789538497,1
940,566,30,0.10888631606046,1
941,565,30,0.119754638891225,1
941,566,30,0.140681003876897,1
942,565,30,0.127451368520812,1
943,565,30,0.117056103378202,1
945,562,30,0.100024730347283,1
945,563,30,0.113357434503343,1
945,564,30,0.114606492851127,1
946,562,30,0.115640078367343,1
946,563,30,0.143156190977883,1
946,564,30,0.148628292430288,1
947,562,30,0.132329631598726,1
947,563,30,0.187317065136706,1
948,562,30,0.147628300676398,1
949,562,30,0.145186674658981,1
949,563,30,0.19184910767579,1
950,561,30,0.101976643403331,1
950,562,30,0.133090665387592,1
953,561,30,0.110682122693718,1
954,560,30,0.111189068253012,1
955,559,30,0.114647744335539,1
956,557,30,0.106631547176289,1
957,532,30,0.103248947240351,1
957,533,30,0.111930952290203,1
957,556,30,0.115318301538843,1
958,532,30,0.107650656003098,1
958,533,30,0.1401622721792,1
958,534,30,0.102169426284535,1
958,555,30,0.106164850952855,1
959,533,30,0.146704308818664,1
959,534,30,0.136167904124027,1
960,533,30,0.114280587606311,1
960,534,30,0.130850188013204,1
961,545,30,0.104255594567775,1
961,546,30,0.11615005215813,1
961,547,30,0.103531171879809,1
961,554,30,0.108907764218054,1
962,537,30,0.100531436262358,1
962,538,30,0.10182611415509,1
962,544,30,0.11390334403405,1
962,545,30,0.14755221363689,1
962,546,30,0.172097631152145,1
962,547,30,0.156777208915146,1
962,548,30,0.119120758146335,1
962,554,30,0.123387623464261,1
963,538,30,0.105786496302852,1
963,539,30,0.106276873732283,1
963,540,30,0.10490374503661,1
963,541,30,0.106290707739466,1
963,542,30,0.123264522586168,1
963,543,30,0.131066423349106,1
963,544,30,0.13333378444769,1
963,545,30,0.159976807811179,1
963,546,30,0.187246958309752,1
963,547,30,0.17957040236623,1
963,548,30,0.150818422732865,1
963,549,30,0.113324189314427,1
963,552,30,0.107112338836963,1
963,553,30,0.122418295277474,1
963,554,30,0.138817323465089,1
964,541,30,0.109029852054676,1
964,542,30,0.124116120103949,1
964,543,30,0.123862129910648,1
964,544,30,0.128830608144067,1
964,545,30,0.159269345398161,1
964,550,30,0.124127840884839,1
965,544,30,0.132453124621905,1
911,532,31,0.100501360912883,1
911,541,31,0.100972915378209,1
911,545,31,0.122158281299943,1
911,546,31,0.13200519689798,1
912,528,31,0.119540244458641,1
912,529,31,0.139024975180786,1
912,530,31,0.112431917636943,1
912,531,31,0.104775546272405,1
912,532,31,0.130659638180403,1
912,533,31,0.125751190823824,1
912,534,31,0.105505742207464,1
912,535,31,0.101610946325254,1
912,536,31,0.100512689548686,1
912,540,31,0.104174714643889,1
912,541,31,0.116792974025825,1
912,542,31,0.128062025562305,1
912,543,31,0.127527858598325,1
912,544,31,0.126678080198023,1
912,545,31,0.136833548620843,1
912,546,31,0.147601547667231,1
912,547,31,0.128310253401433,1
913,528,31,0.121122800415814,1
913,529,31,0.131959315922975,1
913,530,31,0.104683206997687,1
913,532,31,0.140923589183962,1
913,533,31,0.155447346893908,1
913,534,31,0.132014946060523,1
913,535,31,0.126047053397923,1
913,536,31,0.126653985061103,1
913,537,31,0.115480431745864,1
913,538,31,0.107139854350463,1
913,539,31,0.10543392519222,1
913,540,31,0.115988575526252,1
913,541,31,0.133432561437562,1
913,542,31,0.148729596577378,1
913,543,31,0.146570216985257,1
913,544,31,0.138538334022586,1
913,545,31,0.13515480818853,1
913,546,31,0.134840482116655,1
913,547,31,0.122704365117354,1
913,548,31,0.116706974429989,1
914,528,31,0.101617187967865,1
914,529,31,0.100297783148907,1
914,533,31,0.116627162012168,1
914,534,31,0.127274304121785,1
914,535,31,0.153106632878495,1
914,536,31,0.17840997970069,1
914,537,31,0.15819386571531,1
914,538,31,0.125299254505692,1
914,539,31,0.11876447255031,1
914,540,31,0.132516096586886,1
914,541,31,0.146876220866984,1
914,542,31,0.157654001754671,1
914,543,31,0.154062170629775,1
914,544,31,0.144367156787778,1
914,545,31,0.137120315607542,1
914,546,31,0.129787725368608,1
914,547,31,0.12208997180463,1
914,548,31,0.120237031810998,1
914,549,31,0.116797167799656,1
914,550,31,0.108649100962484,1
914,551,31,0.104420698541694,1
914,552,31,0.110354311188069,1
915,535,31,0.132253555452137,1
915,536,31,0.177646876257205,1
915,537,31,0.170014763423374,1
915,538,31,0.128890889558045,1
915,539,31,0.118964662616463,1
915,540,31,0.137986574994354,1
915,541,31,0.149061394891397,1
915,542,31,0.150659691116585,1
915,543,31,0.148408179215207,1
915,544,31,0.142747314368724,1
915,545,31,0.137635801215365,1
915,546,31,0.13012778051526,1
915,547,31,0.124359729345404,1
915,548,31,0.125167831437451,1
915,549,31,0.12267724174894,1
916,537,31,0.100227338641463,1
916,540,31,0.107505028568426,1
916,541,31,0.123692178587755,1
916,542,31,0.128743148897079,1
916,543,31,0.132966823791004,1
916,544,31,0.133217491643998,1
916,545,31,0.129803193313648,1
916,546,31,0.124773475089375,1
916,547,31,0.124646834012593,1
916,548,31,0.130650488128408,1
916,549,31,0.133942437192079,1
917,543,31,0.10904107176129,1
917,544,31,0.11659791452454,1
917,545,31,0.116240648565802,1
917,546,31,0.113052824915253,1
917,547,31,0.11459441260391,1
917,548,31,0.124693412134416,1
917,549,31,0.140307790684682,1
917,550,31,0.150146536593438,1
918,544,31,0.0998065451788722,1
918,545,31,0.103303466300156,1
918,548,31,0.101416649328302,1
918,549,31,0.120910954926286,1
918,550,31,0.143288855838895,1
918,551,31,0.135310173892825,1
918,552,31,0.113739460067063,1
918,553,31,0.100393237798472,1
918,554,31,0.1017504955111,1
918,555,31,0.1083889998416,1
919,550,31,0.107757994827337,1
919,551,31,0.103615690038655,1
922,560,31,0.102313343530918,1
923,561,31,0.118578214527612,1
925,562,31,0.109567646360697,1
926,562,31,0.110923466208012,1
927,562,31,0.106925187594903,1
929,524,31,0.107333639380219,1
930,523,31,0.112445882359154,1
930,524,31,0.157927599202248,1
930,525,31,0.107410281958599,1
930,563,31,0.114899479694599,1
931,524,31,0.144774649996218,1
931,525,31,0.114150449902517,1
931,563,31,0.105714897145989,1
932,524,31,0.103604328724095,1
932,525,31,0.104834749287398,1
932,563,31,0.107148143861854,1
933,525,31,0.100899213887971,1
933,563,31,0.103055064174323,1
935,564,31,0.118494088513851,1
936,564,31,0.101918507894404,1
936,565,31,0.138105002810178,1
936,566,31,0.138688623626608,1
936,567,31,0.124123527288898,1
937,565,31,0.115094680803831,1
937,566,31,0.120653108639644,1
937,567,31,0.115802099645173,1
938,525,31,0.102234021294454,1
938,526,31,0.103228773554285,1
938,565,31,0.0998571427878221,1
938,566,31,0.116430523037623,1
938,567,31,0.123887760949154,1
939,566,31,0.117638809189433,1
939,567,31,0.133212143220748,1
940,566,31,0.124430958143019,1
940,567,31,0.138594116661,1
941,565,31,0.111146694797939,1
941,566,31,0.147257080888367,1
942,565,31,0.118691065168887,1
942,566,31,0.165232390711787,1
943,565,31,0.111138644930767,1
943,566,31,0.1550872378833,1
944,565,31,0.11490469740282,1
945,564,31,0.110798687820386,1
945,565,31,0.132862436947825,1
946,562,31,0.101126919467624,1
946,563,31,0.135094287130333,1
947,562,31,0.125980061945815,1
949,562,31,0.140288847898468,1
950,561,31,0.102411423373971,1
950,562,31,0.132579667662415,1
951,561,31,0.101726531089208,1
951,562,31,0.127654477889269,1
952,561,31,0.107534178019782,1
953,560,31,0.103078821630753,1
953,561,31,0.117568157716527,1
954,559,31,0.10353377528746,1
955,558,31,0.108597642812929,1
956,557,31,0.117267676544754,1
957,533,31,0.106974009658049,1
957,556,31,0.122110733708324,1
958,533,31,0.119641308961512,1
958,555,31,0.10782560717583,1
959,533,31,0.113621805648491,1
959,534,31,0.102923063781372,1
961,545,31,0.132603741013498,1
961,546,31,0.137501328129792,1
961,547,31,0.108917426237244,1
961,554,31,0.110211799128243,1
962,544,31,0.120685199179141,1
962,545,31,0.157178994234008,1
962,546,31,0.173882838975175,1
962,547,31,0.157286899490038,1
962,548,31,0.121838617697737,1
962,554,31,0.129316552155448,1
963,542,31,0.103968021505068,1
963,543,31,0.119202923434668,1
963,544,31,0.126122737399426,1
963,545,31,0.14619826737165,1
963,546,31,0.169365229553821,1
963,547,31,0.178072233852875,1
963,548,31,0.154783151155324,1
963,549,31,0.109297512861375,1
963,553,31,0.121720266132346,1
963,554,31,0.153577501089922,1
964,542,31,0.0999917139096664,1
964,543,31,0.105435243235425,1
964,544,31,0.115717439878379,1
964,545,31,0.14297851657539,1
964,547,31,0.165526760955977,1
964,548,31,0.15423902806334,1
964,549,31,0.124289077872498,1
964,550,31,0.107815683726583,1
964,551,31,0.116191652215951,1
965,544,31,0.11837505069456,1
911,540,32,0.105147267134712,1
911,541,32,0.113092050316723,1
911,542,32,0.117717826424163,1
911,543,32,0.115264730162995,1
911,546,32,0.126208780566939,1
912,535,32,0.101048664737227,1
912,536,32,0.108307531700085,1
912,537,32,0.108410251926651,1
912,538,32,0.106142150109572,1
912,539,32,0.105389514761286,1
912,540,32,0.113526459928117,1
912,541,32,0.126151255061478,1
912,542,32,0.13871293662191,1
912,543,32,0.140077154909806,1
912,544,32,0.133767682091888,1
912,545,32,0.129807779232564,1
912,546,32,0.130305204380616,1
912,547,32,0.123203718312076,1
912,548,32,0.117364634417147,1
913,529,32,0.10202167473065,1
913,533,32,0.107683628869038,1
913,534,32,0.112929713144241,1
913,535,32,0.12912756001007,1
913,536,32,0.138064404900909,1
913,537,32,0.127066118653055,1
913,538,32,0.114402915087152,1
913,539,32,0.10908416414902,1
913,540,32,0.117951839003942,1
913,541,32,0.13955544944521,1
913,542,32,0.165298935554214,1
913,543,32,0.168003592887738,1
913,544,32,0.15112512376141,1
913,545,32,0.135355401292687,1
913,546,32,0.129583363314462,1
913,547,32,0.124339119942576,1
913,548,32,0.12142710500217,1
913,549,32,0.118768187035704,1
913,550,32,0.114428230231006,1
913,552,32,0.112674394014817,1
914,534,32,0.112678271893996,1
914,535,32,0.149187589358498,1
914,536,32,0.164442893725464,1
914,537,32,0.143142226255671,1
914,538,32,0.122578671724529,1
914,539,32,0.117365386028561,1
914,540,32,0.125924595202053,1
914,541,32,0.150043925296062,1
914,542,32,0.176674672339791,1
914,543,32,0.175642611832241,1
914,544,32,0.158307271895456,1
914,545,32,0.145064151105597,1
914,546,32,0.136684043306993,1
914,547,32,0.129293263094536,1
914,548,32,0.127502913813719,1
914,549,32,0.125304036497151,1
915,535,32,0.12013968179352,1
915,536,32,0.136825073929829,1
915,537,32,0.123840943183111,1
915,538,32,0.109182766852187,1
915,539,32,0.108202589318035,1
915,540,32,0.120394009667311,1
915,541,32,0.141904997617966,1
915,542,32,0.158462920815646,1
915,543,32,0.158132908940351,1
915,544,32,0.155672372815477,1
915,545,32,0.155422957648173,1
915,546,32,0.1462679711606,1
915,547,32,0.133759882761854,1
915,548,32,0.132578894265163,1
916,541,32,0.106905264445975,1
916,542,32,0.121232742647704,1
916,543,32,0.127356153515466,1
916,544,32,0.135254445719007,1
916,545,32,0.140916018605228,1
916,546,32,0.136266713792657,1
916,547,32,0.128750065900671,1
916,548,32,0.132444791538837,1
917,526,32,0.100761472926686,1
917,544,32,0.109211371657592,1
917,545,32,0.113825960737176,1
917,546,32,0.113223233740746,1
917,547,32,0.112419172921663,1
917,548,32,0.119160582658352,1
917,549,32,0.12850584665575,1
918,525,32,0.110890351734124,1
918,549,32,0.106249641434678,1
918,550,32,0.117877821619052,1
918,552,32,0.101946361088394,1
918,555,32,0.101152136575207,1
919,525,32,0.112235572771211,1
922,560,32,0.107491488670056,1
925,562,32,0.100157602173756,1
926,562,32,0.101043730244901,1
929,523,32,0.115471216336354,1
929,524,32,0.134355747219288,1
930,523,32,0.130610620044714,1
930,524,32,0.178333358908148,1
930,525,32,0.122538378816993,1
930,563,32,0.107102774854044,1
931,523,32,0.100619538191569,1
931,524,32,0.146121036575643,1
931,525,32,0.116888548497499,1
934,564,32,0.120474127086865,1
935,564,32,0.106241972819672,1
935,565,32,0.154004427265934,1
936,565,32,0.134186503936133,1
937,565,32,0.116747049479144,1
937,567,32,0.131918456583649,1
938,565,32,0.101398904763183,1
938,566,32,0.130207985078166,1
938,567,32,0.142281315292109,1
939,566,32,0.131281002961313,1
939,567,32,0.153503886743036,1
940,566,32,0.137883212085565,1
940,567,32,0.16193630233888,1
941,565,32,0.101712936726244,1
941,566,32,0.148821848708745,1
941,567,32,0.169171455416984,1
942,565,32,0.109107518567446,1
942,566,32,0.158267469169276,1
942,567,32,0.177735925870373,1
943,565,32,0.10933111751662,1
943,566,32,0.149570715107041,1
943,567,32,0.167938714661924,1
944,565,32,0.118404701220192,1
944,566,32,0.149846447566751,1
945,564,32,0.107701427898752,1
945,565,32,0.138102508331718,1
945,566,32,0.158934910997734,1
946,563,32,0.116967946984396,1
947,562,32,0.111444964707146,1
948,562,32,0.130233855760891,1
949,562,32,0.130519446312333,1
950,561,32,0.101350355023013,1
950,562,32,0.127326579240267,1
951,561,32,0.104217698102428,1
953,560,32,0.112097940739116,1
955,557,32,0.101027891940614,1
956,556,32,0.100586282109734,1
958,555,32,0.109282186524283,1
961,545,32,0.14245434931109,1
961,546,32,0.140471587508316,1
961,547,32,0.104090414343423,1
961,554,32,0.107872337798521,1
962,544,32,0.108632031758345,1
962,545,32,0.145300059053288,1
962,546,32,0.154389938563748,1
962,547,32,0.140327397938957,1
962,548,32,0.113134434664716,1
962,554,32,0.131007656050874,1
963,544,32,0.105407030575106,1
963,545,32,0.122338613574682,1
963,546,32,0.142424284854535,1
963,547,32,0.161156445585909,1
963,548,32,0.145073410086782,1
963,549,32,0.102004354989373,1
963,553,32,0.121682064665266,1
964,545,32,0.12015434366255,1
964,546,32,0.138545218347421,1
964,547,32,0.150601185248411,1
964,548,32,0.142762183203216,1
964,549,32,0.112758955745339,1
964,550,32,0.0997895086534905,1
964,551,32,0.106037262192117,1
964,552,32,0.129944474473622,1
965,545,32,0.138770026410609,1
910,538,33,0.102380890521897,1
910,539,33,0.107577869518059,1
911,537,33,0.107241114925877,1
911,538,33,0.120641583931297,1
911,539,33,0.125900478279294,1
911,540,33,0.126944913142875,1
911,541,33,0.129887689686656,1
911,542,33,0.133682804466713,1
911,543,33,0.12647209509894,1
911,544,33,0.117217514652566,1
912,536,33,0.11597700724623,1
912,537,33,0.124889855036419,1
912,538,33,0.125510653385539,1
912,539,33,0.124104083428408,1
912,540,33,0.128760806318846,1
912,541,33,0.138931415899135,1
912,542,33,0.152396305627769,1
912,543,33,0.153038802671621,1
912,544,33,0.139418340273229,1
912,545,33,0.126180284690725,1
912,546,33,0.123198053994174,1
912,547,33,0.123085355853766,1
912,548,33,0.123230514892919,1
912,549,33,0.120511969087617,1
912,550,33,0.115566213483319,1
912,552,33,0.108260648576528,1
913,534,33,0.109721214733351,1
913,535,33,0.150680202483141,1
913,536,33,0.164324030192878,1
913,537,33,0.146784437131136,1
913,538,33,0.127588238048574,1
913,539,33,0.117094490024906,1
913,540,33,0.122180197853055,1
913,541,33,0.146688263548915,1
913,542,33,0.179920500784238,1
913,543,33,0.187426364686373,1
913,544,33,0.163034210542038,1
913,545,33,0.139912639153515,1
913,546,33,0.132702964613051,1
913,547,33,0.132097449029346,1
913,548,33,0.132370588974324,1
913,549,33,0.12749562645088,1
914,534,33,0.119751087799617,1
914,535,33,0.17154476104617,1
914,536,33,0.174656911588134,1
914,537,33,0.140674707769691,1
914,538,33,0.119963488828016,1
914,539,33,0.113785787651749,1
914,540,33,0.118950305749166,1
914,541,33,0.14903361794784,1
914,542,33,0.189445999020105,1
914,543,33,0.197397198131432,1
914,544,33,0.173822034701082,1
914,545,33,0.156928478881881,1
914,546,33,0.147960338634635,1
914,547,33,0.143120494882182,1
914,548,33,0.142135371962785,1
915,535,33,0.117435274997134,1
915,536,33,0.11546717506339,1
915,540,33,0.101558584063419,1
915,541,33,0.127763494223041,1
915,542,33,0.158539356428564,1
915,543,33,0.167830961906761,1
915,544,33,0.16450922070951,1
915,545,33,0.16667907928975,1
915,546,33,0.156389497247685,1
915,547,33,0.144214187525672,1
916,542,33,0.111292311339692,1
916,543,33,0.123635306657437,1
916,544,33,0.133709840691776,1
916,545,33,0.144543349753281,1
916,546,33,0.14175838982058,1
916,547,33,0.135447555387782,1
917,544,33,0.101903246914826,1
917,545,33,0.109064807431882,1
917,546,33,0.112228274515453,1
917,547,33,0.11406582281448,1
917,548,33,0.116836088199393,1
918,525,33,0.114734855009118,1
918,556,33,0.100521763350248,1
919,524,33,0.103401480785695,1
919,525,33,0.123376632508948,1
922,560,33,0.10752441796432,1
923,561,33,0.125455208427616,1
924,562,33,0.106742600485922,1
928,523,33,0.106764691325739,1
928,524,33,0.128703182777114,1
928,525,33,0.0997293361687027,1
929,523,33,0.131082621119721,1
929,524,33,0.158064719267148,1
929,525,33,0.119296831289729,1
930,523,33,0.131122794205148,1
930,524,33,0.165402135069218,1
930,525,33,0.124098843934349,1
931,524,33,0.12528233780242,1
931,525,33,0.105401714830613,1
934,564,33,0.110325031021685,1
935,564,33,0.100208929608282,1
937,526,33,0.105267012993741,1
938,565,33,0.102565601750091,1
939,566,33,0.133861633518625,1
939,567,33,0.159530568489706,1
940,566,33,0.13867166335166,1
940,567,33,0.16694501901524,1
941,566,33,0.142212820617173,1
941,567,33,0.165516020537802,1
942,565,33,0.103472589761201,1
942,566,33,0.14693811443298,1
942,567,33,0.164373745475385,1
943,565,33,0.110799079965472,1
943,566,33,0.147614673634677,1
944,565,33,0.122000551832215,1
944,566,33,0.152764410040954,1
945,564,33,0.101370659424107,1
945,565,33,0.138250042027222,1
946,564,33,0.130586274370655,1
946,565,33,0.160962017873929,1
947,562,33,0.0998850177676504,1
947,563,33,0.137270387353183,1
948,562,33,0.124162948762911,1
948,563,33,0.161990832291604,1
949,562,33,0.12853450592575,1
950,561,33,0.106007709702756,1
950,562,33,0.127382993667986,1
951,560,33,0.103532152242523,1
951,561,33,0.110194588316157,1
952,560,33,0.112288261820617,1
953,559,33,0.108444466585361,1
954,558,33,0.106680260310245,1
955,557,33,0.112851229662544,1
956,556,33,0.11120841407723,1
958,555,33,0.111352287751937,1
960,546,33,0.104236390351504,1
961,545,33,0.129364775108047,1
961,546,33,0.133167928862357,1
961,547,33,0.103379466196311,1
961,554,33,0.104695570460799,1
962,545,33,0.122471518079913,1
962,546,33,0.131031250113519,1
962,547,33,0.122226558116498,1
962,548,33,0.102394572028214,1
962,554,33,0.125945585857047,1
963,545,33,0.103436828307986,1
963,546,33,0.119325087521724,1
963,547,33,0.136246420284482,1
963,548,33,0.12444539126075,1
963,553,33,0.115360827494783,1
964,545,33,0.100404958579361,1
964,546,33,0.117093694841816,1
964,547,33,0.13284396255713,1
964,548,33,0.128480585976492,1
964,549,33,0.10259210422212,1
964,552,33,0.113606032701718,1
965,548,33,0.13468771982001,1
910,537,34,0.106416793277377,1
910,538,34,0.136402123669268,1
910,539,34,0.136516826106779,1
910,540,34,0.120949406930504,1
911,537,34,0.129891099170316,1
911,538,34,0.162928429405222,1
911,539,34,0.161354108494844,1
911,540,34,0.147174414525758,1
911,541,34,0.143841442728975,1
911,542,34,0.149970060412039,1
911,543,34,0.134609715626751,1
911,544,34,0.114803327898215,1
911,545,34,0.107488395081049,1
912,536,34,0.11470208910864,1
912,537,34,0.137428138606749,1
912,538,34,0.14704420057153,1
912,539,34,0.139758362741124,1
912,540,34,0.136719107613389,1
912,541,34,0.145475271656078,1
912,542,34,0.160580754814541,1
912,543,34,0.155426584990214,1
912,544,34,0.137646966457383,1
912,545,34,0.123698670767504,1
912,546,34,0.119713779551898,1
912,547,34,0.120219363496312,1
912,548,34,0.12215103750878,1
912,549,34,0.121055253424835,1
912,553,34,0.103278946339392,1
913,534,34,0.105356509216589,1
913,535,34,0.156745978916252,1
913,536,34,0.170436559034517,1
913,537,34,0.153927403435388,1
913,538,34,0.134427084946093,1
913,539,34,0.117862070458117,1
913,540,34,0.11778676770878,1
913,541,34,0.141015427384405,1
913,542,34,0.174472581612106,1
913,543,34,0.183095252931937,1
913,544,34,0.16210515347695,1
913,545,34,0.139028744130775,1
913,546,34,0.130562124769139,1
913,547,34,0.130176733293435,1
913,548,34,0.131967049895495,1
914,534,34,0.123599033237028,1
914,535,34,0.175989202730319,1
914,536,34,0.168402861942302,1
914,537,34,0.130992710965949,1
914,538,34,0.110200633886225,1
914,539,34,0.100991313518471,1
914,540,34,0.10293707207526,1
914,541,34,0.131560134011764,1
914,542,34,0.17509857588361,1
914,543,34,0.189559503236522,1
914,544,34,0.169297279524837,1
914,545,34,0.149342693632736,1
914,546,34,0.140779258006656,1
914,547,34,0.139029680921812,1
915,535,34,0.104022322706492,1
915,541,34,0.103745304882336,1
915,542,34,0.137997184697501,1
915,543,34,0.151753198580451,1
915,544,34,0.146985520416651,1
915,545,34,0.145682356939985,1
915,546,34,0.140060869995838,1
915,547,34,0.136025283135011,1
916,543,34,0.103238893076075,1
916,544,34,0.109827627659472,1
916,545,34,0.117687097499546,1
916,546,34,0.121585498937959,1
916,547,34,0.124167229680094,1
916,548,34,0.130182386718417,1
917,547,34,0.102189316754706,1
917,548,34,0.108847112444828,1
917,549,34,0.108548439497617,1
917,553,34,0.100009273295162,1
917,554,34,0.103361950382492,1
919,525,34,0.109995738079046,1
922,560,34,0.10439323749279,1
923,561,34,0.109148563086396,1
925,563,34,0.108582545227137,1
927,524,34,0.104141872492977,1
928,523,34,0.112539539677077,1
928,524,34,0.159235490205778,1
928,525,34,0.126815178477086,1
928,563,34,0.104859704964924,1
929,523,34,0.124455521675459,1
929,524,34,0.16896831336977,1
929,525,34,0.138788293835842,1
930,523,34,0.108045066815769,1
930,524,34,0.131918641763273,1
930,525,34,0.10932440747849,1
934,564,34,0.109569922980777,1
940,566,34,0.135851769827592,1
940,567,34,0.163370779954597,1
941,566,34,0.135353963427374,1
941,567,34,0.156996951770979,1
942,565,34,0.102384191076367,1
942,566,34,0.137092342591442,1
942,567,34,0.153734838412564,1
943,565,34,0.110232408531071,1
943,566,34,0.142323764997615,1
944,565,34,0.118247995686855,1
944,566,34,0.147836486145128,1
945,565,34,0.129097963949033,1
946,564,34,0.115230123359199,1
947,563,34,0.118045790430679,1
947,564,34,0.141502776582342,1
948,562,34,0.121814762205035,1
948,563,34,0.144639022261227,1
949,561,34,0.109972819377382,1
949,562,34,0.135150156912099,1
950,560,34,0.104181805934185,1
950,561,34,0.116208558026305,1
951,560,34,0.11119136665893,1
952,559,34,0.102092206381447,1
953,559,34,0.106374724824037,1
954,558,34,0.105866123541048,1
955,557,34,0.118927136510364,1
956,556,34,0.120479791404767,1
957,555,34,0.103690164926145,1
958,555,34,0.112132297005774,1
960,546,34,0.102271482043039,1
961,545,34,0.10353388421665,1
961,546,34,0.116203187817217,1
961,554,34,0.102372851547644,1
962,545,34,0.0997218309474828,1
962,546,34,0.108613611832245,1
962,547,34,0.10152912961033,1
963,546,34,0.101285563940552,1
963,547,34,0.105737271201701,1
964,548,34,0.103449899810837,1
910,537,35,0.121496612718577,1
910,538,35,0.178545433148976,1
910,539,35,0.1698546048347,1
910,540,35,0.143038874239801,1
910,541,35,0.127296024602355,1
911,537,35,0.14395451122863,1
911,538,35,0.210745206838746,1
911,539,35,0.196161287536931,1
911,540,35,0.170818726206185,1
911,541,35,0.164398396151177,1
911,542,35,0.162076548671545,1
911,543,35,0.135659259269363,1
911,544,35,0.111737548512613,1
911,545,35,0.103260134268207,1
912,536,35,0.101571001991127,1
912,537,35,0.131832576809922,1
912,538,35,0.159477618010243,1
912,539,35,0.150634114542675,1
912,540,35,0.149618861809207,1
912,541,35,0.160006196906754,1
912,542,35,0.165867328069824,1
912,543,35,0.149665832076116,1
912,544,35,0.133049392117342,1
912,545,35,0.122752631641629,1
912,546,35,0.118284868217812,1
912,547,35,0.119158197109082,1
912,548,35,0.123125801262169,1
912,549,35,0.122787271124183,1
912,553,35,0.107474114464185,1
913,535,35,0.141464607794019,1
913,536,35,0.150043304399677,1
913,537,35,0.143139372310882,1
913,538,35,0.134339473198239,1
913,539,35,0.119007994648412,1
913,540,35,0.120080729315665,1
913,541,35,0.140522097973913,1
913,542,35,0.16334436462592,1
913,543,35,0.166896556418423,1
913,544,35,0.156111139594487,1
913,545,35,0.138596317030647,1
913,546,35,0.129277849614092,1
913,547,35,0.129857668801777,1
913,548,35,0.13358255693277,1
913,554,35,0.125159138888055,1
914,534,35,0.116363444442162,1
914,535,35,0.155824481536979,1
914,536,35,0.142000169051636,1
914,537,35,0.114762479451808,1
914,541,35,0.115584927518233,1
914,542,35,0.153137154837651,1
914,543,35,0.169251028190585,1
914,544,35,0.156506748628253,1
914,545,35,0.136481598406598,1
914,546,35,0.129667543792818,1
914,547,35,0.135183859603615,1
915,542,35,0.115325621580439,1
915,543,35,0.130386302162883,1
915,544,35,0.124597325695547,1
915,545,35,0.117182439453251,1
915,546,35,0.119190559971556,1
915,547,35,0.13062260225566,1
916,546,35,0.100541032924033,1
916,547,35,0.11684703558303,1
916,548,35,0.133493812321335,1
916,554,35,0.124064335166824,1
917,548,35,0.109020625752248,1
917,549,35,0.112546042749745,1
922,560,35,0.117691966634358,1
924,564,35,0.113877832817653,1
924,566,35,0.126240228424213,1
925,564,35,0.112563874458217,1
925,565,35,0.124691081049741,1
925,566,35,0.127793220999106,1
927,524,35,0.104418465493291,1
928,523,35,0.115496400765179,1
928,524,35,0.187637818030815,1
928,525,35,0.144350915445486,1
929,523,35,0.113890566640013,1
929,524,35,0.181732091257188,1
929,525,35,0.148961648431729,1
930,524,35,0.103725664949303,1
939,565,35,0.106393079392622,1
940,565,35,0.101973005168371,1
940,566,35,0.137425753057479,1
941,565,35,0.101380898768007,1
941,566,35,0.137200226061634,1
941,567,35,0.160095976345498,1
942,565,35,0.102351544997998,1
942,566,35,0.135281961232507,1
943,565,35,0.105458935334341,1
943,566,35,0.136203752720594,1
944,565,35,0.108813279038284,1
944,566,35,0.137093377418751,1
945,565,35,0.11498655768942,1
946,564,35,0.103842066682185,1
947,563,35,0.10877921688044,1
948,561,35,0.104251400793944,1
948,562,35,0.124196760383617,1
949,560,35,0.104159878488154,1
949,561,35,0.127239653746313,1
950,560,35,0.114779091153347,1
954,557,35,0.101813707120301,1
955,556,35,0.12219628669448,1
955,557,35,0.131970426700398,1
956,555,35,0.10501369816142,1
956,556,35,0.13527806156749,1
957,555,35,0.108342552434805,1
958,555,35,0.112696256103334,1
961,546,35,0.100850043251416,1
909,538,36,0.113690126036722,1
909,539,36,0.110662537225281,1
910,537,36,0.129414904321478,1
910,538,36,0.205930166262952,1
910,539,36,0.186844203521094,1
910,540,36,0.161372909673111,1
910,541,36,0.14444512830228,1
910,542,36,0.125619146859197,1
911,537,36,0.150036365610247,1
911,538,36,0.243260308748942,1
911,539,36,0.218249534839295,1
911,540,36,0.197252823382449,1
911,541,36,0.19648101649665,1
911,542,36,0.174143789743744,1
911,543,36,0.136073985376048,1
911,544,36,0.112388694534184,1
911,545,36,0.10381506313588,1
911,546,36,0.10279198928654,1
911,547,36,0.11197907720653,1
912,537,36,0.124210420104096,1
912,538,36,0.167475645780531,1
912,539,36,0.165368606664407,1
912,540,36,0.178143702294709,1
912,541,36,0.193467011155254,1
912,542,36,0.176102271229974,1
912,543,36,0.147280522450145,1
912,544,36,0.134672393482918,1
912,545,36,0.128906934827794,1
912,546,36,0.122335498199836,1
912,547,36,0.120810652927747,1
912,548,36,0.121894160691932,1
912,549,36,0.119290328217061,1
912,553,36,0.106973835371344,1
912,554,36,0.102880385324566,1
913,535,36,0.116377659701512,1
913,536,36,0.122621121430036,1
913,537,36,0.124908961216419,1
913,538,36,0.128312867702003,1
913,539,36,0.123314913229656,1
913,540,36,0.131497499727272,1
913,541,36,0.149174049460128,1
913,542,36,0.15621115837713,1
913,543,36,0.156170429752832,1
913,544,36,0.157326506143675,1
913,545,36,0.150068183826769,1
913,546,36,0.137962076819429,1
913,547,36,0.134059296427561,1
913,548,36,0.132249459714577,1
913,554,36,0.125710102733198,1
914,534,36,0.099937085920671,1
914,535,36,0.124122056744827,1
914,536,36,0.111668127939558,1
914,541,36,0.102545536993216,1
914,542,36,0.132333847158395,1
914,543,36,0.150177178374703,1
914,544,36,0.149245975404563,1
914,545,36,0.137559202208662,1
914,546,36,0.131922258212395,1
914,547,36,0.137982708008094,1
914,548,36,0.140304762453188,1
915,543,36,0.112440414113795,1
915,544,36,0.111733332952944,1
915,545,36,0.106065605567464,1
915,546,36,0.113155556034738,1
915,547,36,0.13250604242261,1
915,548,36,0.143466148989222,1
916,547,36,0.114418916785225,1
916,548,36,0.133162841869164,1
916,554,36,0.112548972944967,1
916,555,36,0.122885067751341,1
917,548,36,0.107697746092116,1
917,549,36,0.109888224968102,1
917,556,36,0.10823288252589,1
918,557,36,0.103690720465016,1
922,560,36,0.112747638002455,1
924,565,36,0.104729763333672,1
924,566,36,0.108345537094622,1
925,565,36,0.104369839502687,1
925,566,36,0.109071898722178,1
925,567,36,0.113759808039834,1
926,565,36,0.11981802478713,1
926,566,36,0.119883077299648,1
927,564,36,0.109323122114043,1
928,523,36,0.104909638105812,1
928,524,36,0.176601831390157,1
928,525,36,0.130322033940535,1
928,564,36,0.113174705786414,1
929,524,36,0.164113361138606,1
929,525,36,0.130462149558172,1
929,564,36,0.115945984212798,1
930,564,36,0.124337137431311,1
932,563,36,0.11187561626147,1
933,563,36,0.118186167478373,1
934,563,36,0.106573509703633,1
939,565,36,0.118148946374006,1
940,565,36,0.111904177495198,1
940,566,36,0.143686425598089,1
941,565,36,0.108160695151399,1
941,566,36,0.142995825423747,1
942,565,36,0.105112431579616,1
942,566,36,0.137960268594868,1
943,565,36,0.103609742504859,1
943,566,36,0.131652593108592,1
944,565,36,0.105455896209928,1
947,562,36,0.100277151960242,1
948,561,36,0.115860758014214,1
949,560,36,0.115375325970028,1
954,556,36,0.104482875323586,1
955,555,36,0.114071171237729,1
909,538,37,0.110455865872298,1
909,539,37,0.108528124203604,1
910,537,37,0.124619220462821,1
910,538,37,0.195891905649023,1
910,539,37,0.182496665244743,1
910,540,37,0.170964527927562,1
910,541,37,0.157228023262616,1
910,542,37,0.12625970496346,1
910,543,37,0.10525849473105,1
911,537,37,0.139832260303905,1
911,538,37,0.231277008510881,1
911,539,37,0.222398756631568,1
911,540,37,0.226916812662603,1
911,541,37,0.232235345742354,1
911,542,37,0.181005686057956,1
911,543,37,0.134387205969481,1
911,544,37,0.113238320433619,1
911,545,37,0.105595772183346,1
911,546,37,0.103336155950201,1
911,547,37,0.109636271750661,1
911,548,37,0.123804865835244,1
911,550,37,0.112488473672608,1
911,551,37,0.110478076534224,1
912,537,37,0.108804749882674,1
912,538,37,0.156701971523323,1
912,539,37,0.177812906129243,1
912,540,37,0.219727224664851,1
912,541,37,0.243551084329848,1
912,542,37,0.194167817994738,1
912,543,37,0.149014696947464,1
912,544,37,0.136098015155454,1
912,545,37,0.134058926068313,1
912,546,37,0.127014736753934,1
912,547,37,0.122380878100565,1
912,548,37,0.120619634699428,1
912,549,37,0.115556921823376,1
912,550,37,0.111410510404216,1
912,553,37,0.107509037162633,1
912,554,37,0.104772801256807,1
912,555,37,0.10345555323582,1
913,538,37,0.109788042791673,1
913,539,37,0.121263090320155,1
913,540,37,0.144367254824049,1
913,541,37,0.165399139516481,1
913,542,37,0.157895606699022,1
913,543,37,0.151119862481513,1
913,544,37,0.157510966834731,1
913,545,37,0.161514267083518,1
913,546,37,0.149044369258934,1
913,547,37,0.137015721798901,1
913,548,37,0.130700159839239,1
913,549,37,0.125758380150392,1
913,554,37,0.12695145978722,1
913,555,37,0.142061844759251,1
914,542,37,0.11491356423892,1
914,543,37,0.133304438923791,1
914,544,37,0.1409331640598,1
914,545,37,0.140826936313302,1
914,546,37,0.136912173710488,1
914,547,37,0.138655269508502,1
914,548,37,0.139511191515143,1
915,544,37,0.104148179493103,1
915,545,37,0.104491491622548,1
915,546,37,0.112078801880359,1
915,547,37,0.130561111727668,1
915,548,37,0.143346359558518,1
916,547,37,0.110876321654398,1
916,548,37,0.130402510826417,1
916,549,37,0.131400639891151,1
916,554,37,0.109174760556692,1
916,555,37,0.112871141918552,1
917,548,37,0.105249682359545,1
917,549,37,0.105990684070293,1
917,556,37,0.104195639941368,1
918,557,37,0.103576246778804,1
919,558,37,0.100518691547078,1
923,565,37,0.10559413824549,1
923,566,37,0.111418636521821,1
926,566,37,0.10302894295446,1
927,565,37,0.110879720245139,1
928,524,37,0.141183385303113,1
928,525,37,0.100683523198021,1
928,565,37,0.120456175556284,1
929,524,37,0.129119531928736,1
929,525,37,0.100071548113325,1
929,564,37,0.107376742660868,1
930,564,37,0.130417619305129,1
931,563,37,0.10984435918312,1
932,563,37,0.127658486483476,1
933,562,37,0.106406815363534,1
933,563,37,0.136271419533683,1
934,563,37,0.121756844554489,1
935,563,37,0.103906149724909,1
939,564,37,0.107239426523425,1
940,564,37,0.100945977189418,1
940,565,37,0.12486903866813,1
941,565,37,0.114807554350804,1
942,565,37,0.108150107234091,1
943,565,37,0.105443009886701,1
947,561,37,0.0998126452135357,1
948,560,37,0.105441844344364,1
909,539,38,0.100861927426091,1
910,537,38,0.12142369551851,1
910,538,38,0.167064122192045,1
910,539,38,0.169780652807324,1
910,540,38,0.172802304977888,1
910,541,38,0.156699629545729,1
910,542,38,0.120845717234143,1
910,543,38,0.102428078647187,1
911,537,38,0.143316915998347,1
911,538,38,0.206329064958268,1
911,539,38,0.227231443736211,1
911,540,38,0.257902396238441,1
911,541,38,0.251595091111412,1
911,542,38,0.178509432051543,1
911,543,38,0.130282764967389,1
911,544,38,0.113372869769625,1
911,545,38,0.106156888229035,1
911,546,38,0.102477543392556,1
911,547,38,0.105758305428371,1
911,548,38,0.113364166327311,1
911,549,38,0.112383455040125,1
911,550,38,0.10664540296931,1
911,551,38,0.107739357042856,1
912,537,38,0.108488354156181,1
912,538,38,0.147334758294055,1
912,539,38,0.191976881616152,1
912,540,38,0.257619114985835,1
912,541,38,0.278202026234115,1
912,542,38,0.207059892682631,1
912,543,38,0.151110647072003,1
912,544,38,0.136621136699525,1
912,545,38,0.137176359676013,1
912,546,38,0.127632038476042,1
912,547,38,0.117613058328818,1
912,548,38,0.11438997429933,1
912,549,38,0.111583500851521,1
912,550,38,0.110982124577053,1
912,551,38,0.111287431311961,1
912,552,38,0.111524319622366,1
912,553,38,0.107815977835397,1
912,554,38,0.10486418195465,1
912,555,38,0.102127434081628,1
913,539,38,0.115819016348445,1
913,540,38,0.148310633125186,1
913,541,38,0.171167648188937,1
913,542,38,0.157969580512236,1
913,543,38,0.14478248200501,1
913,544,38,0.150776038384873,1
913,545,38,0.163918704675327,1
913,546,38,0.150327892802567,1
913,547,38,0.130224030347915,1
913,548,38,0.124717692450961,1
913,549,38,0.123541562196162,1
913,554,38,0.129613907059456,1
913,555,38,0.137721833489958,1
914,543,38,0.113595945858686,1
914,544,38,0.122367959098581,1
914,545,38,0.130167594134358,1
914,546,38,0.1279331405442,1
914,547,38,0.127476803486775,1
914,548,38,0.135059778362808,1
915,547,38,0.115861760162766,1
915,548,38,0.137953776415119,1
916,548,38,0.124048845435946,1
916,549,38,0.128197108651344,1
916,554,38,0.110158260431152,1
916,555,38,0.109295824458924,1
917,548,38,0.10250399139999,1
917,549,38,0.103695306383933,1
917,556,38,0.102243454562344,1
918,557,38,0.102833622023119,1
918,558,38,0.111505050048581,1
919,559,38,0.106541615236678,1
922,565,38,0.132175453222606,1
922,566,38,0.128337877844123,1
927,566,38,0.110289759749827,1
928,565,38,0.109482943022227,1
929,564,38,0.102311088696676,1
932,562,38,0.103225472999815,1
933,562,38,0.11808182420687,1
934,562,38,0.111190843798816,1
935,563,38,0.118764156655658,1
936,563,38,0.111675001371474,1
937,563,38,0.111022232304965,1
938,563,38,0.110806225720363,1
939,563,38,0.103464027926834,1
939,564,38,0.128874027319368,1
940,564,38,0.116621726445566,1
941,564,38,0.104029348639274,1
947,560,38,0.101586622437033,1
910,537,39,0.117005385947143,1
910,538,39,0.133788193458444,1
910,539,39,0.15285314375947,1
910,540,39,0.167012751185843,1
910,541,39,0.146543551119442,1
910,542,39,0.114309105268363,1
910,543,39,0.100790720414313,1
911,536,39,0.109676379478574,1
911,537,39,0.153912294956677,1
911,538,39,0.177534613833559,1
911,539,39,0.224535206629106,1
911,540,39,0.273555651616767,1
911,541,39,0.246771118342004,1
911,542,39,0.171322796034852,1
911,543,39,0.128753932886931,1
911,544,39,0.11352870386944,1
911,545,39,0.106252255735248,1
911,546,39,0.101611098826121,1
911,547,39,0.101762750045023,1
911,548,39,0.104768934270547,1
911,549,39,0.103890736244465,1
911,550,39,0.103093505285622,1
911,551,39,0.106347645027298,1
912,537,39,0.120741962180269,1
912,538,39,0.138863498548908,1
912,539,39,0.194145814298273,1
912,540,39,0.270246840314419,1
912,541,39,0.278056845409124,1
912,542,39,0.207689612332447,1
912,543,39,0.152227911992299,1
912,544,39,0.136520246483359,1
912,545,39,0.136234819325702,1
912,546,39,0.123266178309862,1
912,547,39,0.110446345461055,1
912,548,39,0.108393052007483,1
912,549,39,0.108933384363641,1
912,550,39,0.111053691055158,1
912,551,39,0.113358207900595,1
912,552,39,0.114355770533538,1
912,553,39,0.111764083663399,1
912,554,39,0.108067146762667,1
912,555,39,0.102090474407319,1
913,539,39,0.106823905233651,1
913,540,39,0.142131831764096,1
913,541,39,0.163067292337169,1
913,542,39,0.151609412049097,1
913,543,39,0.136569852836676,1
913,544,39,0.143259553886672,1
913,545,39,0.158081537934149,1
913,546,39,0.140775804951319,1
913,547,39,0.118670281479354,1
913,548,39,0.118974063205597,1
913,549,39,0.125482506082735,1
913,550,39,0.123229828639019,1
913,553,39,0.133318392753084,1
913,554,39,0.143258834954015,1
913,555,39,0.141578591298874,1
914,544,39,0.107280819615785,1
914,545,39,0.116868276775162,1
914,546,39,0.112517143835527,1
914,547,39,0.113096320340988,1
914,548,39,0.131675185022685,1
914,549,39,0.145927022794587,1
914,554,39,0.170797267155673,1
915,547,39,0.101447214859134,1
915,548,39,0.13210332031271,1
915,549,39,0.148924841258287,1
915,554,39,0.154989691793279,1
916,548,39,0.117068728271372,1
916,549,39,0.127598825965883,1
916,550,39,0.115972922401589,1
916,553,39,0.114687993671399,1
916,554,39,0.119883926947334,1
916,555,39,0.114379822098783,1
917,548,39,0.103200560893966,1
917,549,39,0.103000131183594,1
917,556,39,0.102408166391178,1
918,557,39,0.110916516525663,1
918,558,39,0.118523717253645,1
919,558,39,0.101841484063858,1
921,560,39,0.103396916652617,1
922,565,39,0.109615684133672,1
927,566,39,0.104584669652033,1
928,565,39,0.103813734199757,1
928,566,39,0.126435037388359,1
930,563,39,0.100726103618556,1
932,562,39,0.112381755744754,1
933,561,39,0.110978922058854,1
933,562,39,0.130204738988292,1
934,561,39,0.111576420454144,1
934,562,39,0.133560694844253,1
935,561,39,0.102780246719813,1
935,562,39,0.125319722300572,1
936,562,39,0.11454415267545,1
936,563,39,0.135098938406764,1
937,562,39,0.1027879044419,1
937,563,39,0.131739605745899,1
938,563,39,0.127065552221265,1
939,563,39,0.111496128747886,1
940,563,39,0.100158963788637,1
946,560,39,0.10365668009301,1
947,559,39,0.10283735829435,1
910,537,40,0.101833412410848,1
910,538,40,0.10653602716921,1
910,539,40,0.135235394003602,1
910,540,40,0.151010889719417,1
910,541,40,0.130271828476671,1
910,543,40,0.0999341666183678,1
911,536,40,0.108576085726145,1
911,537,40,0.143873435232201,1
911,538,40,0.15028420130429,1
911,539,40,0.213746097105615,1
911,540,40,0.26047645836557,1
911,541,40,0.219284144289901,1
911,542,40,0.159979106217097,1
911,543,40,0.13017143933478,1
911,544,40,0.114895100741144,1
911,545,40,0.105946524176497,1
911,546,40,0.0998646153302849,1
912,537,40,0.121842462898159,1
912,538,40,0.127983901546936,1
912,539,40,0.183728806889255,1
912,540,40,0.247469289095079,1
912,541,40,0.240622871618826,1
912,542,40,0.18982888512443,1
912,543,40,0.150092464143313,1
912,544,40,0.132884658502671,1
912,545,40,0.128638696696386,1
912,546,40,0.114834634147542,1
912,547,40,0.102816422103952,1
912,548,40,0.100499650724593,1
912,549,40,0.102536430512897,1
912,550,40,0.104949233866529,1
912,551,40,0.107642028811216,1
912,552,40,0.110510657255079,1
912,553,40,0.111019138715957,1
912,554,40,0.108137754663897,1
913,540,40,0.126449339791061,1
913,541,40,0.141272467595038,1
913,542,40,0.135242888331903,1
913,543,40,0.124684283868259,1
913,544,40,0.128345034491934,1
913,545,40,0.138853760279285,1
913,546,40,0.122712131768631,1
913,547,40,0.106065246101135,1
913,548,40,0.109621936669202,1
913,549,40,0.119965090087115,1
913,550,40,0.119224992488647,1
913,551,40,0.115930908412844,1
913,552,40,0.120656997411742,1
913,553,40,0.13530989067693,1
913,554,40,0.150310268059557,1
913,555,40,0.140339608901203,1
914,545,40,0.101962014213057,1
914,548,40,0.121702652282255,1
914,549,40,0.144833548009478,1
914,550,40,0.137325701596078,1
914,553,40,0.150950684555872,1
914,554,40,0.183109555334639,1
915,548,40,0.121643841412348,1
915,549,40,0.147766531819041,1
915,550,40,0.139603334717319,1
915,553,40,0.140318389494909,1
915,554,40,0.161767178877835,1
915,555,40,0.156142227985433,1
916,548,40,0.109740081269131,1
916,549,40,0.12147304044177,1
916,550,40,0.115406468825569,1
916,551,40,0.103624142943832,1
916,552,40,0.104341790236154,1
916,553,40,0.115866760012606,1
916,554,40,0.124432777260499,1
916,555,40,0.115975362415454,1
916,556,40,0.127907324326071,1
917,548,40,0.101885219133811,1
917,556,40,0.101278679615717,1
917,557,40,0.128567794686342,1
918,557,40,0.111119898217096,1
918,558,40,0.119087349563633,1
919,558,40,0.100769686187643,1
929,565,40,0.116277041808321,1
930,563,40,0.10134674946681,1
931,562,40,0.103010577492955,1
932,560,40,0.106411597354994,1
932,561,40,0.111559111605786,1
932,562,40,0.118995554934866,1
933,559,40,0.106365661915394,1
933,560,40,0.125843922243628,1
933,561,40,0.126545556944959,1
934,559,40,0.0997931142096934,1
934,560,40,0.113346868371872,1
934,561,40,0.123534013403266,1
934,562,40,0.142712653100332,1
935,561,40,0.114695335498833,1
935,562,40,0.142757553712623,1
936,561,40,0.104387039421855,1
936,562,40,0.131623639729778,1
937,562,40,0.115237585008742,1
937,563,40,0.145357551879992,1
938,562,40,0.101588724770408,1
938,563,40,0.133544442609042,1
910,539,41,0.118398121897091,1
910,540,41,0.129894759191114,1
910,541,41,0.114171124662858,1
910,542,41,0.105431125712027,1
910,543,41,0.102183706901399,1
911,537,41,0.117713894080389,1
911,538,41,0.12655123215578,1
911,539,41,0.18913951584994,1
911,540,41,0.220519924169373,1
911,541,41,0.182659209382687,1
911,542,41,0.15348565199656,1
911,543,41,0.139289607755991,1
911,544,41,0.118445516987843,1
911,545,41,0.104066787602021,1
912,537,41,0.114682438282688,1
912,538,41,0.11693344910979,1
912,539,41,0.160622463801553,1
912,540,41,0.200761824750951,1
912,541,41,0.191287163768253,1
912,542,41,0.170157449769905,1
912,543,41,0.15120801887532,1
912,544,41,0.12959532373957,1
912,545,41,0.117831069210524,1
912,546,41,0.1051335311638,1
912,550,41,0.102006707859886,1
912,551,41,0.104744490560217,1
912,552,41,0.111471674144637,1
912,553,41,0.116109737464756,1
913,540,41,0.106479242382244,1
913,541,41,0.116938982712663,1
913,542,41,0.117736409744049,1
913,543,41,0.113990727030604,1
913,544,41,0.113629419798901,1
913,545,41,0.11669831455935,1
913,546,41,0.105129598820026,1
913,548,41,0.101971240515486,1
913,549,41,0.114613954500671,1
913,550,41,0.115068646727321,1
913,551,41,0.110025443069274,1
913,552,41,0.118265696680298,1
913,553,41,0.138858509591987,1
913,554,41,0.150448259557981,1
913,555,41,0.13485042735174,1
914,548,41,0.112186761600984,1
914,549,41,0.139603160430614,1
914,550,41,0.137641345711157,1
914,551,41,0.119041926091228,1
914,552,41,0.120468342946854,1
914,553,41,0.14835721124701,1
914,554,41,0.179545326866595,1
914,555,41,0.171450221401805,1
915,548,41,0.111068069708294,1
915,549,41,0.140475367351223,1
915,550,41,0.139731925626609,1
915,551,41,0.119002232294239,1
915,552,41,0.115365794665866,1
915,553,41,0.133938853421714,1
915,554,41,0.156028288052254,1
915,555,41,0.150585368729962,1
916,548,41,0.101588637627056,1
916,549,41,0.112936423182371,1
916,550,41,0.111244306245474,1
916,552,41,0.0998322851465683,1
916,553,41,0.114447935521552,1
916,554,41,0.126468315256032,1
916,555,41,0.118924053814275,1
916,556,41,0.125395863804675,1
917,556,41,0.104161610462281,1
917,557,41,0.128181128739109,1
918,557,41,0.111829299569703,1
918,558,41,0.122629901122783,1
919,558,41,0.101649812260396,1
927,561,41,0.121114075187661,1
928,560,41,0.113018958829952,1
928,561,41,0.115678410549451,1
929,559,41,0.108728575699814,1
929,560,41,0.120271998081122,1
929,561,41,0.101961829033434,1
930,560,41,0.105047193887474,1
930,563,41,0.102241820624488,1
931,559,41,0.100938951256636,1
931,560,41,0.112717584438818,1
931,561,41,0.10892395109575,1
931,562,41,0.114752403501694,1
932,559,41,0.123365652446554,1
932,560,41,0.146171568827079,1
932,561,41,0.134539183975954,1
933,559,41,0.132278206127929,1
933,560,41,0.153074487874402,1
933,561,41,0.138411769196238,1
934,559,41,0.1121652045142,1
934,560,41,0.120553024499486,1
934,561,41,0.126230043544909,1
934,562,41,0.143068176192024,1
935,561,41,0.126084470574832,1
935,562,41,0.158578712545062,1
936,562,41,0.154953799625036,1
937,562,41,0.132390196228599,1
940,548,41,0.102066335698722,1
940,549,41,0.1064353983831,1
910,539,42,0.102097870699349,1
910,540,42,0.10791668287194,1
910,541,42,0.0999794593757442,1
910,542,42,0.102972419597551,1
910,543,42,0.105065733635683,1
911,538,42,0.112663403059503,1
911,539,42,0.158488333995771,1
911,540,42,0.170104706255904,1
911,541,42,0.146340997289857,1
911,542,42,0.145952022043788,1
911,543,42,0.145325918843094,1
911,544,42,0.120062516355027,1
911,545,42,0.101869195649901,1
912,537,42,0.105115775705762,1
912,538,42,0.113419295390582,1
912,539,42,0.138938932013274,1
912,540,42,0.153074640375269,1
912,541,42,0.147822042134478,1
912,542,42,0.15306781051503,1
912,543,42,0.150166383491932,1
912,544,42,0.124281158720354,1
912,545,42,0.10782459413436,1
912,550,42,0.100781145538475,1
912,551,42,0.103545909999273,1
912,552,42,0.112115696197154,1
913,542,42,0.103972280636413,1
913,543,42,0.105389950478048,1
913,544,42,0.100899104958781,1
913,549,42,0.108673762531195,1
913,550,42,0.109144968423112,1
913,551,42,0.104266433022222,1
913,552,42,0.114620708110477,1
913,553,42,0.136723541031439,1
913,554,42,0.140384858086903,1
914,548,42,0.103564558676672,1
914,549,42,0.126155514192823,1
914,550,42,0.126499425432816,1
914,551,42,0.108636900893157,1
914,552,42,0.109628799208199,1
914,553,42,0.137238612708338,1
914,554,42,0.160190025808506,1
914,555,42,0.156105921886266,1
915,548,42,0.10178346837704,1
915,549,42,0.125671269476813,1
915,550,42,0.127498752718645,1
915,551,42,0.108205094689414,1
915,552,42,0.103928338600998,1
915,553,42,0.123360968491366,1
915,554,42,0.142494130251432,1
915,555,42,0.142103651782534,1
916,549,42,0.103367266126984,1
916,550,42,0.102450942884256,1
916,553,42,0.11010768460804,1
916,554,42,0.123941942328468,1
916,555,42,0.121743838409153,1
916,556,42,0.126177016815012,1
917,554,42,0.10018655555257,1
917,555,42,0.102575601449772,1
917,556,42,0.108901402753334,1
917,557,42,0.130056497253049,1
918,557,42,0.113396757941084,1
919,558,42,0.101120732289609,1
927,560,42,0.122326162968217,1
928,559,42,0.117423216535755,1
928,560,42,0.144432928232953,1
928,561,42,0.141481459139777,1
929,559,42,0.138395320888485,1
929,560,42,0.146649059933283,1
930,559,42,0.112766068821474,1
931,559,42,0.117591795350848,1
931,560,42,0.133012345299681,1
932,559,42,0.152478775917836,1
932,560,42,0.179345964662289,1
933,558,42,0.101673569716826,1
933,559,42,0.148087840252021,1
933,560,42,0.165465510072204,1
934,559,42,0.114852934251533,1
934,560,42,0.118733514874393,1
936,557,42,0.101048218127546,1
937,556,42,0.10184010066314,1
937,557,42,0.111261876523888,1
938,555,42,0.0999191126042518,1
938,556,42,0.108092494585278,1
938,557,42,0.115404431849708,1
939,548,42,0.10339642647126,1
939,549,42,0.102538728918815,1
939,555,42,0.104929517683063,1
939,556,42,0.112847841964722,1
940,548,42,0.109635857819738,1
940,549,42,0.111876378765803,1
940,555,42,0.100798650459376,1
910,542,43,0.106555198706724,1
910,543,43,0.11135144899717,1
911,538,43,0.116108157991495,1
911,539,43,0.135351414484318,1
911,540,43,0.127109624971709,1
911,541,43,0.121965117166572,1
911,542,43,0.146055842455177,1
911,543,43,0.150838879634826,1
911,544,43,0.11853878216068,1
912,537,43,0.110671469418895,1
912,538,43,0.13637241867904,1
912,539,43,0.13497027124704,1
912,540,43,0.118917049667331,1
912,541,43,0.120748606860884,1
912,542,43,0.148934307204934,1
912,543,43,0.153428540422023,1
912,544,43,0.120799313399025,1
912,550,43,0.10046512017123,1
913,538,43,0.10069774935029,1
913,542,43,0.0998069155381196,1
913,543,43,0.104095544908292,1
913,549,43,0.103892130538102,1
913,550,43,0.105175784796764,1
913,551,43,0.10163145769181,1
913,552,43,0.112671322211647,1
914,549,43,0.115143840547467,1
914,550,43,0.116741537662109,1
914,551,43,0.10285077837061,1
914,552,43,0.105206034432944,1
914,553,43,0.127275709308342,1
914,554,43,0.140583719216934,1
915,549,43,0.113854195183332,1
915,550,43,0.11699132318866,1
915,551,43,0.102981798400847,1
915,552,43,0.101498346221117,1
915,553,43,0.118485766323703,1
915,554,43,0.131463241496885,1
915,555,43,0.133196163308514,1
915,556,43,0.140103319701345,1
916,553,43,0.107831064528271,1
916,554,43,0.120767560540017,1
916,555,43,0.123369530325733,1
916,556,43,0.132370077007129,1
917,554,43,0.0998591361920067,1
917,555,43,0.106964053530045,1
917,556,43,0.120327083572718,1
917,557,43,0.142564324221738,1
918,556,43,0.105537244529333,1
918,557,43,0.122496430185762,1
921,559,43,0.107365457596741,1
922,559,43,0.111245787682463,1
922,560,43,0.112455620628778,1
928,559,43,0.139373722876834,1
929,558,43,0.103243446316234,1
929,559,43,0.15406688726372,1
937,556,43,0.107620144936861,1
938,555,43,0.10976760767555,1
938,556,43,0.114958617352078,1
939,548,43,0.102528228144858,1
939,549,43,0.102834319169938,1
939,555,43,0.113674374875788,1
940,548,43,0.102332743819731,1
940,549,43,0.107613151682836,1
910,542,44,0.107478820205211,1
910,543,44,0.115525539323617,1
911,538,44,0.116265092276132,1
911,539,44,0.114320564619195,1
911,541,44,0.103849550117567,1
911,542,44,0.142631598889741,1
911,543,44,0.152684597623134,1
911,544,44,0.119954894314892,1
912,537,44,0.110059320047494,1
912,538,44,0.152957203815078,1
912,539,44,0.132976474917276,1
912,541,44,0.102192127127819,1
912,542,44,0.143486083031069,1
912,543,44,0.156383800251026,1
912,544,44,0.123861356513396,1
913,538,44,0.110078284619546,1
913,543,44,0.108786874602526,1
913,549,44,0.101300737776777,1
913,550,44,0.102836062036984,1
913,551,44,0.101175883138718,1
914,549,44,0.106614074934146,1
914,550,44,0.10745892973504,1
914,552,44,0.100227469356492,1
914,553,44,0.115433886302797,1
914,554,44,0.125182427948967,1
915,549,44,0.105658646112056,1
915,550,44,0.107382929838884,1
915,553,44,0.112341244978837,1
915,554,44,0.12422094266389,1
915,555,44,0.131134732844418,1
916,553,44,0.105253407737857,1
916,554,44,0.119994631683557,1
916,555,44,0.129407322849825,1
916,556,44,0.144285917397563,1
917,554,44,0.104253023838882,1
917,555,44,0.11589764143809,1
917,556,44,0.134063217878416,1
917,557,44,0.15567074977054,1
918,556,44,0.114111573074456,1
918,557,44,0.127875179321978,1
921,558,44,0.100598787180794,1
921,559,44,0.120883330483595,1
922,559,44,0.125537460859302,1
922,560,44,0.12538807536756,1
923,559,44,0.103821043348434,1
923,560,44,0.104555640022786,1
927,559,44,0.110617015716604,1
928,558,44,0.104385754057408,1
929,558,44,0.108212785090258,1
911,539,45,0.0997765242939925,1
911,542,45,0.138034122585972,1
911,543,45,0.157178721911032,1
911,544,45,0.128224885594901,1
912,537,45,0.103112709501893,1
912,538,45,0.15411964167064,1
912,539,45,0.133880086123482,1
912,542,45,0.139024779108243,1
912,543,45,0.165463429524667,1
912,544,45,0.13514105043178,1
913,538,45,0.111003365769185,1
913,539,45,0.100226129527449,1
913,542,45,0.101046605975528,1
913,543,45,0.12015162043279,1
913,544,45,0.108298534148956,1
914,549,45,0.101026650147843,1
914,550,45,0.100493975513772,1
915,549,45,0.100868539427949,1
915,550,45,0.100730035962331,1
915,553,45,0.10783141310168,1
915,554,45,0.123320653797991,1
916,553,45,0.10366225726756,1
916,554,45,0.123313061433419,1
917,554,45,0.108748270097442,1
917,555,45,0.124019837592538,1
917,556,45,0.139455452448405,1
918,555,45,0.106815626615179,1
918,556,45,0.117773412990035,1
918,557,45,0.127207247312163,1
919,557,45,0.100777518196434,1
920,558,45,0.102528282609454,1
921,558,45,0.101832530084405,1
921,559,45,0.121679809831024,1
922,558,45,0.0999786750855732,1
922,559,45,0.124897981154024,1
923,559,45,0.11022673332025,1
925,558,45,0.110909294520338,1
926,558,45,0.132494419677993,1
926,559,45,0.13616707626218,1
927,558,45,0.12764320371806,1
928,558,45,0.120094029569815,1
929,557,45,0.101523116719019,1
930,537,45,0.100550259226462,1
930,555,45,0.10006568772288,1
930,556,45,0.103035467812966,1
930,557,45,0.104133365123206,1
931,554,45,0.102245502431124,1
931,555,45,0.109057062566443,1
931,556,45,0.104487319634555,1
932,554,45,0.101048839023932,1
932,555,45,0.103567140298485,1
932,556,45,0.0998723493028046,1
912,539,46,0.119571278384991,1
912,542,46,0.125945978002132,1
912,543,46,0.160987420161135,1
912,544,46,0.143685663093756,1
913,542,46,0.0998826322183803,1
913,543,46,0.122002904702728,1
913,544,46,0.112319546284106,1
915,547,46,0.105767520837881,1
915,548,46,0.102283377110633,1
915,549,46,0.0999803743809438,1
916,553,46,0.101500339625302,1
917,554,46,0.112556728703325,1
918,555,46,0.111828417243261,1
918,556,46,0.118739909017871,1
919,557,46,0.105874304123249,1
921,558,46,0.101175338492766,1
922,558,46,0.102198096447454,1
926,558,46,0.144685208237965,1
928,557,46,0.108173679510897,1
929,537,46,0.107429246530651,1
929,557,46,0.111606539375295,1
930,537,46,0.115368855576117,1
930,538,46,0.10577218300723,1
930,555,46,0.109728861562518,1
930,556,46,0.110479961009218,1
931,538,46,0.106315129663958,1
931,554,46,0.107119092446769,1
931,555,46,0.118455876153852,1
931,556,46,0.111534406465399,1
931,557,46,0.101692959112721,1
932,554,46,0.102314465501579,1
932,555,46,0.108781297427977,1
932,556,46,0.105819872206796,1
933,540,46,0.113595880501171,1
913,542,47,0.100402834460148,1
913,543,47,0.114598094410546,1
913,544,47,0.108130347478948,1
915,548,47,0.1043817454632,1
929,556,47,0.100700341865022,1
930,555,47,0.106850919672875,1
930,556,47,0.10861640041952,1
931,554,47,0.101529848542987,1
931,555,47,0.113323535739284,1
931,556,47,0.108667303030203,1
932,555,47,0.104565204005705,1
932,556,47,0.104286203670283,1
