x,y,z,signal,mito.p
43,563,1,0.199228907825852,2
43,564,1,0.206244383405636,2
44,562,1,0.225638114682105,2
44,563,1,0.364869358007668,2
44,564,1,0.365396096000861,2
44,565,1,0.282557886700614,2
45,562,1,0.304206408647093,2
45,563,1,0.519935202027767,2
45,564,1,0.49710486372275,2
45,565,1,0.313448549379921,2
46,562,1,0.265175075422644,2
46,563,1,0.421637892738199,2
46,564,1,0.400294263595704,2
46,565,1,0.253001868034005,2
47,563,1,0.226818318888625,2
47,564,1,0.21780207551089,2
48,563,1,0.144437830046522,1
48,564,1,0.131941059390661,1
48,565,1,0.119141291298729,1
48,566,1,0.106245534804199,1
49,561,1,0.113325485571793,1
49,562,1,0.137643055899447,1
49,563,1,0.130166493949535,1
49,564,1,0.108567066389179,1
49,565,1,0.104449020131204,1
49,566,1,0.106795638108737,1
49,572,1,0.131988465374332,1
49,573,1,0.146635487356157,1
50,559,1,0.104486034270108,1
50,560,1,0.113627382823041,1
50,561,1,0.132227456018112,1
50,562,1,0.141047387208874,1
50,563,1,0.113565184255311,1
50,572,1,0.109820993871775,1
50,573,1,0.108782321362367,1
51,558,1,0.112785262144826,1
51,559,1,0.141415578765411,1
51,560,1,0.147104416627994,1
51,561,1,0.141493310635694,1
51,562,1,0.123155081428553,1
52,558,1,0.143180917904108,1
52,559,1,0.183914574730597,1
52,560,1,0.17258943555397,1
52,561,1,0.132523264127616,1
52,577,1,0.105971915570784,1
53,558,1,0.142630062988156,1
53,559,1,0.16992316486715,1
53,560,1,0.146331052054772,1
53,561,1,0.104427887868262,1
53,576,1,0.120519681274299,1
53,577,1,0.125379513533193,1
53,578,1,0.115899754664384,1
54,558,1,0.10866290229091,1
54,559,1,0.115655960243306,1
54,560,1,0.100781352503937,1
54,576,1,0.128803070844729,1
54,577,1,0.135037992524724,1
54,578,1,0.120350416205306,1
54,579,1,0.136976529076188,1
55,577,1,0.111179743914312,1
55,578,1,0.111525038555023,1
55,579,1,0.129635987006354,1
56,579,1,0.107783745687952,1
56,580,1,0.11913854628313,1
59,578,1,0.120779738823506,1
59,579,1,0.127250753630816,1
59,580,1,0.121961522503288,1
59,581,1,0.132332855902762,1
60,578,1,0.135303670820157,1
60,579,1,0.14423729140696,1
60,580,1,0.141871142425584,1
60,581,1,0.160423090704328,1
61,578,1,0.114879741725295,1
61,579,1,0.133740896403964,1
61,580,1,0.145519300834846,1
61,581,1,0.184722687715563,1
61,582,1,0.253391159174727,1
61,583,1,0.296563697003034,1
61,584,1,0.243432046510557,1
62,578,1,0.117792105239111,1
62,579,1,0.158063782476111,1
62,580,1,0.181466696177649,1
62,581,1,0.232247001165729,1
62,582,1,0.315734079867467,3
62,583,1,0.351298066245831,3
62,584,1,0.290698709746624,1
62,585,1,0.202494648526308,1
63,578,1,0.166060067379352,1
63,579,1,0.24041634187379,1
63,580,1,0.26162631489964,1
63,581,1,0.305740218791553,3
63,582,1,0.392481382770372,3
63,583,1,0.415531322323275,3
63,584,1,0.332951384133514,3
63,585,1,0.211183058612556,1
64,577,1,0.105637176168624,1
64,578,1,0.226437241008861,1
64,579,1,0.3141296182501,1
64,580,1,0.316807119536452,3
64,581,1,0.34898780883206,3
64,582,1,0.412267978065009,3
64,583,1,0.383995450263276,3
64,584,1,0.27386760303229,3
65,577,1,0.11904326592027,1
65,578,1,0.23423367352644,1
65,579,1,0.293204233627141,1
65,580,1,0.302623536795268,3
65,581,1,0.365631840554767,3
65,582,1,0.39003287242812,3
65,583,1,0.293278893694255,3
66,577,1,0.127724312393247,1
66,578,1,0.208527539236831,1
66,579,1,0.24395253196822,1
66,580,1,0.291980109171044,3
66,581,1,0.370215384815081,3
66,582,1,0.337867859571427,3
67,577,1,0.154339940065345,1
67,578,1,0.210054791844028,1
67,579,1,0.233990391072557,1
67,580,1,0.288798418233916,1
67,581,1,0.307784449336482,3
67,582,1,0.229008449191202,1
68,576,1,0.101476124666272,1
68,577,1,0.199111329657713,1
68,578,1,0.254401825989278,1
68,579,1,0.262699833857063,1
68,580,1,0.284321472079346,1
68,581,1,0.233912288843026,1
69,576,1,0.105993320156701,1
69,577,1,0.206673912989299,1
69,578,1,0.269280769110425,1
69,579,1,0.262360388713877,1
69,580,1,0.241682251567333,1
69,581,1,0.17185675603337,1
70,576,1,0.119684335991728,1
70,577,1,0.226030237981777,1
70,578,1,0.297669546144174,1
70,579,1,0.268648130158306,1
70,580,1,0.213880973229193,1
70,581,1,0.152165114314022,1
71,576,1,0.179824512381641,1
71,577,1,0.272677791271175,4
71,578,1,0.314567339308882,4
71,579,1,0.263567607359622,1
71,580,1,0.200128140078603,1
72,575,1,0.188228148885375,1
72,576,1,0.31766410904916,4
72,577,1,0.37104006592991,4
72,578,1,0.331973853578688,4
72,579,1,0.24188080769563,1
72,580,1,0.17157238548886,1
73,554,1,0.11556279310674,1
73,567,1,0.119130736060177,1
73,568,1,0.104847820790249,1
73,574,1,0.125529846708891,1
73,575,1,0.275500429810842,4
73,576,1,0.429981607294284,4
73,577,1,0.437615452102242,4
73,578,1,0.334286420291297,4
73,579,1,0.228774295003476,1
74,554,1,0.171924008915535,1
74,555,1,0.144553915884752,1
74,567,1,0.112541511295424,1
74,574,1,0.171098303866316,1
74,575,1,0.303690563572942,4
74,576,1,0.411622725112639,4
74,577,1,0.403776424811686,4
74,578,1,0.329126466326958,4
74,579,1,0.277045111088507,1
75,555,1,0.186225093574425,1
75,556,1,0.109409535640803,1
75,572,1,0.103582009132978,1
75,573,1,0.173386209010214,1
75,574,1,0.238711469328695,1
75,575,1,0.308102065069908,4
75,576,1,0.379204613753593,4
75,577,1,0.396541478699044,4
75,578,1,0.350960233254664,4
75,579,1,0.344132006953211,4
75,580,1,0.332414472153936,4
75,581,1,0.280117197474235,4
76,556,1,0.117662817183002,1
76,557,1,0.10808234238473,1
76,558,1,0.101233212571636,1
76,572,1,0.137756483865431,1
76,573,1,0.23899407522032,1
76,574,1,0.288667071416108,1
76,575,1,0.315259213954752,4
76,576,1,0.401751474733462,4
76,577,1,0.433313533370838,4
76,578,1,0.325805868886207,4
76,579,1,0.304399344029164,4
76,580,1,0.369692001840953,4
76,581,1,0.367643261627541,4
76,582,1,0.30592047481586,4
77,557,1,0.153611606819442,1
77,558,1,0.153394892195103,1
77,572,1,0.136105193589103,1
77,573,1,0.204470079394567,1
77,574,1,0.241286773248595,1
77,575,1,0.26641854570296,1
77,576,1,0.347463061596243,4
77,577,1,0.356503552611766,4
77,578,1,0.231757909100745,1
77,580,1,0.297069912736752,4
77,581,1,0.359672193831882,4
78,558,1,0.139392654770128,1
78,569,1,0.122517682270813,1
78,570,1,0.147811301716303,1
78,571,1,0.143510189060909,1
78,572,1,0.131499612953567,1
78,573,1,0.13531001049904,1
78,576,1,0.193468100447158,1
78,577,1,0.187258657304803,1
79,564,1,0.101796735952434,1
79,568,1,0.125998677944457,1
79,569,1,0.161837329276465,1
79,570,1,0.188862704991246,1
43,563,2,0.20279444344418,2
43,564,2,0.223641202977495,2
43,565,2,0.248405818702631,2
44,562,2,0.219791057170437,2
44,563,2,0.38534172791351,2
44,564,2,0.404684022826262,2
44,565,2,0.328675368763592,2
44,566,2,0.237874457429511,2
45,561,2,0.150035145603315,2
45,562,2,0.31181445902276,2
45,563,2,0.595945598957484,2
45,564,2,0.580832937365372,2
45,565,2,0.352462737149798,2
45,566,2,0.18743799832391,2
46,562,2,0.26000540497452,2
46,563,2,0.446109183939373,2
46,564,2,0.425689187188285,2
46,565,2,0.259977976604372,2
47,563,2,0.223094705229159,2
47,564,2,0.20951332662429,2
48,562,2,0.140367788882765,1
48,563,2,0.169759150185136,1
48,564,2,0.141846034247192,1
48,565,2,0.113977165346397,1
48,572,2,0.129333174749906,1
48,573,2,0.169478080195096,1
49,561,2,0.107595113008903,1
49,562,2,0.139979913821519,1
49,563,2,0.146239529748981,1
49,564,2,0.113974365866203,1
49,572,2,0.137220868143218,1
49,573,2,0.16206103715483,1
49,574,2,0.119776871338989,1
50,559,2,0.118875090143181,1
50,560,2,0.119777339734508,1
50,561,2,0.124093811405752,1
50,562,2,0.131594817065993,1
50,563,2,0.107881161062945,1
50,572,2,0.117966108727887,1
50,573,2,0.114752806539699,1
51,558,2,0.12056435313529,1
51,559,2,0.163894053999535,1
51,560,2,0.163055636913794,1
51,561,2,0.134535011987961,1
51,562,2,0.107455433108028,1
52,558,2,0.151325411863835,1
52,559,2,0.221837989159288,1
52,560,2,0.212254507915362,1
52,561,2,0.142091604214074,1
52,581,2,0.310311562982541,5
53,558,2,0.139025585184252,1
53,559,2,0.182976269577242,1
53,560,2,0.165605059258051,1
53,561,2,0.110621993780607,1
53,576,2,0.100047147974671,1
53,577,2,0.101103336297899,1
53,581,2,0.335279048431914,5
54,558,2,0.10076950100802,1
54,559,2,0.110200775494173,1
54,560,2,0.100039109000418,1
54,576,2,0.108973938701234,1
54,577,2,0.111141095837551,1
54,578,2,0.102233912365264,1
54,579,2,0.134277318202186,1
55,579,2,0.137277936146079,1
55,580,2,0.165478559789216,1
56,579,2,0.106616928878935,1
56,580,2,0.126801812865421,1
58,581,2,0.110390737109346,1
59,578,2,0.119808765805944,1
59,579,2,0.140334227799196,1
59,580,2,0.138182908967166,1
59,581,2,0.145405927333457,1
59,582,2,0.162755340921645,1
60,578,2,0.138300617850334,1
60,579,2,0.160676765002977,1
60,580,2,0.156956070645815,1
60,581,2,0.164379867295887,1
60,582,2,0.192771933991187,1
60,583,2,0.257715844106928,1
61,578,2,0.111861684218015,1
61,579,2,0.137168919812307,1
61,580,2,0.145676561907055,1
61,581,2,0.170599506210466,1
61,582,2,0.233575261927868,1
61,583,2,0.29397843695513,3
61,584,2,0.228690855243614,1
62,578,2,0.109485165177711,1
62,579,2,0.155079024622342,1
62,580,2,0.16871579372054,1
62,581,2,0.197506127321851,1
62,582,2,0.278268320539404,3
62,583,2,0.322925890020703,3
62,584,2,0.250722372223608,3
62,585,2,0.17631129545347,1
63,578,2,0.153254569612004,1
63,579,2,0.23866399798751,1
63,580,2,0.241641969552716,1
63,581,2,0.257006758648972,3
63,582,2,0.356242623629034,3
63,583,2,0.392901152298573,3
63,584,2,0.295333646798978,3
63,585,2,0.179223397537229,1
64,578,2,0.206299566933503,1
64,579,2,0.303353819873679,1
64,580,2,0.279196702243513,3
64,581,2,0.289274874512811,3
64,582,2,0.383114779544571,3
64,583,2,0.368990497854651,3
64,584,2,0.244204289113118,3
65,578,2,0.203499672808795,1
65,579,2,0.258619956387411,1
65,580,2,0.246964380511646,3
65,581,2,0.317795194436911,3
65,582,2,0.381335138003172,3
65,583,2,0.287382926976089,3
65,584,2,0.159028219742248,1
66,578,2,0.165078005370205,1
66,579,2,0.196340955343609,1
66,580,2,0.249058435268273,3
66,581,2,0.361786770847983,3
66,582,2,0.350318923538988,3
66,583,2,0.207374567327916,3
67,577,2,0.11902632743116,1
67,578,2,0.166373304159323,1
67,579,2,0.189862892817679,1
67,580,2,0.263438983771574,1
67,581,2,0.309096196433353,3
67,582,2,0.22890091429442,3
68,577,2,0.165306560597544,1
68,578,2,0.219758683415045,1
68,579,2,0.231023312426393,1
68,580,2,0.272523612895055,1
68,581,2,0.22893945344199,1
69,577,2,0.170617207203909,1
69,578,2,0.239151107541228,1
69,579,2,0.233965598788817,1
69,580,2,0.222086805216045,1
69,581,2,0.153791067660659,1
70,577,2,0.200997177159771,1
70,578,2,0.289252195455366,4
70,579,2,0.251892053870334,1
70,580,2,0.192313189598653,1
70,581,2,0.137987283034092,1
71,576,2,0.154998580415217,1
71,577,2,0.255428897539906,4
71,578,2,0.311554619331933,4
71,579,2,0.245915501337096,4
71,580,2,0.176823121040495,1
72,575,2,0.152267213644203,1
72,576,2,0.298261489150752,4
72,577,2,0.382295022029149,4
72,578,2,0.342594493216276,4
72,579,2,0.224399459072005,4
72,580,2,0.141318642678857,1
73,554,2,0.105214193229306,1
73,575,2,0.229311925915711,4
73,576,2,0.411912215329098,4
73,577,2,0.452778133978594,4
73,578,2,0.334125139731961,4
73,579,2,0.2014828052765,4
74,554,2,0.154076015529877,1
74,555,2,0.127394964986013,1
74,574,2,0.138514729067023,1
74,575,2,0.252539332905645,4
74,576,2,0.352573104205531,4
74,577,2,0.346240549292163,4
74,578,2,0.273672968354849,4
74,579,2,0.237722370493847,4
74,580,2,0.195541763659338,4
75,554,2,0.20570551070063,1
75,555,2,0.173982029895971,1
75,573,2,0.162812844641268,1
75,574,2,0.223778758759156,1
75,575,2,0.260004598898511,4
75,576,2,0.294237906286709,4
75,577,2,0.313891346538976,4
75,578,2,0.284269839643087,4
75,579,2,0.316153217606363,4
75,580,2,0.314962686912591,4
75,581,2,0.236915640909599,4
76,555,2,0.130666849292809,1
76,572,2,0.122383459722378,1
76,573,2,0.244779304523505,1
76,574,2,0.305695056749205,4
76,575,2,0.285242642671048,4
76,576,2,0.345866355737234,4
76,577,2,0.407063123488379,4
76,578,2,0.285181729467766,4
76,579,2,0.266937397222766,4
76,580,2,0.3479017412319,4
76,581,2,0.340084830026523,4
76,582,2,0.252656954645461,4
77,557,2,0.129747138352258,1
77,558,2,0.129942971250794,1
77,572,2,0.125715342227257,1
77,573,2,0.200864065689078,1
77,574,2,0.246702994026315,1
77,575,2,0.241943028049197,4
77,576,2,0.315118455654891,4
77,577,2,0.350963000056101,4
77,578,2,0.203384643583712,4
77,580,2,0.259905930837828,4
77,581,2,0.325295274199034,4
77,582,2,0.29730143083807,4
78,557,2,0.111421316179906,1
78,558,2,0.114819460311317,1
78,569,2,0.12115274505026,1
78,570,2,0.170803138439036,1
78,571,2,0.168418874533294,1
78,572,2,0.138161460809573,1
78,573,2,0.12777419106954,1
78,576,2,0.1624388580518,4
78,577,2,0.16248740779197,4
78,581,2,0.180346718920512,4
79,568,2,0.135447609852378,1
79,569,2,0.184655685370536,1
79,570,2,0.245158465249517,1
79,571,2,0.221032457796135,1
80,567,2,0.151691838767487,1
80,568,2,0.186649176698567,1
80,569,2,0.18484505876808,1
80,570,2,0.193360304120319,1
43,563,3,0.209205623447193,2
43,564,3,0.250238748403983,2
43,565,3,0.299899065242007,2
44,562,3,0.222677027141414,2
44,563,3,0.387768931706115,2
44,564,3,0.4447819906833,2
44,565,3,0.375647770684659,2
44,566,3,0.269743064594566,2
45,561,3,0.160886410122859,2
45,562,3,0.314354077739879,2
45,563,3,0.613479712880947,2
45,564,3,0.642734084833447,2
45,565,3,0.395187488862129,2
45,566,3,0.203335407589642,2
46,562,3,0.249479599090111,2
46,563,3,0.427335237970553,2
46,564,3,0.433265996672139,2
46,565,3,0.272781448288778,2
47,563,3,0.216529041848294,2
47,564,3,0.202775838338457,2
47,567,3,0.100801036008646,1
47,569,3,0.102157629253213,1
48,563,3,0.187272578455338,1
48,564,3,0.144474833292508,1
48,565,3,0.104654841836501,1
48,572,3,0.113681912775765,1
48,573,3,0.164641918249279,1
49,561,3,0.105233735126067,1
49,562,3,0.134450635437062,1
49,563,3,0.149983567631651,1
49,564,3,0.110742796252782,1
49,572,3,0.129274047985346,1
49,573,3,0.161613153002581,1
49,574,3,0.11746738732247,1
50,560,3,0.122548291373321,1
50,561,3,0.11609161164747,1
50,562,3,0.115092578470456,1
50,572,3,0.112482362745026,1
50,573,3,0.110315390788332,1
51,559,3,0.173553262816641,1
51,560,3,0.174019087606551,1
51,561,3,0.129285387514069,1
51,581,3,0.19222931412203,5
52,558,3,0.146666630211698,1
52,559,3,0.243502305838378,1
52,560,3,0.244339317737562,1
52,561,3,0.15322845928506,1
52,580,3,0.245158051318594,5
52,581,3,0.352769263891639,5
52,582,3,0.260237772723523,5
53,558,3,0.127150146630545,1
53,559,3,0.186357965400899,1
53,560,3,0.182976836009032,1
53,561,3,0.121024862180708,1
53,580,3,0.252104552935005,5
53,581,3,0.33890044293909,5
53,582,3,0.225611557745481,5
54,559,3,0.105150861797996,1
54,560,3,0.100208657285306,1
54,579,3,0.125081918984967,1
54,581,3,0.184912692902412,5
55,579,3,0.129692325183639,1
56,580,3,0.122560360727619,1
58,579,3,0.102778732604066,1
58,580,3,0.108936946348168,1
59,578,3,0.111928272632118,1
59,579,3,0.149242903601393,1
59,580,3,0.15130955177371,1
59,581,3,0.151839089247097,1
60,578,3,0.129445676817771,1
60,579,3,0.16977650260517,1
60,580,3,0.167322796340535,1
60,581,3,0.16346670299968,1
60,582,3,0.186057582265398,1
61,578,3,0.110583716063093,1
61,579,3,0.149399097167535,1
61,580,3,0.155918367606201,1
61,581,3,0.162867374593992,1
61,582,3,0.215354349458809,1
61,583,3,0.286401845329656,3
61,584,3,0.235239591028289,1
62,578,3,0.108816100304316,1
62,579,3,0.168182225867107,1
62,580,3,0.1797196898217,1
62,581,3,0.181476717663168,1
62,582,3,0.253508998772923,3
62,583,3,0.310703119850423,3
62,584,3,0.23746196437123,3
62,585,3,0.159197778920055,1
63,578,3,0.14300216510263,1
63,579,3,0.242933499391845,1
63,580,3,0.241484588658397,1
63,581,3,0.224442486102221,3
63,582,3,0.324621808586345,3
63,583,3,0.377898378473757,3
63,584,3,0.266298897880203,3
63,585,3,0.153762430176497,1
64,578,3,0.179144881376775,1
64,579,3,0.280220222702533,1
64,580,3,0.249867343436329,1
64,581,3,0.241034166456012,3
64,582,3,0.358370773222262,3
64,583,3,0.368701617641658,3
64,584,3,0.228391278184122,3
65,578,3,0.165101806398312,1
65,579,3,0.217795060471027,1
65,580,3,0.20100469327391,1
65,581,3,0.260360971637887,3
65,582,3,0.360360517386143,3
65,583,3,0.294022335418869,3
66,578,3,0.126428948246615,1
66,579,3,0.156899373002201,1
66,580,3,0.202665536640238,3
66,581,3,0.310595214594393,3
66,582,3,0.327841690097635,3
66,583,3,0.204619965960585,3
67,578,3,0.133970769674507,1
67,579,3,0.161157306126513,1
67,580,3,0.2287364965744,1
67,581,3,0.280831555105006,3
67,582,3,0.210328705186257,3
68,577,3,0.129416494687658,1
68,578,3,0.186211869570708,1
68,579,3,0.207582164579017,1
68,580,3,0.243003257645389,1
68,581,3,0.210547391428944,1
69,577,3,0.137958493049064,1
69,578,3,0.213466388730456,1
69,579,3,0.216441005276597,1
69,580,3,0.195076962803818,1
69,581,3,0.136299643086921,1
70,577,3,0.164928271305055,1
70,578,3,0.262978736156213,1
70,579,3,0.232657119567659,1
70,580,3,0.165440064213322,1
71,576,3,0.127866835345992,1
71,577,3,0.225167431650302,4
71,578,3,0.291938432862789,4
71,579,3,0.220865992207336,1
71,580,3,0.144846935406981,1
72,575,3,0.114540340153785,1
72,576,3,0.261685594165066,4
72,577,3,0.381710900138443,4
72,578,3,0.348295847042839,4
72,579,3,0.199236532869181,4
73,575,3,0.179592286240585,4
73,576,3,0.379033464209605,4
73,577,3,0.472328832218458,4
73,578,3,0.345420094629923,4
73,579,3,0.171662012426738,4
74,555,3,0.103939492950097,1
74,574,3,0.110943650786997,1
74,575,3,0.208752586944238,4
74,576,3,0.315014755065612,4
74,577,3,0.322625506885201,4
74,578,3,0.237384733575222,4
74,579,3,0.188033427064581,1
75,554,3,0.171563714725303,1
75,555,3,0.145057343031195,1
75,573,3,0.141774870807091,1
75,574,3,0.206601104718422,1
75,575,3,0.228513997810049,1
75,576,3,0.241004908075466,4
75,577,3,0.256074978354123,4
75,578,3,0.224532069468422,4
75,579,3,0.262648854995946,4
75,580,3,0.27107535573675,4
76,554,3,0.129103900589911,1
76,572,3,0.103907260802652,1
76,573,3,0.23211794186092,1
76,574,3,0.322262859824457,1
76,575,3,0.282628385672654,4
76,576,3,0.295936417367084,4
76,577,3,0.368741790727085,4
76,578,3,0.254658572091097,4
76,579,3,0.223570399003722,1
76,580,3,0.29113797759991,4
76,581,3,0.273841895743351,4
77,557,3,0.102747665998959,1
77,572,3,0.112862231510776,1
77,573,3,0.19203398229777,1
77,574,3,0.261508039584682,1
77,575,3,0.244495478624948,1
77,576,3,0.282594138335186,4
77,577,3,0.333196431240282,4
77,578,3,0.190047375294573,1
77,581,3,0.245538889554139,4
78,569,3,0.114745540962698,1
78,570,3,0.190978284155899,1
78,571,3,0.194062570610954,1
78,572,3,0.139163674718947,1
78,576,3,0.144283422919102,1
78,577,3,0.146225434311741,1
79,568,3,0.147686806544572,1
79,569,3,0.198868766136486,1
79,570,3,0.295684856294729,1
79,571,3,0.278725997425872,1
42,564,4,0.185507315567074,2
42,565,4,0.186964744563213,2
43,563,4,0.21634431972718,2
43,564,4,0.276237749714954,2
43,565,4,0.334088844525714,2
43,566,4,0.294029459387922,2
44,562,4,0.217146757501325,2
44,563,4,0.373220436177025,2
44,564,4,0.47647476434918,2
44,565,4,0.413655082375812,2
44,566,4,0.282783609769002,2
45,561,4,0.175182701897371,2
45,562,4,0.306089641848581,2
45,563,4,0.578170402949784,2
45,564,4,0.67686682879305,2
45,565,4,0.440083133982008,2
45,566,4,0.221823566934477,2
46,562,4,0.243521128802482,2
46,563,4,0.390445801203163,2
46,564,4,0.439510297155429,2
46,565,4,0.297701963471243,2
46,566,4,0.174294417028256,2
47,563,4,0.202794857375104,2
47,564,4,0.199606369256494,2
47,565,4,0.162759066299958,2
47,566,4,0.131104733745376,1
47,567,4,0.110561723259547,1
47,568,4,0.108473768537584,1
47,569,4,0.112462483167774,1
48,562,4,0.140469060351098,1
48,563,4,0.173069203280254,1
48,564,4,0.133119967339815,1
48,573,4,0.151379103061793,1
48,574,4,0.125564812979016,1
49,561,4,0.111304859982428,1
49,562,4,0.125270660593207,1
49,563,4,0.134275368369677,1
49,564,4,0.102085986524674,1
49,568,4,0.100061690021592,1
49,572,4,0.120261486414247,1
49,573,4,0.157757005197132,1
49,574,4,0.115201725519256,1
50,560,4,0.135565732666469,1
50,561,4,0.122116735706717,1
50,562,4,0.107183219061169,1
50,572,4,0.109869576290702,1
50,573,4,0.112795708454187,1
51,559,4,0.174468093729461,1
51,560,4,0.18492511083012,1
51,561,4,0.133330658179925,1
51,581,4,0.223451709757841,5
52,558,4,0.135129318757972,1
52,559,4,0.243742799704986,1
52,560,4,0.259774605805859,1
52,561,4,0.16032778855563,1
52,580,4,0.266409940296917,5
52,581,4,0.396369065576448,5
52,582,4,0.280983859899051,5
53,558,4,0.114131213007488,1
53,559,4,0.179709363334448,1
53,560,4,0.190892861884772,1
53,561,4,0.127665860989667,1
53,579,4,0.126046269107752,1
53,580,4,0.247405238731112,1
53,581,4,0.330124083424497,5
53,582,4,0.213144829760337,1
54,559,4,0.100864846728394,1
54,560,4,0.100632609694419,1
54,579,4,0.120966029524962,1
54,580,4,0.16907712273808,1
54,581,4,0.173253467898768,1
55,579,4,0.116903580725777,1
55,580,4,0.143360585710786,1
56,580,4,0.112422201153157,1
56,581,4,0.12586232038389,1
57,580,4,0.104454771592458,1
57,581,4,0.114793284626859,1
58,579,4,0.121532646494768,1
58,580,4,0.130490808828171,1
58,581,4,0.128418921161795,1
58,582,4,0.153723226560865,1
59,578,4,0.103381328885468,1
59,579,4,0.158764937889004,1
59,580,4,0.167460798731877,1
59,581,4,0.160839537892221,1
59,582,4,0.174948841818459,1
60,578,4,0.11387821406982,1
60,579,4,0.171234062316336,1
60,580,4,0.179770298323569,1
60,581,4,0.17616518873036,1
60,582,4,0.198817264415256,1
61,578,4,0.105063293621818,1
61,579,4,0.159903694538569,1
61,580,4,0.173779116600057,1
61,581,4,0.174741582247848,1
61,582,4,0.215944919957588,1
62,578,4,0.107568000533407,1
62,579,4,0.181418603940079,1
62,580,4,0.1960654516352,1
62,581,4,0.180660184451783,1
62,582,4,0.241949672729813,3
62,583,4,0.308928336550916,3
62,584,4,0.259572977874392,1
63,578,4,0.132980265653102,1
63,579,4,0.245042368518368,1
63,580,4,0.245706379077328,1
63,581,4,0.209865080765993,3
63,582,4,0.30568215953306,3
63,583,4,0.368124031502377,3
63,584,4,0.255582204482503,3
64,578,4,0.150449185456099,1
64,579,4,0.252722595375607,1
64,580,4,0.227100053346726,1
64,581,4,0.21460903415212,3
64,582,4,0.343965279934355,3
64,583,4,0.374746751993185,3
64,584,4,0.226552836665734,3
65,578,4,0.132711689841204,1
65,579,4,0.188289846378829,1
65,580,4,0.17585308481397,1
65,581,4,0.2208982352477,3
65,582,4,0.337413581275701,3
65,583,4,0.31109018883566,3
65,584,4,0.173436142151102,3
66,578,4,0.106530820353908,1
66,579,4,0.145722039844055,1
66,580,4,0.183053565730763,1
66,581,4,0.257552755323032,3
66,582,4,0.286575805246756,3
66,583,4,0.206009052782653,3
67,578,4,0.121562514878781,1
67,579,4,0.167755866122886,1
67,580,4,0.226566888531299,1
67,581,4,0.254914446759393,1
67,582,4,0.185387319170908,1
68,577,4,0.103329990558023,1
68,578,4,0.169053495996678,1
68,579,4,0.210432972207327,1
68,580,4,0.238478077645302,1
68,581,4,0.200681500365935,1
69,552,4,0.116364816949962,1
69,577,4,0.121725015445049,1
69,578,4,0.207476481478472,1
69,579,4,0.219236803663744,1
69,580,4,0.185455116699025,1
69,581,4,0.127110790514046,1
70,552,4,0.107418582362909,1
70,577,4,0.150001584519746,1
70,578,4,0.252289667201204,1
70,579,4,0.222908196669323,1
70,580,4,0.14692435667623,1
71,576,4,0.11426592573728,1
71,577,4,0.216693546711665,4
71,578,4,0.294211567208466,4
71,579,4,0.209638704122463,1
71,580,4,0.121365069828226,1
72,576,4,0.230311547310353,4
72,577,4,0.381668504897532,4
72,578,4,0.366950297689768,4
72,579,4,0.191173768481026,4
73,575,4,0.148471684933222,4
73,576,4,0.345614032160546,4
73,577,4,0.484067913211598,4
73,578,4,0.361579522170291,4
73,579,4,0.159764417675699,4
74,554,4,0.104522765193118,1
74,575,4,0.180007164848136,1
74,576,4,0.302336573736026,4
74,577,4,0.33528671704692,4
74,578,4,0.232033216736612,4
75,549,4,0.242097424283698,1
75,553,4,0.106887225772042,1
75,554,4,0.136664011228874,1
75,555,4,0.115229219246918,1
75,573,4,0.118032991250805,1
75,574,4,0.180814548007526,1
75,575,4,0.204985466966118,1
75,576,4,0.216824697456931,1
75,577,4,0.225626786046301,4
75,578,4,0.18411215049618,1
76,552,4,0.112488604387637,1
76,553,4,0.12748072493763,1
76,554,4,0.123220852873729,1
76,573,4,0.207396810668599,1
76,574,4,0.316972343332481,1
76,575,4,0.277162689256645,1
76,576,4,0.245840231266516,4
76,577,4,0.297997880509937,4
76,578,4,0.207653055696142,1
77,553,4,0.157265941513801,1
77,554,4,0.12083359341525,1
77,572,4,0.104930977334215,1
77,573,4,0.191295660245106,1
77,574,4,0.283069156748768,1
77,575,4,0.254005389093665,1
77,576,4,0.240304035878468,1
77,577,4,0.279569349003938,1
77,578,4,0.162261401507687,1
78,553,4,0.164546823066043,1
78,554,4,0.128417679369025,1
78,570,4,0.182674666434808,1
78,571,4,0.19427637682591,1
78,572,4,0.13124193006071,1
78,573,4,0.119385771973707,1
78,577,4,0.129192873952646,1
79,554,4,0.126791268519788,1
79,568,4,0.141244538150614,1
79,569,4,0.184044015287573,1
79,570,4,0.297712660317742,1
79,571,4,0.293257630716285,1
80,567,4,0.167773883010981,1
80,568,4,0.27140850477273,1
80,569,4,0.240900858912777,1
80,570,4,0.226791500521944,1
42,564,5,0.203967000821533,2
42,565,5,0.190955953671863,2
43,563,5,0.230302179399977,2
43,564,5,0.310802855417171,2
43,565,5,0.35157642389903,2
43,566,5,0.278734406759372,2
44,562,5,0.219630691616302,2
44,563,5,0.346477034564564,2
44,564,5,0.483830665434864,2
44,565,5,0.425176958563255,2
44,566,5,0.27947632347532,2
44,568,5,0.223186488965007,2
44,569,5,0.293576488242481,2
44,570,5,0.254517334502799,1
45,561,5,0.191195728605815,2
45,562,5,0.299984814300705,2
45,563,5,0.492799284970548,2
45,564,5,0.6372133356046,2
45,565,5,0.443353798281871,2
45,566,5,0.236138322206765,2
45,568,5,0.209513914841919,1
45,569,5,0.276539875717502,2
45,570,5,0.253955935241214,2
46,562,5,0.247705142578176,2
46,563,5,0.338836850077723,2
46,564,5,0.416754640703364,2
46,565,5,0.305921978038688,2
46,566,5,0.191472604822023,2
46,567,5,0.157002104121686,1
46,568,5,0.175726432844269,1
46,569,5,0.206454747458174,1
47,562,5,0.174046744727999,1
47,563,5,0.190945561827097,2
47,564,5,0.19930646540943,2
47,565,5,0.168726882712124,2
47,566,5,0.136969808145139,1
47,567,5,0.124827503967823,1
47,568,5,0.133570139005062,1
47,569,5,0.139084918914274,1
47,570,5,0.12101972072292,1
48,561,5,0.132605364058435,1
48,562,5,0.142535033162434,1
48,563,5,0.148143132709078,1
48,564,5,0.123237834934515,1
48,565,5,0.0997136830440395,1
48,568,5,0.109548463930264,1
48,569,5,0.10753875304578,1
48,573,5,0.123614588325419,1
48,574,5,0.117625400006092,1
49,560,5,0.127857086183449,1
49,561,5,0.130340007256955,1
49,562,5,0.120719827768776,1
49,563,5,0.115843329343747,1
49,564,5,0.102202399150475,1
49,572,5,0.113977982315325,1
49,573,5,0.149585071974339,1
49,574,5,0.113790449821099,1
50,559,5,0.121210706272482,1
50,560,5,0.150723294870871,1
50,561,5,0.135768210245621,1
50,562,5,0.104349415279484,1
50,572,5,0.120307095066276,1
50,573,5,0.130087596536914,1
51,559,5,0.157040403625038,1
51,560,5,0.183306194309184,1
51,561,5,0.135278246747113,1
51,581,5,0.242169753266137,5
51,582,5,0.242049800441647,1
52,558,5,0.112383945221482,1
52,559,5,0.209445725168716,1
52,560,5,0.241107802588736,1
52,561,5,0.155401324310956,1
52,579,5,0.105181231256285,1
52,580,5,0.239896096060346,5
52,581,5,0.392307488210786,5
52,582,5,0.300767731963927,5
52,583,5,0.225428578491414,1
53,559,5,0.157671016494215,1
53,560,5,0.182085588265938,1
53,561,5,0.128561422328702,1
53,579,5,0.109716476313567,1
53,580,5,0.209427708280621,1
53,581,5,0.287635969485434,5
53,582,5,0.2002441496664,1
54,560,5,0.100110316012195,1
54,579,5,0.110443567766699,1
54,580,5,0.155852410981402,1
54,581,5,0.158287446782799,1
55,580,5,0.122166995635176,1
55,581,5,0.127346742033414,1
56,580,5,0.105980608120179,1
56,581,5,0.126849534743744,1
56,582,5,0.181424181114629,1
57,579,5,0.111673944758327,1
57,580,5,0.130173291131017,1
57,581,5,0.128293652592813,1
57,582,5,0.163051889749644,1
58,579,5,0.157624144263577,1
58,580,5,0.181053854545959,1
58,581,5,0.149948318145631,1
58,582,5,0.162693621642353,1
59,579,5,0.173100542208338,1
59,580,5,0.203129531419749,1
59,581,5,0.180734986126844,1
59,582,5,0.195257741688238,1
59,583,5,0.223444062928673,1
60,579,5,0.169885867512351,1
60,580,5,0.20564252784273,1
60,581,5,0.209214904214217,1
60,582,5,0.235809247122507,1
61,579,5,0.168527792830794,1
61,580,5,0.203027464768326,1
61,581,5,0.20195170186958,1
62,578,5,0.100743129251019,1
62,579,5,0.188826889073436,1
62,580,5,0.216238614840797,1
62,581,5,0.183200326029016,1
62,582,5,0.222274729855357,1
63,578,5,0.112892513825713,1
63,579,5,0.22341669991604,1
63,580,5,0.238353833010709,1
63,581,5,0.190238371737055,1
63,582,5,0.264985887204723,3
63,583,5,0.32171762565473,3
63,584,5,0.230306275137537,1
64,578,5,0.116437657899595,1
64,579,5,0.210764291232907,1
64,580,5,0.205774027161404,1
64,581,5,0.188264313376595,1
64,582,5,0.301500694700422,3
64,583,5,0.34524707150386,3
64,584,5,0.21188863655058,3
65,578,5,0.105380212208425,1
65,579,5,0.16617925769951,1
65,580,5,0.166855392077363,1
65,581,5,0.183863868192457,1
65,582,5,0.284996201270643,3
65,583,5,0.303560589262933,3
66,579,5,0.153900269174054,1
66,580,5,0.18429418206629,1
66,581,5,0.202461294408201,1
66,582,5,0.221152868123225,1
66,583,5,0.191871067800578,1
67,578,5,0.117813662325895,1
67,579,5,0.19298064232003,1
67,580,5,0.242012895231932,1
67,581,5,0.220631794447934,1
67,582,5,0.149459487510704,1
68,552,5,0.11804202148069,1
68,578,5,0.160451815331842,1
68,579,5,0.230865060098552,1
68,580,5,0.249360670200011,1
68,581,5,0.186386940565551,1
69,551,5,0.118218366947061,1
69,552,5,0.15336228968841,1
69,553,5,0.116058616995692,1
69,577,5,0.107362505615681,1
69,578,5,0.208171144711616,1
69,579,5,0.236873964601345,1
69,580,5,0.187598734237293,1
69,581,5,0.117913593965186,1
70,551,5,0.110399756446312,1
70,552,5,0.128946770232731,1
70,577,5,0.140149167997593,1
70,578,5,0.251750119135217,1
70,579,5,0.224781190526912,1
70,580,5,0.135234293818779,1
71,577,5,0.206443070248961,4
71,578,5,0.299841637772817,4
71,579,5,0.204461713632743,1
71,580,5,0.103481761599035,1
72,576,5,0.183246392183644,4
72,577,5,0.345853916023688,4
72,578,5,0.359124476076614,4
72,579,5,0.178573166520857,4
73,575,5,0.113534139436041,1
73,576,5,0.288419017863684,4
73,577,5,0.447028894879924,4
73,578,5,0.341892096010613,4
73,579,5,0.141335330630829,4
74,549,5,0.22095986738364,1
74,551,5,0.110198433516579,1
74,575,5,0.151583301722153,1
74,576,5,0.28930877327687,4
74,577,5,0.343273209215943,4
74,578,5,0.220263461283449,4
74,579,5,0.120854104781806,1
75,548,5,0.181011786092619,1
75,549,5,0.247697670035713,1
75,550,5,0.18453420753738,1
75,551,5,0.112687563553938,1
75,574,5,0.143776542717323,1
75,575,5,0.183306292345456,1
75,576,5,0.209563869768645,1
75,577,5,0.20680090263949,4
75,578,5,0.146591545320741,1
76,549,5,0.177604176014561,1
76,551,5,0.107596006228264,1
76,552,5,0.117456331009642,1
76,553,5,0.140591224438153,1
76,554,5,0.119910059060115,1
76,573,5,0.165650874875541,1
76,574,5,0.284140954624983,1
76,575,5,0.266260097302575,1
76,576,5,0.20532643711797,1
76,577,5,0.213490984941653,1
77,552,5,0.16893397888895,1
77,553,5,0.206587510355458,1
77,554,5,0.154148104868097,1
77,573,5,0.182678435384796,1
77,574,5,0.3029367517894,1
77,575,5,0.27210013977438,1
77,576,5,0.201754300390702,1
77,577,5,0.208421834350448,1
78,552,5,0.192306370631333,1
78,553,5,0.209620839735234,1
78,554,5,0.159259890344432,1
78,570,5,0.147577626817015,1
78,571,5,0.168428275122427,1
78,572,5,0.116002169889217,1
78,573,5,0.123786304301197,1
78,574,5,0.171928148224771,1
79,553,5,0.17544592928602,1
79,554,5,0.156864156194939,1
79,555,5,0.11160353292964,1
79,568,5,0.120126795470293,1
79,569,5,0.150835470151165,1
79,570,5,0.251286669001658,1
79,571,5,0.263057056244125,1
79,572,5,0.134817846630886,1
80,554,5,0.15779978169021,1
80,555,5,0.115966593615626,1
80,567,5,0.143262658368599,1
80,568,5,0.263220297528888,1
80,569,5,0.237868531681552,1
80,570,5,0.202586737263888,1
80,571,5,0.165816501709574,1
81,567,5,0.141953906824465,1
81,568,5,0.271909535476984,1
81,569,5,0.247739607774024,1
81,570,5,0.14175123317277,1
42,564,6,0.209993225065603,2
42,565,6,0.185642736336604,2
43,563,6,0.233341042382627,2
43,564,6,0.346336494123085,2
43,565,6,0.360528246553551,2
43,566,6,0.255406087767433,2
43,568,6,0.237522049712665,2
43,569,6,0.234707450147251,2
43,570,6,0.155195317426034,1
44,562,6,0.211847766318335,2
44,563,6,0.315731705211116,2
44,564,6,0.483381354310222,2
44,565,6,0.433310744783564,2
44,566,6,0.285765328498358,2
44,567,6,0.244174921803381,2
44,568,6,0.341678878013285,2
44,569,6,0.397717565382167,2
44,570,6,0.309005196987676,2
44,571,6,0.192803523456408,1
45,561,6,0.191568898226354,1
45,562,6,0.289171369996074,2
45,563,6,0.407543588361482,2
45,564,6,0.561819303605954,2
45,565,6,0.421142177778437,2
45,566,6,0.25544841765083,2
45,567,6,0.21792588442872,2
45,568,6,0.273834946061003,2
45,569,6,0.344565697631948,2
45,570,6,0.342119736232751,2
45,571,6,0.256787549546172,2
46,562,6,0.255400684879588,2
46,563,6,0.301964123048143,2
46,564,6,0.38442018696256,2
46,565,6,0.29907606163671,2
46,566,6,0.20667423977687,2
46,567,6,0.181212978307324,1
46,568,6,0.194258468867005,1
46,569,6,0.227286235118992,2
46,570,6,0.254656044933879,2
46,571,6,0.216594856865145,1
47,562,6,0.191636870041176,1
47,563,6,0.187199094823481,2
47,564,6,0.204354353022665,2
47,565,6,0.177012222115063,2
47,566,6,0.146100873782496,1
47,567,6,0.140754661795459,1
47,568,6,0.15730632156469,1
47,569,6,0.160668083346501,1
47,570,6,0.148755990120217,1
47,571,6,0.119646134524648,1
48,561,6,0.158538517673797,1
48,562,6,0.14872003259446,1
48,563,6,0.128789618089712,1
48,564,6,0.118502160166861,1
48,565,6,0.104449020131204,1
48,567,6,0.102981351791166,1
48,568,6,0.126384929960766,1
48,569,6,0.125623144560486,1
49,560,6,0.141181348327252,1
49,561,6,0.150812039482306,1
49,562,6,0.122780201619724,1
49,563,6,0.104475849390804,1
49,564,6,0.102797871462823,1
49,573,6,0.120358030355716,1
50,559,6,0.114435724559306,1
50,560,6,0.164532161197013,1
50,561,6,0.152299805257976,1
50,562,6,0.107349967865863,1
50,572,6,0.113473618377844,1
50,573,6,0.127919971005078,1
51,559,6,0.139153086801639,1
51,560,6,0.180637875753585,1
51,561,6,0.139456095130629,1
51,581,6,0.250685619514761,5
51,582,6,0.269726136998375,5
52,559,6,0.169675775782788,1
52,560,6,0.20612449593866,1
52,561,6,0.139987832973662,1
52,580,6,0.196997035857506,5
52,581,6,0.367314077614093,5
52,582,6,0.331308862657015,5
52,583,6,0.231707692743962,5
53,559,6,0.133795676893826,1
53,560,6,0.158315909980256,1
53,561,6,0.114206973259425,1
53,580,6,0.170691082980852,1
53,581,6,0.248520085423381,5
53,582,6,0.19911908541607,5
54,579,6,0.100431101585062,1
54,580,6,0.144903208226752,1
54,581,6,0.148144461645201,1
54,582,6,0.130529740120827,1
55,580,6,0.108922273586218,1
55,581,6,0.118579194890326,1
55,582,6,0.165815020272584,1
56,581,6,0.122060266814403,1
56,582,6,0.197045030058805,1
57,579,6,0.115063897414618,1
57,580,6,0.139252452009139,1
57,581,6,0.131822108714723,1
57,582,6,0.170510108023888,1
58,579,6,0.17166187081879,1
58,580,6,0.209915558552834,1
58,581,6,0.158701040025904,1
58,582,6,0.164538588019247,1
59,579,6,0.17413803828249,1
59,580,6,0.221000280113285,1
59,581,6,0.183960368562249,1
59,582,6,0.201502804675861,1
60,579,6,0.157777984959207,1
60,580,6,0.211083976620951,1
60,581,6,0.217228802967549,1
60,582,6,0.257901786234974,1
61,579,6,0.163620053513953,1
61,580,6,0.212510949015448,1
61,581,6,0.202506630737254,1
62,579,6,0.183025843251801,1
62,580,6,0.219972271771619,1
62,581,6,0.172002350789285,1
62,582,6,0.188076388737283,1
63,579,6,0.191356747735093,1
63,580,6,0.217614848018396,1
63,581,6,0.166570019384302,1
63,582,6,0.211080338385991,1
63,583,6,0.261377324556178,1
64,579,6,0.173696929525885,1
64,580,6,0.190421525277826,1
64,581,6,0.16477255702735,1
64,582,6,0.241582864573994,1
64,583,6,0.302427355323322,3
64,584,6,0.201918739896559,1
65,579,6,0.151270021370506,1
65,580,6,0.168299324746808,1
65,581,6,0.158554573836465,1
65,582,6,0.224162843084576,1
65,583,6,0.278815406505368,1
65,584,6,0.191025973355465,1
66,579,6,0.159584782547778,1
66,580,6,0.19040692876631,1
66,581,6,0.165123189198391,1
66,582,6,0.160511682814896,1
66,583,6,0.162118018014338,1
66,584,6,0.113155490677224,1
67,552,6,0.103532206707118,1
67,553,6,0.100316007002465,1
67,578,6,0.11186003938724,1
67,579,6,0.213762022553255,1
67,580,6,0.260821262824924,1
67,581,6,0.192791541245462,1
67,582,6,0.113832670775305,1
68,551,6,0.0997439653589761,1
68,552,6,0.138442607050046,1
68,553,6,0.118213072988406,1
68,578,6,0.146316128755684,1
68,579,6,0.242714007073149,1
68,580,6,0.256610060323302,1
68,581,6,0.164913402470562,1
69,551,6,0.125065873715218,1
69,552,6,0.170872319367872,1
69,553,6,0.129512711841556,1
69,578,6,0.196317186994259,1
69,579,6,0.238184970979721,1
69,580,6,0.179022575681771,1
69,581,6,0.100670103121762,1
70,551,6,0.110695041695702,1
70,552,6,0.134474022534245,1
70,577,6,0.128349674875446,1
70,578,6,0.2472270959331,1
70,579,6,0.217775104643342,1
70,580,6,0.117941251086633,1
71,577,6,0.189504755425417,1
71,578,6,0.296891726367064,1
71,579,6,0.191352063779905,1
72,576,6,0.143429603245836,1
72,577,6,0.295360595880688,4
72,578,6,0.325501433584822,4
72,579,6,0.155597026494464,1
73,550,6,0.109624834185667,1
73,576,6,0.233233899630931,4
73,577,6,0.383589318669715,4
73,578,6,0.291884665414398,4
73,579,6,0.115529504346148,1
74,549,6,0.201635131856383,1
74,550,6,0.166072844773389,1
74,551,6,0.110017164450802,1
74,575,6,0.124011068792709,1
74,576,6,0.264108070430808,4
74,577,6,0.330924560473214,4
74,578,6,0.198684436160458,4
75,548,6,0.169262999508612,1
75,549,6,0.246572475070354,1
75,550,6,0.188706043029584,1
75,551,6,0.113572417153555,1
75,574,6,0.109112823419019,1
75,575,6,0.159727588716418,1
75,576,6,0.204854207291663,1
75,577,6,0.199604648175285,4
75,578,6,0.124388976833032,1
76,549,6,0.188310041850733,1
76,550,6,0.147054113127858,1
76,551,6,0.106349812718188,1
76,552,6,0.111469691633371,1
76,553,6,0.136790390875599,1
76,554,6,0.110710923571665,1
76,573,6,0.125936250625428,1
76,574,6,0.237627384239801,1
76,575,6,0.244957621608222,1
76,576,6,0.181605962147601,1
76,577,6,0.157420947751768,1
77,551,6,0.114774494341511,1
77,552,6,0.169440750161539,1
77,553,6,0.225862378099341,1
77,554,6,0.167696684893731,1
77,573,6,0.161664458651269,1
77,574,6,0.300277920966286,1
77,575,6,0.27948882854638,1
77,576,6,0.175872016707265,1
78,551,6,0.141756973741105,1
78,552,6,0.202281060169733,1
78,553,6,0.225225599837986,1
78,554,6,0.166920324767772,1
78,570,6,0.10210604038863,1
78,571,6,0.125763641430289,1
78,573,6,0.121064719371482,1
78,574,6,0.185853383605038,1
78,575,6,0.168923075076989,1
79,552,6,0.178322041165264,1
79,553,6,0.186532295677247,1
79,554,6,0.176085398098378,1
79,555,6,0.122909478782914,1
79,569,6,0.109563452586866,1
79,570,6,0.175980216072109,1
79,571,6,0.201359301360402,1
79,572,6,0.111985460457089,1
80,553,6,0.167265717444755,1
80,554,6,0.199374655082633,1
80,555,6,0.144159276320781,1
80,567,6,0.105671989937883,1
80,568,6,0.208456648119706,1
80,569,6,0.20208302690155,1
80,570,6,0.157279165517518,1
80,571,6,0.133829281549071,1
81,554,6,0.14844373370296,1
81,555,6,0.11377872904021,1
81,567,6,0.110880471856553,1
81,568,6,0.234851541680338,1
81,569,6,0.235893144384968,1
81,570,6,0.12867890246057,1
82,568,6,0.109549781973468,1
42,564,7,0.205946244211458,2
42,565,7,0.177208338229495,2
43,563,7,0.231610789336164,2
43,564,7,0.372470393343472,2
43,565,7,0.360953832900521,2
43,566,7,0.231538721783783,2
43,567,7,0.200493488583271,2
43,568,7,0.267491825016164,2
43,569,7,0.229414537213086,2
43,570,7,0.139243922853529,2
44,562,7,0.207295201519776,2
44,563,7,0.295082412514194,2
44,564,7,0.477934633359184,2
44,565,7,0.44309764039768,2
44,566,7,0.301075914429462,2
44,567,7,0.310853442133202,2
44,568,7,0.44412662910206,2
44,569,7,0.427611525969134,2
44,570,7,0.301522938041106,2
44,571,7,0.219571913425151,2
44,572,7,0.19450889707578,1
45,562,7,0.275105735782276,2
45,563,7,0.347826863306406,2
45,564,7,0.483180619598116,2
45,565,7,0.40582263786788,2
45,566,7,0.297211063181698,2
45,567,7,0.30063261619613,2
45,568,7,0.366514471998899,2
45,569,7,0.387639741686278,2
45,570,7,0.402426661427359,2
45,571,7,0.363013814606384,2
45,572,7,0.259091728711118,2
45,573,7,0.26299446553131,2
46,562,7,0.264585419929064,2
46,563,7,0.29298367380238,2
46,564,7,0.360475829827121,2
46,565,7,0.304797850579395,2
46,566,7,0.240881883447806,2
46,567,7,0.225224227330187,2
46,568,7,0.229285434336601,2
46,569,7,0.251840530363266,2
46,570,7,0.329674990158235,2
46,571,7,0.333323725892206,2
46,572,7,0.202679828150021,1
47,561,7,0.205168555149376,1
47,562,7,0.220759132671534,1
47,563,7,0.205809342004938,2
47,564,7,0.221460157369399,2
47,565,7,0.196358950445866,2
47,566,7,0.167333743724172,1
47,567,7,0.165271496291148,1
47,568,7,0.185338170320191,1
47,569,7,0.185831815625334,1
47,570,7,0.182454575005565,2
47,571,7,0.165764422663635,1
47,572,7,0.102407109778031,1
48,560,7,0.146336215298398,1
48,561,7,0.19607852313805,1
48,562,7,0.17285959083913,1
48,563,7,0.13397937508055,1
48,564,7,0.126965980048302,1
48,565,7,0.116666300270286,1
48,566,7,0.109055472200263,1
48,567,7,0.119682113836243,1
48,568,7,0.150427726405587,1
48,569,7,0.14622954094222,1
48,570,7,0.105822726151585,1
49,560,7,0.152771991512607,1
49,561,7,0.171927854115957,1
49,562,7,0.131175973435911,1
49,563,7,0.103932467017315,1
49,564,7,0.106916505938427,1
50,559,7,0.109725702615996,1
50,560,7,0.174434271215836,1
50,561,7,0.162313186444813,1
50,562,7,0.109430624332068,1
50,573,7,0.111329031369782,1
50,582,7,0.167877681636532,1
51,559,7,0.121660616507673,1
51,560,7,0.173767014567001,1
51,561,7,0.139949141325225,1
51,580,7,0.132817253119639,1
51,581,7,0.251515964947491,1
51,582,7,0.311514729462401,5
51,583,7,0.266299420740317,1
52,559,7,0.128611279219157,1
52,560,7,0.16314004614345,1
52,561,7,0.121343185953871,1
52,580,7,0.160630546347482,1
52,581,7,0.32496990270725,5
52,582,7,0.364285301474476,5
52,583,7,0.231357093251677,5
53,556,7,0.106572420411729,1
53,559,7,0.106344823761266,1
53,560,7,0.127739725873691,1
53,580,7,0.138583801066668,1
53,581,7,0.20925170049474,1
53,582,7,0.204157234759682,5
54,580,7,0.13003761982435,1
54,581,7,0.138511177975415,1
54,582,7,0.127160059186873,1
54,583,7,0.136114812036617,1
55,581,7,0.111021763909446,1
55,582,7,0.155152519147118,1
56,581,7,0.119398636511095,1
57,579,7,0.110671774420628,1
57,580,7,0.14746546242964,1
57,581,7,0.144455792470022,1
58,579,7,0.166945716162059,1
58,580,7,0.233129218678937,1
58,581,7,0.184045954227162,1
58,582,7,0.186008041269595,1
59,579,7,0.165008508546718,1
59,580,7,0.239340666118397,1
59,581,7,0.204629638872694,1
59,582,7,0.225361957398553,1
60,579,7,0.145680908181752,1
60,580,7,0.218475236121845,1
60,581,7,0.224542940601626,1
61,579,7,0.157571782001743,1
61,580,7,0.225882638928759,1
61,581,7,0.199748913995077,1
62,579,7,0.170600551930694,1
62,580,7,0.223791045971836,1
62,581,7,0.163705791679732,1
62,582,7,0.1604868578524,1
63,579,7,0.154984713729277,1
63,580,7,0.192024701530746,1
63,581,7,0.143044386056836,1
63,582,7,0.156280132340504,1
63,583,7,0.197684618693273,1
63,585,7,0.128034117903719,1
64,579,7,0.142126265482466,1
64,580,7,0.176712634162652,1
64,581,7,0.143878620261665,1
64,582,7,0.174490315284307,1
64,583,7,0.235132513634106,1
64,584,7,0.177631321168813,1
65,579,7,0.139048885138083,1
65,580,7,0.168482914004341,1
65,581,7,0.138717478969151,1
65,582,7,0.161800391387994,1
65,583,7,0.223722072008462,1
65,584,7,0.175464665106772,1
66,579,7,0.161906237882324,1
66,580,7,0.189152848782847,1
66,581,7,0.135961439736506,1
66,582,7,0.113106505220292,1
66,583,7,0.124293696470171,1
66,584,7,0.100603285956358,1
67,552,7,0.115471564909764,1
67,553,7,0.130091888347017,1
67,578,7,0.110586951260049,1
67,579,7,0.224224126647106,1
67,580,7,0.265151002071561,1
67,581,7,0.163087956204591,1
68,551,7,0.101507931989874,1
68,552,7,0.152453842026149,1
68,553,7,0.146559182458268,1
68,578,7,0.131672614293791,1
68,579,7,0.237773175068259,1
68,580,7,0.248499584949744,1
68,581,7,0.138138607465423,1
69,551,7,0.122141353703751,1
69,552,7,0.173446141850782,1
69,553,7,0.141385056806255,1
69,578,7,0.174359099181527,1
69,579,7,0.224014045810463,1
69,580,7,0.162327902778439,1
70,551,7,0.109061724735793,1
70,552,7,0.138764612629845,1
70,553,7,0.109194966921514,1
70,577,7,0.113731628058272,1
70,578,7,0.236051876001248,1
70,579,7,0.214427841336776,1
70,580,7,0.105549891208341,1
71,552,7,0.102430148301805,1
71,577,7,0.162868235134596,1
71,578,7,0.279093524514347,1
71,579,7,0.18383847679817,1
72,576,7,0.10753681410619,1
72,577,7,0.233508989408416,1
72,578,7,0.273720112908462,1
72,579,7,0.133580443706476,1
73,549,7,0.100610137602436,1
73,550,7,0.103688694382075,1
73,551,7,0.099970037000773,1
73,576,7,0.174289428071335,1
73,577,7,0.298739949726752,4
73,578,7,0.228478639394839,1
74,549,7,0.17542193218537,1
74,550,7,0.159325117143656,1
74,551,7,0.114357045005066,1
74,575,7,0.10007922762125,1
74,576,7,0.219053519407944,1
74,577,7,0.289357551768339,4
74,578,7,0.167793294192714,1
75,548,7,0.157286899490038,1
75,549,7,0.242454559527408,1
75,550,7,0.198370306161126,1
75,551,7,0.120344032954747,1
75,575,7,0.142717631164335,1
75,576,7,0.204095907625476,1
75,577,7,0.208691172666679,1
75,578,7,0.115645263396807,1
76,549,7,0.205544295498809,1
76,550,7,0.162175706913584,1
76,551,7,0.107609862021285,1
76,552,7,0.100234037786674,1
76,553,7,0.119054137053474,1
76,574,7,0.191734797383363,1
76,575,7,0.230143513141212,1
76,576,7,0.185841009249006,1
76,577,7,0.150939551992611,1
77,550,7,0.117045755105113,1
77,551,7,0.111810945001117,1
77,552,7,0.155543139223963,1
77,553,7,0.210408288852778,1
77,554,7,0.160463830221545,1
77,573,7,0.138437639878963,1
77,574,7,0.278485939276025,1
77,575,7,0.282685943856872,1
77,576,7,0.167456866388103,1
77,577,7,0.119572411248572,1
78,550,7,0.114242549533016,1
78,551,7,0.143908978827035,1
78,552,7,0.200606186723679,1
78,553,7,0.21957306807457,1
78,554,7,0.159071606238792,1
78,573,7,0.126787706535262,1
78,574,7,0.198701538043354,1
78,575,7,0.17965033460616,1
78,576,7,0.103634273358541,1
79,551,7,0.145009860797092,1
79,552,7,0.179900174597306,1
79,553,7,0.185896933495367,1
79,554,7,0.180241395286295,1
79,555,7,0.127239849818855,1
79,570,7,0.115950232451225,1
79,571,7,0.146676575446783,1
79,572,7,0.112370982647822,1
80,552,7,0.127687396290613,1
80,553,7,0.176619935421605,1
80,554,7,0.230003364844818,1
80,555,7,0.169841827440664,1
80,568,7,0.145438420910959,1
80,569,7,0.156044387786598,1
80,570,7,0.120007866580193,1
80,571,7,0.115462142534792,1
81,553,7,0.144993183738038,1
81,554,7,0.185513175957519,1
81,555,7,0.141658076929123,1
81,568,7,0.174529181219448,1
81,569,7,0.195077311377227,1
81,570,7,0.112755862156331,1
82,554,7,0.100484531352963,1
82,569,7,0.101828314524736,1
42,564,8,0.194139213189333,2
42,565,8,0.171657884010421,2
43,563,8,0.214365729912398,2
43,564,8,0.364578059566648,2
43,565,8,0.357197387983062,2
43,566,8,0.227225060485652,2
43,567,8,0.217530950755935,2
43,568,8,0.283119743464799,2
43,569,8,0.215157492625882,2
43,570,8,0.13989962211526,2
43,571,8,0.14198499521541,1
43,572,8,0.148518655200131,1
44,563,8,0.264244689421432,2
44,564,8,0.448440965761171,2
44,565,8,0.449658489108329,2
44,566,8,0.326493691366192,2
44,567,8,0.387378616631004,2
44,568,8,0.531851445456206,2
44,569,8,0.416829061126258,2
44,570,8,0.276835574897815,2
44,571,8,0.264052342256989,2
44,572,8,0.264912403572866,2
44,573,8,0.277649472022793,2
45,562,8,0.241200152756374,2
45,563,8,0.297595713938908,2
45,564,8,0.406047467716906,2
45,565,8,0.388087832803988,2
45,566,8,0.330572893474864,2
45,567,8,0.39039944093972,2
45,568,8,0.467773500618462,2
45,569,8,0.393608364174454,2
45,570,8,0.392338729102599,2
45,571,8,0.426964443006365,2
45,572,8,0.350861194834735,2
45,573,8,0.358256027213074,2
45,574,8,0.275153337838489,2
46,562,8,0.263300578342227,2
46,563,8,0.295494535213228,2
46,564,8,0.33044627418392,2
46,565,8,0.298735788631677,2
46,566,8,0.261594159002628,2
46,567,8,0.26299958520326,2
46,568,8,0.25898164487128,2
46,569,8,0.248710036145635,2
46,570,8,0.336853140590992,2
46,571,8,0.38441722408858,2
46,572,8,0.251833079606641,2
46,573,8,0.203208374367775,2
47,561,8,0.208436104074393,1
47,562,8,0.240333926048319,1
47,563,8,0.228353240110828,2
47,564,8,0.221703984469234,2
47,565,8,0.199712248429581,2
47,566,8,0.184937594115342,1
47,567,8,0.188238823946036,1
47,568,8,0.193754562432124,1
47,569,8,0.178244636082552,1
47,570,8,0.177654239870477,2
47,571,8,0.17624921670785,2
47,572,8,0.111501705922435,1
48,560,8,0.136934362586577,1
48,561,8,0.204638658209661,1
48,562,8,0.186594995319252,1
48,563,8,0.145097799332517,1
48,564,8,0.131812664553913,1
48,565,8,0.122683581427822,1
48,566,8,0.123097675745202,1
48,567,8,0.14109439015454,1
48,568,8,0.16487568029192,1
48,569,8,0.14451323083213,1
48,570,8,0.0997996935327948,1
49,560,8,0.138487104624332,1
49,561,8,0.164491214714334,1
49,562,8,0.127068874561573,1
49,563,8,0.101261632197416,1
49,564,8,0.103995373624782,1
50,560,8,0.158062126752416,1
50,561,8,0.145457951914802,1
50,582,8,0.182469498304652,5
51,559,8,0.104071700308509,1
51,560,8,0.153962870779789,1
51,561,8,0.125653263481637,1
51,580,8,0.127197585292973,1
51,581,8,0.24113128772219,5
51,582,8,0.340149337893089,5
51,583,8,0.263264980282798,5
52,560,8,0.124159147134165,1
52,561,8,0.100045938860657,1
52,580,8,0.136802024513136,1
52,581,8,0.271377677811841,5
52,582,8,0.360022619037461,5
52,583,8,0.229211863561391,5
53,580,8,0.116306899299415,1
53,581,8,0.173655198753036,1
53,582,8,0.199963482714365,5
54,580,8,0.111424170124695,1
54,581,8,0.12788186757427,1
54,582,8,0.127473437574791,1
54,583,8,0.135092914622533,1
55,581,8,0.110722491851688,1
55,582,8,0.14745739077663,1
56,581,8,0.12241948260565,1
57,580,8,0.151054396038071,1
57,581,8,0.164527978316101,1
58,579,8,0.141297826310567,1
58,580,8,0.236098214478852,1
58,581,8,0.221663746026293,1
59,579,8,0.140336733170576,1
59,580,8,0.239984786207186,1
59,581,8,0.237846898344335,1
59,582,8,0.251692364878457,1
59,586,8,0.164401947242785,1
60,579,8,0.123657865892773,1
60,580,8,0.207714557117053,1
60,581,8,0.218947400590637,1
60,586,8,0.121642861049634,1
61,579,8,0.136689838339923,1
61,580,8,0.219073758451524,1
61,581,8,0.186681071165522,1
61,582,8,0.198971747793109,1
61,586,8,0.110307264670727,1
62,579,8,0.140282954829266,1
62,580,8,0.206254426676993,1
62,581,8,0.151241721566835,1
62,582,8,0.134982231672148,1
62,583,8,0.17587162456218,1
62,585,8,0.203616880617687,1
62,586,8,0.100262217768235,1
63,579,8,0.115123514360535,1
63,580,8,0.156447218825689,1
63,581,8,0.121229137091501,1
63,582,8,0.116850869890533,1
63,583,8,0.142675170565909,1
63,584,8,0.147079613451335,1
63,585,8,0.115790792795207,1
64,579,8,0.107612977396131,1
64,580,8,0.146959017944622,1
64,581,8,0.121086145743238,1
64,582,8,0.123425095105766,1
64,583,8,0.167269889432748,1
64,584,8,0.14174281294635,1
65,579,8,0.112928602066499,1
65,580,8,0.146284495718787,1
65,581,8,0.118231885059592,1
65,582,8,0.115143317687353,1
65,583,8,0.161172436391063,1
65,584,8,0.143655053991248,1
66,579,8,0.137893832681631,1
66,580,8,0.162580259033884,1
66,581,8,0.109431800767325,1
67,552,8,0.119484265747684,1
67,553,8,0.154148878265349,1
67,554,8,0.115059540247001,1
67,579,8,0.192765398239761,1
67,580,8,0.229225893641117,1
67,581,8,0.128557958380447,1
68,552,8,0.159567604414449,1
68,553,8,0.175524031515551,1
68,554,8,0.113781201732832,1
68,578,8,0.100117298373301,1
68,579,8,0.191071440399546,1
68,580,8,0.204959345746256,1
68,581,8,0.107814823185979,1
69,551,8,0.10911781237594,1
69,552,8,0.163322731288703,1
69,553,8,0.149697998866047,1
69,578,8,0.132740022323632,1
69,579,8,0.176439134751347,1
69,580,8,0.129659145352237,1
70,551,8,0.0999870735261546,1
70,552,8,0.134822595943588,1
70,553,8,0.11696710822963,1
70,578,8,0.193775999696798,1
70,579,8,0.183532494702281,1
71,552,8,0.111460345508833,1
71,577,8,0.127159906686006,1
71,578,8,0.22737346561468,1
71,579,8,0.158271771872298,1
72,552,8,0.105077323701544,1
72,577,8,0.172360379252356,1
72,578,8,0.209677025411653,1
72,579,8,0.109289212457065,1
73,550,8,0.102752600491285,1
73,551,8,0.106995555851914,1
73,576,8,0.122613289421244,1
73,577,8,0.211469869170931,1
73,578,8,0.167508912755285,1
74,549,8,0.148507479065194,1
74,550,8,0.155192125800755,1
74,551,8,0.12385960275343,1
74,576,8,0.159617744520799,1
74,577,8,0.220178736159141,1
74,578,8,0.130878346208927,1
75,548,8,0.140676526887171,1
75,549,8,0.22743690597518,1
75,550,8,0.204335007198447,1
75,551,8,0.130322676622759,1
75,575,8,0.117796070261642,1
75,576,8,0.180564381228809,1
75,577,8,0.194971802563387,1
75,578,8,0.102713821699495,1
76,548,8,0.145762027749858,1
76,549,8,0.214677049538618,1
76,550,8,0.177344979005957,1
76,551,8,0.115038712985793,1
76,574,8,0.145114563534923,1
76,575,8,0.200815003981713,1
76,576,8,0.180084983861772,1
76,577,8,0.143555383782014,1
77,549,8,0.147956057717452,1
77,550,8,0.125722117622901,1
77,551,8,0.113514205394195,1
77,552,8,0.138176307858227,1
77,553,8,0.167790875964687,1
77,554,8,0.129838802265996,1
77,573,8,0.109737303574776,1
77,574,8,0.228416963687223,1
77,575,8,0.253244801914479,1
77,576,8,0.149521675185515,1
78,551,8,0.135730150386488,1
78,552,8,0.18065294066062,1
78,553,8,0.187560652592322,1
78,554,8,0.134858520790588,1
78,573,8,0.120242162375867,1
78,574,8,0.186502754080805,1
78,575,8,0.169357223258325,1
79,551,8,0.131587998098673,1
79,552,8,0.160237028754172,1
79,553,8,0.16668794612585,1
79,554,8,0.161913862925654,1
79,555,8,0.115355893002457,1
79,572,8,0.106593607139266,1
79,573,8,0.108156185482916,1
79,574,8,0.100398564435884,1
80,552,8,0.118837324392863,1
80,553,8,0.168397469947376,1
80,554,8,0.22506307748588,1
80,555,8,0.170387824114723,1
80,569,8,0.101729995037464,1
80,572,8,0.112336179771483,1
81,553,8,0.151101039517408,1
81,554,8,0.200703090131476,1
81,555,8,0.153069934634243,1
81,568,8,0.10862503850432,1
81,569,8,0.132993696622281,1
82,554,8,0.111845638948266,1
82,555,8,0.107697321268273,1
82,556,8,0.107525343862439,1
83,556,8,0.124439759621605,1
83,557,8,0.115920462103483,1
83,561,8,0.112999471397786,1
42,564,9,0.172327907460692,2
42,565,9,0.163083032605184,2
42,568,9,0.115612159815838,1
43,563,9,0.190184342858607,2
43,564,9,0.316700347144003,2
43,565,9,0.334199908728265,2
43,566,9,0.234596843447299,2
43,567,9,0.240649472127126,2
43,568,9,0.285657684672385,2
43,569,9,0.201218608418056,2
43,570,9,0.15439253107848,1
43,571,9,0.173857011864126,2
43,572,9,0.158351311967142,2
44,563,9,0.227786742963132,2
44,564,9,0.390831366965572,2
44,565,9,0.436802317481598,2
44,566,9,0.351213101477304,2
44,567,9,0.448113742473151,2
44,568,9,0.569260256603517,2
44,569,9,0.377485449698714,2
44,570,9,0.263340141424187,2
44,571,9,0.308611897252747,2
44,572,9,0.316610415204393,2
44,573,9,0.274524990696473,2
45,562,9,0.21788381597538,1
45,563,9,0.26289235530821,2
45,564,9,0.34843318496612,2
45,565,9,0.372675790224927,2
45,566,9,0.348203867234448,2
45,567,9,0.44703416705274,2
45,568,9,0.522363974400715,2
45,569,9,0.357973443107288,2
45,570,9,0.330996453738891,2
45,571,9,0.425379566857436,2
45,572,9,0.41973180619256,2
45,573,9,0.378423852888341,2
45,574,9,0.253015810970379,2
46,562,9,0.282230271267508,2
46,563,9,0.308848883599424,2
46,564,9,0.306722476873243,2
46,565,9,0.291306338556622,2
46,566,9,0.27471387391266,2
46,567,9,0.287183129055021,2
46,568,9,0.276377396937072,2
46,569,9,0.226898599701964,2
46,570,9,0.279160189178884,2
46,571,9,0.340237200178082,2
46,572,9,0.267378865445699,2
46,573,9,0.206598228987795,2
47,562,9,0.26670415804024,1
47,563,9,0.252427832986332,2
47,564,9,0.216641260700264,2
47,565,9,0.20148485314528,2
47,566,9,0.211793606724858,1
47,567,9,0.227252379926609,2
47,568,9,0.211263927643524,2
47,569,9,0.171356999800644,1
47,570,9,0.156036054703531,1
47,571,9,0.154156492415759,2
47,572,9,0.108808399010553,1
48,561,9,0.19191936700361,1
48,562,9,0.189314194699697,1
48,563,9,0.157699011296153,1
48,564,9,0.141014675772991,1
48,565,9,0.133282881837007,1
48,566,9,0.147166342872748,1
48,567,9,0.178482962258271,1
48,568,9,0.187447518735152,1
48,569,9,0.144628946311113,1
49,560,9,0.114773208977064,1
49,561,9,0.141757747138357,1
49,562,9,0.114855962483026,1
49,563,9,0.100778226236172,1
49,564,9,0.104777485211995,1
50,560,9,0.125387868402098,1
50,561,9,0.118345901243204,1
51,560,9,0.119784899420323,1
51,561,9,0.102371097787678,1
51,582,9,0.313021677668504,5
52,580,9,0.118769973474426,1
52,582,9,0.306120577738661,5
53,580,9,0.100931925323854,1
53,581,9,0.145136589017226,1
54,581,9,0.120814171340598,1
54,582,9,0.136263729132839,1
55,580,9,0.10137380747771,1
55,581,9,0.122607145814905,1
55,582,9,0.143330194466659,1
56,580,9,0.117339341059132,1
56,581,9,0.140559558722498,1
57,580,9,0.160333169657637,1
57,581,9,0.191630181788884,1
58,579,9,0.116883461504306,1
58,580,9,0.229778883569202,1
58,581,9,0.270177561349312,1
59,579,9,0.115727875294821,1
59,580,9,0.230284772515348,1
59,581,9,0.27616025748889,1
59,582,9,0.275719224982719,1
60,579,9,0.105959661036862,1
60,580,9,0.196004603789431,1
60,581,9,0.216457431798512,1
60,582,9,0.242362274717284,1
60,585,9,0.183958146406765,1
61,579,9,0.115294751047875,1
61,580,9,0.206509734913498,1
61,581,9,0.183676825879587,1
61,582,9,0.17540248832488,1
61,583,9,0.214207020081957,1
61,585,9,0.175949650541277,1
62,579,9,0.11186537691757,1
62,580,9,0.188093011331741,1
62,581,9,0.154644462510082,1
62,582,9,0.126438283478234,1
62,583,9,0.145339578563573,1
62,584,9,0.167696935430869,1
62,585,9,0.16618164324878,1
63,580,9,0.134043828482521,1
63,581,9,0.115400499505934,1
63,582,9,0.100141949049093,1
63,583,9,0.109449719619149,1
63,584,9,0.111359542436019,1
64,580,9,0.121717227007934,1
64,581,9,0.105811473766215,1
64,583,9,0.11312665712052,1
64,584,9,0.102651786525551,1
65,580,9,0.123561125878762,1
65,581,9,0.102397153650026,1
65,583,9,0.106691218586801,1
65,584,9,0.106727688079753,1
66,579,9,0.1173908645662,1
66,580,9,0.136928796304946,1
67,552,9,0.11157044024159,1
67,553,9,0.15860887503789,1
67,554,9,0.122525993568042,1
67,579,9,0.153315635316153,1
67,580,9,0.179761845418392,1
67,581,9,0.100621433559482,1
68,552,9,0.162125751986858,1
68,553,9,0.200325519771644,1
68,554,9,0.128838429259939,1
68,579,9,0.140834474213279,1
68,580,9,0.153390883600895,1
69,552,9,0.155826344226135,1
69,553,9,0.161883787576179,1
69,579,9,0.128251758426177,1
70,552,9,0.12782637904467,1
70,553,9,0.119464429742109,1
70,578,9,0.142932014703999,1
70,579,9,0.142567308881556,1
71,552,9,0.112809063172932,1
71,553,9,0.100031603779198,1
71,578,9,0.163911722314221,1
71,579,9,0.125387835723341,1
72,552,9,0.107682888150543,1
72,577,9,0.122595893429534,1
72,578,9,0.149894975521083,1
73,550,9,0.100812604288669,1
73,551,9,0.11325058586046,1
73,577,9,0.14318896777128,1
73,578,9,0.121319515640793,1
74,549,9,0.119958521656933,1
74,550,9,0.145248709832925,1
74,551,9,0.13122510050079,1
74,576,9,0.113353654660435,1
74,577,9,0.156345119495508,1
74,578,9,0.101261327195683,1
75,548,9,0.116000372557575,1
75,549,9,0.19567317583466,1
75,550,9,0.194248425595648,1
75,551,9,0.140401077643357,1
75,576,9,0.154411811545184,1
75,577,9,0.167851854525484,1
76,548,9,0.129682848344072,1
76,549,9,0.204002272093391,1
76,550,9,0.183710920716188,1
76,551,9,0.134574226496512,1
76,552,9,0.10365349936065,1
76,574,9,0.108615430949725,1
76,575,9,0.169509223050637,1
76,576,9,0.171060450972645,1
76,577,9,0.133307881086208,1
77,549,9,0.145843953393973,1
77,550,9,0.135427948133507,1
77,551,9,0.130457803283474,1
77,552,9,0.132206726793175,1
77,553,9,0.127609174238973,1
77,574,9,0.173859865808915,1
77,575,9,0.207575607041754,1
77,576,9,0.131656176878957,1
78,551,9,0.127739181227739,1
78,552,9,0.155004364555229,1
78,553,9,0.153182709025084,1
78,554,9,0.106960404402166,1
78,573,9,0.113251304793117,1
78,574,9,0.161900769636965,1
78,575,9,0.145878418589821,1
79,551,9,0.112688576595409,1
79,552,9,0.136499168685012,1
79,553,9,0.149018193574476,1
79,554,9,0.137873168814208,1
79,572,9,0.106667624524156,1
79,573,9,0.1236070831042,1
79,574,9,0.102406728525864,1
80,552,9,0.109621805954174,1
80,553,9,0.159154163672211,1
80,554,9,0.203679514902178,1
80,555,9,0.153698020346202,1
80,572,9,0.132837306983595,1
81,553,9,0.146896950091921,1
81,554,9,0.194749565229093,1
81,555,9,0.147289258571217,1
82,554,9,0.115441576703641,1
82,555,9,0.10602926678954,1
82,556,9,0.103038343543593,1
83,556,9,0.125477201231161,1
83,557,9,0.120199679991603,1
83,561,9,0.129785296247662,1
84,561,9,0.18670041698974,1
42,565,10,0.173370795529769,2
42,566,10,0.157263436142422,2
42,567,10,0.156437099303899,2
42,568,10,0.134953605080906,2
43,564,10,0.274650346408808,2
43,565,10,0.316734463766442,2
43,566,10,0.273261629945986,2
43,567,10,0.300761915145158,2
43,568,10,0.294634669969894,2
43,569,10,0.183447126895749,2
43,570,10,0.157798202216949,1
43,571,10,0.183560195395405,2
43,572,10,0.152348049996413,2
44,563,10,0.21278516735941,2
44,564,10,0.353691501989407,2
44,565,10,0.433201249161354,2
44,566,10,0.398453839566051,2
44,567,10,0.519728454424351,2
44,568,10,0.561924093487137,2
44,569,10,0.319941578776615,2
44,570,10,0.258778971219585,2
44,571,10,0.350113069154933,2
44,572,10,0.355817799786398,2
44,573,10,0.241152114983399,2
45,563,10,0.246052621401996,2
45,564,10,0.329306700565426,2
45,565,10,0.378247649029918,2
45,566,10,0.359932752455365,2
45,567,10,0.458727715644285,2
45,568,10,0.491045960721554,2
45,569,10,0.291178804260479,2
45,570,10,0.271049365231916,2
45,571,10,0.413648459481034,2
45,572,10,0.479414327481844,2
45,573,10,0.35020622539858,2
45,574,10,0.191832920798093,2
46,563,10,0.308439593059342,2
46,564,10,0.283283594753028,2
46,565,10,0.278956360877771,2
46,566,10,0.269508104330831,2
46,567,10,0.280283989850605,2
46,568,10,0.259644435423307,2
46,569,10,0.191505283579149,2
46,570,10,0.207339622843629,1
46,571,10,0.271703811807957,2
46,572,10,0.281877972479853,2
46,573,10,0.197327701307944,2
47,565,10,0.190424684224349,1
47,566,10,0.223103550279421,1
47,567,10,0.250330074637231,2
47,568,10,0.220148758845937,1
47,569,10,0.162429838714833,1
47,570,10,0.132130868504967,1
47,571,10,0.126433283628393,1
47,572,10,0.109309320785617,1
48,562,10,0.176100484791251,1
48,563,10,0.155834949632178,1
48,564,10,0.139685554470248,1
48,565,10,0.132992073577344,1
48,566,10,0.157325558459718,1
48,567,10,0.197531202821486,1
48,568,10,0.194757909205079,1
48,569,10,0.139510679547948,1
49,561,10,0.114533259756408,1
49,562,10,0.101600053406212,1
49,564,10,0.101236665626972,1
54,581,10,0.114106627689211,1
55,580,10,0.104437146849448,1
55,581,10,0.126169206592059,1
55,582,10,0.135933237969106,1
56,580,10,0.134858019716312,1
56,581,10,0.154703872490537,1
57,580,10,0.15387565117702,1
57,581,10,0.20296578906071,1
58,580,10,0.197000194804028,1
58,581,10,0.29292511346961,1
59,580,10,0.192048622380962,1
59,581,10,0.281111677411089,1
59,582,10,0.293190661050015,1
60,580,10,0.163467912113694,1
60,581,10,0.195941228786445,1
60,582,10,0.209890178051466,1
60,584,10,0.188945600105155,1
61,580,10,0.168760095222283,1
61,581,10,0.164185232618445,1
61,582,10,0.148596376177495,1
61,583,10,0.169675993641169,1
61,584,10,0.148213893111175,1
62,580,10,0.151629814486462,1
62,581,10,0.140407537144349,1
62,582,10,0.111736753329523,1
62,583,10,0.112780055329524,1
62,584,10,0.113552374182518,1
63,580,10,0.108027986718711,1
63,581,10,0.100908374832886,1
66,580,10,0.105310573776989,1
67,552,10,0.100111296374909,1
67,553,10,0.151203868673165,1
67,554,10,0.120583295921504,1
67,579,10,0.111126412182683,1
67,580,10,0.124996812608492,1
68,552,10,0.162857679896044,1
68,553,10,0.218361797262942,1
68,554,10,0.136878710663191,1
68,580,10,0.103351711038593,1
69,552,10,0.156539155062403,1
69,553,10,0.178636999026443,1
69,554,10,0.102681099370693,1
70,552,10,0.121986445502056,1
70,553,10,0.118862639536716,1
71,552,10,0.106550928682459,1
71,578,10,0.105286064709145,1
72,552,10,0.103056469360879,1
73,551,10,0.110846987023418,1
74,550,10,0.140002091804688,1
74,551,10,0.131643355913244,1
74,577,10,0.10422961495586,1
75,549,10,0.173868939610477,1
75,550,10,0.18624345903593,1
75,551,10,0.154962219851455,1
75,552,10,0.105098935252923,1
75,576,10,0.120623893830773,1
75,577,10,0.121648634296726,1
76,548,10,0.117927950832483,1
76,549,10,0.190336473365947,1
76,550,10,0.193662952982981,1
76,551,10,0.178054685360298,1
76,552,10,0.13035563859578,1
76,575,10,0.128370698209197,1
76,576,10,0.140830509190748,1
77,549,10,0.143296600704334,1
77,550,10,0.149339861473785,1
77,551,10,0.161671549941565,1
77,552,10,0.139444679351473,1
77,553,10,0.101700398976427,1
77,574,10,0.121583124281608,1
77,575,10,0.146973124274781,1
78,552,10,0.133613852289178,1
78,553,10,0.125350309617242,1
78,574,10,0.125039120706051,1
79,552,10,0.120813659373403,1
79,553,10,0.135490440810051,1
79,554,10,0.116161522401881,1
79,572,10,0.101701390232059,1
80,552,10,0.108583209695199,1
80,553,10,0.151660499839404,1
80,554,10,0.175598811404774,1
80,555,10,0.123897248681639,1
81,553,10,0.140866826182834,1
81,554,10,0.174836622966489,1
81,555,10,0.127441455964484,1
82,554,10,0.112850216621073,1
83,557,10,0.11009586579088,1
83,561,10,0.11996185489016,1
40,566,11,0.193716459001315,2
41,565,11,0.205277506125633,2
41,566,11,0.252412713614702,2
41,567,11,0.221488609673936,2
42,565,11,0.227892818208762,2
42,566,11,0.250458175365165,2
42,567,11,0.24328806390666,2
42,568,11,0.170896839328635,2
43,564,11,0.251733692613302,2
43,565,11,0.295119274152232,2
43,566,11,0.321348987488512,2
43,567,11,0.385448609235149,2
43,568,11,0.318190454897267,2
43,569,11,0.169505279813944,2
43,571,11,0.167403403941445,2
43,572,11,0.13494969452297,2
44,563,11,0.199983808901298,2
44,564,11,0.30735979978055,2
44,565,11,0.388217937829025,2
44,566,11,0.414800015310474,2
44,567,11,0.557113693294855,2
44,568,11,0.507378193529604,2
44,569,11,0.257042596352621,2
44,570,11,0.236106972385762,2
44,571,11,0.35771815665662,2
44,572,11,0.352722838270682,2
44,573,11,0.187937678306202,2
45,563,11,0.224470829477568,2
45,564,11,0.301125825784512,2
45,565,11,0.357558161461732,2
45,566,11,0.341184383060456,2
45,567,11,0.416840912622176,2
45,568,11,0.39680247303929,2
45,569,11,0.221019756652532,2
45,570,11,0.215503691378874,2
45,571,11,0.383701123590762,2
45,572,11,0.476819242020963,2
45,573,11,0.282070058214239,2
46,564,11,0.249785297970105,2
46,565,11,0.25964996902618,2
46,566,11,0.260090587601428,2
46,567,11,0.269299439573663,2
46,568,11,0.238171921262709,2
46,571,11,0.219341048898976,2
46,572,11,0.287533358188058,2
46,573,11,0.185999871580314,1
47,567,11,0.275001904477968,1
47,568,11,0.231640592362663,1
47,569,11,0.152602704657776,1
47,572,11,0.119012918247819,1
48,566,11,0.17411563154802,1
48,567,11,0.210405478479665,1
48,568,11,0.191715800132554,1
56,581,11,0.177083984665712,1
56,582,11,0.15856691551374,1
57,581,11,0.201434658574334,1
57,582,11,0.218428723357535,1
58,580,11,0.153893875030577,1
58,581,11,0.262402282880513,1
58,582,11,0.299423088251549,1
59,580,11,0.145898319952911,1
59,581,11,0.23592360098661,1
59,582,11,0.263695403085822,1
60,580,11,0.129163463071232,1
60,581,11,0.164075159671526,1
67,553,11,0.128569537553389,1
67,554,11,0.106446160587114,1
68,552,11,0.146411921085739,1
68,553,11,0.204342392597557,1
68,554,11,0.12526983273136,1
69,552,11,0.14746625761273,1
69,553,11,0.17693687579405,1
70,552,11,0.111058538404132,1
70,553,11,0.1110652702281,1
74,550,11,0.131186092957701,1
75,549,11,0.151905329087791,1
75,550,11,0.172398253931865,1
75,551,11,0.167746171424938,1
75,552,11,0.11322693733322,1
76,549,11,0.16703519059907,1
76,550,11,0.194622532007225,1
76,551,11,0.224939246782211,1
76,552,11,0.15796168314593,1
77,550,11,0.152878796583814,1
77,551,11,0.184921657774783,1
77,552,11,0.145509998281984,1
78,551,11,0.114558890794914,1
78,553,11,0.104803072678824,1
79,553,11,0.122665913113136,1
79,554,11,0.100831754040344,1
80,553,11,0.146997317447973,1
80,554,11,0.149734522823594,1
81,553,11,0.149193885465704,1
81,554,11,0.156830878327265,1
81,555,11,0.107458145444869,1
82,554,11,0.111905702503864,1
39,566,12,0.169647290799494,2
40,565,12,0.234386239750542,2
40,566,12,0.359012540440538,2
40,567,12,0.299586394893826,2
41,564,12,0.182081394492106,2
41,565,12,0.307824883851966,2
41,566,12,0.438869837087438,2
41,567,12,0.361197899644575,2
41,568,12,0.166869607336713,2
42,564,12,0.245767858712401,2
42,565,12,0.295317154919549,2
42,566,12,0.354152926040025,2
42,567,12,0.33937639814371,2
42,568,12,0.210136880881928,2
43,564,12,0.261597927952616,2
43,565,12,0.295650521813909,2
43,566,12,0.374049648746175,2
43,567,12,0.482821153269732,2
43,568,12,0.355572774465468,2
43,569,12,0.1615686009637,2
43,571,12,0.131436172593066,1
43,572,12,0.106419581864651,1
44,564,12,0.276305852244805,2
44,565,12,0.338887327864564,2
44,566,12,0.407648291099313,2
44,567,12,0.556609481858241,2
44,568,12,0.434184182604024,2
44,569,12,0.199415786744935,2
44,570,12,0.181483362343784,1
44,571,12,0.295000693835542,2
44,572,12,0.283845451517212,2
44,573,12,0.13343895558104,1
45,564,12,0.264130880203281,2
45,565,12,0.307324681009559,2
45,566,12,0.293792255182864,2
45,567,12,0.338550148448539,2
45,568,12,0.283755258147545,2
45,569,12,0.159013568766136,2
45,570,12,0.158763783239585,1
45,571,12,0.305289818375006,2
45,572,12,0.384020591120424,2
45,573,12,0.205841062185188,2
46,565,12,0.224557798543199,2
46,566,12,0.236167428086445,2
46,567,12,0.242946200535448,2
46,568,12,0.203428367760746,2
46,571,12,0.178092788791107,1
46,572,12,0.267689073994176,2
74,551,12,0.116061873978486,1
75,550,12,0.15576750067747,1
75,551,12,0.178455642817314,1
75,552,12,0.118003994300315,1
76,549,12,0.136549766293962,1
76,550,12,0.185698224866204,1
76,551,12,0.254851158899759,1
76,552,12,0.17029792485387,1
77,550,12,0.143874709703729,1
77,551,12,0.189742395347236,1
77,552,12,0.139511354908929,1
78,551,12,0.104990311064237,1
80,554,12,0.124596726585,1
81,554,12,0.142929062722939,1
39,565,13,0.203874280294648,2
39,566,13,0.26008498864104,2
39,567,13,0.192217244767732,2
40,564,13,0.148962051469734,2
40,565,13,0.327490153814313,2
40,566,13,0.515425489972719,2
40,567,13,0.393973146247331,2
40,568,13,0.159976764239503,2
41,564,13,0.196189805198983,2
41,565,13,0.374410509368197,2
41,566,13,0.564766099636861,2
41,567,13,0.438890664348646,2
41,568,13,0.183424676589604,2
42,564,13,0.289011570873729,2
42,565,13,0.367555791487634,2
42,566,13,0.426899303350494,2
42,567,13,0.396654721485405,2
42,568,13,0.238604370148674,2
43,563,13,0.218545931166427,2
43,564,13,0.313172806027293,2
43,565,13,0.34697532025322,2
43,566,13,0.411386479484457,2
43,567,13,0.533036682191323,2
43,568,13,0.389019613098837,2
43,569,13,0.16081169559115,2
44,564,13,0.272200528916271,2
44,565,13,0.306439500622371,2
44,566,13,0.364314668784213,2
44,567,13,0.488819055924292,2
44,568,13,0.36430560587557,2
44,569,13,0.160214916128517,2
44,571,13,0.212993374613978,1
44,572,13,0.206140203527919,1
45,565,13,0.241767543123431,2
45,566,13,0.23345084300657,2
45,567,13,0.252259472029619,2
45,568,13,0.199498703644683,2
45,571,13,0.220980563929819,1
45,572,13,0.274763981340253,2
75,551,13,0.184786977723749,1
76,550,13,0.170188156908684,1
76,551,13,0.24723539633741,1
76,552,13,0.157151859972675,1
77,551,13,0.174698903791041,1
38,565,14,0.16690204644962,2
38,566,14,0.173365087640191,2
39,564,14,0.159676326639406,2
39,565,14,0.319070297754124,2
39,566,14,0.394333048292477,2
39,567,14,0.242855397162314,2
40,564,14,0.171075363378814,2
40,565,14,0.405265704703103,2
40,566,14,0.616243769302007,2
40,567,14,0.422759601969464,2
40,568,14,0.168834058142578,2
41,564,14,0.192744069904277,2
41,565,14,0.386327493515131,2
41,566,14,0.583770583344284,2
41,567,14,0.433594178537036,2
41,568,14,0.18795101123911,2
42,563,14,0.162196697568578,2
42,564,14,0.313415805265281,2
42,565,14,0.432036360399007,2
42,566,14,0.471913289142845,2
42,567,14,0.40751369819163,2
42,568,14,0.249629877801214,2
43,563,14,0.228855926538776,2
43,564,14,0.381445984347343,2
43,565,14,0.427435844970825,2
43,566,14,0.423012491977942,2
43,567,14,0.495160303387055,2
43,568,14,0.377781127093189,2
43,569,14,0.153076078240583,2
44,564,14,0.290219290593749,2
44,565,14,0.289949952277517,2
44,566,14,0.294517287874297,2
44,567,14,0.372604419819364,2
44,568,14,0.293085413666232,2
45,565,14,0.178468267710483,2
45,566,14,0.171995520929045,2
45,567,14,0.180076127918591,2
75,551,14,0.166497472543482,1
76,550,14,0.144209285712103,1
76,551,14,0.200446147957114,1
76,552,14,0.122390790656893,1
77,551,14,0.141241956528801,1
38,565,15,0.221160406023202,2
38,566,15,0.254340782070967,2
38,567,15,0.156558130527374,2
39,564,15,0.179961730482812,2
39,565,15,0.423661230664405,2
39,566,15,0.533192538076976,2
39,567,15,0.297015622428247,2
39,568,15,0.127634837956236,2
40,564,15,0.170170935203679,2
40,565,15,0.423136627683344,2
40,566,15,0.614280386002208,2
40,567,15,0.391207041957491,2
40,568,15,0.168395541900706,2
41,564,15,0.170954702514586,2
41,565,15,0.345469395981507,2
41,566,15,0.5018217155263,2
41,567,15,0.369991208541198,2
41,568,15,0.184047065304904,2
42,563,15,0.146060254087389,2
42,564,15,0.301313772209662,2
42,565,15,0.448601832389583,2
42,566,15,0.476630228089747,2
42,567,15,0.387310775531211,2
42,568,15,0.248346147292119,2
43,563,15,0.241014602773413,2
43,564,15,0.429803311995405,2
43,565,15,0.472281644093168,2
43,566,15,0.401484990362019,2
43,567,15,0.400608763954284,2
43,568,15,0.327101625177924,2
44,563,15,0.248722214429123,2
44,564,15,0.317813494540901,2
44,565,15,0.273052594829571,2
44,566,15,0.223771547646751,2
44,567,15,0.252623208382269,2
45,564,15,0.166045961049193,2
76,551,15,0.156392547265017,1
37,566,16,0.10903333778877,2
38,565,16,0.248286018379007,2
38,566,16,0.331179149777063,2
38,567,16,0.217622059130802,2
39,564,16,0.174878473561448,2
39,565,16,0.459164739556248,2
39,566,16,0.63564074666835,2
39,567,16,0.381482497411971,2
39,568,16,0.171711433600431,2
40,564,16,0.152161073041058,2
40,565,16,0.375104301167818,2
40,566,16,0.548619743599343,2
40,567,16,0.363166446188,2
40,568,16,0.180715520480516,2
41,564,16,0.146138290959405,2
41,565,16,0.278102421382395,2
41,566,16,0.383382527494622,2
41,567,16,0.297131196299282,2
41,568,16,0.175825765373013,2
42,564,16,0.259915320534043,2
42,565,16,0.387199885615363,2
42,566,16,0.409343926449061,2
42,567,16,0.330158221832774,2
42,568,16,0.224580107241397,2
43,563,16,0.247594252662328,2
43,564,16,0.412209984164029,2
43,565,16,0.424418811397935,2
43,566,16,0.335917046700202,2
43,567,16,0.296661580773545,2
44,564,16,0.316225372302097,2
44,565,16,0.236156556953241,2
44,566,16,0.166000907936035,2
37,566,17,0.125815469939091,1
38,565,17,0.230440236255915,2
38,566,17,0.357052686446509,2
38,567,17,0.29667789836627,2
39,564,17,0.153431786511898,2
39,565,17,0.399181094412968,2
39,566,17,0.627240083931514,2
39,567,17,0.476913356841486,2
39,568,17,0.266062129391907,2
40,565,17,0.311578344109606,2
40,566,17,0.460734932050309,2
40,567,17,0.358327310475285,2
40,568,17,0.212114991408272,2
41,565,17,0.241188519118837,2
41,566,17,0.289566674028107,2
41,567,17,0.239637694234833,2
42,565,17,0.300286874945738,2
42,566,17,0.301608839600671,2
42,567,17,0.252454716710527,2
43,564,17,0.339350756212285,2
43,565,17,0.316198575721254,2
43,566,17,0.249463935072529,2
