x,y,z,signal,mito.p
705,680,34,0.117862179387308,1
705,681,34,0.109409012780689,1
706,675,34,0.105052161058557,1
706,678,34,0.103562205806159,1
706,679,34,0.106539578260818,1
706,680,34,0.107944906425178,1
707,675,34,0.101309931400448,1
707,679,34,0.10018768841615,1
709,681,34,0.111087121423698,1
709,682,34,0.122194097217753,1
709,683,34,0.121162744749941,1
709,684,34,0.122900808019357,1
709,685,34,0.122517911022113,1
710,683,34,0.143445485121799,1
710,684,34,0.150594006814762,1
710,685,34,0.143846137577082,1
710,686,34,0.121651902172439,1
711,683,34,0.130877147987833,1
711,684,34,0.140411371451852,1
711,685,34,0.140608718466135,1
711,686,34,0.12897565825403,1
711,687,34,0.115152522203944,1
712,683,34,0.113057214761627,1
712,685,34,0.125201294484748,1
712,686,34,0.126298581791521,1
712,687,34,0.118792990212362,1
713,682,34,0.102085670630022,1
713,683,34,0.114389495010892,1
713,684,34,0.114292907497747,1
713,686,34,0.108738836829551,1
713,687,34,0.111058266081156,1
713,688,34,0.112224799674279,1
714,682,34,0.107030925160043,1
714,683,34,0.127501203625429,1
714,684,34,0.119806184184131,1
714,685,34,0.101328645435362,1
714,687,34,0.104339361115208,1
714,688,34,0.116125673805314,1
715,682,34,0.104299972319952,1
715,683,34,0.129966380133815,1
715,684,34,0.128417559546915,1
715,685,34,0.112873473003227,1
715,686,34,0.109980193883573,1
716,684,34,0.111915397201811,1
716,685,34,0.127076782820797,1
702,672,35,0.122868717479859,1
703,672,35,0.131727013531486,1
704,672,35,0.107541835741868,1
705,678,35,0.106210296211098,1
706,674,35,0.10269250425693,1
706,675,35,0.10517378049966,1
706,678,35,0.100537765048321,1
706,679,35,0.102333070607303,1
707,675,35,0.106681992284372,1
709,682,35,0.100402790888472,1
709,683,35,0.103481434811463,1
709,684,35,0.109441419214839,1
709,685,35,0.110484100318454,1
710,681,35,0.0997651956581889,1
710,682,35,0.108441797820196,1
710,683,35,0.113284484624519,1
710,684,35,0.122754527009542,1
710,685,35,0.121123399526361,1
710,686,35,0.107717930671101,1
711,682,35,0.101964181903947,1
711,683,35,0.101337610307734,1
711,684,35,0.107932630105418,1
711,685,35,0.112063965724624,1
711,686,35,0.111628434142569,1
711,687,35,0.106550482072779,1
712,686,35,0.107983369322315,1
712,687,35,0.109297785184352,1
712,688,35,0.103313585821946,1
713,683,35,0.100080001018502,1
713,687,35,0.0997553375664559,1
713,688,35,0.104169496935668,1
713,689,35,0.106562714820863,1
714,682,35,0.118041030225058,1
714,683,35,0.12119765655547,1
714,684,35,0.103351558537726,1
714,688,35,0.103585723618371,1
714,689,35,0.11516438459278,1
715,682,35,0.11231687751894,1
715,683,35,0.121208560367431,1
715,684,35,0.110983279226471,1
715,685,35,0.100684002486459,1
715,687,35,0.101811114605569,1
715,688,35,0.109744068077501,1
715,689,35,0.120737408940109,1
716,685,35,0.10822685874166,1
716,686,35,0.125793488028464,1
716,689,35,0.123218968398735,1
717,685,35,0.108901065072843,1
699,675,36,0.109080602164493,1
701,671,36,0.101567646972062,1
702,671,36,0.15931631566507,1
702,672,36,0.130776617237994,1
703,671,36,0.159736052514514,1
703,672,36,0.131789658708897,1
704,671,36,0.115243434506268,1
704,672,36,0.104873811295083,1
706,674,36,0.104733259960684,1
706,675,36,0.101823685034143,1
707,675,36,0.107992105443387,1
713,689,36,0.100666432208045,1
713,690,36,0.102358592716618,1
714,682,36,0.12246928503151,1
714,683,36,0.108557447941665,1
714,689,36,0.10472819475333,1
714,690,36,0.112587980488057,1
715,682,36,0.110389495316575,1
715,683,36,0.103566388687072,1
715,689,36,0.103372113475958,1
715,690,36,0.113743762770085,1
716,687,36,0.105991784255116,1
716,688,36,0.104382758504671,1
716,689,36,0.101957602580845,1
716,690,36,0.106476246829508,1
717,686,36,0.10853772086528,1
717,689,36,0.111221300400457,1
717,690,36,0.105283254336032,1
719,687,36,0.108249821015001,1
697,674,37,0.109206055913099,1
697,675,37,0.109413467984577,1
702,671,37,0.136290482142006,1
702,672,37,0.121453041042409,1
703,670,37,0.106784440187962,1
703,671,37,0.135559022628339,1
703,672,37,0.12100425277788,1
704,670,37,0.10852601097731,1
704,671,37,0.109305214155138,1
704,672,37,0.104152634696991,1
705,671,37,0.105457911399951,1
705,672,37,0.105404296452426,1
705,673,37,0.100376059665143,1
706,674,37,0.102702155383201,1
707,675,37,0.102991090060789,1
714,682,37,0.121182068788321,1
714,690,37,0.104693696878724,1
714,691,37,0.10159917107977,1
715,682,37,0.102073568596966,1
715,690,37,0.100677325127087,1
715,691,37,0.106075093299949,1
716,691,37,0.102737524691331,1
717,691,37,0.102164927508971,1
718,688,37,0.101885099311702,1
718,689,37,0.115851117780862,1
718,690,37,0.119896127016661,1
718,691,37,0.113060112278092,1
719,688,37,0.109765995523532,1
720,688,37,0.110255762949497,1
696,673,38,0.130115525981338,1
696,674,38,0.161126097913458,1
696,675,38,0.125628678163359,1
703,671,38,0.104905248259438,1
703,672,38,0.105338318041789,1
704,671,38,0.103396960224293,1
704,672,38,0.106565546979814,1
705,671,38,0.104944713305127,1
705,672,38,0.113861711297471,1
705,673,38,0.103604960513399,1
706,672,38,0.101097072869449,1
706,673,38,0.102288355174635,1
707,674,38,0.101886264854039,1
714,682,38,0.103789290489427,1
717,692,38,0.103369422924955,1
718,692,38,0.108359349315968,1
719,689,38,0.100895891547663,1
719,690,38,0.114900667022774,1
719,691,38,0.113029012994228,1
720,689,38,0.109924618210621,1
721,689,38,0.114148870429255,1
694,673,39,0.106756249313481,1
694,674,39,0.110608747991051,1
695,673,39,0.12618909706223,1
695,674,39,0.155941939883008,1
695,675,39,0.114653005615436,1
696,673,39,0.101018992425757,1
696,674,39,0.131751969209012,1
696,675,39,0.109394405376254,1
703,672,39,0.0999466390106708,1
704,671,39,0.106560830345868,1
704,672,39,0.121322217084715,1
705,671,39,0.103433026679241,1
705,672,39,0.12752370839617,1
705,673,39,0.114899196478704,1
706,672,39,0.111964731232152,1
706,673,39,0.113823041434872,1
707,673,39,0.106070627203142,1
707,674,39,0.102759484816119,1
718,693,39,0.11690150017824,1
719,692,39,0.102901680981293,1
720,690,39,0.102823393572138,1
720,691,39,0.111401741604387,1
721,690,39,0.113917690008428,1
695,674,40,0.110534567212376,1
702,668,40,0.109411768689207,1
704,672,40,0.119265644862512,1
705,672,40,0.124023759043393,1
705,673,40,0.111880300216658,1
706,672,40,0.11681941114034,1
706,673,40,0.117333077630682,1
707,672,40,0.104821394568653,1
707,673,40,0.112375383387115,1
718,693,40,0.103944808694589,1
720,692,40,0.10032026613381,1
721,691,40,0.102537770341939,1
702,668,41,0.100733619732695,1
704,672,41,0.104187078107001,1
705,672,41,0.114318266213277,1
705,673,41,0.104932796451695,1
706,672,41,0.123163806656706,1
706,673,41,0.121837582870428,1
707,672,41,0.113496613329942,1
707,673,41,0.120222010475639,1
692,669,42,0.115734726940898,1
693,668,42,0.118816268380355,1
706,672,42,0.118166788975397,1
706,673,42,0.115942738122924,1
707,672,42,0.108602043552222,1
707,673,42,0.115880190981785,1
691,670,43,0.106569163428936,1
692,669,43,0.116999928594703,1
693,667,43,0.157661005901615,1
693,668,43,0.131606526953963,1
694,667,43,0.106159186634953,1
702,684,43,0.102889818592456,1
702,685,43,0.107361024178691,1
703,685,43,0.101823227531544,1
703,686,43,0.106010127930783,1
706,672,43,0.103602280855315,1
706,673,43,0.105480612243234,1
707,673,43,0.10148614615179,1
690,670,44,0.125474445322644,1
690,671,44,0.101139391859927,1
691,669,44,0.147841943497568,1
691,670,44,0.124984873969222,1
691,671,44,0.102881354794361,1
692,667,44,0.146759143773121,1
692,668,44,0.14690332244956,1
692,669,44,0.118474710010875,1
693,666,44,0.118732578083355,1
693,667,44,0.155695694555146,1
693,668,44,0.131339105791483,1
694,667,44,0.108854356235991,1
697,665,44,0.10217267237441,1
698,665,44,0.101165894331957,1
702,684,44,0.101079480805197,1
702,685,44,0.111082960328624,1
703,685,44,0.102010139129385,1
703,686,44,0.110224957774446,1
704,687,44,0.102408885323835,1
690,669,45,0.154357139984512,1
690,670,45,0.159525459710675,1
690,671,45,0.146399546729708,1
691,667,45,0.119213391529868,1
691,668,45,0.139554839441744,1
691,669,45,0.147263268066383,1
691,670,45,0.1470186131047,1
691,671,45,0.129428596720714,1
692,667,45,0.132193611718649,1
692,668,45,0.141189648731562,1
692,669,45,0.121712739125288,1
692,670,45,0.102397491330517,1
693,666,45,0.113226425366025,1
693,667,45,0.134721531440717,1
693,668,45,0.121357531928249,1
694,666,45,0.106735814197359,1
694,667,45,0.11321852799972,1
697,664,45,0.105739166569614,1
697,665,45,0.106726871110825,1
702,685,45,0.110823763320021,1
702,686,45,0.103534701185578,1
703,686,45,0.106619107462743,1
703,687,45,0.106802097609729,1
712,693,45,0.104962338048137,1
689,670,46,0.137181827921372,1
690,668,46,0.127002100967846,1
690,669,46,0.153550878795784,1
690,670,46,0.194484736581344,1
690,671,46,0.19493378627593,1
690,672,46,0.110244902709212,1
691,667,46,0.106741238871041,1
691,668,46,0.12893779446744,1
691,669,46,0.146257938782162,1
691,670,46,0.161800816211836,1
691,671,46,0.150163137402058,1
692,667,46,0.109709809847114,1
692,668,46,0.127988672645476,1
692,669,46,0.124850858386249,1
692,670,46,0.107611615781251,1
693,666,46,0.108394478979878,1
693,667,46,0.113390287547173,1
693,668,46,0.111434551076542,1
694,665,46,0.1027603889284,1
694,666,46,0.120306800957462,1
694,667,46,0.120956302148257,1
694,668,46,0.10147148428276,1
695,666,46,0.109797650346268,1
695,667,46,0.100092920020485,1
697,664,46,0.110255218303545,1
697,665,46,0.102421107179,1
702,685,46,0.104062866151166,1
702,686,46,0.103328726979414,1
710,694,46,0.192425887739062,1
711,693,46,0.162862440101666,1
711,694,46,0.193554917011923,1
712,693,46,0.106621558369527,1
712,694,46,0.126681326287898,1
689,669,47,0.130138902185602,1
689,670,47,0.157167578454852,1
689,671,47,0.155736597466148,1
690,667,47,0.101349984663766,1
690,668,47,0.115228097276257,1
690,669,47,0.154257589597388,1
690,670,47,0.229681391943776,1
690,671,47,0.244705581247429,1
690,672,47,0.12814519299919,1
691,668,47,0.117560271243141,1
691,669,47,0.148211409525633,1
691,670,47,0.179275705334469,1
691,671,47,0.172053242507049,1
692,668,47,0.113377924084061,1
692,669,47,0.135480963970484,1
692,670,47,0.124922610043978,1
693,666,47,0.105689462180026,1
693,668,47,0.105460591058035,1
693,669,47,0.110882160259005,1
694,665,47,0.121637741377684,1
694,666,47,0.130049002924749,1
694,667,47,0.123110747248053,1
694,668,47,0.103459736116732,1
695,665,47,0.106575612037008,1
695,666,47,0.121644440522895,1
695,667,47,0.104260038878745,1
697,664,47,0.110271143751184,1
709,694,47,0.118954063806236,1
710,693,47,0.165373552049652,1
710,694,47,0.205061586684384,1
710,695,47,0.141468017277679,1
711,693,47,0.161114039452079,1
711,694,47,0.20141526917844,1
711,695,47,0.14050268679218,1
712,693,47,0.10557389920191,1
712,694,47,0.132401862544893,1
712,695,47,0.121501372924198,1
713,694,47,0.107455574715975,1
689,668,48,0.100036146126439,1
689,669,48,0.123960710827978,1
689,670,48,0.165336287373609,1
689,671,48,0.170594691540249,1
690,668,48,0.101160273585731,1
690,669,48,0.150266565668361,1
690,670,48,0.245325170482536,1
690,671,48,0.268428833912154,1
690,672,48,0.136402864387762,1
691,668,48,0.104475990998751,1
691,669,48,0.148102654621918,1
691,670,48,0.193228238369854,1
691,671,48,0.18844219474455,1
691,672,48,0.103690143140307,1
692,668,48,0.102002100155132,1
692,669,48,0.144514821198311,1
692,670,48,0.144327648170413,1
692,671,48,0.107933534217698,1
693,665,48,0.149283610439853,1
693,666,48,0.107600777326804,1
693,669,48,0.11934173190202,1
693,670,48,0.103636691586568,1
694,663,48,0.108162862842289,1
694,664,48,0.125532646189085,1
694,665,48,0.142174368612955,1
694,666,48,0.137070524074601,1
694,667,48,0.119099811063017,1
695,665,48,0.119000413176759,1
695,666,48,0.1223329601497,1
696,664,48,0.100786886106811,1
697,664,48,0.10038370649431,1
710,693,48,0.139282374857748,1
710,694,48,0.17473382648949,1
711,693,48,0.137480588011936,1
711,694,48,0.17483502170739,1
711,695,48,0.135474885721659,1
712,694,48,0.127170723354615,1
713,694,48,0.105203278524426,1
688,670,49,0.101593517654787,1
689,669,49,0.11690342822491,1
689,670,49,0.16399632761642,1
689,671,49,0.170573820707365,1
689,672,49,0.103157501184993,1
690,669,49,0.141302662766622,1
690,670,49,0.234505735072432,1
690,671,49,0.254975294605161,1
690,672,49,0.136532294051819,1
691,669,49,0.146518497405646,1
691,670,49,0.201825169721989,1
691,671,49,0.194747582717827,1
691,672,49,0.110694246512612,1
692,665,49,0.118271600642419,1
692,669,49,0.1520341596413,1
692,670,49,0.166153692018518,1
692,671,49,0.124524953141432,1
693,663,49,0.127537869190924,1
693,664,49,0.159866484327122,1
693,665,49,0.14875595744146,1
693,666,49,0.109494979697768,1
693,669,49,0.11847045087953,1
693,670,49,0.109606261758701,1
694,662,49,0.119578729141616,1
694,663,49,0.108045774855507,1
694,664,49,0.147133021433398,1
694,665,49,0.161966181615812,1
694,666,49,0.140355915601009,1
694,667,49,0.106197856497552,1
695,664,49,0.11254734990003,1
695,665,49,0.12895519045915,1
695,666,49,0.116201259770546,1
702,687,49,0.103919341049869,1
710,694,49,0.121281063636574,1
710,695,49,0.113022575279074,1
711,693,49,0.103951191945148,1
711,694,49,0.130157594434678,1
711,695,49,0.120174081631854,1
712,694,49,0.113621064929996,1
688,670,50,0.111982094545105,1
688,671,50,0.109057846856614,1
689,669,50,0.115058254882555,1
689,670,50,0.162533016443999,1
689,671,50,0.169353846453422,1
689,672,50,0.117735734383068,1
690,666,50,0.109598168319853,1
690,669,50,0.13561017577616,1
690,670,50,0.21257391008751,1
690,671,50,0.226484646992532,1
690,672,50,0.140068636647115,1
691,665,50,0.114097575673487,1
691,669,50,0.148959753063816,1
691,670,50,0.20809742143554,1
691,671,50,0.199465719885824,1
691,672,50,0.12435203894456,1
692,663,50,0.108318533548317,1
692,664,50,0.110228203864321,1
692,665,50,0.0998244749236152,1
692,669,50,0.152743321349689,1
692,670,50,0.177167979964444,1
692,671,50,0.137197252294735,1
693,663,50,0.110402370746882,1
693,664,50,0.144360239784186,1
693,665,50,0.135908380327853,1
693,666,50,0.10418754650252,1
693,669,50,0.105983451172049,1
693,670,50,0.102968639754644,1
694,662,50,0.102256395350166,1
694,663,50,0.107427874022851,1
694,664,50,0.157441470011244,1
694,665,50,0.164513948236375,1
694,666,50,0.129658110524928,1
695,664,50,0.120702911065503,1
695,665,50,0.126970522395543,1
695,666,50,0.100613971909938,1
699,663,50,0.105061398253904,1
699,664,50,0.105148628749592,1
721,696,50,0.101537778588049,1
722,696,50,0.100094379671637,1
688,670,51,0.123447828627806,1
688,671,51,0.128505803084074,1
688,672,51,0.114132999446211,1
689,669,51,0.111246332328416,1
689,670,51,0.156029181271615,1
689,671,51,0.167947646855539,1
689,672,51,0.1415378191029,1
689,673,51,0.101399569231245,1
690,665,51,0.113084555988423,1
690,666,51,0.10566826455957,1
690,669,51,0.129296923115334,1
690,670,51,0.185492000122901,1
690,671,51,0.194867404827289,1
690,672,51,0.148686624011758,1
691,664,51,0.10147205071455,1
691,669,51,0.150357935473285,1
691,670,51,0.203170837368756,1
691,671,51,0.191891372201673,1
691,672,51,0.136843559213443,1
692,669,51,0.145318413621874,1
692,670,51,0.172481290653722,1
692,671,51,0.139938869302568,1
693,664,51,0.125236140932763,1
693,665,51,0.119846226554529,1
694,663,51,0.115148317537193,1
694,664,51,0.157165203798501,1
694,665,51,0.151697198083656,1
694,666,51,0.109309843645731,1
695,661,51,0.117958385648286,1
695,663,51,0.115996777894291,1
695,664,51,0.132274698607997,1
695,665,51,0.117270323524082,1
698,663,51,0.117695517725966,1
698,664,51,0.105872920722531,1
699,663,51,0.135122434433137,1
699,664,51,0.141464738509047,1
700,664,51,0.105677087823994,1
721,697,51,0.111076533506389,1
722,697,51,0.1161906500674,1
723,696,51,0.104923777114728,1
725,689,51,0.117123857334643,1
725,690,51,0.121246990585811,1
688,670,52,0.132657388639779,1
688,671,52,0.153847754411353,1
688,672,52,0.147552170065214,1
688,673,52,0.113350604643103,1
689,669,52,0.10579185561902,1
689,670,52,0.147074156098895,1
689,671,52,0.171540044412225,1
689,672,52,0.170997805795235,1
689,673,52,0.136111282730847,1
690,669,52,0.123224447537013,1
690,670,52,0.160697526906671,1
690,671,52,0.169098244108103,1
690,672,52,0.154291379432256,1
690,673,52,0.116577544765932,1
690,676,52,0.125904443301825,1
690,677,52,0.144541290991583,1
691,669,52,0.147815266738834,1
691,670,52,0.183706901229062,1
691,671,52,0.168785835189979,1
691,672,52,0.132929210541552,1
691,676,52,0.112511817198115,1
691,677,52,0.136997421694911,1
692,669,52,0.130840874567423,1
692,670,52,0.148787862801334,1
692,671,52,0.124038965558375,1
693,664,52,0.10772066479378,1
693,665,52,0.104652227535931,1
694,662,52,0.11286003114113,1
694,663,52,0.137628492066688,1
694,664,52,0.148511640160268,1
694,665,52,0.127588466799874,1
695,661,52,0.11367048610369,1
695,662,52,0.130232820933582,1
695,663,52,0.163397031889488,1
695,664,52,0.141430807066232,1
695,665,52,0.101809546025227,1
696,663,52,0.111483961357316,1
698,663,52,0.12128235989394,1
698,664,52,0.109793402107842,1
699,663,52,0.143293670509112,1
699,664,52,0.154265225533636,1
700,664,52,0.112026799084853,1
704,692,52,0.105647306583333,1
706,665,52,0.112297172228393,1
720,698,52,0.120211890953849,1
721,698,52,0.113689428889904,1
722,697,52,0.109489761989547,1
723,696,52,0.103348464948718,1
724,695,52,0.101492779939487,1
725,689,52,0.13624962280268,1
725,690,52,0.144026905568583,1
726,690,52,0.101196862900793,1
688,670,53,0.141263992904023,1
688,671,53,0.188727109935011,1
688,672,53,0.191804882424479,1
688,673,53,0.146525599588861,1
688,674,53,0.104989494095308,1
688,675,53,0.105465242334466,1
689,669,53,0.101974061781518,1
689,670,53,0.141704557014675,1
689,671,53,0.187260705173583,1
689,672,53,0.212811855011063,1
689,673,53,0.181825933754734,1
689,674,53,0.11455632006602,1
689,675,53,0.10974100716725,1
689,676,53,0.142294441259554,1
689,677,53,0.149549321414043,1
690,669,53,0.120259798011795,1
690,670,53,0.141678784368222,1
690,671,53,0.154129641370321,1
690,672,53,0.164121759579188,1
690,673,53,0.143848740984733,1
690,675,53,0.10895976701356,1
690,676,53,0.189799103883769,1
690,677,53,0.221674137871059,1
690,678,53,0.133848485765342,1
691,669,53,0.139976112192773,1
691,670,53,0.153208274706076,1
691,671,53,0.139031576289726,1
691,672,53,0.121349874206163,1
691,676,53,0.138172680516186,1
691,677,53,0.168729115760528,1
691,678,53,0.117303187460831,1
692,669,53,0.11250642520319,1
692,670,53,0.116599820785373,1
692,671,53,0.102159949444969,1
694,662,53,0.13954249776447,1
694,663,53,0.160405019351637,1
694,664,53,0.134126658238916,1
694,665,53,0.101869914582557,1
695,661,53,0.110463817703198,1
695,662,53,0.161066339359594,1
695,663,53,0.192171320221051,1
695,664,53,0.135744213144971,1
695,684,53,0.100737748149012,1
696,662,53,0.106033852708456,1
696,663,53,0.118954270771697,1
698,663,53,0.118242636370686,1
698,664,53,0.105094360226925,1
699,663,53,0.146199138805174,1
699,664,53,0.148780531866819,1
700,663,53,0.100401864990353,1
700,664,53,0.11118919896804,1
702,691,53,0.106503272161651,1
703,691,53,0.101561241935665,1
703,692,53,0.122195121152143,1
704,691,53,0.100655441252731,1
704,692,53,0.138797019063995,1
704,693,53,0.113681248307703,1
705,663,53,0.102660195859052,1
706,664,53,0.125317685324711,1
706,665,53,0.105836309621631,1
707,665,53,0.120198634271375,1
719,698,53,0.116134791178552,1
720,698,53,0.12024985277671,1
720,699,53,0.137006484603554,1
721,698,53,0.112259155940937,1
721,699,53,0.123807196919919,1
722,697,53,0.101624006935185,1
722,698,53,0.121137494963601,1
723,697,53,0.123325827934536,1
724,696,53,0.122950850089436,1
725,689,53,0.127323943153859,1
725,690,53,0.140963903877336,1
725,695,53,0.108865183797519,1
728,695,53,0.113956969874493,1
729,694,53,0.15002974271547,1
729,695,53,0.131083939162925,1
687,670,54,0.127898533740404,1
687,671,54,0.157108952764569,1
687,672,54,0.14032190790776,1
688,670,54,0.153618436679682,1
688,671,54,0.229657383950208,1
688,672,54,0.236774294392111,1
688,673,54,0.177241790383873,1
688,674,54,0.128568546297756,1
688,675,54,0.133070949204126,1
688,676,54,0.118183727464507,1
689,669,54,0.100521501920191,1
689,670,54,0.140213011396098,1
689,671,54,0.208519652763445,1
689,672,54,0.252614058330273,1
689,673,54,0.215399402571966,1
689,674,54,0.133449946536353,1
689,675,54,0.134380539503027,1
689,676,54,0.192853500168973,1
689,677,54,0.214872621007097,1
689,678,54,0.129352553252882,1
690,669,54,0.120537142623523,1
690,670,54,0.126689299904637,1
690,671,54,0.143248497573845,1
690,672,54,0.168488883323976,1
690,673,54,0.157577577034673,1
690,674,54,0.10679537667868,1
690,675,54,0.129889454339541,1
690,676,54,0.248381396778139,1
690,677,54,0.302625148947286,1
690,678,54,0.180086672264223,1
691,668,54,0.110368962164181,1
691,669,54,0.133015885498369,1
691,670,54,0.122577789398087,1
691,671,54,0.110040627798418,1
691,672,54,0.105054034640632,1
691,676,54,0.152678355980522,1
691,677,54,0.190728640237296,1
691,678,54,0.139717241971741,1
691,679,54,0.10357550606031,1
693,662,54,0.106610033661181,1
693,663,54,0.102835702570656,1
694,661,54,0.110621558063845,1
694,662,54,0.153486839324736,1
694,663,54,0.166663742059739,1
694,664,54,0.121968352363527,1
695,662,54,0.160682560035908,1
695,663,54,0.177499647563434,1
695,664,54,0.116751243252975,1
696,662,54,0.101193050379128,1
696,663,54,0.106889578642555,1
698,662,54,0.103330153951809,1
698,663,54,0.117134140250219,1
699,662,54,0.12505755152507,1
699,663,54,0.157741929397178,1
699,664,54,0.131602997648194,1
700,663,54,0.115114440558973,1
700,664,54,0.106024070867157,1
701,691,54,0.122460995520119,1
702,691,54,0.100808170870619,1
702,692,54,0.1221296547087,1
703,692,54,0.128264546713133,1
703,693,54,0.105657927179399,1
704,691,54,0.10769576358085,1
704,692,54,0.163618354218583,1
704,693,54,0.119399932768461,1
705,692,54,0.106143827619104,1
706,664,54,0.110822793850226,1
709,697,54,0.105637492063277,1
709,698,54,0.114811312407873,1
717,700,54,0.103181563643157,1
719,699,54,0.110345248279426,1
719,700,54,0.103828984286416,1
720,698,54,0.106535438951582,1
720,699,54,0.126088446490282,1
721,699,54,0.114876212419525,1
722,698,54,0.10358789130926,1
723,697,54,0.107279534251338,1
723,698,54,0.124811556734345,1
724,696,54,0.108352759099947,1
724,697,54,0.123810061757627,1
725,690,54,0.110197888870627,1
725,696,54,0.113727771964931,1
726,694,54,0.100783607338179,1
727,695,54,0.102220688361547,1
728,694,54,0.107899254201473,1
728,695,54,0.114026205267924,1
728,696,54,0.11814981780753,1
729,693,54,0.118884675911938,1
729,694,54,0.137674547328397,1
729,695,54,0.124533253545742,1
729,696,54,0.105627732007815,1
730,694,54,0.12865718198,1
730,695,54,0.10768860693304,1
687,669,55,0.102793492509368,1
687,670,55,0.156838318190971,1
687,671,55,0.194663598312013,1
687,672,55,0.166034469019604,1
687,673,55,0.130965467775425,1
688,669,55,0.102812054043416,1
688,670,55,0.180632614473687,1
688,671,55,0.282958985765577,1
688,672,55,0.289008695143102,1
688,673,55,0.209080747023296,1
688,674,55,0.158495033140982,1
688,675,55,0.155030148094601,1
688,676,55,0.146472191606799,1
688,677,55,0.136539113019139,1
689,669,55,0.102567192116271,1
689,670,55,0.149330853029738,1
689,671,55,0.240165325447387,1
689,672,55,0.297242848719463,1
689,673,55,0.237625968160325,1
689,674,55,0.154697598169169,1
689,675,55,0.159475123531782,1
689,676,55,0.231177795804246,1
689,677,55,0.270412783043104,1
689,678,55,0.167050593186595,1
690,668,55,0.102396249537746,1
690,669,55,0.120103996590738,1
690,670,55,0.119191148189184,1
690,671,55,0.142495905797236,1
690,672,55,0.178897241755275,1
690,673,55,0.164370695458054,1
690,674,55,0.123936659262733,1
690,675,55,0.152902630290677,1
690,676,55,0.270966905834769,1
690,677,55,0.341812882703339,2
690,678,55,0.222391676234191,1
690,679,55,0.12458706456581,1
691,662,55,0.100925618323729,1
691,668,55,0.12407995561273,1
691,669,55,0.126951241928839,1
691,670,55,0.100597948426028,1
691,675,55,0.103670699279817,1
691,676,55,0.152831837209824,1
691,677,55,0.193184122047734,1
691,678,55,0.162789904153765,1
691,679,55,0.135958444183769,1
692,668,55,0.109966599520609,1
693,662,55,0.11497837710722,1
693,663,55,0.117389099913315,1
693,664,55,0.100181773561111,1
694,661,55,0.10196039116812,1
694,662,55,0.150000190226109,1
694,663,55,0.160325141576303,1
694,664,55,0.115957236598168,1
695,662,55,0.137221456360847,1
695,663,55,0.141299035424581,1
698,661,55,0.10053766701205,1
698,662,55,0.13465452909569,1
698,663,55,0.132528002547399,1
699,661,55,0.112712225122649,1
699,662,55,0.183527516638279,1
699,663,55,0.189521051232304,1
699,664,55,0.115429300383881,1
700,662,55,0.136591431709298,1
700,663,55,0.141599407667163,1
700,664,55,0.101699255219927,1
700,691,55,0.125857756250811,1
701,691,55,0.112328576513991,1
701,692,55,0.161226367233239,1
702,692,55,0.116720764865496,1
702,693,55,0.11157215042988,1
703,692,55,0.12195467085721,1
703,693,55,0.102599413370798,1
704,691,55,0.101098979130282,1
704,692,55,0.157991464386591,1
704,693,55,0.11251938777685,1
705,692,55,0.103901618270588,1
706,663,55,0.0997830491524987,1
716,699,55,0.106165962030597,1
716,700,55,0.104429314840657,1
720,699,55,0.110656796656946,1
720,700,55,0.104560683444303,1
721,699,55,0.102963748833994,1
721,700,55,0.102812359045149,1
723,698,55,0.105091440924622,1
724,697,55,0.109458216096002,1
725,696,55,0.102229958235651,1
726,693,55,0.0999030564415839,1
726,694,55,0.100444271124184,1
727,696,55,0.101916089666376,1
728,694,55,0.103989055731738,1
728,695,55,0.113326378791154,1
728,696,55,0.109134271576613,1
729,693,55,0.106835724050811,1
729,694,55,0.11737357750368,1
729,695,55,0.116784815229462,1
729,696,55,0.101644158835413,1
730,692,55,0.102514699139408,1
730,694,55,0.101987046141016,1
686,671,56,0.124657628895363,1
687,669,56,0.122567495589592,1
687,670,56,0.19959708848947,1
687,671,56,0.2282869240197,1
687,672,56,0.184492629265397,1
687,673,56,0.150477528831447,1
687,674,56,0.153615059874779,1
688,669,56,0.118998626738036,1
688,670,56,0.215371168125809,1
688,671,56,0.317309304890125,1
688,672,56,0.315857692712755,1
688,673,56,0.22660610303985,1
688,674,56,0.183154466839849,1
688,675,56,0.170935062581553,1
688,676,56,0.185200091678415,1
688,677,56,0.186506479459117,1
689,669,56,0.111059006799651,1
689,670,56,0.163978898945952,1
689,671,56,0.259035477677185,1
689,672,56,0.316889905721171,1
689,673,56,0.242208924203012,1
689,674,56,0.177405815958807,1
689,675,56,0.188441345096865,1
689,676,56,0.267916452786258,1
689,677,56,0.322572044438544,2
689,678,56,0.2090459114682,1
689,679,56,0.10643198889944,1
690,668,56,0.104262500678448,1
690,669,56,0.11791922560433,1
690,670,56,0.117340811603202,1
690,671,56,0.142355572321218,1
690,672,56,0.182167437659619,1
690,673,56,0.165735948573259,1
690,674,56,0.147679954898495,1
690,675,56,0.179134337031142,1
690,676,56,0.267091335954667,2
690,677,56,0.341329149954524,2
690,678,56,0.251918697950311,2
690,679,56,0.150475121496338,1
691,668,56,0.130689637279444,1
691,669,56,0.115144657516395,1
691,674,56,0.102931233470654,1
691,675,56,0.118276317276364,1
691,676,56,0.142486091277179,1
691,677,56,0.176918619261736,2
691,678,56,0.171584378592726,1
691,679,56,0.151983006493479,1
691,680,56,0.105620433752057,1
692,662,56,0.104480282808854,1
692,667,56,0.106388166686134,1
692,668,56,0.120374859915636,1
693,661,56,0.104994450373473,1
693,662,56,0.117221632175964,1
693,663,56,0.118747675669148,1
694,662,56,0.125428357382177,1
694,663,56,0.133946641858829,1
694,664,56,0.102713897949929,1
695,662,56,0.103950581941681,1
695,663,56,0.10316277335781,1
698,660,56,0.102320750715866,1
698,661,56,0.112168450604075,1
698,662,56,0.147652984030947,1
698,663,56,0.137094858855741,1
698,690,56,0.110371652715184,1
699,661,56,0.128486729582832,1
699,662,56,0.213597278045664,1
699,663,56,0.203036353390264,1
699,691,56,0.130570436066368,1
700,661,56,0.108484443598245,1
700,662,56,0.161569287217599,1
700,663,56,0.153597478703445,1
700,691,56,0.113970771202919,1
700,692,56,0.172510047959992,1
701,662,56,0.100593896260144,1
701,663,56,0.104163625652304,1
701,664,56,0.10017756889436,1
701,692,56,0.138733600489333,1
701,693,56,0.138727925278512,1
702,692,56,0.0998274160117566,1
702,693,56,0.101590598352484,1
703,692,56,0.0998299322760553,1
704,692,56,0.121462343595271,1
724,698,56,0.106611395276061,1
728,694,56,0.101800602938694,1
728,695,56,0.114528543122463,1
728,696,56,0.102667581258162,1
729,692,56,0.099780543781119,1
729,694,56,0.105079948895033,1
729,695,56,0.115011284615646,1
729,696,56,0.099987966745516,1
730,691,56,0.110681022508895,1
730,692,56,0.109259354965971,1
686,670,57,0.151873173190779,1
686,671,57,0.133631509710945,1
686,672,57,0.106434842844229,1
687,669,57,0.154886263526976,1
687,670,57,0.236777649411176,1
687,671,57,0.237867485961324,1
687,672,57,0.192342622265905,1
687,673,57,0.169427526157822,1
687,674,57,0.162399589078654,1
687,676,57,0.125497647240203,1
687,677,57,0.118935720130569,1
688,669,57,0.14352802076938,1
688,670,57,0.241845623567124,1
688,671,57,0.316886202128697,1
688,672,57,0.310929256849734,1
688,673,57,0.237646316133096,1
688,674,57,0.197257289479257,1
688,675,57,0.178280517357876,1
688,676,57,0.224403402308699,1
688,677,57,0.23893505738495,3
688,678,57,0.147175460245986,1
689,669,57,0.127870059650028,1
689,670,57,0.186184811559808,1
689,671,57,0.265509117677985,1
689,672,57,0.308398635683744,1
689,673,57,0.241417793278832,1
689,674,57,0.199308643993239,1
689,675,57,0.209715303129166,1
689,676,57,0.292407786958469,3
689,677,57,0.346046764262407,3
689,678,57,0.231224068924337,3
689,679,57,0.119490049887695,1
690,668,57,0.103396143255365,1
690,669,57,0.119796685558726,1
690,670,57,0.129216391764857,1
690,671,57,0.15085475061787,1
690,672,57,0.182805337891635,1
690,673,57,0.172355161544135,1
690,674,57,0.174863354189818,1
690,675,57,0.19562895058335,1
690,676,57,0.244417637825474,1
690,677,57,0.301301920713745,2
690,678,57,0.251031142906772,1
690,679,57,0.157841719428521,1
690,680,57,0.10224157008735,1
691,667,57,0.105511428311204,1
691,668,57,0.125932612390468,1
691,669,57,0.103043103749215,1
691,673,57,0.111986103139312,1
691,674,57,0.12902159369363,1
691,675,57,0.131405225810068,1
691,676,57,0.129697967715702,1
691,677,57,0.151389516692397,1
691,678,57,0.16430729866923,1
691,679,57,0.144160746864852,1
691,680,57,0.106821944508223,1
692,662,57,0.105833989429875,1
692,667,57,0.11544420189713,1
692,668,57,0.120524408801163,1
693,662,57,0.111421860825858,1
693,663,57,0.108965257044758,1
694,663,57,0.105582722466334,1
697,659,57,0.110375661309392,1
697,660,57,0.121095197758962,1
697,661,57,0.105153802886137,1
698,659,57,0.118348994832212,1
698,660,57,0.127615056415256,1
698,661,57,0.120689589025515,1
698,662,57,0.146853193236129,1
698,663,57,0.133986226726627,1
698,690,57,0.105171580130014,1
699,660,57,0.11123638709333,1
699,661,57,0.138740092669082,1
699,662,57,0.208771693124237,1
699,663,57,0.187984735716464,1
699,691,57,0.127405040936127,1
699,693,57,0.210165376758142,1
700,660,57,0.102216265836416,1
700,661,57,0.132757298493232,1
700,662,57,0.173390239390259,1
700,663,57,0.150870447314209,1
700,692,57,0.155602320453118,1
701,661,57,0.107542990391287,1
701,662,57,0.11396507420626,1
701,663,57,0.107976190888667,1
701,692,57,0.111353072042108,1
701,693,57,0.121282959004488,1
724,699,57,0.100409675213306,1
725,698,57,0.103659261714823,1
728,695,57,0.109825863006587,1
729,694,57,0.101104534518993,1
729,695,57,0.112251639826798,1
730,691,57,0.113523834734628,1
730,692,57,0.110637102259318,1
686,669,58,0.138298907662044,1
686,670,58,0.168411173239531,1
686,671,58,0.138274442165876,1
686,672,58,0.116504638458784,1
687,668,58,0.111136695098258,1
687,669,58,0.199886513348415,1
687,670,58,0.268385087949281,1
687,671,58,0.236491579571296,1
687,672,58,0.200405887728335,1
687,673,58,0.186774358124197,1
687,674,58,0.160558348080072,1
687,675,58,0.127131617775255,1
687,676,58,0.142634038903607,1
687,677,58,0.14783430756132,1
688,668,58,0.104743183409932,1
688,669,58,0.178266476385231,1
688,670,58,0.270572974310535,1
688,671,58,0.304304662776851,1
688,672,58,0.295130515644684,1
688,673,58,0.252668893284731,1
688,674,58,0.208267699546004,1
688,675,58,0.190499300719786,1
688,676,58,0.264427450817118,1
688,677,58,0.290365582496483,3
688,678,58,0.174359219003637,1
689,669,58,0.152675523821572,1
689,670,58,0.221664399601436,1
689,671,58,0.267346709548687,1
689,672,58,0.28142184238789,1
689,673,58,0.244601248868845,1
689,674,58,0.2228779797119,1
689,675,58,0.228918321179049,1
689,676,58,0.312193597962935,3
689,677,58,0.355163832498795,3
689,678,58,0.243643107709914,3
689,679,58,0.136998031698377,1
690,668,58,0.0999802763446724,1
690,669,58,0.122822858290693,1
690,670,58,0.144499647362085,1
690,671,58,0.155833097835941,1
690,672,58,0.173312975915494,1
690,673,58,0.183478465823833,1
690,674,58,0.20343856353297,1
690,675,58,0.201425639237368,1
690,676,58,0.221599673876488,1
690,677,58,0.258450353637927,3
690,678,58,0.237536058006553,1
690,679,58,0.163981938070365,1
690,680,58,0.124634143761909,1
690,681,58,0.125338251155862,1
691,667,58,0.107712233674442,1
691,668,58,0.112013389901512,1
691,673,58,0.13211139196572,1
691,674,58,0.161070173667097,1
691,675,58,0.139711359795458,1
691,676,58,0.117542134532936,1
691,677,58,0.127678257131537,1
691,678,58,0.147687906729396,1
691,679,58,0.130552255784487,1
691,680,58,0.111329107620215,1
691,681,58,0.108943068168669,1
692,662,58,0.106263540799375,1
692,667,58,0.120005960319361,1
692,668,58,0.110427685890736,1
693,662,58,0.112382986644606,1
693,663,58,0.101786507501453,1
693,667,58,0.109410537789355,1
697,659,58,0.127755782036359,1
697,660,58,0.142046747173459,1
697,661,58,0.112983905416475,1
697,690,58,0.117964692648411,1
698,659,58,0.134706270461139,1
698,660,58,0.150762694559046,1
698,661,58,0.130114610976138,1
698,662,58,0.139880319862718,1
698,663,58,0.123480714350394,1
698,691,58,0.139994869799363,1
698,692,58,0.175980259643785,1
698,693,58,0.181495834736087,1
698,694,58,0.156628270033085,1
699,659,58,0.101172528119653,1
699,660,58,0.129513191129994,1
699,661,58,0.151343036606845,1
699,662,58,0.184854067212128,1
699,663,58,0.153858244292391,1
699,691,58,0.117645410298373,1
699,692,58,0.180745682973343,1
699,693,58,0.213618061735196,1
699,694,58,0.19550479309211,1
700,660,58,0.12575202957859,1
700,661,58,0.162485305458595,1
700,662,58,0.175390201112201,1
700,663,58,0.135643410072157,1
700,692,58,0.132628152045071,1
700,693,58,0.166389229606962,1
701,660,58,0.112892862399122,1
701,661,58,0.127668616898185,1
701,662,58,0.120858592664451,1
701,663,58,0.102272179189858,1
701,693,58,0.104052953594838,1
701,694,58,0.108193929447396,1
730,691,58,0.0998605413785632,1
686,669,59,0.15483947843969,1
686,670,59,0.169800837386309,1
686,671,59,0.140094115184755,1
686,672,59,0.129134760229557,1
686,673,59,0.12617647216906,1
687,668,59,0.127026239676443,1
687,669,59,0.232176676480394,1
687,670,59,0.27083852189094,1
687,671,59,0.228247077721845,1
687,672,59,0.212816843967984,1
687,673,59,0.199453781246554,1
687,674,59,0.154974387242025,1
687,675,59,0.134507496474461,1
687,676,59,0.166233624258448,1
687,677,59,0.179152495527185,1
687,678,59,0.126696162443633,1
688,666,59,0.105786953805451,1
688,668,59,0.121565412395246,1
688,669,59,0.215114225951448,1
688,670,59,0.288107480379084,1
688,671,59,0.287660129979869,1
688,672,59,0.283739289128229,1
688,673,59,0.268864267457937,1
688,674,59,0.216824675671092,1
688,675,59,0.202944787512798,1
688,676,59,0.284801261591468,3
688,677,59,0.320285076085684,3
688,678,59,0.208516907747846,1
688,679,59,0.117158071993354,1
689,668,59,0.110263475136178,1
689,669,59,0.181430139541345,1
689,670,59,0.254007480534121,1
689,671,59,0.26221947791315,1
689,672,59,0.254495810094772,1
689,673,59,0.254262331268027,1
689,674,59,0.245210119471614,1
689,675,59,0.242903783508698,3
689,676,59,0.311776224876923,3
689,677,59,0.353615534772009,3
689,678,59,0.270927168466103,3
689,679,59,0.173777754985177,1
689,680,59,0.134899380129915,1
690,669,59,0.12622922657598,1
690,670,59,0.157055326924125,1
690,671,59,0.158320092861168,1
690,672,59,0.16483304540679,1
690,673,59,0.197416522169812,1
690,674,59,0.22495107649229,1
690,675,59,0.201983029904745,1
690,676,59,0.203210051877307,3
690,677,59,0.231604602158148,3
690,678,59,0.236174203482089,1
690,679,59,0.188616023946621,1
690,680,59,0.163048807053555,1
690,681,59,0.152858492182719,1
690,682,59,0.112355863276192,1
691,667,59,0.100213896779365,1
691,672,59,0.103735316075574,1
691,673,59,0.15118151640329,1
691,674,59,0.183364928928659,1
691,675,59,0.143591559166152,1
691,676,59,0.111100073104439,1
691,677,59,0.114821617109287,1
691,678,59,0.136271659177902,1
691,679,59,0.12896667159582,1
691,680,59,0.124684055116959,1
691,681,59,0.131336545955508,1
691,682,59,0.108075218415677,1
692,662,59,0.108401515805579,1
692,663,59,0.102042567349373,1
692,666,59,0.103769291090066,1
692,667,59,0.112829716147436,1
692,674,59,0.0998465548705133,1
693,662,59,0.117114696389729,1
693,663,59,0.103552053605612,1
693,666,59,0.121465241111736,1
693,667,59,0.115758800291981,1
697,659,59,0.132335023593652,1
697,660,59,0.143129786542125,1
697,661,59,0.113710103650245,1
697,662,59,0.101030560705779,1
697,690,59,0.108718194747967,1
697,692,59,0.149246716123057,1
697,693,59,0.15025702347128,1
697,694,59,0.121654984868528,1
698,659,59,0.138878334704643,1
698,660,59,0.155884436163386,1
698,661,59,0.136368301155642,1
698,662,59,0.13149889402091,1
698,663,59,0.106631427354179,1
698,691,59,0.130577777893802,1
698,692,59,0.186556674030063,1
698,693,59,0.203697183216864,1
698,694,59,0.169443092139133,1
698,695,59,0.109498737754838,1
699,659,59,0.103248565988184,1
699,660,59,0.142083249345169,1
699,661,59,0.165039302828849,1
699,662,59,0.158931828301646,1
699,663,59,0.114054167391105,1
699,691,59,0.10415776526186,1
699,692,59,0.161998914837533,1
699,693,59,0.195969920735202,1
699,694,59,0.186708760965727,1
699,695,59,0.12816963670952,1
700,660,59,0.146167974163795,1
700,661,59,0.185971680705833,1
700,662,59,0.165837459685811,1
700,663,59,0.109595303482145,1
700,692,59,0.111616811397952,1
700,693,59,0.1420149071711,1
700,694,59,0.151404995530355,1
701,660,59,0.129570585920426,1
701,661,59,0.140280939639243,1
701,662,59,0.119177248824486,1
701,694,59,0.102312875135399,1
702,695,59,0.106563749648172,1
703,696,59,0.143880308664116,1
704,696,59,0.110197180830889,1
704,697,59,0.116338695730099,1
712,705,59,0.15537456040887,1
686,669,60,0.161655177884245,1
686,670,60,0.165407265634087,1
686,671,60,0.148057699545032,1
686,672,60,0.147957125223518,1
686,673,60,0.138570337418732,1
686,677,60,0.11841667253822,1
687,668,60,0.144191083644384,1
687,669,60,0.249925010549737,1
687,670,60,0.262243180904986,1
687,671,60,0.225873379947573,1
687,672,60,0.229347720047683,1
687,673,60,0.204095885839638,1
687,674,60,0.152954535049912,1
687,675,60,0.15081142947884,1
687,676,60,0.191669744870845,1
687,677,60,0.205846922575633,3
687,678,60,0.156981037216259,1
688,668,60,0.145512383831254,1
688,669,60,0.254414832134614,1
688,670,60,0.302869411763883,1
688,671,60,0.273691965605658,1
688,672,60,0.277754632263224,1
688,673,60,0.272761732105312,1
688,674,60,0.223223089172988,1
688,675,60,0.216798314807011,1
688,676,60,0.280943948243681,3
688,677,60,0.322414097112435,3
688,678,60,0.248380198557044,3
688,679,60,0.14913082635737,1
689,668,60,0.122371619119379,1
689,669,60,0.204488096282663,1
689,670,60,0.268783420212808,1
689,671,60,0.245307088236926,1
689,672,60,0.234613705685976,1
689,673,60,0.262192005971327,1
689,674,60,0.268218404502101,1
689,675,60,0.257176404970132,1
689,676,60,0.291570840416799,3
689,677,60,0.342860454727605,3
689,678,60,0.31293793290691,3
689,679,60,0.225601492688286,1
689,680,60,0.177363976256766,1
690,669,60,0.125308524379797,1
690,670,60,0.157574635946532,1
690,671,60,0.152463591188691,1
690,672,60,0.159762271770648,1
690,673,60,0.210509527642354,1
690,674,60,0.244097037432231,1
690,675,60,0.207560117310876,1
690,676,60,0.186393846676223,1
690,677,60,0.21123338389853,3
690,678,60,0.240798683332163,1
690,679,60,0.225642341134693,1
690,680,60,0.201871246769536,1
691,672,60,0.105797378328975,1
691,673,60,0.159939630278489,1
691,674,60,0.188689464006802,1
691,675,60,0.142244562583261,1
691,676,60,0.105446266869495,1
691,677,60,0.104075817831907,1
691,678,60,0.125437605470444,1
691,679,60,0.135989957398558,1
691,680,60,0.138238517318876,1
691,681,60,0.139171887979905,1
691,682,60,0.110581962303127,1
692,665,60,0.10228522890687,1
692,666,60,0.119648530966837,1
692,667,60,0.10527269909748,1
693,662,60,0.104336147704091,1
693,665,60,0.104130837965988,1
693,666,60,0.137436733119873,1
693,667,60,0.112110217058876,1
696,692,60,0.118894196323181,1
696,693,60,0.109333001991614,1
697,659,60,0.126766661415673,1
697,660,60,0.132121130235344,1
697,661,60,0.114239935232446,1
697,662,60,0.104886708511229,1
697,691,60,0.125858943578987,1
697,692,60,0.162340712851232,1
697,693,60,0.174682629769992,1
697,694,60,0.131652636680268,1
698,659,60,0.132758060997565,1
698,660,60,0.152794681462972,1
698,661,60,0.148339172573076,1
698,662,60,0.129397802438582,1
698,691,60,0.114924424479205,1
698,692,60,0.180349387685677,1
698,693,60,0.21271819769314,1
698,694,60,0.171060004362965,1
698,695,60,0.111722418248063,1
699,659,60,0.107548948818003,1
699,660,60,0.158373838523721,1
699,661,60,0.18605335581281,1
699,662,60,0.145537121650399,1
699,692,60,0.136015076469869,1
699,693,60,0.16986689204738,1
699,694,60,0.163554445462563,1
699,695,60,0.127287800448478,1
700,659,60,0.100964103006704,1
700,660,60,0.163463217265587,1
700,661,60,0.196392892781601,1
700,662,60,0.14836528290002,1
700,693,60,0.116624046637322,1
700,694,60,0.129196141828358,1
701,660,60,0.134461049067666,1
701,661,60,0.137306421129374,1
701,662,60,0.106859710258542,1
702,695,60,0.105078216920905,1
703,696,60,0.151637842567796,1
703,698,60,0.143999172196702,1
704,696,60,0.119981647324059,1
704,697,60,0.154784697949828,1
704,698,60,0.157412255202373,1
705,697,60,0.106201647233379,1
705,698,60,0.117166209003879,1
711,705,60,0.151045409379861,1
712,704,60,0.170179736682265,1
712,705,60,0.193281657244836,1
712,706,60,0.13511580064544,1
713,705,60,0.162758946477848,1
717,704,60,0.10062828520556,1
686,669,61,0.153025633132499,1
686,670,61,0.158506448920138,1
686,671,61,0.163246371926219,1
686,672,61,0.17177966684531,1
686,673,61,0.152632594827627,1
686,676,61,0.156511399904684,1
686,677,61,0.148950766405606,1
687,668,61,0.159326838224864,1
687,669,61,0.243308520808621,1
687,670,61,0.247890322201889,1
687,671,61,0.236071287182981,1
687,672,61,0.250679759124316,1
687,673,61,0.208434927639136,1
687,674,61,0.161813451997925,1
687,675,61,0.179973091797373,1
687,676,61,0.220114446150955,1
687,677,61,0.22924428088846,1
687,678,61,0.191247252112883,1
688,668,61,0.16893715962131,1
688,669,61,0.27151856682673,1
688,670,61,0.296632605608894,1
688,671,61,0.26293897700171,1
688,672,61,0.275047284378697,1
688,673,61,0.26647163779037,1
688,674,61,0.230739573671188,1
688,675,61,0.233780898453542,1
688,676,61,0.264686985506212,1
688,677,61,0.300737275362285,3
688,678,61,0.278432607544395,3
688,679,61,0.18687165367708,1
688,680,61,0.146908638194053,1
689,668,61,0.132470890972862,1
689,669,61,0.209050791495931,1
689,670,61,0.253478825387176,1
689,671,61,0.226859276264223,1
689,672,61,0.230760226645692,1
689,673,61,0.270364483840072,1
689,674,61,0.285776156059886,1
689,675,61,0.268579548340018,1
689,676,61,0.263095573605857,3
689,677,61,0.313386786528953,3
689,678,61,0.336492454255675,3
689,679,61,0.266046203944267,3
689,680,61,0.21113197082225,1
689,681,61,0.149515444435823,1
690,669,61,0.124653565836561,1
690,670,61,0.150658830575981,1
690,671,61,0.150221523448122,1
690,672,61,0.168135680424041,1
690,673,61,0.224649473349856,1
690,674,61,0.255224589950355,1
690,675,61,0.216494162721521,1
690,676,61,0.178759762224046,1
690,677,61,0.194533406143624,3
690,678,61,0.237940381375553,3
690,679,61,0.246843076965195,1
690,680,61,0.218902608907537,1
690,681,61,0.158176339008571,1
691,672,61,0.11061649285649,1
691,673,61,0.158066276954571,1
691,674,61,0.177422656411645,1
691,675,61,0.140347451802913,1
691,676,61,0.108712486858389,1
691,677,61,0.102435834405544,1
691,678,61,0.118141364902353,1
691,679,61,0.139258867938455,1
691,680,61,0.141309557984376,1
692,665,61,0.108054990265016,1
692,666,61,0.119839843303971,1
693,665,61,0.10287601726403,1
693,666,61,0.126290771568567,1
693,667,61,0.100046352791581,1
696,692,61,0.135449047717691,1
696,693,61,0.127042393875382,1
697,660,61,0.1164560233611,1
697,661,61,0.116769597821561,1
697,662,61,0.110242342873237,1
697,691,61,0.11821769158608,1
697,692,61,0.168971886247216,1
697,693,61,0.190992837095739,1
697,694,61,0.142489239330782,1
698,660,61,0.144583010871513,1
698,661,61,0.160074822296719,1
698,662,61,0.130254988023832,1
698,691,61,0.10021440874656,1
698,692,61,0.16218872395184,1
698,693,61,0.203248155308116,1
698,694,61,0.164830986645091,1
698,695,61,0.113679265796437,1
699,660,61,0.170660942273862,1
699,661,61,0.197922432901797,1
699,662,61,0.137267947339318,1
699,692,61,0.112608785963427,1
699,693,61,0.143754419198748,1
699,694,61,0.140075346685245,1
699,695,61,0.124281289435383,1
700,660,61,0.172998878594919,1
700,661,61,0.188650859501718,1
700,662,61,0.128293946701627,1
700,694,61,0.110899011604763,1
701,660,61,0.13172504191314,1
701,661,61,0.127738898011844,1
701,695,61,0.105247710741198,1
702,696,61,0.138365822863719,1
702,698,61,0.137981542465757,1
703,696,61,0.142382477831252,1
703,697,61,0.184659007710844,1
703,698,61,0.192529239754932,1
703,699,61,0.144159820966733,1
704,696,61,0.115964360567222,1
704,697,61,0.177157697048869,1
704,698,61,0.213042153105448,1
704,699,61,0.16418756370312,1
705,697,61,0.106452478480158,1
705,698,61,0.133096449527604,1
709,701,61,0.106289324338748,1
711,704,61,0.213583727254376,1
711,705,61,0.190651169797069,1
712,703,61,0.110991438022834,1
712,704,61,0.201345401995705,1
712,705,61,0.220970673159329,1
712,706,61,0.138182418785809,1
713,705,61,0.149212381642237,1
686,669,62,0.142363099328276,1
686,670,62,0.161292509037662,1
686,671,62,0.197720630683625,1
686,672,62,0.206692910240108,1
686,673,62,0.163675945081557,1
686,675,62,0.161008770282457,1
686,676,62,0.184350945067418,1
686,677,62,0.172450485478671,1
686,678,62,0.134999507841748,1
687,668,62,0.176898205931451,1
687,669,62,0.230469102491376,1
687,670,62,0.241863727598572,1
687,671,62,0.266021302731338,1
687,672,62,0.275733560064178,1
687,673,62,0.210577499457176,1
687,674,62,0.17063845928896,1
687,675,62,0.202118559603465,1
687,676,62,0.234565253982077,1
687,677,62,0.238441063506397,1
687,678,62,0.21094947085662,1
687,679,62,0.149033302053187,1
688,668,62,0.185413440390771,1
688,669,62,0.263180015514271,1
688,670,62,0.27267171302235,1
688,671,62,0.25507672946728,1
688,672,62,0.267914056344069,1
688,673,62,0.253833607760373,1
688,674,62,0.236149498341702,1
688,675,62,0.248712236515281,1
688,676,62,0.248498168870268,1
688,677,62,0.270627896408345,1
688,678,62,0.284675775164105,3
688,679,62,0.222929982507407,1
688,680,62,0.189824680457679,1
689,668,62,0.136569101225262,1
689,669,62,0.195005156681493,1
689,670,62,0.219254994838544,1
689,671,62,0.208259965573484,1
689,672,62,0.23308847916172,1
689,673,62,0.27723244751019,1
689,674,62,0.291261416158493,1
689,675,62,0.274228224010094,1
689,676,62,0.239801589094738,1
689,677,62,0.270528836202577,3
689,678,62,0.323044535694908,3
689,679,62,0.284785031142096,3
689,680,62,0.228194203492815,1
689,681,62,0.162400852657263,1
690,669,62,0.119306242771781,1
690,670,62,0.137395143954971,1
690,671,62,0.147669290730753,1
690,672,62,0.18162792227239,1
690,673,62,0.235469627692617,1
690,674,62,0.251901813925796,1
690,675,62,0.219313816601371,1
690,676,62,0.176667134439814,1
690,677,62,0.177430913244279,1
690,678,62,0.220327533433254,3
690,679,62,0.243838570249203,1
690,680,62,0.211124411136434,1
690,681,62,0.148540974791248,1
691,665,62,0.103393332882252,1
691,666,62,0.104333794833578,1
691,673,62,0.146158573574662,1
691,674,62,0.153489584340334,1
691,675,62,0.13188535300268,1
691,678,62,0.11074691377618,1
691,679,62,0.134529805172659,1
691,680,62,0.133522711235554,1
692,665,62,0.111660840576719,1
692,666,62,0.116034946682614,1
694,661,62,0.100704132600849,1
694,662,62,0.104251509723135,1
695,662,62,0.110603497604073,1
695,692,62,0.108154192078731,1
696,691,62,0.118569325905674,1
696,692,62,0.152258902346974,1
696,693,62,0.145610539924741,1
696,694,62,0.107963598674254,1
697,691,62,0.110733776915815,1
697,692,62,0.174205498130116,1
697,693,62,0.197986701124144,1
697,694,62,0.152050956522463,1
698,692,62,0.140906857660313,1
698,693,62,0.179629540023709,1
698,694,62,0.153432265800336,1
698,695,62,0.11449162701983,1
699,693,62,0.119894449507128,1
699,694,62,0.122990282456368,1
700,695,62,0.117833825119041,1
701,698,62,0.117769556896694,1
702,696,62,0.118788709295179,1
702,697,62,0.14924441771714,1
702,698,62,0.163334332247483,1
702,699,62,0.123318703965483,1
703,696,62,0.124517186490155,1
703,697,62,0.196246753379734,1
703,698,62,0.24838172356571,1
703,699,62,0.178825065273703,1
703,700,62,0.105461974458754,1
704,696,62,0.101189880539687,1
704,697,62,0.172798024060705,1
704,698,62,0.239974045789011,1
704,699,62,0.184415028110142,1
705,698,62,0.130760168930241,1
705,699,62,0.118464514238652,1
708,701,62,0.111197597408622,1
709,701,62,0.103390489830382,1
709,702,62,0.128033181112681,1
710,704,62,0.15369554765358,1
710,705,62,0.123157804658314,1
711,703,62,0.144728464019481,1
711,704,62,0.241621730509136,1
711,705,62,0.215896010751089,1
711,706,62,0.108221194423758,1
712,703,62,0.11043048537093,1
712,704,62,0.210695513342076,1
712,705,62,0.220487920773228,1
712,706,62,0.126366869500995,1
713,704,62,0.109445307986937,1
713,705,62,0.129055655851474,1
717,705,62,0.121668143514731,1
717,706,62,0.169737418811647,1
685,671,63,0.126267253756356,1
685,672,63,0.134835449588058,1
686,669,63,0.139144459609757,1
686,670,63,0.175244780642991,1
686,671,63,0.243810771519808,1
686,672,63,0.243715458478191,1
686,673,63,0.171376770448705,1
686,675,63,0.173014204932012,1
686,676,63,0.207403564278405,1
686,677,63,0.197103459676546,1
686,678,63,0.151887911310243,1
687,668,63,0.19444942173781,1
687,669,63,0.220295508251271,1
687,670,63,0.247588457629398,1
687,671,63,0.309838331007682,4
687,672,63,0.300197226222023,1
687,673,63,0.211357846391504,1
687,674,63,0.178042202075076,1
687,675,63,0.216066768149991,1
687,676,63,0.24653556986064,1
687,677,63,0.252093943231858,1
687,678,63,0.231140149876037,1
687,679,63,0.18227145414355,1
687,680,63,0.159401520077816,1
688,668,63,0.197934415112743,1
688,669,63,0.242041870396584,1
688,670,63,0.246337296948238,1
688,671,63,0.253871035830201,1
688,672,63,0.260064945670003,1
688,673,63,0.24371068737965,1
688,674,63,0.243842186698325,1
688,675,63,0.26476022949385,1
688,676,63,0.24457458300303,1
688,677,63,0.249310867774151,1
688,678,63,0.280479888106656,1
688,679,63,0.260382561403428,1
688,680,63,0.237327828966147,1
688,681,63,0.190338041946289,1
689,668,63,0.142416256773201,1
689,669,63,0.178082200873798,1
689,670,63,0.186957882024216,1
689,671,63,0.196007653806763,1
689,672,63,0.23949105375869,1
689,673,63,0.285935846253041,1
689,674,63,0.297260451676634,5
689,675,63,0.287320815551712,1
689,676,63,0.235000556812832,1
689,677,63,0.232753020826904,1
689,678,63,0.287705052377998,3
689,679,63,0.285610845120505,1
689,680,63,0.238021468264901,1
689,681,63,0.177536955811153,1
690,668,63,0.100087691419345,1
690,669,63,0.116024402336981,1
690,670,63,0.126337665585043,1
690,671,63,0.149478659048218,1
690,672,63,0.20153476450033,1
690,673,63,0.250614924470178,1
690,674,63,0.252646061726419,1
690,675,63,0.231869910094334,1
690,676,63,0.190159594146544,1
690,677,63,0.171062890986511,1
690,678,63,0.19971442701339,1
690,679,63,0.224837964420959,1
690,680,63,0.193962094325711,1
690,681,63,0.14321602578218,1
691,665,63,0.107462208503672,1
691,666,63,0.11142968194173,1
691,672,63,0.121764600312847,1
691,673,63,0.140481129705396,1
691,674,63,0.138255401343391,1
691,675,63,0.130811986546124,1
691,676,63,0.120986911250765,1
691,677,63,0.108153941541593,1
691,678,63,0.108559844383854,1
691,679,63,0.125391800745873,1
691,680,63,0.121138889257239,1
692,663,63,0.101041725947797,1
692,664,63,0.104207284471824,1
692,665,63,0.111965058019723,1
692,666,63,0.113317239632078,1
693,662,63,0.106211058715431,1
693,663,63,0.103351329786426,1
694,661,63,0.124570147862537,1
694,662,63,0.123221027160433,1
694,663,63,0.102910210136903,1
695,660,63,0.103643281802589,1
695,661,63,0.138570489919598,1
695,662,63,0.135548086137621,1
695,663,63,0.102661927833179,1
695,692,63,0.11787669964839,1
695,693,63,0.106544403823953,1
696,661,63,0.1166381638604,1
696,662,63,0.118481300226895,1
696,691,63,0.114797674473233,1
696,692,63,0.168187301967381,1
696,693,63,0.165598828508359,1
696,694,63,0.123717787840423,1
697,661,63,0.123300785113659,1
697,691,63,0.11028812581197,1
697,692,63,0.184100462394048,1
697,693,63,0.203976695519481,1
697,694,63,0.16202669178109,1
697,695,63,0.107762537174578,1
698,660,63,0.142175414333183,1
698,661,63,0.175626751742116,1
698,692,63,0.133687717173201,1
698,693,63,0.164187029950087,1
698,694,63,0.148830018398026,1
698,695,63,0.118466638357865,1
699,659,63,0.127261167261421,1
699,660,63,0.18935123062444,1
699,661,63,0.196493717640253,1
699,693,63,0.110207071601379,1
699,694,63,0.118696163054998,1
700,659,63,0.151612462066429,1
700,660,63,0.191264484710808,1
700,661,63,0.159331075570372,1
700,695,63,0.116828593871092,1
701,660,63,0.127193609377522,1
701,696,63,0.113084076699985,1
701,697,63,0.12286495942279,1
701,698,63,0.125897373797367,1
702,696,63,0.11073543263951,1
702,697,63,0.163945893401255,1
702,698,63,0.20707298597132,1
702,699,63,0.146342119260519,1
703,696,63,0.108301486130017,1
703,697,63,0.200823783674461,1
703,698,63,0.294256032103995,1
703,699,63,0.209876997619425,1
703,700,63,0.111567248616311,1
704,697,63,0.150458488008961,1
704,698,63,0.231616780441637,1
704,699,63,0.187784153505225,1
704,700,63,0.11349094901204,1
705,698,63,0.116063693095966,1
705,699,63,0.113283602298076,1
708,701,63,0.106421804020136,1
708,702,63,0.132117241463246,1
709,702,63,0.128981943468317,1
710,703,63,0.12315989609877,1
710,704,63,0.162724786283732,1
710,705,63,0.130574978413609,1
711,703,63,0.133222513279676,1
711,704,63,0.240988198337655,1
711,705,63,0.216540544770802,1
711,706,63,0.104487384992069,1
712,703,63,0.103783702421959,1
712,704,63,0.199215030246992,1
712,705,63,0.197888272707681,1
712,706,63,0.106661720562035,1
713,704,63,0.103519244133458,1
713,705,63,0.11108038959973,1
716,705,63,0.104246008799018,1
716,706,63,0.139583095673739,1
717,705,63,0.140535539836011,1
717,706,63,0.209593084577516,1
717,707,63,0.134599541640366,1
718,705,63,0.126582669120135,1
718,706,63,0.170933472215373,1
685,671,64,0.138783718809845,1
685,672,64,0.146062704994173,1
686,669,64,0.146648439036898,1
686,670,64,0.189054856083146,1
686,671,64,0.26954267845587,4
686,672,64,0.259790596611012,1
686,673,64,0.176578259113351,1
686,675,64,0.17554451020335,1
686,676,64,0.214135322888823,1
686,677,64,0.20818212477401,1
686,678,64,0.159963257019891,1
686,679,64,0.117923691701137,1
687,668,64,0.212742989976879,1
687,669,64,0.217826105290296,1
687,670,64,0.252805316202812,4
687,671,64,0.332490199727115,4
687,672,64,0.306828421403845,4
687,673,64,0.213139514015845,1
687,674,64,0.18935691672818,1
687,675,64,0.22674799420329,1
687,676,64,0.258764440065583,1
687,677,64,0.26329622117461,1
687,678,64,0.241550861177849,1
687,679,64,0.216023240045499,1
687,680,64,0.193139787867234,1
688,667,64,0.156509123284604,1
688,668,64,0.216327958562779,1
688,669,64,0.230057415509105,1
688,670,64,0.230575352023712,1
688,671,64,0.25239931532428,4
688,672,64,0.254540449277006,1
688,673,64,0.244290866033663,1
688,674,64,0.258062587505872,5
688,675,64,0.282002434972827,1
688,676,64,0.254658071016821,1
688,677,64,0.242334672060432,1
688,678,64,0.274136549203436,1
688,679,64,0.299576634838365,6
688,680,64,0.280693585392421,1
688,681,64,0.210569809056332,1
689,667,64,0.119802861843823,1
689,668,64,0.156858437412442,1
689,669,64,0.172049451771222,1
689,670,64,0.17268119750398,1
689,671,64,0.193231941962329,1
689,672,64,0.247110389198485,1
689,673,64,0.295217223280258,5
689,674,64,0.308037426488313,5
689,675,64,0.302573581868541,5
689,676,64,0.239535562225895,1
689,677,64,0.20896756959445,1
689,678,64,0.249476832288674,1
689,679,64,0.281457266160615,1
689,680,64,0.248732562702213,1
689,681,64,0.188710661627258,1
690,668,64,0.105019896232355,1
690,669,64,0.114116148100453,1
690,670,64,0.123161551822464,1
690,671,64,0.158237175961421,1
690,672,64,0.222283204546371,1
690,673,64,0.26425198767719,1
690,674,64,0.257160523094169,5
690,675,64,0.243557380437054,1
690,676,64,0.201099418097899,1
690,677,64,0.166224441527696,1
690,678,64,0.173863275292575,1
690,679,64,0.196995750493059,1
690,680,64,0.176341534196731,1
690,681,64,0.139909915923755,1
690,682,64,0.117214606243182,1
691,665,64,0.105146918561303,1
691,666,64,0.112280756599397,1
691,671,64,0.111383365249963,1
691,672,64,0.135005324660517,1
691,673,64,0.141315124266006,1
691,674,64,0.131164165511669,1
691,675,64,0.129433770857259,1
691,676,64,0.123938652666918,1
691,677,64,0.109535697429147,1
691,678,64,0.101037303422666,1
691,679,64,0.109436299542889,1
691,680,64,0.106029234110783,1
692,663,64,0.101789546625866,1
692,664,64,0.102943880149662,1
692,665,64,0.107198904864589,1
692,666,64,0.107955015054049,1
693,661,64,0.10655921819385,1
693,662,64,0.112939680165165,1
693,663,64,0.109778032199073,1
694,660,64,0.112717540867142,1
694,661,64,0.156389878499852,1
694,662,64,0.150181775186538,1
694,663,64,0.11779824884545,1
694,689,64,0.104411330631318,1
694,690,64,0.118073817911374,1
695,660,64,0.117537025753905,1
695,661,64,0.17949149406069,1
695,662,64,0.172881322212619,1
695,663,64,0.119311133692431,1
695,691,64,0.102543086086432,1
695,692,64,0.127100975993989,1
695,693,64,0.12379559596114,1
696,661,64,0.133909475219058,1
696,662,64,0.128350905775297,1
696,691,64,0.111618750337541,1
696,692,64,0.175802552562535,1
696,693,64,0.179136058112351,1
696,694,64,0.134978898438921,1
697,660,64,0.106899556556397,1
697,661,64,0.127854373846608,1
697,662,64,0.103567129405566,1
697,691,64,0.107381165185999,1
697,692,64,0.182475010121688,1
697,693,64,0.198443637292117,1
697,694,64,0.160380946000555,1
697,695,64,0.113903463856159,1
698,659,64,0.100563298050555,1
698,660,64,0.149296344262213,1
698,661,64,0.171722500806178,1
698,662,64,0.117059142502615,1
698,692,64,0.12554680698384,1
698,693,64,0.148390456435926,1
698,694,64,0.13984333840257,1
698,695,64,0.120329403764474,1
699,659,64,0.136156117985624,1
699,660,64,0.186127166232238,1
699,661,64,0.179027869640426,1
699,662,64,0.110733559057434,1
699,694,64,0.111080356920973,1
699,695,64,0.125545924657397,1
700,659,64,0.152774867243234,1
700,660,64,0.181375315479806,1
700,661,64,0.141505663205888,1
700,695,64,0.112869867447025,1
700,696,64,0.128027767331918,1
701,659,64,0.10955669897706,1
701,660,64,0.116965615899721,1
701,696,64,0.110116050369865,1
701,697,64,0.131322461411187,1
701,698,64,0.142160687106638,1
701,699,64,0.109415439602924,1
702,696,64,0.105978026498366,1
702,697,64,0.186870041525062,1
702,698,64,0.258091018024571,1
702,699,64,0.179819621460991,1
702,700,64,0.102840386525844,1
703,697,64,0.196918824698785,1
703,698,64,0.317179875226068,1
703,699,64,0.237477715532164,1
703,700,64,0.121543354234186,1
704,697,64,0.126250522232707,1
704,698,64,0.206281397544541,1
704,699,64,0.183398086974222,1
704,700,64,0.112598448583256,1
705,699,64,0.103232488039678,1
707,701,64,0.106920013458358,1
708,701,64,0.103978511386105,1
708,702,64,0.132091752032687,1
709,702,64,0.128236181551947,1
709,703,64,0.136038147672399,1
710,703,64,0.124462830824136,1
710,704,64,0.159642776448757,1
711,703,64,0.121577579785816,1
711,704,64,0.212332566573216,1
711,705,64,0.195608689753932,1
712,704,64,0.172324105831946,1
712,705,64,0.166438563637303,1
715,705,64,0.106195176839468,1
715,706,64,0.105525589105959,1
716,705,64,0.11909420120971,1
716,706,64,0.152523033847903,1
717,705,64,0.148170996795988,1
717,706,64,0.212840285529762,1
717,707,64,0.129520358670723,1
718,705,64,0.125135740897953,1
718,706,64,0.163473118928996,1
685,671,65,0.149912480441983,1
685,672,65,0.150876547348873,1
686,668,65,0.155345302028323,1
686,669,65,0.154659472952522,1
686,670,65,0.194749848444988,1
686,671,65,0.259292703067442,1
686,672,65,0.242276874231995,1
686,673,65,0.176129100489574,1
686,674,65,0.152009421822156,1
686,675,65,0.168685936229445,1
686,676,65,0.200060538623029,1
686,677,65,0.200146309467565,1
686,678,65,0.160105224433765,1
686,679,65,0.126693362963439,1
686,680,65,0.102820604984864,1
687,667,65,0.175205653277792,1
687,668,65,0.208179837261012,1
687,669,65,0.202768910441946,1
687,670,65,0.240525445350915,1
687,671,65,0.311315694045667,4
687,672,65,0.285724196836055,1
687,673,65,0.217051291958841,1
687,674,65,0.205874154873238,1
687,675,65,0.234058646103274,1
687,676,65,0.260337551861947,1
687,677,65,0.258198051847078,1
687,678,65,0.241034318956879,1
687,679,65,0.243123689758317,6
687,680,65,0.210087993461268,1
687,681,65,0.145428911392636,1
688,666,65,0.116359337811683,1
688,667,65,0.174595028915057,1
688,668,65,0.225490123484001,1
688,669,65,0.217209871074254,1
688,670,65,0.214511803956751,1
688,671,65,0.244244963272821,1
688,672,65,0.251206562475023,1
688,673,65,0.253459958851396,1
688,674,65,0.278319255828845,5
688,675,65,0.298079686331942,1
688,676,65,0.268403758412519,1
688,677,65,0.237325040378872,1
688,678,65,0.266001978692957,6
688,679,65,0.339251521719813,6
688,680,65,0.314564550721608,6
688,681,65,0.210064072611052,1
688,682,65,0.114323059097655,1
689,667,65,0.133590922694594,1
689,668,65,0.174816383922909,1
689,669,65,0.173077471005807,1
689,670,65,0.165782842589734,1
689,671,65,0.195078357097455,1
689,672,65,0.248861317005289,1
689,673,65,0.293683696351692,5
689,674,65,0.313779280187873,5
689,675,65,0.30835706830468,5
689,676,65,0.243716046695819,1
689,677,65,0.195308284832593,1
689,678,65,0.218947465948152,1
689,679,65,0.28453085576917,6
689,680,65,0.268970713062815,1
689,681,65,0.193964991842176,1
689,682,65,0.122995434807074,1
690,667,65,0.101974889643365,1
690,668,65,0.115544503895669,1
690,669,65,0.117870588720808,1
690,670,65,0.12673883000752,1
690,671,65,0.173247999653409,1
690,672,65,0.233663756002165,1
690,673,65,0.261778902909579,1
690,674,65,0.255496978283919,5
690,675,65,0.246296208857612,1
690,676,65,0.204268865394024,1
690,677,65,0.16136450033961,1
690,678,65,0.15016151435712,1
690,679,65,0.169866009720937,1
690,680,65,0.163294061125784,1
690,681,65,0.135435889071488,1
690,682,65,0.112619221379869,1
690,683,65,0.10199370171455,1
691,665,65,0.100715700880871,1
691,666,65,0.110374256122835,1
691,670,65,0.103205702351754,1
691,671,65,0.135976471964784,1
691,672,65,0.153161478725872,1
691,673,65,0.144029018794877,1
691,674,65,0.12933233599514,1
691,675,65,0.128475705948761,1
691,676,65,0.121843149152059,1
691,677,65,0.106648659952104,1
692,665,65,0.10020179474631,1
692,666,65,0.101542560579509,1
693,661,65,0.110277450751309,1
693,662,65,0.111173142805373,1
693,663,65,0.109433935779457,1
693,689,65,0.107317191072466,1
693,690,65,0.115941278471772,1
694,660,65,0.128180475163967,1
694,661,65,0.172488523551966,1
694,662,65,0.166699154939544,1
694,663,65,0.12847117449444,1
694,690,65,0.112726080915671,1
694,691,65,0.101857529333607,1
695,660,65,0.12726241994711,1
695,661,65,0.206075281730429,1
695,662,65,0.208303798679709,1
695,663,65,0.136375316195505,1
695,691,65,0.10001771530742,1
695,692,65,0.127915897053357,1
695,693,65,0.13014688669526,1
696,660,65,0.107805193845546,1
696,661,65,0.15590110232952,1
696,662,65,0.149370644862998,1
696,691,65,0.106302777093764,1
696,692,65,0.166328610512494,1
696,693,65,0.173052504435363,1
696,694,65,0.135061651944883,1
697,660,65,0.122375998072834,1
697,661,65,0.138535011682279,1
697,662,65,0.106594892503713,1
697,691,65,0.100019545317819,1
697,692,65,0.163861004883161,1
697,693,65,0.178979069363118,1
697,694,65,0.149334937874378,1
697,695,65,0.114081900762985,1
698,659,65,0.117354242572381,1
698,660,65,0.163411878938142,1
698,661,65,0.16315938107475,1
698,662,65,0.1081506845588,1
698,692,65,0.11675062235659,1
698,693,65,0.139397665512888,1
698,694,65,0.135938531927761,1
698,695,65,0.121882984556995,1
699,659,65,0.142439905300441,1
699,660,65,0.180704660240231,1
699,661,65,0.156987605646441,1
699,694,65,0.111706449228748,1
699,695,65,0.125928342366203,1
700,659,65,0.136199439124654,1
700,660,65,0.156468144123168,1
700,661,65,0.122565458613731,1
700,695,65,0.111501531635731,1
700,696,65,0.129822451994514,1
700,698,65,0.111750293227892,1
701,659,65,0.1009086689417,1
701,660,65,0.102963498296856,1
701,696,65,0.111540103462058,1
701,697,65,0.142641968948669,1
701,698,65,0.161671212261075,1
701,699,65,0.118572038242515,1
702,696,65,0.102723244074467,1
702,697,65,0.191795165940694,1
702,698,65,0.282108118073372,1
702,699,65,0.198534854596174,1
702,700,65,0.107350479833058,1
703,697,65,0.173200637241415,1
703,698,65,0.297732311143694,1
703,699,65,0.237632220695856,1
703,700,65,0.122038938478919,1
704,697,65,0.104695352602418,1
704,698,65,0.173055129628852,1
704,699,65,0.167510840801956,1
704,700,65,0.10751464701594,1
706,701,65,0.122089960911711,1
707,701,65,0.116869474996257,1
707,702,65,0.129831917941161,1
708,701,65,0.102005466067116,1
708,702,65,0.125417322855188,1
708,703,65,0.129373652837066,1
709,702,65,0.118757228759147,1
709,703,65,0.139567638621618,1
709,704,65,0.132094987229643,1
710,703,65,0.117859510622142,1
710,704,65,0.138443380447298,1
711,703,65,0.102845310125251,1
711,704,65,0.15656681218385,1
711,705,65,0.150277643767027,1
712,704,65,0.132351079756319,1
712,705,65,0.13112515796858,1
715,705,65,0.113646053286279,1
715,706,65,0.108149475444786,1
716,705,65,0.130794732162361,1
716,706,65,0.146469413912443,1
717,705,65,0.135818426602404,1
717,706,65,0.172014844967426,1
717,707,65,0.107649544925355,1
718,705,65,0.106147313353198,1
718,706,65,0.129191446980251,1
685,671,66,0.157837166188362,1
686,670,66,0.186105837896754,1
686,671,66,0.222450084066094,1
686,672,66,0.201545308845963,1
686,673,66,0.167201590830355,1
686,674,66,0.159719473491732,1
686,675,66,0.158554595622303,1
686,676,66,0.171584182520183,1
686,677,66,0.175256893568966,1
686,678,66,0.153186358152963,1
686,679,66,0.129493997806642,1
686,680,66,0.103695633171504,1
687,668,66,0.19329411874422,1
687,669,66,0.177393430709856,1
687,670,66,0.205278617203376,1
687,671,66,0.247529091220619,1
687,672,66,0.235991834231489,1
687,673,66,0.216747074515838,1
687,674,66,0.230861421863592,1
687,675,66,0.237645096126163,1
687,676,66,0.243653935271442,1
687,677,66,0.233559249336876,1
687,678,66,0.227716701493692,1
687,679,66,0.248153647626809,6
687,680,66,0.208084175645985,6
687,681,66,0.13260485209124,1
688,666,66,0.113826581633561,1
688,667,66,0.173737059039636,1
688,668,66,0.215046864140092,1
688,669,66,0.1935797310815,1
688,670,66,0.185569993423242,1
688,671,66,0.21103759457167,1
688,672,66,0.228025690035236,1
688,673,66,0.25407832807957,1
688,674,66,0.295114437696178,7
688,675,66,0.300405716692486,1
688,676,66,0.268529462698263,1
688,677,66,0.228015341762146,1
688,678,66,0.255676515375568,6
688,679,66,0.357194316179893,6
688,680,66,0.332383187690447,6
688,681,66,0.196962352803277,6
688,682,66,0.107494168328141,1
689,667,66,0.146107562034788,1
689,668,66,0.19122250340082,1
689,669,66,0.17202492091754,1
689,670,66,0.152920167890335,1
689,671,66,0.180560568707144,1
689,672,66,0.223856098484354,1
689,673,66,0.262559075557203,1
689,674,66,0.291331479413771,5
689,675,66,0.284350164028102,1
689,676,66,0.231951650558825,1
689,677,66,0.181891236804391,1
689,678,66,0.196080353148449,1
689,679,66,0.282246697789424,6
689,680,66,0.286191328776251,6
689,681,66,0.191447790752446,1
689,682,66,0.117650834972055,1
690,667,66,0.118282831241951,1
690,668,66,0.135366228854215,1
690,669,66,0.123580722240118,1
690,670,66,0.126321293527723,1
690,671,66,0.174966477454388,1
690,672,66,0.213738450276448,1
690,673,66,0.221827989459608,1
690,674,66,0.22026947417476,1
690,675,66,0.217256318481049,1
690,676,66,0.184906614653586,1
690,677,66,0.144914340790013,1
690,678,66,0.127332755525364,1
690,679,66,0.145671540271376,1
690,680,66,0.151107684198024,1
690,681,66,0.126539718340352,1
690,682,66,0.103998075068704,1
691,666,66,0.107326253981109,1
691,667,66,0.112720122488955,1
691,668,66,0.110680717507162,1
691,670,66,0.112927185987023,1
691,671,66,0.157421122038473,1
691,672,66,0.159770986105881,1
691,673,66,0.132749651664065,1
691,674,66,0.116429335709447,1
691,675,66,0.117917493630203,1
691,676,66,0.110627462025966,1
693,660,66,0.11451778091845,1
693,661,66,0.112110140808443,1
693,662,66,0.105655367343424,1
693,663,66,0.106170700450381,1
693,664,66,0.100069543816221,1
693,689,66,0.101846440342022,1
693,690,66,0.113559367436543,1
694,660,66,0.148041948384097,1
694,661,66,0.170368097038338,1
694,662,66,0.168084254953244,1
694,663,66,0.133748379839346,1
694,690,66,0.0999992518096435,1
694,691,66,0.100321497033662,1
695,660,66,0.133515293157686,1
695,661,66,0.206269175689375,1
695,662,66,0.225895035070629,1
695,663,66,0.149001364014556,1
695,692,66,0.115126684199976,1
695,693,66,0.123309782664787,1
696,660,66,0.114452151081222,1
696,661,66,0.17231087093531,1
696,662,66,0.173493907300781,1
696,663,66,0.107780172810506,1
696,692,66,0.138101549754842,1
696,693,66,0.148448929625343,1
696,694,66,0.128082907288108,1
697,660,66,0.128624056613194,1
697,661,66,0.144914406147527,1
697,662,66,0.113866602218121,1
697,692,66,0.128714173732428,1
697,693,66,0.144048822121696,1
697,694,66,0.12872778988123,1
698,659,66,0.127798994246198,1
698,660,66,0.16551399445486,1
698,661,66,0.145421449743092,1
698,692,66,0.0999916812309093,1
698,693,66,0.122249596640271,1
698,694,66,0.12501320645165,1
698,695,66,0.114782609566198,1
699,659,66,0.143937703454548,1
699,660,66,0.170121100099062,1
699,661,66,0.133755776131376,1
699,694,66,0.107661875709711,1
699,695,66,0.117338633019394,1
699,696,66,0.132085390567967,1
700,659,66,0.119966974562109,1
700,660,66,0.128652345523945,1
700,661,66,0.102463317240287,1
700,695,66,0.103340219009003,1
700,696,66,0.119724824971807,1
700,697,66,0.129224332702839,1
700,698,66,0.117166840793183,1
701,658,66,0.104139388907436,1
701,696,66,0.104748357546477,1
701,697,66,0.143198466396685,1
701,698,66,0.17323013526618,1
701,699,66,0.124427515980602,1
702,697,66,0.17220013352033,1
702,698,66,0.268095118444384,1
702,699,66,0.199471623847945,1
702,700,66,0.108248775294773,1
703,697,66,0.140431185671589,1
703,698,66,0.247535583400368,1
703,699,66,0.216296369097557,1
703,700,66,0.118020606001854,1
704,698,66,0.138020920368093,1
704,699,66,0.145434303387562,1
704,700,66,0.100977555761721,1
706,701,66,0.118397751537844,1
706,702,66,0.148591877401931,1
707,701,66,0.118650238508317,1
707,702,66,0.147066955879409,1
707,703,66,0.142079360573071,1
708,702,66,0.121573364226146,1
708,703,66,0.133490958376546,1
708,704,66,0.118589292626277,1
709,702,66,0.106604314878684,1
709,703,66,0.133225530618251,1
709,704,66,0.130959335062004,1
710,703,66,0.111311559127639,1
710,704,66,0.12115263612107,1
711,704,66,0.107840290830699,1
711,705,66,0.101475057160205,1
715,705,66,0.103936649898227,1
716,705,66,0.128590353921678,1
716,706,66,0.124531674072481,1
717,705,66,0.115727352434707,1
717,706,66,0.120243240774852,1
731,696,66,0.115927629644212,1
686,671,67,0.192968420464865,1
686,673,67,0.162943407168905,1
686,674,67,0.172985099052331,1
686,675,67,0.153794509823076,1
686,676,67,0.14585375702111,1
686,677,67,0.148155942781872,1
686,678,67,0.142395614691616,1
686,679,67,0.125922906799601,1
686,680,67,0.101906852471029,1
687,668,67,0.180694301074222,1
687,669,67,0.159380790852879,1
687,670,67,0.174079565093072,1
687,671,67,0.194335634305498,1
687,672,67,0.195561392699452,1
687,673,67,0.224341247312645,1
687,674,67,0.270551754904241,7
687,675,67,0.24755272885494,1
687,676,67,0.222757569384811,1
687,677,67,0.213015814027204,1
687,678,67,0.222110181420309,1
687,679,67,0.241536722168932,6
687,680,67,0.19919675192884,6
687,681,67,0.125370614018336,1
688,666,67,0.107696068582584,1
688,667,67,0.155829862638985,1
688,668,67,0.191027694436674,1
688,669,67,0.171414078696424,1
688,670,67,0.160947693685389,1
688,671,67,0.183315464183289,1
688,672,67,0.206708356399309,1
688,673,67,0.256937196467971,7
688,674,67,0.318495129842871,7
688,675,67,0.301163493498559,7
688,676,67,0.261304690572007,1
688,677,67,0.232177046839642,1
688,678,67,0.263453623854767,6
688,679,67,0.358118231787194,6
688,680,67,0.336060571801499,6
688,681,67,0.193379649944538,6
688,682,67,0.104255529210261,1
689,666,67,0.10028820827307,1
689,667,67,0.152595101400285,1
689,668,67,0.198618294356035,1
689,669,67,0.169502861585916,1
689,670,67,0.141732072528175,1
689,671,67,0.169470564080957,1
689,672,67,0.19893421079409,1
689,673,67,0.227397713252467,1
689,674,67,0.261146852175089,7
689,675,67,0.253437955154931,1
689,676,67,0.21945742884602,1
689,677,67,0.184350160777247,1
689,678,67,0.194983065841676,1
689,679,67,0.275103404697601,6
689,680,67,0.292907161939029,6
689,681,67,0.193612388052788,1
689,682,67,0.112705362583653,1
690,666,67,0.106157574482935,1
690,667,67,0.1379985572053,1
690,668,67,0.159791257828218,1
690,669,67,0.131820354954757,1
690,670,67,0.127579142461174,1
690,671,67,0.179498890352719,1
690,672,67,0.195779534296186,1
690,673,67,0.18116288177265,1
690,674,67,0.179834566545916,1
690,675,67,0.182584788959792,1
690,676,67,0.164983476618759,1
690,677,67,0.133303218916858,1
690,678,67,0.116732039036704,1
690,679,67,0.130403142615722,1
690,680,67,0.140775597985858,1
690,681,67,0.117389753488458,1
691,664,67,0.108821503192161,1
691,665,67,0.107713878505217,1
691,666,67,0.114533423150194,1
691,667,67,0.133395972122501,1
691,668,67,0.139594936276738,1
691,669,67,0.110801084262575,1
691,670,67,0.122358504044853,1
691,671,67,0.178031592371929,1
691,672,67,0.166326976574638,1
691,673,67,0.122052511056045,1
691,674,67,0.103996147022034,1
691,675,67,0.106338037472703,1
691,676,67,0.100575552584477,1
692,664,67,0.107661581600897,1
692,665,67,0.106745999076663,1
692,666,67,0.101496134958552,1
692,667,67,0.102714507953395,1
692,668,67,0.102060660487901,1
692,671,67,0.100447146854811,1
692,689,67,0.0998134621824638,1
693,660,67,0.121132342612895,1
693,661,67,0.109529662751998,1
693,662,67,0.101007783612062,1
693,663,67,0.103924144827167,1
693,664,67,0.105720354498429,1
693,690,67,0.104309612553304,1
694,659,67,0.10289625630761,1
694,660,67,0.14955288339857,1
694,661,67,0.150495785363761,1
694,662,67,0.155515972283872,1
694,663,67,0.133313131473186,1
694,664,67,0.0999469222265659,1
695,660,67,0.12800545863372,1
695,661,67,0.182166991049938,1
695,662,67,0.214765761471295,1
695,663,67,0.152211921187146,1
696,660,67,0.116320798664113,1
696,661,67,0.174668795762809,1
696,662,67,0.180293016829635,1
696,663,67,0.112255180025487,1
696,692,67,0.112543744343827,1
696,693,67,0.12642103998739,1
697,660,67,0.129828268813282,1
697,661,67,0.148049006995637,1
697,662,67,0.11922871786696,1
697,692,67,0.104643099269774,1
697,693,67,0.122488445676104,1
697,694,67,0.11989568040698,1
698,659,67,0.131160483705033,1
698,660,67,0.160933053602197,1
698,661,67,0.133602273116236,1
698,693,67,0.113626282638217,1
698,694,67,0.1221207878726,1
698,695,67,0.113300475429672,1
699,659,67,0.140309217657076,1
699,660,67,0.157192327166916,1
699,661,67,0.11782929366472,1
699,694,67,0.108598982641972,1
699,695,67,0.115523665741541,1
699,696,67,0.130621425820404,1
700,659,67,0.109001279928029,1
700,660,67,0.107477632877035,1
700,695,67,0.100261193833846,1
700,696,67,0.116305439648264,1
700,697,67,0.138775004474611,1
701,658,67,0.108435632428018,1
701,696,67,0.102661709974799,1
701,697,67,0.14773026929155,1
701,698,67,0.186341647808174,1
701,699,67,0.138373447907048,1
702,697,67,0.153581215575315,1
702,698,67,0.240942143075946,1
702,699,67,0.195310049485478,1
702,700,67,0.115840050575115,1
703,697,67,0.120635113537386,1
703,698,67,0.202918535577906,1
703,699,67,0.192393688270374,1
703,700,67,0.118974172134787,1
704,698,67,0.118880732675245,1
704,699,67,0.130137954501645,1
704,700,67,0.101663036264113,1
706,701,67,0.111098907562102,1
706,702,67,0.143382447799304,1
706,703,67,0.136355839656258,1
707,701,67,0.113787410696686,1
707,702,67,0.153455772719628,1
707,703,67,0.16231242394048,1
707,704,67,0.115173229643042,1
708,702,67,0.118795789692556,1
708,703,67,0.135153827825816,1
708,704,67,0.116662062924779,1
709,703,67,0.126684833807829,1
709,704,67,0.128092024661346,1
710,703,67,0.111621288387678,1
710,704,67,0.118482672734695,1
716,705,67,0.134159892534913,1
716,706,67,0.113302163832124,1
717,705,67,0.116535018809992,1
717,706,67,0.101632634127066,1
686,673,68,0.170166697858172,1
686,674,68,0.185613085810972,1
686,675,68,0.153019947028759,1
686,678,68,0.131057436690896,1
686,679,68,0.120034804768984,1
687,668,68,0.164856116609321,1
687,669,68,0.14763078426194,1
687,670,68,0.15172841718963,1
687,671,68,0.162669591862947,1
687,672,68,0.179683253007504,1
687,673,68,0.238305751666058,1
687,674,68,0.305817384230047,7
687,675,68,0.256830511218874,1
687,676,68,0.202190082509894,1
687,677,68,0.194617412335276,1
687,678,68,0.216489609481362,1
687,679,68,0.220372891548145,6
687,680,68,0.180548967748364,1
688,667,68,0.131294630003035,1
688,668,68,0.158393140776263,1
688,669,68,0.14703215300307,1
688,670,68,0.140702833286657,1
688,671,68,0.159998157932501,1
688,672,68,0.190243295336462,1
688,673,68,0.257601751672882,7
688,674,68,0.335286934905301,7
688,675,68,0.299636567678933,7
688,676,68,0.248139356117026,1
688,677,68,0.23715519798517,1
688,678,68,0.276134158054865,6
688,679,68,0.32739956829956,6
688,680,68,0.300975176714162,6
688,681,68,0.187101145695456,1
688,682,68,0.106333974413901,1
689,666,68,0.102514274315566,1
689,667,68,0.152928566330916,1
689,668,68,0.18965867237148,1
689,669,68,0.160953761041295,1
689,670,68,0.140419072745614,1
689,671,68,0.166160510985838,1
689,672,68,0.184088687148564,1
689,673,68,0.203662216946739,1
689,674,68,0.238483393389794,7
689,675,68,0.232771451645923,1
689,676,68,0.213123043922253,1
689,677,68,0.192328439685312,1
689,678,68,0.200726183119845,1
689,679,68,0.248142863636958,6
689,680,68,0.266031629218589,1
689,681,68,0.190655875538095,1
689,682,68,0.112561532480623,1
690,666,68,0.113454316125302,1
690,667,68,0.156114592649823,1
690,668,68,0.179865077612153,1
690,669,68,0.144478754743363,1
690,670,68,0.138330072303423,1
690,671,68,0.183162941530864,1
690,672,68,0.182309252572626,1
690,673,68,0.153955703239059,1
690,674,68,0.150236359603858,1
690,675,68,0.156853829707687,1
690,676,68,0.151416574703297,1
690,677,68,0.126714364511352,1
690,678,68,0.11183434299122,1
690,679,68,0.120009119265883,1
690,680,68,0.131241864703196,1
690,681,68,0.113869510627505,1
691,664,68,0.106194403442216,1
691,665,68,0.106177933348624,1
691,666,68,0.115267431606917,1
691,667,68,0.146559574603353,1
691,668,68,0.160294728546338,1
691,669,68,0.122256720609325,1
691,670,68,0.126504632248118,1
691,671,68,0.176365008437266,1
691,672,68,0.158489521323947,1
691,673,68,0.111267529948871,1
692,664,68,0.102816879606551,1
692,665,68,0.104451808718478,1
692,666,68,0.0999833917195184,1
692,667,68,0.107377526951039,1
692,668,68,0.110648844826045,1
693,660,68,0.118387882553192,1
693,661,68,0.10353525672445,1
693,664,68,0.0998540927704903,1
694,659,68,0.103162239604777,1
694,660,68,0.136978271943235,1
694,661,68,0.131134514986037,1
694,662,68,0.135034430540197,1
694,663,68,0.122686141263797,1
695,660,68,0.120559941503078,1
695,661,68,0.158680234550533,1
695,662,68,0.184156288604138,1
695,663,68,0.142670443039045,1
695,693,68,0.104687128448542,1
696,660,68,0.114185448851398,1
696,661,68,0.167298439773557,1
696,662,68,0.170180651687464,1
696,663,68,0.113720822282583,1
696,693,68,0.114650707209519,1
696,694,68,0.124625767107166,1
697,660,68,0.121435579693185,1
697,661,68,0.143873239159658,1
697,662,68,0.120972902956877,1
697,693,68,0.11169971740478,1
697,694,68,0.116635734739454,1
697,695,68,0.104848572401663,1
698,659,68,0.120183667400611,1
698,660,68,0.139337089990095,1
698,661,68,0.118574249505081,1
698,693,68,0.105654376087792,1
698,694,68,0.118028753905297,1
698,695,68,0.113379438199808,1
698,696,68,0.120050011283966,1
699,659,68,0.125353479456683,1
699,660,68,0.13164306180443,1
699,694,68,0.108937055277358,1
699,695,68,0.115717439878379,1
699,696,68,0.129359546506907,1
699,697,68,0.151004332182154,1
700,658,68,0.100877297334859,1
700,659,68,0.102322450011237,1
700,695,68,0.0999500049226548,1
700,696,68,0.11521169254018,1
700,697,68,0.141389871476472,1
701,658,68,0.109599170468404,1
701,697,68,0.140285699844865,1
701,698,68,0.17636235056502,1
702,697,68,0.129371354431148,1
702,698,68,0.190758334334604,1
702,699,68,0.170935454726639,1
703,697,68,0.101556939232644,1
703,698,68,0.15452987989468,1
703,699,68,0.156794757407722,1
703,700,68,0.118721238554633,1
704,698,68,0.102203412191946,1
704,699,68,0.112856861301688,1
704,700,68,0.101903660845749,1
706,701,68,0.10684381748966,1
706,702,68,0.128954569562765,1
706,703,68,0.127086379482473,1
707,701,68,0.106155951437998,1
707,702,68,0.146771191341581,1
707,703,68,0.166235367125495,1
707,704,68,0.118270206348781,1
708,702,68,0.120088931683703,1
708,703,68,0.143962441273693,1
708,704,68,0.118805451711746,1
709,703,68,0.123426620114431,1
709,704,68,0.121679276077991,1
710,703,68,0.103576333922157,1
710,704,68,0.109848411349004,1
716,705,68,0.118172562222489,1
717,705,68,0.105362336928277,1
686,673,69,0.182340428106924,1
686,674,69,0.187392814495724,1
686,675,69,0.151968083194391,1
686,676,69,0.119116248477851,1
687,668,69,0.147597528180105,1
687,669,69,0.142828935011105,1
687,670,69,0.139551865674846,1
687,671,69,0.147229805019086,1
687,672,69,0.17312632574771,1
687,673,69,0.241830046692894,1
687,674,69,0.304933118848058,1
687,675,69,0.252821524866346,1
687,676,69,0.1841101026274,1
687,677,69,0.179780134629464,1
687,678,69,0.210637519441097,1
687,679,69,0.20043357752854,1
687,680,69,0.163071562361433,1
687,681,69,0.119443319265005,1
688,667,69,0.112504627871548,1
688,668,69,0.129506655378568,1
688,669,69,0.125805415774815,1
688,670,69,0.127268476410098,1
688,671,69,0.14668252298058,1
688,672,69,0.17485867023463,1
688,673,69,0.244996792545097,1
688,674,69,0.319569280589599,7
688,675,69,0.285466165369789,1
688,676,69,0.22902711965444,1
688,677,69,0.233803926084397,1
688,678,69,0.280003584328627,1
688,679,69,0.284491031257153,6
688,680,69,0.247884178595549,1
688,681,69,0.174805850470195,1
688,682,69,0.113897821324095,1
689,666,69,0.102818676938193,1
689,667,69,0.14655392117837,1
689,668,69,0.167601589710494,1
689,669,69,0.147706511835119,1
689,670,69,0.143401717373089,1
689,671,69,0.166130958496477,1
689,672,69,0.17074078737044,1
689,673,69,0.184346533435206,1
689,674,69,0.214930593122238,1
689,675,69,0.216582155721542,1
689,676,69,0.205026576842583,1
689,677,69,0.195477299364448,1
689,678,69,0.206711232129936,1
689,679,69,0.218803265485874,1
689,680,69,0.22332790084001,1
689,681,69,0.178760655443407,1
689,682,69,0.116841295014695,1
690,666,69,0.111775063725793,1
690,667,69,0.161222935963741,1
690,668,69,0.182373738653354,1
690,669,69,0.15399071308086,1
690,670,69,0.150341966453969,1
690,671,69,0.180775954395361,1
690,672,69,0.167237515677355,1
690,673,69,0.136614187017176,1
690,674,69,0.131596570825959,1
690,675,69,0.139996068020458,1
690,676,69,0.140306853893644,1
690,677,69,0.122440255402263,1
690,678,69,0.112144355467154,1
690,679,69,0.115999653624918,1
690,680,69,0.124938088881937,1
690,681,69,0.114001750664675,1
691,666,69,0.105247329489032,1
691,667,69,0.142395080938583,1
691,668,69,0.157772527606767,1
691,669,69,0.127342504687907,1
691,670,69,0.124740229900459,1
691,671,69,0.157350808246057,1
691,672,69,0.13809395739027,1
692,668,69,0.101659158384934,1
693,660,69,0.10395696519224,1
694,660,69,0.111228609549134,1
694,661,69,0.108766875203165,1
694,662,69,0.111060967525078,1
694,663,69,0.105277448410183,1
695,660,69,0.109685137385484,1
695,661,69,0.136384433568743,1
695,662,69,0.14733823313523,1
695,663,69,0.123995154237988,1
695,693,69,0.113657185849539,1
696,660,69,0.112549811699734,1
696,661,69,0.15509190005265,1
696,662,69,0.151923226153777,1
696,663,69,0.111839266590627,1
696,693,69,0.109603582100616,1
696,694,69,0.125254865860596,1
697,660,69,0.110914795444454,1
697,661,69,0.137073486948581,1
697,662,69,0.122074819754243,1
697,693,69,0.101847453383493,1
697,694,69,0.113173344171534,1
697,695,69,0.109317828155389,1
698,659,69,0.101209487793962,1
698,660,69,0.110523576257062,1
698,661,69,0.103683487566773,1
698,694,69,0.110345836497055,1
698,695,69,0.114004147106864,1
698,696,69,0.123381817538412,1
699,659,69,0.104437299350314,1
699,660,69,0.101715986743576,1
699,694,69,0.10491988834263,1
699,695,69,0.114905503478829,1
699,696,69,0.128913742902195,1
699,697,69,0.143732709611098,1
700,658,69,0.0999816052807955,1
700,695,69,0.101206840814635,1
700,696,69,0.117334232280101,1
700,697,69,0.139099962035471,1
700,698,69,0.137148517374942,1
701,658,69,0.103469300099651,1
701,697,69,0.127851345615114,1
701,698,69,0.149949309401264,1
701,699,69,0.13413411988846,1
702,697,69,0.108146447213292,1
702,698,69,0.136317256937012,1
702,699,69,0.135743145638905,1
702,700,69,0.122027457342249,1
703,698,69,0.112543493806689,1
703,699,69,0.117464021410486,1
703,700,69,0.113938397447527,1
704,700,69,0.100340200175657,1
705,701,69,0.100149563199504,1
706,701,69,0.103782384378755,1
706,702,69,0.106778710512546,1
706,703,69,0.102531299948028,1
707,702,69,0.122758361317045,1
707,703,69,0.14460385991856,1
707,704,69,0.103150279179669,1
708,659,69,0.100009164365972,1
708,702,69,0.114777500787167,1
708,703,69,0.148606920523128,1
708,704,69,0.112583993679687,1
709,659,69,0.109611457681084,1
709,703,69,0.125766277516697,1
709,704,69,0.114318625679605,1
710,703,69,0.10107671400376,1
710,704,69,0.107556955113499,1
716,705,69,0.101505829656499,1
687,673,70,0.217407228981457,1
687,674,70,0.259942334973267,1
687,675,70,0.222577073716285,1
687,676,70,0.166821231883247,1
688,668,70,0.111838286227913,1
688,669,70,0.110604205643811,1
688,670,70,0.114595948505495,1
688,671,70,0.127764006190236,1
688,672,70,0.151575306319576,1
688,673,70,0.207434609097675,1
688,674,70,0.262348428288769,1
688,675,70,0.244043444270544,1
688,676,70,0.203975301225843,1
688,677,70,0.210467241330633,1
688,678,70,0.241396835302595,1
688,679,70,0.221536081015121,1
688,680,70,0.185164798620719,1
688,681,70,0.149546097110007,1
689,666,70,0.1041075053334,1
689,667,70,0.136951203039416,1
689,668,70,0.146351040561214,1
689,669,70,0.135150276734208,1
689,670,70,0.138701727808216,1
689,671,70,0.150143693541568,1
689,672,70,0.147987581825159,1
689,673,70,0.157054117810111,1
689,674,70,0.180390072738299,1
689,675,70,0.188601274934239,1
689,676,70,0.185556682276173,1
689,677,70,0.18301505926195,1
689,678,70,0.18916021239612,1
689,679,70,0.179115927997961,1
689,680,70,0.169932358490822,1
689,681,70,0.150189313086515,1
689,682,70,0.116857416534877,1
690,666,70,0.111127926298429,1
690,667,70,0.154271140388676,1
690,668,70,0.170730711420326,1
690,669,70,0.15394101958419,1
690,670,70,0.149524561809061,1
690,671,70,0.157103201303314,1
690,672,70,0.139001108795165,1
690,673,70,0.115714422539804,1
690,674,70,0.112741766719091,1
690,675,70,0.121807126268787,1
690,676,70,0.126024722913887,1
690,677,70,0.117328742248904,1
690,678,70,0.110948465457213,1
690,679,70,0.110954587277715,1
690,680,70,0.115142206609611,1
690,681,70,0.11004390656705,1
691,667,70,0.130938300835334,1
691,668,70,0.14540748502088,1
691,669,70,0.128061306629648,1
691,670,70,0.119484690571527,1
691,671,70,0.126753241339413,1
691,672,70,0.109813150970065,1
695,660,70,0.101854599138385,1
695,661,70,0.117811483742086,1
695,662,70,0.119872848848668,1
695,663,70,0.107766425946676,1
696,660,70,0.11053736669257,1
696,661,70,0.138232940144326,1
696,662,70,0.134876559464522,1
696,663,70,0.109508312630675,1
696,693,70,0.104120304513274,1
697,660,70,0.103780336509975,1
697,661,70,0.124386983428847,1
697,662,70,0.117914410934114,1
697,694,70,0.10459538828437,1
698,695,70,0.1084710888795,1
699,695,70,0.10617719263013,1
699,696,70,0.119902793483114,1
700,696,70,0.112255539491815,1
700,697,70,0.128398703904053,1
701,697,70,0.114515188403718,1
701,698,70,0.126696412980771,1
702,698,70,0.106633616830907,1
702,699,70,0.116481077074896,1
703,699,70,0.10130422351087,1
704,700,70,0.103752069385061,1
705,701,70,0.106464820157433,1
706,701,70,0.101776148335444,1
707,702,70,0.106067337541591,1
707,703,70,0.120857143906218,1
708,660,70,0.101003480909041,1
708,702,70,0.110357644421296,1
708,703,70,0.142517691635319,1
708,704,70,0.111769246907025,1
709,703,70,0.126937342564141,1
709,704,70,0.113780341192228,1
710,703,70,0.10306316850609,1
710,704,70,0.10799809654886,1
712,661,70,0.101470046417446,1
