x,y,z,signal,mito.p
674,676,47,0.11367320933345,1
675,675,47,0.138246414685181,1
675,676,47,0.128078844229305,1
644,668,48,0.22098681646535,1
644,669,48,0.228566850253241,1
674,665,48,0.211333598753716,1
674,666,48,0.223026733414338,1
674,667,48,0.232644810569141,1
674,675,48,0.114587397564047,1
674,676,48,0.117474881650771,1
675,674,48,0.133311105390245,1
675,675,48,0.120555061475347,1
675,676,48,0.129216043191448,1
675,677,48,0.102857586445011,1
676,675,48,0.10198983472829,1
676,676,48,0.106965654789144,1
643,669,49,0.180243606548861,1
644,668,49,0.240340265727201,1
644,669,49,0.268777864824096,1
644,670,49,0.134471081446104,1
645,668,49,0.174634472174908,1
645,669,49,0.173716504101404,1
673,665,49,0.194458985720729,1
673,666,49,0.190354686326585,1
673,667,49,0.187791778548554,1
674,664,49,0.19571103962125,1
674,665,49,0.265120022609806,1
674,666,49,0.258070844338505,1
674,667,49,0.245246959323814,1
674,668,49,0.24135550756775,1
674,675,49,0.103282519216838,1
674,676,49,0.10886187235013,1
675,665,49,0.164288780706858,1
675,666,49,0.16558414485349,1
675,667,49,0.165436611157986,1
675,675,49,0.104685037008086,1
675,676,49,0.11952842564148,1
675,677,49,0.108170814673189,1
676,676,49,0.0999533054771245,1
643,669,50,0.222529537017586,1
644,668,50,0.251866303009719,1
644,669,50,0.271895069680496,1
644,670,50,0.130589422424258,1
645,667,50,0.116613556756285,1
645,668,50,0.147828294670008,1
645,669,50,0.147738689517969,1
647,666,50,0.11515120416074,1
650,666,50,0.113819261591965,1
651,666,50,0.137395623243409,1
651,667,50,0.107758408758261,1
666,686,50,0.103109082159852,1
672,665,50,0.107474876968517,1
672,666,50,0.115609436586078,1
673,664,50,0.162748674455192,1
673,665,50,0.215667019806989,1
673,666,50,0.226327157169023,1
673,667,50,0.206395598907776,1
674,664,50,0.175827486454222,1
674,665,50,0.276251540150462,1
674,666,50,0.268975157373784,1
674,667,50,0.231922021819031,1
674,668,50,0.235998566055457,1
675,665,50,0.157400784958622,1
675,666,50,0.15037310930951,1
675,667,50,0.143268714831586,1
675,676,50,0.100120762321557,1
675,677,50,0.106384996846693,1
642,668,51,0.14738314464044,1
642,669,51,0.12295000044175,1
643,668,51,0.280794715252806,1
643,669,51,0.246321284357247,1
644,667,51,0.16101510996134,1
644,668,51,0.257848824862592,1
644,669,51,0.238700402122948,1
644,670,51,0.112870433878815,1
645,667,51,0.121851580271397,1
645,668,51,0.141867264546405,1
645,669,51,0.120386896591177,1
646,666,51,0.11761212153778,1
646,667,51,0.11350834500375,1
647,666,51,0.117590956596082,1
647,667,51,0.107130530011763,1
648,666,51,0.10800890232455,1
650,666,51,0.107130279474625,1
651,666,51,0.116420370837076,1
672,665,51,0.118813730330218,1
672,666,51,0.123127424307106,1
673,664,51,0.176879208680642,1
673,665,51,0.22857288493039,1
673,666,51,0.241365332980726,1
673,667,51,0.200455101936567,1
674,664,51,0.172158380961642,1
674,665,51,0.265564606207584,1
674,666,51,0.264295123636596,1
674,667,51,0.209366707933986,1
674,673,51,0.104953122638627,1
674,693,51,0.0997733762403894,1
675,665,51,0.148944492084238,1
675,666,51,0.145021636042576,1
675,677,51,0.103474016733596,1
675,692,51,0.105295301904492,1
637,686,52,0.156982268116111,1
642,667,52,0.127754660065698,1
642,668,52,0.188293854973036,1
642,669,52,0.144524178215768,1
643,667,52,0.194729631187246,1
643,668,52,0.343487255075117,2
643,669,52,0.263496019095678,1
643,670,52,0.125887951422396,1
644,667,52,0.16554560570592,1
644,668,52,0.274458151745231,1
644,669,52,0.210443538338798,1
645,667,52,0.134714843188425,1
645,668,52,0.150016856392243,1
645,669,52,0.104171991414128,1
646,666,52,0.118844655327378,1
646,667,52,0.119761446965626,1
647,666,52,0.108737181105857,1
672,665,52,0.126256099407257,1
673,664,52,0.178862286378069,1
673,665,52,0.217776346436112,1
673,666,52,0.211228438513285,1
674,664,52,0.15382016264742,1
674,665,52,0.22195929270574,1
674,666,52,0.222279457382221,1
674,667,52,0.176569065489679,1
675,665,52,0.128494899272113,1
675,666,52,0.132712920741055,1
675,673,52,0.126371455419911,1
675,674,52,0.103200321249747,1
676,675,52,0.105847387720296,1
676,694,52,0.108998262589455,1
677,672,52,0.182417658902932,1
677,693,52,0.113565696222506,1
678,681,52,0.1028331536276,1
679,690,52,0.0998818261423711,1
679,691,52,0.116816960233555,1
680,690,52,0.132628718476861,1
636,686,53,0.164848317279287,1
636,687,53,0.137879944209852,1
637,685,53,0.145982565788782,1
637,686,53,0.183583353741288,1
637,687,53,0.140793429694329,1
638,686,53,0.131288039787015,1
642,667,53,0.134821005577408,1
642,668,53,0.221278463479779,2
642,669,53,0.166837658405163,1
642,670,53,0.101396464749318,1
643,667,53,0.205820932070799,2
643,668,53,0.386456247818207,2
643,669,53,0.277093497434891,2
643,670,53,0.124051742952411,1
644,666,53,0.157794128265227,1
644,667,53,0.1767666630411,1
644,668,53,0.286975793233977,2
644,669,53,0.192941362453965,1
645,666,53,0.135182421738301,1
645,667,53,0.147050518464574,1
645,668,53,0.151976329134106,1
646,665,53,0.11430368059468,1
646,666,53,0.119500016908619,1
646,667,53,0.118827302907344,1
647,666,53,0.10066228200589,1
649,663,53,0.100460632288585,1
667,694,53,0.123208576553968,1
668,656,53,0.216199138902189,1
668,657,53,0.225074754695093,1
672,665,53,0.119712929904213,1
673,664,53,0.157344326959227,1
673,665,53,0.181662180502776,1
673,666,53,0.149560933265742,1
674,665,53,0.159772990402985,1
674,666,53,0.153701288221915,1
675,671,53,0.114903226858749,1
675,672,53,0.119916496775269,1
675,673,53,0.111057144110495,1
675,674,53,0.101901776370755,1
675,695,53,0.100501611450021,1
676,672,53,0.215449096068636,1
676,673,53,0.189226985989847,1
676,674,53,0.139006380967981,1
676,675,53,0.119844897618406,1
676,676,53,0.103816795110008,1
677,671,53,0.199445154054673,1
677,672,53,0.250265065696389,1
677,673,53,0.22845759427525,1
677,675,53,0.11281022871527,1
677,676,53,0.102121061723989,1
677,680,53,0.107078625252528,1
678,672,53,0.159261317316827,1
678,679,53,0.102979118742762,1
678,680,53,0.124558056722401,1
678,681,53,0.103455978059662,1
679,691,53,0.108200748414717,1
679,692,53,0.108421776634997,1
680,690,53,0.119163011779298,1
680,691,53,0.175736922725307,1
681,690,53,0.123812686951117,1
635,686,54,0.144372036815509,1
635,687,54,0.123263967047297,1
636,685,54,0.135974086415514,1
636,686,54,0.195303579091567,1
636,687,54,0.154944856538502,1
636,688,54,0.134860198300121,1
637,685,54,0.142000081908284,1
637,686,54,0.190256541126017,1
637,687,54,0.155592113787976,1
637,688,54,0.172506159187894,1
638,686,54,0.123345642154273,1
638,687,54,0.126601818871811,1
642,667,54,0.132985058537481,1
642,668,54,0.224923016332838,2
642,669,54,0.189487479255816,1
642,670,54,0.117526906232115,1
643,666,54,0.140002287877231,1
643,667,54,0.216617884496,2
643,668,54,0.386432326967991,2
643,669,54,0.285672085111359,2
643,670,54,0.128245603926919,1
644,665,54,0.267511911558878,1
644,666,54,0.164017721309418,1
644,667,54,0.213685336403199,1
644,668,54,0.296840682148433,2
644,669,54,0.188254400820266,1
645,665,54,0.160506138319104,1
645,666,54,0.134084960144824,1
645,667,54,0.162289352737949,1
645,668,54,0.150365516944938,1
646,664,54,0.120039379794981,1
646,665,54,0.109206426272347,1
646,666,54,0.112012572932584,1
646,667,54,0.106313550190697,1
647,664,54,0.109862103748239,1
647,665,54,0.0999073700375245,1
649,662,54,0.104296998553054,1
649,663,54,0.120177796117248,1
650,662,54,0.115311308284818,1
650,663,54,0.126486157857423,1
667,656,54,0.187515163762403,1
667,657,54,0.231318663033297,1
668,655,54,0.143659182407565,1
668,656,54,0.244775797003573,1
668,657,54,0.284815030241137,1
668,658,54,0.207638807758035,1
669,656,54,0.155228279399055,1
669,657,54,0.175844174406194,1
672,665,54,0.118206733309524,1
673,664,54,0.125735417877051,1
673,665,54,0.151723145016814,1
673,666,54,0.108269352018843,1
674,665,54,0.113176808119789,1
675,670,54,0.103432754356265,1
675,671,54,0.111528306430736,1
675,672,54,0.113652763324408,1
675,673,54,0.103188709398049,1
676,671,54,0.205281885079088,1
676,672,54,0.253145284206112,1
676,673,54,0.219020949580009,1
676,674,54,0.149948655826121,1
676,675,54,0.12922045482366,1
676,676,54,0.112299666706854,1
677,670,54,0.210354434261034,1
677,671,54,0.239817253112321,1
677,672,54,0.333970046350642,3
677,673,54,0.312603563863998,3
677,674,54,0.181006296061422,1
677,675,54,0.126032696530625,1
677,676,54,0.118981688248926,1
677,677,54,0.108626225832496,1
677,680,54,0.113230139851418,1
678,671,54,0.160540614407872,1
678,672,54,0.203196305013476,1
678,673,54,0.218158796823676,1
678,677,54,0.101798489712399,1
678,679,54,0.103129277631756,1
678,680,54,0.126363579839444,1
680,691,54,0.152948326086058,1
680,692,54,0.151518891891858,1
681,690,54,0.106751380178669,1
681,691,54,0.164307418491339,1
634,686,55,0.148909645636223,1
635,685,55,0.154944300999631,1
635,686,55,0.175946055877993,1
635,687,55,0.130171156118885,1
636,685,55,0.159295009115424,1
636,686,55,0.22450856254913,1
636,687,55,0.170243612759527,1
636,688,55,0.142183584022464,1
637,685,55,0.139817086467679,1
637,686,55,0.192880383893168,1
637,687,55,0.167609334575933,1
637,688,55,0.178482101717666,1
637,689,55,0.199183723997665,1
638,686,55,0.125825839998018,1
638,687,55,0.136370305452746,1
638,688,55,0.152139112916269,1
641,669,55,0.103568142447037,1
642,664,55,0.107876847467004,1
642,665,55,0.109790221375481,1
642,666,55,0.106212834261235,1
642,667,55,0.135574185571645,1
642,668,55,0.206620428756803,2
642,669,55,0.215467309029274,1
642,670,55,0.143663517789343,1
643,665,55,0.200214738784987,1
643,666,55,0.160992082330485,1
643,667,55,0.246461432653641,2
643,668,55,0.346774128038515,2
643,669,55,0.278892855159756,2
643,670,55,0.138315726329045,1
644,664,55,0.283669683375551,1
644,665,55,0.232986456081974,1
644,666,55,0.191592165501428,1
644,667,55,0.284414846181374,1
644,668,55,0.296751534498994,2
644,669,55,0.178802201036634,1
645,664,55,0.161077079777769,1
645,665,55,0.136471446206051,1
645,666,55,0.138567222043886,1
645,667,55,0.181442110859372,1
645,668,55,0.145565563062017,1
646,664,55,0.107293586116902,1
647,664,55,0.111789257199305,1
649,662,55,0.111056436070757,1
649,663,55,0.119252431751714,1
650,662,55,0.138524706980865,1
650,663,55,0.136499114220417,1
666,657,55,0.145406787874062,1
667,656,55,0.195563723784127,1
667,657,55,0.273924464069689,1
667,658,55,0.201747786425115,1
668,656,55,0.237200294670004,1
668,657,55,0.311801583592452,1
668,658,55,0.231713705635273,1
669,657,55,0.182136697842082,1
672,665,55,0.124236312572658,1
673,664,55,0.106958018852895,1
673,665,55,0.140700273450683,1
674,665,55,0.099991071227443,1
675,671,55,0.106419167933728,1
675,672,55,0.107686733350965,1
676,670,55,0.179599540924667,1
676,671,55,0.212815994320299,1
676,672,55,0.258438327855305,3
676,673,55,0.233226601375173,3
676,674,55,0.164552694349407,1
676,675,55,0.141824052336565,1
676,676,55,0.118729244850129,1
677,669,55,0.206863624067333,1
677,670,55,0.229539239350278,1
677,671,55,0.262713341076675,3
677,672,55,0.374839559663422,3
677,673,55,0.369733699935046,3
677,674,55,0.216830078558937,3
677,675,55,0.15146781499447,1
677,676,55,0.142461952568582,1
677,677,55,0.122719484488984,1
677,678,55,0.10210069196538,1
677,679,55,0.0999865833447977,1
677,680,55,0.115696198686247,1
678,670,55,0.184227310436292,1
678,671,55,0.163607679157921,1
678,672,55,0.231411470703534,3
678,673,55,0.256486142476281,3
678,674,55,0.161804704983934,1
678,675,55,0.11367969062028,1
678,676,55,0.116549495499399,1
678,677,55,0.118679747426002,1
678,678,55,0.107609960057557,1
678,679,55,0.105158530413002,1
678,680,55,0.1222760991123,1
679,672,55,0.104626552925749,1
679,673,55,0.11736630103376,1
680,691,55,0.119611560399608,1
680,692,55,0.126865449298464,1
681,691,55,0.133984309572876,1
681,692,55,0.135605644321838,1
634,686,56,0.159089470626021,1
635,685,56,0.208711215637716,1
635,686,56,0.209366795077338,1
635,687,56,0.143141147856686,1
636,684,56,0.102458883822237,1
636,685,56,0.19073541563294,1
636,686,56,0.237030212632083,1
636,687,56,0.185494614423471,1
636,688,56,0.151228453991442,1
637,685,56,0.143542737103006,1
637,686,56,0.195302359084634,1
637,687,56,0.190984732763972,1
637,688,56,0.182055578273977,1
637,689,56,0.179474577357418,1
638,686,56,0.134799089024295,1
638,687,56,0.150770700854542,1
638,688,56,0.143810441481381,1
641,669,56,0.125870130606843,1
641,670,56,0.110312395235596,1
642,664,56,0.108938035640072,1
642,665,56,0.10705177420709,1
642,666,56,0.114356336965329,1
642,667,56,0.139493501414619,1
642,668,56,0.184441269152114,1
642,669,56,0.237723721215808,1
642,670,56,0.176061586177352,1
643,663,56,0.141705591841984,1
643,664,56,0.200052499648776,1
643,665,56,0.165473451010186,1
643,666,56,0.174016571342253,1
643,667,56,0.266890209097477,1
643,668,56,0.285161904355109,2
643,669,56,0.259543588778817,1
643,670,56,0.154606794796035,1
644,663,56,0.162473976822791,1
644,664,56,0.232562220456965,1
644,665,56,0.179691204838405,1
644,666,56,0.210398659512345,1
644,667,56,0.330673086544212,1
644,668,56,0.27233902148897,1
644,669,56,0.165175605924821,1
645,663,56,0.107603260912346,1
645,664,56,0.132034237420146,1
645,665,56,0.110569566161258,1
645,666,56,0.132376111684278,1
645,667,56,0.183097812767912,1
645,668,56,0.134361019392104,1
649,662,56,0.100089782859801,1
650,662,56,0.13592909865987,1
650,663,56,0.118579445427464,1
651,662,56,0.100352933998017,1
666,657,56,0.180552660447919,1
666,658,56,0.132648794126655,1
667,656,56,0.210644142335874,1
667,657,56,0.308950906679171,1
667,658,56,0.218198730264883,1
668,656,56,0.216153061854641,1
668,657,56,0.304851857672005,1
668,658,56,0.23286393252859,1
668,659,56,0.110150090741871,1
669,657,56,0.173586268361338,1
672,665,56,0.105262383503148,1
673,665,56,0.112676387419001,1
676,670,56,0.184056269821495,1
676,671,56,0.195611587270397,1
676,672,56,0.224538823078228,3
676,673,56,0.218439311274844,3
676,674,56,0.172427915350416,1
676,675,56,0.149684066822592,1
676,676,56,0.118037490026369,1
677,670,56,0.240697727758482,1
677,671,56,0.259102142341722,3
677,672,56,0.350386699281267,3
677,673,56,0.363694970619916,3
677,674,56,0.238783972597838,3
677,675,56,0.178324938681729,1
677,676,56,0.162016550473462,1
677,677,56,0.130881418012097,1
677,678,56,0.106171724384771,1
677,679,56,0.103665732108734,1
677,680,56,0.103301429324295,1
678,671,56,0.16506885531821,1
678,672,56,0.233019287339966,3
678,673,56,0.255297703222965,3
678,674,56,0.169357604510492,1
678,675,56,0.127637354220535,1
678,676,56,0.136681712222318,1
678,677,56,0.137999526675095,1
678,678,56,0.121866263926266,1
678,679,56,0.111441696831433,1
678,680,56,0.105826451529898,1
679,672,56,0.112838452268508,1
679,673,56,0.115915963327918,1
679,678,56,0.0999374780657565,1
681,691,56,0.100761636320471,1
681,692,56,0.104791896543887,1
634,685,57,0.186363063287011,1
634,686,57,0.156627082704909,1
635,684,57,0.140272769949962,1
635,685,57,0.241203703847981,1
635,686,57,0.211870096802371,1
635,687,57,0.155647231958328,1
636,684,57,0.120121392582448,1
636,685,57,0.203764436099029,1
636,686,57,0.215148233644697,1
636,687,57,0.185192444849247,1
636,688,57,0.161642585669833,1
637,685,57,0.141642293089431,1
637,686,57,0.188099677798194,1
637,687,57,0.202735164178754,1
637,688,57,0.180405606040853,1
638,686,57,0.14079194825734,1
638,687,57,0.157532164455187,1
641,668,57,0.10030968910942,1
641,669,57,0.141452178973392,1
641,670,57,0.123646962080812,1
642,664,57,0.110418241729927,1
642,665,57,0.101069067174593,1
642,666,57,0.113907221913229,1
642,667,57,0.132804660905227,1
642,668,57,0.156956549934253,1
642,669,57,0.223947969363554,1
642,670,57,0.179526264258272,1
643,663,57,0.140360523305764,1
643,664,57,0.16308229188669,1
643,665,57,0.134097628609669,1
643,666,57,0.175392357910171,1
643,667,57,0.247886204678491,1
643,668,57,0.21045249231825,1
643,669,57,0.208253930896335,1
643,670,57,0.148065074051224,1
644,663,57,0.140378028226664,1
644,664,57,0.164300643095695,1
644,665,57,0.13809406631946,1
644,666,57,0.212717783762216,1
644,667,57,0.3100791734477,1
644,668,57,0.214658923721332,1
644,669,57,0.135872150479119,1
645,664,57,0.104578003185579,1
645,666,57,0.12617203875101,1
645,667,57,0.167544347420929,1
645,668,57,0.117968973565595,1
650,662,57,0.111950592223235,1
655,656,57,0.107648030809608,1
655,657,57,0.113080166142049,1
656,656,57,0.100446286314207,1
656,657,57,0.112846284277299,1
665,657,57,0.104011026749445,1
666,657,57,0.220579159863123,1
666,658,57,0.146169586315813,1
667,656,57,0.23389462052834,1
667,657,57,0.315967558694212,1
667,658,57,0.216400766833656,1
668,656,57,0.19847816784548,1
668,657,57,0.266555948983755,1
668,658,57,0.209365226496996,1
668,659,57,0.104592479874986,1
669,657,57,0.154927318938845,1
672,665,57,0.100821373088497,1
673,665,57,0.105505055953564,1
676,669,57,0.143712873605522,1
676,670,57,0.169171869347907,1
676,671,57,0.164994217036935,1
676,672,57,0.17891275327199,1
676,673,57,0.193650251839378,1
676,674,57,0.181656636006984,1
676,675,57,0.157474693414322,1
676,676,57,0.116005862588772,1
677,670,57,0.229867900503612,1
677,671,57,0.234148599828722,1
677,672,57,0.286089784984942,3
677,673,57,0.312936037538997,3
677,674,57,0.25320704705708,1
677,675,57,0.20858531527943,1
677,676,57,0.180628584093642,1
677,677,57,0.142164466949546,1
677,678,57,0.117776038183524,1
677,679,57,0.108671409660682,1
678,671,57,0.176199457853666,1
678,672,57,0.221269073783565,1
678,673,57,0.225239128843436,1
678,674,57,0.1683248904278,1
678,675,57,0.144696188300359,1
678,676,57,0.159903062749265,1
678,677,57,0.163688264972994,1
678,678,57,0.14999346929506,1
678,679,57,0.129597175535807,1
679,672,57,0.128461174794759,1
679,673,57,0.112034347877749,1
679,677,57,0.110469983095376,1
679,678,57,0.110863958191286,1
679,679,57,0.101015691871287,1
634,685,58,0.183922646383607,1
635,684,58,0.176393667707266,1
635,685,58,0.24923492234259,1
635,686,58,0.194402516828416,1
635,687,58,0.162722662164519,1
636,685,58,0.197728146797764,1
636,686,58,0.182516871609566,1
636,687,58,0.184093207709966,1
636,688,58,0.171257972273633,1
637,685,58,0.128192522732427,1
637,686,58,0.171093903127023,1
637,687,58,0.210891193739746,1
637,688,58,0.179900403348606,1
638,686,58,0.134604508811449,1
638,687,58,0.160264500695996,1
641,668,58,0.103624110265075,1
641,669,58,0.146338611740587,1
641,670,58,0.129554725830301,1
642,664,58,0.118246241926889,1
642,666,58,0.104252958481367,1
642,667,58,0.115100214406704,1
642,668,58,0.128566770751952,1
642,669,58,0.181363398626375,1
642,670,58,0.157165192905582,1
643,663,58,0.130707741310892,1
643,664,58,0.13563769128966,1
643,665,58,0.115050205015382,1
643,666,58,0.155859219055804,1
643,667,58,0.188509970486829,1
643,668,58,0.142730212485828,1
643,669,58,0.145277456246276,1
643,670,58,0.122275151428344,1
644,663,58,0.115168926940021,1
644,664,58,0.115685316660124,1
644,665,58,0.11416564552458,1
644,666,58,0.186852917856328,1
644,667,58,0.227599036182201,1
644,668,58,0.145033291465951,1
644,669,58,0.100925738145838,1
645,666,58,0.113655203338274,1
645,667,58,0.131569316742516,1
655,656,58,0.103618217195873,1
655,657,58,0.118590447275696,1
656,656,58,0.11083843608197,1
656,657,58,0.136257258738929,1
657,656,58,0.109360975007714,1
657,657,58,0.125667304454282,1
658,656,58,0.1016331678801,1
658,657,58,0.100371005350708,1
665,657,58,0.122929445503518,1
666,656,58,0.237334756862658,1
666,657,58,0.250466737199532,1
666,658,58,0.15083598211836,1
667,655,58,0.16500461977462,1
667,656,58,0.257200935823814,1
667,657,58,0.291957451899437,1
667,658,58,0.193782600805738,1
668,656,58,0.18127794367649,1
668,657,58,0.212883421489168,1
668,658,58,0.169404335133182,1
672,665,58,0.100988492252439,1
673,665,58,0.105790755434197,1
676,669,58,0.125083748995366,1
676,670,58,0.140794039697796,1
676,671,58,0.131970611880022,1
676,672,58,0.140277737121045,1
676,673,58,0.165063223679065,1
676,674,58,0.175724711763061,1
676,675,58,0.148963042725367,1
676,676,58,0.107939808539066,1
677,670,58,0.195110578351981,1
677,671,58,0.19370946574729,1
677,672,58,0.214943381409194,1
677,673,58,0.244266879825933,1
677,674,58,0.240711322121447,1
677,675,58,0.211669405661942,1
677,676,58,0.181971245294754,1
677,677,58,0.154298078577467,1
677,678,58,0.133235236209117,1
677,679,58,0.10698775652188,1
678,672,58,0.197952366643324,1
678,673,58,0.182007322642621,1
678,674,58,0.15373727842643,1
678,675,58,0.145221967716677,1
678,676,58,0.165546869284528,1
678,677,58,0.183065112224948,1
678,678,58,0.177228827810213,1
678,679,58,0.138494152342952,1
679,677,58,0.115150724872302,1
679,678,58,0.117765766160867,1
679,679,58,0.102692210148116,1
635,685,59,0.221404864912342,1
635,687,59,0.157403715153844,1
636,686,59,0.155200785671393,1
636,687,59,0.187763783746617,1
636,688,59,0.17547390230212,1
637,685,59,0.112482253815835,1
637,686,59,0.1609907751802,1
637,687,59,0.229382446673588,1
637,688,59,0.184349267557885,1
637,689,59,0.121106450144332,1
638,686,59,0.131908173668073,1
638,687,59,0.174698990934393,1
638,688,59,0.131869732556774,1
641,668,59,0.103825248015185,1
641,669,59,0.140668477019999,1
641,670,59,0.124511478600577,1
642,663,59,0.109093804382372,1
642,664,59,0.128149081771288,1
642,665,59,0.10124931230598,1
642,668,59,0.107619720113018,1
642,669,59,0.137461165937284,1
642,670,59,0.120875084543881,1
643,663,59,0.116549963894918,1
643,664,59,0.12130192357654,1
643,665,59,0.101379134115122,1
643,666,59,0.123078820102341,1
643,667,59,0.12653042668041,1
644,663,59,0.0997781909106059,1
644,666,59,0.142210064708655,1
644,667,59,0.140203850451183,1
651,690,59,0.101969748185577,1
652,689,59,0.11449127844642,1
652,690,59,0.113607470567032,1
655,657,59,0.11029096886384,1
656,656,59,0.117322511499212,1
656,657,59,0.145509257563489,1
656,658,59,0.105424666211035,1
657,656,59,0.134496178731577,1
657,657,59,0.151298103315797,1
657,658,59,0.100565596456473,1
658,656,59,0.124249569255133,1
658,657,59,0.122587004807596,1
659,656,59,0.100928504947275,1
665,656,59,0.148723409399363,1
665,657,59,0.132600582066976,1
666,655,59,0.196376488045524,1
666,656,59,0.290099817057697,1
666,657,59,0.261730974065795,1
666,658,59,0.146209421720749,1
667,655,59,0.198654524204769,1
667,656,59,0.286061877326356,1
667,657,59,0.267804408220992,1
667,658,59,0.168330380458997,1
668,656,59,0.17872640810594,1
668,657,59,0.17479294236113,1
668,658,59,0.136767886104859,1
672,664,59,0.100047823335652,1
672,665,59,0.100125576991773,1
673,664,59,0.105297513167058,1
673,665,59,0.103797678037089,1
676,669,59,0.0997004590403225,1
676,670,59,0.107708715261591,1
676,671,59,0.105045276733722,1
676,672,59,0.117832093144914,1
676,673,59,0.145551140837206,1
676,674,59,0.161104965650517,1
676,675,59,0.131148218278192,1
677,670,59,0.149669699062376,1
677,671,59,0.152884624295501,1
677,672,59,0.165542337830207,1
677,673,59,0.192852345519554,1
677,674,59,0.211764740489397,1
677,675,59,0.189486825680674,1
677,676,59,0.163909630873765,1
677,677,59,0.154042280159604,1
677,678,59,0.134860840982344,1
678,672,59,0.178251237191491,1
678,673,59,0.156701699200347,1
678,674,59,0.1415369040977,1
678,675,59,0.136034563902035,1
678,676,59,0.156618673371409,1
678,677,59,0.187617165056312,1
678,678,59,0.182537775121207,1
678,679,59,0.126805298599514,1
679,677,59,0.115805650736781,1
679,678,59,0.118300750093775,1
679,679,59,0.100003892193155,1
635,687,60,0.142212885974687,1
636,686,60,0.138699690832355,1
636,687,60,0.190466839821041,1
636,688,60,0.171016138577983,1
637,686,60,0.150298057097311,1
637,687,60,0.237357610206808,1
637,688,60,0.185029334279513,1
637,689,60,0.119203304686835,1
638,686,60,0.123840910504354,1
638,687,60,0.177880801693631,1
638,688,60,0.130817552827754,1
641,664,60,0.10706553196384,1
641,665,60,0.108084433825187,1
641,668,60,0.100577709382448,1
641,669,60,0.125932165780787,1
641,670,60,0.1121747576042,1
642,663,60,0.113043827364125,1
642,664,60,0.135951745038559,1
642,665,60,0.114011957329817,1
642,669,60,0.104189441870434,1
643,663,60,0.111330806915586,1
643,664,60,0.114174588611114,1
651,689,60,0.11094805152629,1
651,690,60,0.115291265313781,1
652,689,60,0.135374845153177,1
652,690,60,0.116870193928913,1
653,689,60,0.100896915482053,1
654,688,60,0.111567531832206,1
656,656,60,0.127425432480573,1
656,657,60,0.143148424326606,1
656,658,60,0.107884526974928,1
657,655,60,0.141632750892351,1
657,656,60,0.172944261498843,1
657,657,60,0.169719881211989,1
657,658,60,0.109222112075767,1
658,655,60,0.138177702151864,1
658,656,60,0.161876805215073,1
658,657,60,0.148782710450627,1
659,655,60,0.0998605958431584,1
659,656,60,0.11625863277514,1
659,657,60,0.116059728073434,1
665,656,60,0.160617768953446,1
665,657,60,0.132593577920032,1
666,655,60,0.210452448746574,1
666,656,60,0.308392949580004,1
666,657,60,0.250207572869685,1
666,658,60,0.133017279792007,1
667,655,60,0.210672659997926,1
667,656,60,0.299296098601358,1
667,657,60,0.243756677283846,1
667,658,60,0.141781776917764,1
668,656,60,0.173733409911757,1
668,657,60,0.14747159514306,1
668,658,60,0.110376380242048,1
670,660,60,0.106427533695552,1
670,661,60,0.101516570074674,1
671,660,60,0.103960690570552,1
671,661,60,0.101488411878951,1
672,661,60,0.104738052845063,1
673,663,60,0.122356815642401,1
673,664,60,0.10750066050789,1
674,664,60,0.112647172610131,1
676,672,60,0.10530590071472,1
676,673,60,0.128774596754353,1
676,674,60,0.138473837048939,1
676,675,60,0.112525825492003,1
677,672,60,0.142803903083147,1
677,673,60,0.165837448792892,1
677,674,60,0.180934359224069,1
677,675,60,0.162347117887629,1
677,676,60,0.145045360820249,1
677,677,60,0.148296505009189,1
677,678,60,0.128527490885887,1
678,673,60,0.160819821708755,1
678,674,60,0.151897802080733,1
678,675,60,0.140792754333349,1
678,676,60,0.151986241690434,1
678,677,60,0.183581589088403,1
678,678,60,0.170978056933012,1
678,679,60,0.107299424721509,1
679,676,60,0.102576211453238,1
679,677,60,0.118055038518945,1
679,678,60,0.115696362080033,1
635,687,61,0.134090580891049,1
636,685,61,0.116990048717132,1
636,686,61,0.138077618011707,1
636,687,61,0.197354890033873,1
636,688,61,0.168422055265654,1
637,686,61,0.142789589787526,1
637,687,61,0.234203282282313,1
637,688,61,0.189907597357427,1
637,689,61,0.130910349605073,1
638,686,61,0.113211305994395,1
638,687,61,0.168779430153583,1
638,688,61,0.134783435899632,1
640,665,61,0.155352393318619,1
640,666,61,0.129534922503482,1
640,667,61,0.0999666928746271,1
641,664,61,0.12784979882061,1
641,665,61,0.140529951768542,1
641,666,61,0.0998559990313227,1
641,669,61,0.110871801092996,1
642,662,61,0.112093845001556,1
642,663,61,0.118903901914047,1
642,664,61,0.141758030354252,1
642,665,61,0.140629295190205,1
642,674,61,0.100997587839839,1
643,662,61,0.106584446194351,1
643,663,61,0.112824955941815,1
643,664,61,0.116501152724691,1
643,665,61,0.107991898477925,1
651,689,61,0.133943341304359,1
651,690,61,0.115747874694182,1
652,688,61,0.108755742639905,1
652,689,61,0.138367729124551,1
652,690,61,0.103218240101571,1
653,688,61,0.116113996596101,1
654,687,61,0.103144789148471,1
654,688,61,0.123402198189939,1
656,655,61,0.116972489331636,1
656,656,61,0.14278329368032,1
656,657,61,0.13638379088652,1
656,658,61,0.110834133378949,1
657,654,61,0.116196760994982,1
657,655,61,0.184437064485364,1
657,656,61,0.219686398004282,1
657,657,61,0.178466862523927,1
657,658,61,0.116534898987883,1
658,654,61,0.107601681439085,1
658,655,61,0.174745427448269,1
658,656,61,0.204395528256644,1
658,657,61,0.169021503493452,1
658,658,61,0.117075906705021,1
659,655,61,0.109778663988378,1
659,656,61,0.129434598719106,1
659,657,61,0.133535347021642,1
659,658,61,0.123431848715572,1
660,658,61,0.110585415358464,1
665,656,61,0.16453594103992,1
665,657,61,0.134626261970776,1
666,655,61,0.208068751272622,1
666,656,61,0.301540279568221,1
666,657,61,0.237259878937163,1
666,658,61,0.130055059387736,1
667,655,61,0.212696106853323,1
667,656,61,0.306867439839854,1
667,657,61,0.235468756259094,1
667,658,61,0.133519988005793,1
668,656,61,0.179243015684424,1
668,657,61,0.140878612321237,1
668,658,61,0.104645637319911,1
669,659,61,0.0997924170628747,1
669,660,61,0.10474502431325,1
670,660,61,0.116188689341972,1
670,661,61,0.112334033866431,1
671,660,61,0.104681856275725,1
671,661,61,0.111292954021915,1
672,661,61,0.115172630532495,1
672,662,61,0.115799757667579,1
672,663,61,0.108540531238392,1
673,664,61,0.111483242424659,1
676,672,61,0.102108360580386,1
676,673,61,0.11378736712501,1
676,674,61,0.111841401602759,1
677,672,61,0.137612479475696,1
677,673,61,0.15440401221515,1
677,674,61,0.156363506742851,1
677,675,61,0.136846173514013,1
677,676,61,0.121633493139258,1
677,677,61,0.126908999188794,1
677,678,61,0.110923771209745,1
678,673,61,0.173675819048782,1
678,674,61,0.17154771302723,1
678,675,61,0.153415076774087,1
678,676,61,0.145540955957901,1
678,677,61,0.162959953512929,1
678,678,61,0.145402801065692,1
679,676,61,0.108981596423321,1
679,677,61,0.117868268529052,1
679,678,61,0.111208468541826,1
684,690,61,0.115348300637885,1
684,691,61,0.104039446375226,1
685,690,61,0.107777427794908,1
635,685,62,0.127692984358082,1
635,686,62,0.127775411076472,1
635,687,62,0.135170940601631,1
636,683,62,0.107182946738193,1
636,684,62,0.114079384498687,1
636,685,62,0.120183264362607,1
636,686,62,0.16373470148687,1
636,687,62,0.210026513826195,1
636,688,62,0.174067800740507,1
636,689,62,0.127827827802902,1
637,686,62,0.151632363429518,1
637,687,62,0.229360747978857,1
637,688,62,0.210483558923358,1
637,689,62,0.15647506112676,1
637,690,62,0.114205361107407,1
638,686,62,0.113078575775869,1
638,687,62,0.162630573426939,1
638,688,62,0.157956933833228,1
638,689,62,0.121727814925242,1
639,667,62,0.151256383435866,1
639,668,62,0.126314583489593,1
640,665,62,0.175839926167768,1
640,666,62,0.136188818528588,1
640,667,62,0.11420623254093,1
640,668,62,0.117761278278222,1
640,669,62,0.108129617653373,1
641,664,62,0.136333236849246,1
641,665,62,0.162483115981868,1
641,666,62,0.126058687035459,1
641,668,62,0.102473741763811,1
641,669,62,0.102040639302702,1
641,673,62,0.103645961460673,1
641,674,62,0.112947828068608,1
642,662,62,0.117782868043763,1
642,663,62,0.119527826530933,1
642,664,62,0.133457005147893,1
642,665,62,0.157678489036678,1
642,666,62,0.134401976767702,1
642,694,62,0.11201978404499,1
643,662,62,0.106655958207862,1
643,663,62,0.110517846581646,1
643,664,62,0.111883873094103,1
643,665,62,0.116877459505914,1
643,666,62,0.101704984895343,1
651,688,62,0.108622696526726,1
651,689,62,0.143065932250701,1
651,690,62,0.104128528667151,1
652,688,62,0.117556240863095,1
652,689,62,0.124541412342105,1
653,687,62,0.107145093844522,1
653,688,62,0.125123627971978,1
654,687,62,0.119011447703749,1
654,688,62,0.121577274784083,1
656,655,62,0.130778000638713,1
656,656,62,0.158708730426747,1
656,657,62,0.131446575330751,1
656,658,62,0.111555527835422,1
657,654,62,0.118313157128564,1
657,655,62,0.216518693575204,1
657,656,62,0.263424605118439,1
657,657,62,0.185828591321298,1
657,658,62,0.127992920883902,1
658,654,62,0.105731922778451,1
658,655,62,0.197538021788806,1
658,656,62,0.24308135987492,1
658,657,62,0.188182180767018,1
658,658,62,0.146176753856543,1
659,655,62,0.110480200653437,1
659,656,62,0.137910248310627,1
659,657,62,0.145885444522603,1
659,658,62,0.152498230671245,1
660,657,62,0.101945162867299,1
660,658,62,0.122379668986551,1
665,656,62,0.161654872882512,1
665,657,62,0.142079099143014,1
665,658,62,0.107741731699207,1
666,655,62,0.200041584943896,1
666,656,62,0.274286413983616,1
666,657,62,0.217856997608699,1
666,658,62,0.134176732987752,1
667,655,62,0.208349984656447,1
667,656,62,0.286529815342561,1
667,657,62,0.214232923443439,1
667,658,62,0.128231127237512,1
667,659,62,0.107096870891923,1
668,656,62,0.173171672969682,1
668,659,62,0.115471281693869,1
668,660,62,0.114927289316913,1
669,659,62,0.10532853620049,1
669,660,62,0.1198201815851,1
670,660,62,0.118392392221675,1
670,661,62,0.120119529893292,1
671,660,62,0.102819341406255,1
671,661,62,0.115566398662943,1
671,662,62,0.107509941274914,1
672,661,62,0.118383492706818,1
672,662,62,0.12897542950273,1
672,663,62,0.129259048435826,1
672,664,62,0.102743199902151,1
673,663,62,0.154146601645269,1
673,664,62,0.114866768258716,1
676,673,62,0.100728271309446,1
677,673,62,0.145061798235084,1
677,674,62,0.141833496497375,1
677,675,62,0.121629223114994,1
677,676,62,0.104591194510539,1
677,677,62,0.103637094624573,1
678,674,62,0.178971280926003,1
678,675,62,0.163049308127831,1
678,676,62,0.13967245028864,1
678,677,62,0.136121750826047,1
678,678,62,0.115833765360828,1
678,705,62,0.110810484851709,1
679,676,62,0.118173825801098,1
679,677,62,0.115646744833796,1
679,678,62,0.104883190098378,1
680,682,62,0.102592441902611,1
682,693,62,0.108781547965115,1
682,694,62,0.108710221131228,1
683,693,62,0.107454093278985,1
683,694,62,0.106661263059435,1
684,690,62,0.113761202333471,1
684,691,62,0.0999438831021532,1
685,689,62,0.106701654003243,1
685,690,62,0.108499257968142,1
686,690,62,0.119884460700367,1
635,685,63,0.13218893865638,1
635,686,63,0.144605439391821,1
635,687,63,0.13398165170063,1
636,683,63,0.106273072103537,1
636,684,63,0.121201055146211,1
636,685,63,0.151091638928275,1
636,686,63,0.204764580353786,1
636,687,63,0.215736799846372,1
636,688,63,0.180826475753877,1
636,689,63,0.136679130600505,1
637,684,63,0.102328343080438,1
637,685,63,0.119844570830835,1
637,686,63,0.17048177554146,1
637,687,63,0.228944660257292,1
637,688,63,0.241907626062311,1
637,689,63,0.191474282331556,1
637,690,63,0.113387901997903,1
638,668,63,0.113475524638677,1
638,683,63,0.105923540117319,1
638,684,63,0.116396613380645,1
638,685,63,0.10827575705524,1
638,686,63,0.121247252015868,1
638,687,63,0.167260499736534,1
638,688,63,0.193354748731608,1
638,689,63,0.156302244966159,1
639,666,63,0.165908557768398,1
639,667,63,0.151714452467418,1
639,668,63,0.168533990901729,1
639,669,63,0.136261517870274,1
639,683,63,0.111252454148917,1
639,684,63,0.122523716947962,1
639,685,63,0.106387099180068,1
639,687,63,0.105030429685068,1
639,688,63,0.115110780538175,1
640,665,63,0.172138795493204,1
640,666,63,0.131506497278401,1
640,667,63,0.11806487482484,1
640,668,63,0.143660435093254,1
640,669,63,0.128845999838673,1
640,673,63,0.111362951919679,1
640,674,63,0.111767569397492,1
641,664,63,0.132265559448921,1
641,665,63,0.154692064566296,1
641,666,63,0.143399909148528,1
641,667,63,0.105962188194079,1
641,668,63,0.104256651180922,1
641,673,63,0.125120349203347,1
641,674,63,0.127860778883004,1
642,662,63,0.123406653393828,1
642,663,63,0.140127425731185,1
642,664,63,0.125093770480884,1
642,665,63,0.14627558531101,1
642,666,63,0.161485117632162,1
642,667,63,0.114471878157607,1
642,694,63,0.103445586214896,1
643,662,63,0.10994282027834,1
643,663,63,0.128550202622089,1
643,664,63,0.110942942747259,1
643,665,63,0.11156350145216,1
643,666,63,0.114345509403801,1
643,694,63,0.103480835700916,1
643,695,63,0.1132567294668,1
644,695,63,0.113225543039583,1
650,689,63,0.111854091853443,1
651,688,63,0.122821213459917,1
651,689,63,0.13900366863114,1
652,688,63,0.113228593056914,1
652,689,63,0.103160235307673,1
653,687,63,0.127064844181527,1
653,688,63,0.120051394684685,1
654,687,63,0.125253482459878,1
654,688,63,0.108655560463476,1
656,656,63,0.160580852850813,1
656,657,63,0.122827313494581,1
656,658,63,0.105960292826166,1
657,655,63,0.213498152482382,1
657,656,63,0.272068615666673,1
657,657,63,0.187583658437339,1
657,658,63,0.148073821065214,1
657,659,63,0.101189989468877,1
658,655,63,0.186322563414013,1
658,656,63,0.251223664357919,1
658,657,63,0.203356147707498,1
658,658,63,0.187269789868064,1
658,659,63,0.114320945871361,1
659,655,63,0.101091768017876,1
659,656,63,0.13903777436066,1
659,657,63,0.153000829955841,1
659,658,63,0.171647873417821,1
659,659,63,0.10159677463758,1
660,657,63,0.0997197830787029,1
660,658,63,0.119753582278077,1
664,657,63,0.109880425638068,1
664,658,63,0.10535559421139,1
665,656,63,0.156397209434367,1
665,657,63,0.158694003200202,1
665,658,63,0.140190735376657,1
665,659,63,0.103125519574686,1
666,656,63,0.238551517705483,1
666,657,63,0.200294278879831,1
666,658,63,0.146101560036396,1
666,659,63,0.117027160892308,1
667,655,63,0.201622910001218,1
667,656,63,0.253561938359467,1
667,657,63,0.195930619083298,1
667,658,63,0.131284368873297,1
667,659,63,0.131299226814871,1
667,660,63,0.120933742912922,1
668,656,63,0.168631515205912,1
668,658,63,0.104507852786949,1
668,659,63,0.136216944045554,1
668,660,63,0.158012204504447,1
668,661,63,0.107488754547377,1
669,659,63,0.114890395000118,1
669,660,63,0.145347933432478,1
669,661,63,0.121403826834177,1
670,659,63,0.100144606921339,1
670,660,63,0.128252815039324,1
670,661,63,0.13417095974066,1
670,662,63,0.114379201202398,1
671,660,63,0.113370288147812,1
671,661,63,0.125698556239013,1
671,662,63,0.127060879158996,1
671,663,63,0.120620549704627,1
672,662,63,0.142846134930273,1
672,663,63,0.15742172114902,1
672,664,63,0.116831502280476,1
673,663,63,0.167953409209712,1
673,664,63,0.120541902829144,1
674,708,63,0.108642619675654,1
676,673,63,0.102455931841177,1
677,673,63,0.148724727442567,1
677,674,63,0.154650355579284,1
677,675,63,0.132699958167395,1
677,676,63,0.103030871001131,1
678,674,63,0.182972260983034,1
678,675,63,0.17561431202857,1
678,676,63,0.142755004769568,1
678,677,63,0.116443605433392,1
679,677,63,0.115488154825465,1
680,682,63,0.10744983414764,1
680,704,63,0.105244312150457,1
681,682,63,0.102229282874671,1
682,693,63,0.116888221709928,1
682,694,63,0.122292155274968,1
682,695,63,0.104993099651511,1
682,696,63,0.116635876347402,1
682,697,63,0.109635520139248,1
683,693,63,0.113793205729616,1
683,694,63,0.115555690923525,1
683,695,63,0.102760530536347,1
683,696,63,0.111488786920451,1
683,697,63,0.104985463715263,1
684,689,63,0.0998901374396002,1
684,690,63,0.120196118007076,1
684,691,63,0.10966539941618,1
684,692,63,0.103392951630085,1
684,693,63,0.109193899415448,1
684,694,63,0.108507623729967,1
685,689,63,0.113714656890405,1
685,690,63,0.116499137534668,1
685,691,63,0.110900536613428,1
686,690,63,0.121827005846039,1
635,684,64,0.138207407142092,1
635,685,64,0.145245398385536,1
635,686,64,0.157051786725436,1
635,687,64,0.124836098480947,1
636,683,64,0.105057803590621,1
636,684,64,0.132873199151839,1
636,685,64,0.187238374689547,1
636,686,64,0.235592042316811,1
636,687,64,0.203012062180801,1
636,688,64,0.17556132887035,1
636,689,64,0.140192282171161,1
637,683,64,0.101785821247554,1
637,684,64,0.115211540039313,1
637,685,64,0.138703350853153,1
637,686,64,0.181745293475067,1
637,687,64,0.216436604537304,1
637,688,64,0.259625438172498,1
637,689,64,0.220354722159183,1
637,690,64,0.121355462273631,1
638,668,64,0.127898468382889,1
638,669,64,0.111731448477949,1
638,682,64,0.12699591378983,1
638,683,64,0.145902372118795,1
638,684,64,0.149323532988141,1
638,685,64,0.126230577297942,1
638,686,64,0.127200199593543,1
638,687,64,0.169773125800266,1
638,688,64,0.224621021045319,1
638,689,64,0.193125605286641,1
638,690,64,0.110415278855947,1
639,666,64,0.1546560852547,1
639,667,64,0.152242399574625,1
639,668,64,0.209471955317769,1
639,669,64,0.180352121808357,1
639,670,64,0.102280490487087,1
639,673,64,0.11354142679888,1
639,674,64,0.106552442798206,1
639,682,64,0.1353127337288,1
639,683,64,0.162922732408563,1
639,684,64,0.173548393681829,1
639,685,64,0.139022796596978,1
639,686,64,0.113258592155956,1
639,687,64,0.121864009092024,1
639,688,64,0.137340548644732,1
639,689,64,0.116005710087905,1
640,665,64,0.168119395510073,1
640,666,64,0.142964050778902,1
640,667,64,0.132884255464666,1
640,668,64,0.170499770643718,1
640,669,64,0.14948807053027,1
640,672,64,0.11466479175384,1
640,673,64,0.14584898592257,1
640,674,64,0.142022652036538,1
640,683,64,0.1096803989657,1
640,684,64,0.120369533278224,1
640,685,64,0.106321033626079,1
641,664,64,0.136600516403779,1
641,665,64,0.149158124012489,1
641,666,64,0.167549717630017,1
641,667,64,0.129963046900588,1
641,668,64,0.113363055249568,1
641,669,64,0.100432746415837,1
641,672,64,0.113906971376091,1
641,673,64,0.142647883803709,1
641,674,64,0.136765511448507,1
642,663,64,0.17584398922657,1
642,664,64,0.129414370568445,1
642,665,64,0.136124092803641,1
642,666,64,0.180458447591126,1
642,667,64,0.134445232549217,1
642,693,64,0.106528009980795,1
643,662,64,0.121403696119149,1
643,663,64,0.166289864399462,1
643,664,64,0.122182801260706,1
643,665,64,0.109849457069232,1
643,666,64,0.125355472860868,1
643,693,64,0.106081215120451,1
643,694,64,0.121949474934827,1
643,695,64,0.133278568241066,1
644,663,64,0.101187712848798,1
644,694,64,0.127026675393204,1
644,695,64,0.163604640033509,1
644,696,64,0.166046059085464,1
645,694,64,0.10135015895047,1
645,695,64,0.123046936528305,1
650,688,64,0.108254308897646,1
650,689,64,0.116461916430302,1
651,688,64,0.127189873106291,1
651,689,64,0.128221094859074,1
652,687,64,0.0999866813810691,1
652,688,64,0.1067651270425,1
653,686,64,0.101970129437744,1
653,687,64,0.133983993678224,1
653,688,64,0.10878615566987,1
654,687,64,0.119985601453671,1
656,656,64,0.147794319655517,1
656,657,64,0.113795939852296,1
656,658,64,0.0998118064587694,1
657,655,64,0.184068862035907,1
657,656,64,0.247197510764982,1
657,657,64,0.184990250485991,1
657,658,64,0.170158451918457,1
657,659,64,0.128411764513985,1
658,655,64,0.15828391747703,1
658,656,64,0.233867998234201,1
658,657,64,0.214008246095279,1
658,658,64,0.230332810288323,1
658,659,64,0.160830954272016,1
659,656,64,0.134228692211582,1
659,657,64,0.154578015703926,1
659,658,64,0.179145284414779,1
659,659,64,0.122138369043934,1
660,658,64,0.109869402003997,1
663,658,64,0.102406194772831,1
664,656,64,0.116450511544065,1
664,657,64,0.150976097735997,1
664,658,64,0.154801974119429,1
664,659,64,0.11122559221056,1
665,656,64,0.167395147108811,1
665,657,64,0.190766199022152,1
665,658,64,0.183237808563439,1
665,659,64,0.133433650729467,1
666,656,64,0.209126736927491,1
666,657,64,0.187665333544315,1
666,658,64,0.159954662506767,1
666,659,64,0.143344594905633,1
666,660,64,0.102779593144671,1
667,656,64,0.209870200437943,1
667,657,64,0.172586243928691,1
667,658,64,0.134365670668535,1
667,659,64,0.151549849567775,1
667,660,64,0.151995555136215,1
668,658,64,0.110806617865449,1
668,659,64,0.150363926578758,1
668,660,64,0.202310166049413,1
668,661,64,0.149352475474036,1
669,659,64,0.125345418696592,1
669,660,64,0.179622100160003,1
669,661,64,0.162037105411694,1
669,662,64,0.11539883288932,1
670,660,64,0.142839272391276,1
670,661,64,0.153295298236302,1
670,662,64,0.145894561895842,1
670,663,64,0.12391440502913,1
671,661,64,0.136163220168839,1
671,662,64,0.154321509246326,1
671,663,64,0.160880233837762,1
671,664,64,0.111465399823268,1
672,662,64,0.155318440089965,1
672,663,64,0.183676019803578,1
672,664,64,0.132774509305319,1
673,664,64,0.124166042351919,1
674,707,64,0.112992608858789,1
675,670,64,0.105187570935167,1
676,672,64,0.102010661989499,1
676,673,64,0.102909937813927,1
676,674,64,0.105914281136133,1
676,705,64,0.107897631156536,1
677,673,64,0.14438953084349,1
677,674,64,0.169254546603436,1
677,675,64,0.158061070139269,1
677,676,64,0.117151361955224,1
678,675,64,0.184204751200956,1
678,676,64,0.151024364260272,1
678,677,64,0.10927233932547,1
679,677,64,0.116033182029729,1
679,682,64,0.102162345887158,1
679,704,64,0.10441448957784,1
680,682,64,0.109627502950833,1
680,683,64,0.103828276246678,1
680,702,64,0.103040794450378,1
680,703,64,0.106095822524886,1
681,682,64,0.103246735977785,1
682,690,64,0.103767221435448,1
682,691,64,0.106858054534847,1
682,693,64,0.118572234315058,1
682,694,64,0.133774413915856,1
682,695,64,0.129412115734203,1
682,696,64,0.141792408406749,1
682,697,64,0.127728342773292,1
683,689,64,0.102428459899353,1
683,690,64,0.118296480069511,1
683,691,64,0.118262886307185,1
683,692,64,0.111776153017697,1
683,693,64,0.121823106181021,1
683,694,64,0.126924979101028,1
683,695,64,0.119941169236899,1
683,696,64,0.127689956126588,1
684,688,64,0.106599042705868,1
684,689,64,0.124353389666521,1
684,690,64,0.137541000140943,1
684,691,64,0.133279559496699,1
684,692,64,0.12762831309773,1
685,689,64,0.130533225854921,1
685,690,64,0.1378070923673,1
685,691,64,0.138853455277551,1
685,692,64,0.134856135241318,1
686,690,64,0.132336711996103,1
686,691,64,0.140232487935345,1
635,684,65,0.126591568634992,1
635,685,65,0.139301186928933,1
635,686,65,0.144874734136376,1
636,683,65,0.103370032928421,1
636,684,65,0.132717822554624,1
636,685,65,0.194038301187329,1
636,686,65,0.228214377178881,1
636,687,65,0.172660707923262,1
636,688,65,0.149425545174969,1
637,682,65,0.100487668513647,1
637,683,65,0.113547298082244,1
637,684,65,0.118967647276281,1
637,685,65,0.146911132672513,1
637,686,65,0.180080397942855,1
637,687,65,0.187535642450202,1
637,688,65,0.231875400125532,1
637,689,65,0.21382563720046,1
637,690,65,0.124690492832113,1
638,668,65,0.142640411261246,1
638,669,65,0.125508082656645,1
638,672,65,0.0997126700025685,1
638,673,65,0.121995159837289,1
638,674,65,0.1074819029013,1
638,681,65,0.117643307964997,1
638,682,65,0.166015003373276,1
638,683,65,0.18801706590018,1
638,684,65,0.169431262429054,1
638,685,65,0.136524462043028,1
638,686,65,0.129092038201074,1
638,687,65,0.157589330494319,1
638,688,65,0.219530171759382,1
638,689,65,0.208622394775848,1
638,690,65,0.125553037733532,1
639,666,65,0.149163243684439,1
639,667,65,0.1578831234138,1
639,668,65,0.223447200089357,1
639,669,65,0.198456294864043,1
639,670,65,0.11198681117905,1
639,672,65,0.123492119236631,1
639,673,65,0.16265159676069,1
639,674,65,0.146500338909603,1
639,675,65,0.104260409237992,1
639,681,65,0.140507523248235,1
639,682,65,0.18687073867188,1
639,683,65,0.221797053569529,1
639,684,65,0.214919242700597,1
639,685,65,0.165217510984376,1
639,686,65,0.132762352807668,1
639,687,65,0.13240076236007,1
639,688,65,0.148625035447495,1
639,689,65,0.135190024995792,1
640,665,65,0.156220918432592,1
640,666,65,0.166233090505415,1
640,667,65,0.163920098968964,1
640,668,65,0.18855907576587,1
640,669,65,0.157197566660975,1
640,672,65,0.137366201469076,1
640,673,65,0.176698909084659,1
640,674,65,0.160677353220606,1
640,675,65,0.117411049145185,1
640,676,65,0.100970540721858,1
640,681,65,0.103345741718958,1
640,682,65,0.118451823987968,1
640,683,65,0.141785731047376,1
640,684,65,0.153776057218219,1
640,685,65,0.144608903340076,1
640,686,65,0.137442604403237,1
640,687,65,0.124803267222954,1
640,688,65,0.112368575312714,1
640,689,65,0.106912203235405,1
640,690,65,0.100148833373928,1
641,664,65,0.152609131480011,1
641,665,65,0.150578288332585,1
641,666,65,0.191432976382549,1
641,667,65,0.170877297431874,1
641,668,65,0.136119387062614,1
641,669,65,0.10550783364792,1
641,671,65,0.103172152161105,1
641,672,65,0.135938368533975,1
641,673,65,0.152899689202536,1
641,674,65,0.131858077133399,1
641,686,65,0.101540087886886,1
641,689,65,0.108081928453807,1
641,690,65,0.121678894825825,1
641,691,65,0.104191457060456,1
642,663,65,0.200457650879623,1
642,664,65,0.150612023702858,1
642,665,65,0.137190280826549,1
642,666,65,0.178143114077081,1
642,667,65,0.150341095020446,1
642,668,65,0.104504062051123,1
642,690,65,0.106605327920155,1
642,691,65,0.114725432634146,1
642,692,65,0.120968741861803,1
642,693,65,0.112995800484069,1
643,662,65,0.137266629296114,1
643,663,65,0.19971976454372,1
643,664,65,0.149160106523755,1
643,665,65,0.124538144466392,1
643,666,65,0.141301181329632,1
643,667,65,0.11831491088853,1
643,691,65,0.10671157745249,1
643,692,65,0.122624106089853,1
643,693,65,0.130114796155762,1
643,694,65,0.146510654503936,1
643,695,65,0.153248545827774,1
643,696,65,0.148771556101528,1
644,663,65,0.12436171185667,1
644,664,65,0.108809836875867,1
644,665,65,0.10242872132941,1
644,666,65,0.104657292743286,1
644,693,65,0.122569706852157,1
644,694,65,0.188402609876751,1
644,695,65,0.21750519989532,1
644,696,65,0.180755018204962,1
645,694,65,0.145198068652299,1
645,695,65,0.169362942040822,1
645,696,65,0.138162070813039,1
650,688,65,0.103595026171233,1
650,689,65,0.104619592350482,1
651,688,65,0.110692656146432,1
651,689,65,0.108534594597515,1
652,685,65,0.105418086887933,1
653,686,65,0.100793312929045,1
653,687,65,0.117396202096531,1
654,687,65,0.100844204646809,1
656,656,65,0.12055946221464,1
656,657,65,0.105458161937089,1
657,655,65,0.135863327214695,1
657,656,65,0.187331138788108,1
657,657,65,0.16686827840059,1
657,658,65,0.17487458478935,1
657,659,65,0.139994858906444,1
658,655,65,0.121657958635426,1
658,656,65,0.186608981827302,1
658,657,65,0.199473889575105,1
658,658,65,0.23753427156783,1
658,659,65,0.182495303629863,1
659,656,65,0.121446864757312,1
659,657,65,0.144090977718388,1
659,658,65,0.167158879694791,1
659,659,65,0.129196501294687,1
663,657,65,0.11107630475509,1
663,658,65,0.142332501118687,1
663,659,65,0.114659312615562,1
664,656,65,0.128980930426846,1
664,657,65,0.184038329183833,1
664,658,65,0.219996955126168,1
664,659,65,0.158901295449571,1
665,656,65,0.196039744346261,1
665,657,65,0.216458630019606,1
665,658,65,0.218073592410929,1
665,659,65,0.16770102027551,1
665,660,65,0.105304059811402,1
666,657,65,0.183242263767327,1
666,658,65,0.167850035408004,1
666,659,65,0.164856770184463,1
666,660,65,0.131272245054404,1
667,657,65,0.156334335505657,1
667,658,65,0.140036829323513,1
667,659,65,0.161250571299351,1
667,660,65,0.171394351620039,1
667,661,65,0.124478886986804,1
668,658,65,0.127675958725619,1
668,659,65,0.155411574547774,1
668,660,65,0.217748046632441,1
668,661,65,0.189650350181332,1
668,662,65,0.11214473671932,1
669,659,65,0.139048776208893,1
669,660,65,0.206721101114588,1
669,661,65,0.212302066399899,1
669,662,65,0.156651624451511,1
669,663,65,0.109223582619838,1
670,660,65,0.1584243380964,1
670,661,65,0.173649066039615,1
670,662,65,0.173300078699349,1
670,663,65,0.158563778353056,1
670,664,65,0.107447622885074,1
671,661,65,0.142182015442122,1
671,662,65,0.177177620197796,1
671,663,65,0.200000823640841,1
671,664,65,0.137063171354248,1
672,662,65,0.159407641898317,1
672,663,65,0.190185911438949,1
672,664,65,0.137985496595369,1
675,669,65,0.120355383376389,1
675,670,65,0.123088188012717,1
676,670,65,0.219582152769051,1
676,672,65,0.102404070653618,1
676,673,65,0.100498517861013,1
676,674,65,0.110015312654565,1
676,675,65,0.108368935084724,1
676,705,65,0.111661777367757,1
677,673,65,0.129540761108089,1
677,674,65,0.171382097086116,1
677,675,65,0.183000408285838,1
677,676,65,0.132663641175309,1
677,704,65,0.100871948911609,1
678,676,65,0.15543106197994,1
678,677,65,0.102881158721818,1
678,704,65,0.106004169504067,1
681,694,65,0.107652148333006,1
681,695,65,0.115207575016782,1
681,696,65,0.109267600905686,1
682,690,65,0.118466638357865,1
682,691,65,0.121016006237526,1
682,692,65,0.103158917264469,1
682,693,65,0.113584813295425,1
682,694,65,0.142125775301109,1
682,695,65,0.16058019927567,1
682,696,65,0.157908939631929,1
683,689,65,0.111046872087838,1
683,690,65,0.123358452227067,1
683,691,65,0.12860204202381,1
683,692,65,0.125179138287416,1
684,688,65,0.116047168537779,1
684,689,65,0.137165924259571,1
684,690,65,0.142180501326376,1
684,691,65,0.149564418999835,1
684,692,65,0.154854009593692,1
685,689,65,0.140334467443415,1
685,690,65,0.149053443060496,1
685,691,65,0.163007773427524,1
685,692,65,0.164145277391399,1
685,693,65,0.167367816774935,1
686,690,65,0.140581529740206,1
686,691,65,0.154912602605219,1
686,692,65,0.152843372811089,1
686,699,65,0.168031587689676,1
687,699,65,0.183197962265583,1
636,683,66,0.100769577258453,1
636,684,66,0.126772903058284,1
636,685,66,0.17360410006981,1
636,686,66,0.193921529095199,1
637,682,66,0.105944258449336,1
637,683,66,0.120481850166466,1
637,684,66,0.118796868091541,1
637,685,66,0.144540931525254,1
637,686,66,0.167418795636051,1
637,687,66,0.154047356259878,1
637,688,66,0.178430774283141,1
637,689,66,0.182021276471914,1
638,669,66,0.130574836805661,1
638,672,66,0.107887762171884,1
638,673,66,0.13906506112286,1
638,674,66,0.125194257659047,1
638,681,66,0.126637547646268,1
638,682,66,0.1778490924063,1
638,683,66,0.204340497229644,1
638,684,66,0.164173827732208,1
638,685,66,0.131330892530526,1
638,686,66,0.1224607558759,1
638,687,66,0.135652603695828,1
638,688,66,0.186993000795207,1
638,689,66,0.205243607361575,1
638,690,66,0.139562203055017,1
639,667,66,0.17000275942659,1
639,668,66,0.210324260875288,1
639,669,66,0.179801691716248,1
639,670,66,0.111510017219664,1
639,672,66,0.144497795565848,1
639,673,66,0.210379139401422,1
639,674,66,0.183798031389767,1
639,675,66,0.125026975101319,1
639,680,66,0.111287507562394,1
639,681,66,0.168717503908829,1
639,682,66,0.209004540161678,1
639,683,66,0.249125753507952,1
639,684,66,0.216351552625424,1
639,685,66,0.171041497293512,1
639,686,66,0.146126167140512,1
639,687,66,0.133153049134946,1
639,688,66,0.144668084569231,1
639,689,66,0.150409698624572,1
639,690,66,0.109457366448316,1
640,665,66,0.138854631712808,1
640,666,66,0.184186069844799,1
640,667,66,0.194824159938692,1
640,668,66,0.186627456217997,1
640,669,66,0.145919942397209,1
640,672,66,0.148034094589468,1
640,673,66,0.195325887789765,1
640,674,66,0.165764466235311,1
640,675,66,0.135693539285588,1
640,676,66,0.138016900880967,1
640,677,66,0.120659677069826,1
640,680,66,0.103148242203808,1
640,681,66,0.127610012993739,1
640,682,66,0.130400571886828,1
640,683,66,0.158473574090469,1
640,684,66,0.168766206149866,1
640,685,66,0.186625321205865,1
640,686,66,0.194839889313789,1
640,687,66,0.154113312884677,1
640,688,66,0.124305330107708,1
640,689,66,0.127056249668403,1
640,690,66,0.108242337579619,1
641,664,66,0.171730648709621,1
641,665,66,0.150084937136255,1
641,666,66,0.205432054861001,1
641,667,66,0.210764639806317,1
641,668,66,0.156746371061338,1
641,669,66,0.107990732935588,1
641,671,66,0.105982263843874,1
641,672,66,0.140316962522515,1
641,673,66,0.14805567346209,1
641,674,66,0.116262107616315,1
641,675,66,0.1028606691411,1
641,676,66,0.113413761787709,1
641,677,66,0.100782038757837,1
641,684,66,0.104074728540003,1
641,685,66,0.132307028791714,1
641,686,66,0.148940461704193,1
641,687,66,0.121614071064606,1
641,688,66,0.107293281115169,1
641,689,66,0.13968700322848,1
641,690,66,0.147802108092632,1
641,691,66,0.121145523044935,1
641,692,66,0.100792452388441,1
642,663,66,0.188705694456175,1
642,664,66,0.168922552216875,1
642,665,66,0.134585566025235,1
642,666,66,0.155387904234696,1
642,667,66,0.148681384517699,1
642,668,66,0.108387398582501,1
642,672,66,0.100487145653533,1
642,689,66,0.109926535364373,1
642,690,66,0.148286559774104,1
642,691,66,0.172154699155006,1
642,692,66,0.161213992877208,1
642,693,66,0.117748838564676,1
643,662,66,0.138197908516687,1
643,663,66,0.189354890645238,1
643,664,66,0.160749834703911,1
643,665,66,0.129120229075555,1
643,666,66,0.138116211623872,1
643,667,66,0.121574725841027,1
643,690,66,0.114853141216994,1
643,691,66,0.16604929428242,1
643,692,66,0.173857610974673,1
643,693,66,0.152485834529375,1
643,694,66,0.162056244270451,1
643,695,66,0.154548517679161,1
644,662,66,0.102829471820964,1
644,663,66,0.137046799296928,1
644,664,66,0.11955264060051,1
644,665,66,0.106331120469112,1
644,666,66,0.115425662148921,1
644,667,66,0.100492592113054,1
644,691,66,0.106914948251004,1
644,692,66,0.122731488485769,1
644,693,66,0.160859537291582,1
644,694,66,0.242518261317965,1
644,695,66,0.239925703014302,1
645,693,66,0.114097444958458,1
645,694,66,0.184049930142612,1
645,695,66,0.196516897771975,1
646,695,66,0.109933485046721,1
647,663,66,0.106577540083679,1
647,664,66,0.100326148310093,1
649,661,66,0.117826515970364,1
650,661,66,0.109455100721156,1
651,658,66,0.102265763260542,1
652,658,66,0.104762888700479,1
653,658,66,0.104939550061501,1
653,659,66,0.105354265275267,1
654,658,66,0.104603775832033,1
654,659,66,0.109967362024942,1
657,656,66,0.123046958314143,1
657,657,66,0.134537266822203,1
657,658,66,0.154994626285605,1
657,659,66,0.129012345605363,1
658,656,66,0.129491732079481,1
658,657,66,0.160233052838722,1
658,658,66,0.20147040913463,1
658,659,66,0.165215114542187,1
659,657,66,0.11979687073835,1
659,658,66,0.140368268171203,1
659,659,66,0.120383922824279,1
663,657,66,0.120832416979993,1
663,658,66,0.188167475326312,1
663,659,66,0.145223035222743,1
664,656,66,0.127854864027965,1
664,657,66,0.187469871005026,1
664,658,66,0.273807299832474,1
664,659,66,0.210672594640412,1
664,660,66,0.109025277028679,1
665,657,66,0.203461961523072,1
665,658,66,0.219752365522,1
665,659,66,0.186733836465361,1
665,660,66,0.128256289880499,1
666,657,66,0.16518266453636,1
666,658,66,0.151917834158851,1
666,659,66,0.1593496262115,1
666,660,66,0.148031534753493,1
666,661,66,0.105874216979897,1
667,658,66,0.13357494278236,1
667,659,66,0.148282093677297,1
667,660,66,0.165821948169095,1
667,661,66,0.145705351892083,1
668,659,66,0.149736407298589,1
668,660,66,0.195905456440311,1
668,661,66,0.211286083840855,1
668,662,66,0.145816143771658,1
669,660,66,0.207853223976457,1
669,661,66,0.257175903895856,1
669,662,66,0.206229677964929,1
669,663,66,0.133662750602757,1
670,661,66,0.19575766131475,1
670,662,66,0.193059768483951,1
670,663,66,0.172233291565893,1
670,664,66,0.117976914503577,1
670,666,66,0.103661189761494,1
670,667,66,0.108577316625997,1
671,662,66,0.183701890486303,1
671,663,66,0.208466931035281,1
671,664,66,0.146181426918812,1
671,667,66,0.107616256164763,1
672,663,66,0.177249012389197,1
672,664,66,0.128155748237742,1
672,668,66,0.101753055347075,1
673,669,66,0.115381306182582,1
673,707,66,0.102308822969515,1
674,669,66,0.10255174595707,1
675,670,66,0.118663582334144,1
676,674,66,0.100077964042641,1
676,675,66,0.105279202170148,1
676,705,66,0.105848575048472,1
677,676,66,0.128159440937297,1
677,704,66,0.104746897895325,1
678,704,66,0.118857302006386,1
679,703,66,0.106353788633638,1
680,702,66,0.11291199036496,1
681,694,66,0.114939097241154,1
681,695,66,0.141510968057461,1
681,696,66,0.123008615239115,1
682,690,66,0.113507190354332,1
682,691,66,0.116125760948667,1
682,693,66,0.103572270863354,1
682,694,66,0.146026268179978,1
682,695,66,0.193992529141514,1
682,696,66,0.165982106757769,1
682,697,66,0.124656790140597,1
683,689,66,0.105749482163947,1
683,690,66,0.113021943489769,1
683,691,66,0.121836602507714,1
683,692,66,0.125332728445908,1
684,689,66,0.130469578528959,1
684,690,66,0.125836471487003,1
684,691,66,0.142271304699509,1
684,692,66,0.162139193848956,1
684,693,66,0.167981534726678,1
684,694,66,0.163252559104235,1
684,695,66,0.142760233370708,1
685,690,66,0.145409336817117,1
685,691,66,0.170148463111695,1
685,692,66,0.183020080897628,1
685,693,66,0.177011742826625,1
685,694,66,0.170173233609597,1
685,699,66,0.14939268123822,1
686,691,66,0.165803756994295,1
686,692,66,0.169401655475098,1
686,693,66,0.152115987249143,1
686,698,66,0.149013901764374,1
686,699,66,0.183089599506954,1
686,700,66,0.169793713417256,1
687,692,66,0.166187263995005,1
687,698,66,0.151089972311662,1
687,699,66,0.196281915722401,1
687,700,66,0.17693437042267,1
688,692,66,0.179109185281074,1
688,699,66,0.153983763398511,1
689,692,66,0.175526504208173,1
636,684,67,0.116586139279056,1
637,682,67,0.106785039298509,1
637,683,67,0.123022067994132,1
637,684,67,0.121338425748249,1
637,685,67,0.139627255567535,1
637,686,67,0.151869709242523,1
637,687,67,0.128489376562159,1
638,672,67,0.114733090356233,1
638,673,67,0.146188420172836,1
638,674,67,0.135109428287801,1
638,675,67,0.101551667059828,1
638,681,67,0.121889051912902,1
638,682,67,0.168818034658667,1
638,683,67,0.198446338736039,1
638,684,67,0.156541704005459,1
638,685,67,0.128073506698975,1
638,686,67,0.118677361876732,1
638,687,67,0.117124303944324,1
638,688,67,0.150626947001945,1
638,689,67,0.181959731479327,1
639,668,67,0.183210576265834,1
639,669,67,0.143515668199187,1
639,670,67,0.105390712982381,1
639,671,67,0.103473722624782,1
639,672,67,0.15968493204545,1
639,673,67,0.238616635575516,1
639,674,67,0.2050859650372,1
639,675,67,0.144930091950947,1
639,676,67,0.118173106868441,1
639,680,67,0.11919062532907,1
639,681,67,0.172034441328782,1
639,682,67,0.203081580790127,1
639,683,67,0.24110832544885,1
639,684,67,0.196344746079435,1
639,685,67,0.164711763646177,1
639,686,67,0.153090968860913,1
639,687,67,0.129869389582666,1
639,688,67,0.137466884719781,1
639,689,67,0.156450323307616,1
639,690,67,0.121851700093507,1
640,666,67,0.196425920112136,1
640,667,67,0.21808200174443,1
640,668,67,0.175721291386482,1
640,669,67,0.12828322806929,1
640,672,67,0.159802956823269,1
640,673,67,0.21577570935319,1
640,674,67,0.171940380972855,1
640,675,67,0.153058464390492,1
640,676,67,0.172626024869032,1
640,677,67,0.14759359583633,1
640,678,67,0.107193523762583,1
640,680,67,0.121246990585811,1
640,681,67,0.140981746478727,1
640,682,67,0.136035217477177,1
640,683,67,0.163334081710345,1
640,684,67,0.169699968955981,1
640,685,67,0.212388381890387,1
640,686,67,0.238962246110879,1
640,687,67,0.174054086555433,1
640,688,67,0.132011209789291,1
640,689,67,0.140350273068945,1
640,690,67,0.111896737631492,1
641,664,67,0.180293670404778,1
641,665,67,0.150650584636266,1
641,666,67,0.207983394359009,1
641,667,67,0.232050601835402,1
641,668,67,0.166937666294887,1
641,669,67,0.108752518335868,1
641,671,67,0.103023104349854,1
641,672,67,0.140036012354585,1
641,673,67,0.14952491038247,1
641,674,67,0.11003958207819,1
641,675,67,0.106868381022099,1
641,676,67,0.126945348859637,1
641,677,67,0.110340030571205,1
641,684,67,0.112054151204567,1
641,685,67,0.162137559911099,1
641,686,67,0.196980936123162,1
641,687,67,0.148833427881686,1
641,688,67,0.120023421668585,1
641,689,67,0.155207234279466,1
641,690,67,0.150478868660489,1
641,691,67,0.12382549702391,1
641,692,67,0.105148944644245,1
642,663,67,0.157683989960794,1
642,664,67,0.169885921976946,1
642,665,67,0.132578164439587,1
642,666,67,0.13850771402716,1
642,667,67,0.142209966672384,1
642,668,67,0.10990439005996,1
642,672,67,0.100543146150328,1
642,685,67,0.103026306868052,1
642,686,67,0.11009279398771,1
642,689,67,0.123607518820961,1
642,690,67,0.165381275129253,1
642,691,67,0.199677630732866,1
642,692,67,0.179803184046156,1
642,693,67,0.120170933578251,1
643,662,67,0.130116571701566,1
643,663,67,0.154234899647023,1
643,664,67,0.151143903153839,1
643,665,67,0.128033213791439,1
643,666,67,0.131685075793175,1
643,667,67,0.11694367756077,1
643,690,67,0.128717125713488,1
643,691,67,0.196252134481741,1
643,692,67,0.198670406080732,1
643,693,67,0.163960980094128,1
643,694,67,0.169691439800371,1
644,662,67,0.107413833050206,1
644,663,67,0.13512171550048,1
644,664,67,0.123540516475934,1
644,665,67,0.108678784166873,1
644,666,67,0.117088106774348,1
644,667,67,0.104080643395042,1
644,691,67,0.119600776409757,1
644,692,67,0.142748055087219,1
644,693,67,0.18797443101505,1
644,694,67,0.261490371269996,1
644,695,67,0.227593894724413,1
645,693,67,0.1361939164147,1
645,694,67,0.199628394738796,1
645,695,67,0.198019467024623,1
645,696,67,0.153822580875447,1
646,663,67,0.103914450129219,1
646,695,67,0.113754775511236,1
646,696,67,0.118186047656263,1
647,663,67,0.126056345057865,1
647,664,67,0.108822058731032,1
648,661,67,0.111862316007319,1
648,662,67,0.102428209362215,1
649,660,67,0.111779704109305,1
649,661,67,0.149869279125063,1
649,662,67,0.109541655855863,1
650,660,67,0.107720697472537,1
650,661,67,0.127426881238806,1
651,658,67,0.125009470180419,1
651,659,67,0.113931229906797,1
651,660,67,0.113144663115696,1
652,658,67,0.12694724422755,1
652,659,67,0.129495936746231,1
652,660,67,0.125330778613399,1
653,658,67,0.111501466278216,1
653,659,67,0.127381120085911,1
653,660,67,0.114895721637529,1
654,658,67,0.109345093131751,1
654,659,67,0.132617596806519,1
654,660,67,0.104030296323231,1
655,658,67,0.100088225172378,1
655,659,67,0.11607239653828,1
655,704,67,0.127213478061855,1
656,704,67,0.145541620425963,1
657,657,67,0.106442729317616,1
657,658,67,0.127275829130451,1
657,659,67,0.110458175171134,1
658,657,67,0.120601672275927,1
658,658,67,0.150588756427784,1
658,659,67,0.132269807687347,1
659,658,67,0.11398281877138,1
659,659,67,0.110064450612363,1
662,658,67,0.0998188868561467,1
663,657,67,0.125501971729063,1
663,658,67,0.208027750325348,1
663,659,67,0.162790394335122,1
664,656,67,0.125045253419472,1
664,657,67,0.173223152905074,1
664,658,67,0.278202788738448,1
664,659,67,0.23411372070195,1
664,660,67,0.124253490705988,1
665,657,67,0.181493569008926,1
665,658,67,0.198704893062419,1
665,659,67,0.19003103591601,1
665,660,67,0.145677476912254,1
666,657,67,0.160994337164727,1
666,658,67,0.136902228475403,1
666,659,67,0.145647412455698,1
666,660,67,0.157110706524534,1
666,661,67,0.134920523285775,1
667,658,67,0.128913612187167,1
667,659,67,0.135258018596452,1
667,660,67,0.153926118070941,1
667,661,67,0.160874166481856,1
667,662,67,0.110417784227327,1
668,659,67,0.147352034463656,1
668,660,67,0.165344402598296,1
668,661,67,0.205361817319018,1
668,662,67,0.167648244082751,1
668,663,67,0.103395010391784,1
669,660,67,0.187346628518986,1
669,661,67,0.265473889977803,1
669,662,67,0.237986763424833,1
669,663,67,0.150421757085952,1
669,665,67,0.10127670799737,1
669,666,67,0.135685304238792,1
669,667,67,0.130411312305003,1
670,661,67,0.210042918562272,1
670,662,67,0.210352037818845,1
670,663,67,0.17245288192086,1
670,664,67,0.125497745276475,1
670,665,67,0.104911555259563,1
670,666,67,0.138075755322551,1
670,667,67,0.158611151657969,1
670,668,67,0.102093753175951,1
671,662,67,0.186015840599629,1
671,663,67,0.196285009311409,1
671,664,67,0.146700158616509,1
671,666,67,0.0998834491873084,1
671,667,67,0.13286647822079,1
671,668,67,0.116473974891681,1
672,663,67,0.166525598060449,1
672,664,67,0.123523774059367,1
672,668,67,0.124274819041472,1
672,669,67,0.136757461581335,1
673,668,67,0.114023721682382,1
673,669,67,0.151857563637792,1
673,670,67,0.123078645815636,1
673,707,67,0.106353603454014,1
673,708,67,0.120158559222219,1
674,668,67,0.104937545764397,1
674,669,67,0.112756014657198,1
674,670,67,0.101332490635784,1
675,669,67,0.124761667165133,1
675,670,67,0.114864633246584,1
677,675,67,0.159530165451701,1
677,676,67,0.118676795444942,1
678,676,67,0.147831900226211,1
679,686,67,0.109074513022748,1
679,703,67,0.102253181939049,1
680,702,67,0.107374400683274,1
680,703,67,0.11932160178763,1
681,694,67,0.113392771132715,1
681,695,67,0.147099699994049,1
681,696,67,0.124186324967175,1
681,700,67,0.103408212609663,1
681,701,67,0.113297621484883,1
681,702,67,0.127337374123038,1
682,691,67,0.104484803370256,1
682,693,67,0.102154579235881,1
682,694,67,0.141139857198621,1
682,695,67,0.198300896480991,1
682,696,67,0.155555535365833,1
682,697,67,0.11228891539576,1
682,698,67,0.109901002362138,1
683,690,67,0.103609165180149,1
683,691,67,0.114536527632121,1
683,692,67,0.123644739925328,1
683,693,67,0.129730101826876,1
683,694,67,0.149266835344528,1
683,695,67,0.178184202167707,1
683,696,67,0.142290879275028,1
683,697,67,0.125790448904051,1
683,702,67,0.189556409647514,1
684,690,67,0.113029993356941,1
684,691,67,0.13382212490126,1
684,692,67,0.158510381263912,1
684,693,67,0.163985173267321,1
684,694,67,0.164539110879361,1
684,695,67,0.161738639429945,1
684,696,67,0.137150227563231,1
684,698,67,0.166592742013423,1
684,699,67,0.163998037804709,1
684,700,67,0.15254603969292,1
684,701,67,0.17007757199457,1
685,690,67,0.14251927110858,1
685,691,67,0.174921217375769,1
685,692,67,0.191778085843636,1
685,693,67,0.174888484154047,1
685,694,67,0.165777494166485,1
685,695,67,0.155810113776762,1
685,696,67,0.138843836830037,1
685,698,67,0.152809408689516,1
685,699,67,0.161444018648617,1
685,700,67,0.155072412620484,1
685,701,67,0.151617342094159,1
686,690,67,0.159978888358716,1
686,691,67,0.188870460749604,1
686,692,67,0.188408295980491,1
686,693,67,0.15828220728874,1
686,694,67,0.143735509091292,1
686,697,67,0.120349043697506,1
686,698,67,0.147595817991815,1
686,699,67,0.186241650811369,1
686,700,67,0.177509233332191,1
686,701,67,0.146253668757898,1
687,691,67,0.15627300837145,1
687,692,67,0.163595740518652,1
687,693,67,0.153009435361884,1
687,697,67,0.118035060905422,1
687,698,67,0.153387539474749,1
687,699,67,0.203419653425513,1
687,700,67,0.182614395913749,1
687,701,67,0.137778868814062,1
688,691,67,0.145330330475306,1
688,692,67,0.177150932546144,1
688,693,67,0.167291642592075,1
688,698,67,0.135520374551578,1
688,699,67,0.152855126270735,1
688,700,67,0.131878751893741,1
689,691,67,0.155775016791609,1
689,692,67,0.205626580609252,1
689,693,67,0.176228345874966,1
690,692,67,0.132940506498599,1
637,682,68,0.109059317400685,1
637,683,68,0.126836027524132,1
637,684,68,0.130071071978728,1
637,685,68,0.130959008274433,1
638,672,68,0.116479682781259,1
638,673,68,0.136993827031627,1
638,674,68,0.12694793048145,1
638,675,68,0.111064769153824,1
638,681,68,0.11096566537638,1
638,682,68,0.152341329065364,1
638,683,68,0.179845274285335,1
638,684,68,0.156849178431256,1
638,685,68,0.131364813080422,1
638,686,68,0.117593058929457,1
638,687,68,0.106239935843811,1
639,668,68,0.164195145174773,1
639,670,68,0.103503155292033,1
639,671,68,0.115811816128958,1
639,672,68,0.162224550762569,1
639,673,68,0.22464840584379,1
639,674,68,0.193488404848252,1
639,675,68,0.163357653987151,1
639,676,68,0.157596650535915,1
639,677,68,0.118569652693245,1
639,680,68,0.112778203533286,1
639,681,68,0.152697952341879,1
639,682,68,0.180726870902158,1
639,683,68,0.207827015613242,1
639,684,68,0.17704625159415,1
639,685,68,0.160378527772527,1
639,686,68,0.157874670508623,1
639,687,68,0.128492709795386,1
639,688,68,0.128170671536829,1
639,689,68,0.148235983950992,1
640,667,68,0.230615416179948,1
640,668,68,0.170931816491679,1
640,669,68,0.12073296462914,1
640,670,68,0.104076514978726,1
640,671,68,0.114939870638406,1
640,672,68,0.168805344407983,1
640,673,68,0.220399470270607,1
640,674,68,0.174439957319576,1
640,675,68,0.165428593969571,1
640,676,68,0.192966285452733,1
640,677,68,0.155956939432529,1
640,678,68,0.113648417049711,1
640,679,68,0.105271827663957,1
640,680,68,0.120524114692349,1
640,681,68,0.136125182095545,1
640,682,68,0.13739595003098,1
640,683,68,0.155736423179444,1
640,684,68,0.164382971777814,1
640,685,68,0.21502130935202,1
640,686,68,0.246481432053002,1
640,687,68,0.173131064167494,1
640,688,68,0.130501658175537,1
640,689,68,0.139885025603744,1
640,690,68,0.117037628987507,1
641,665,68,0.146080057414207,1
641,666,68,0.192084024367849,1
641,667,68,0.224616707449378,1
641,668,68,0.163273277436252,1
641,669,68,0.110190111326431,1
641,671,68,0.105660639516241,1
641,672,68,0.137195302462227,1
641,673,68,0.150054262676233,1
641,674,68,0.11494119957453,1
641,675,68,0.111798134928324,1
641,676,68,0.128920245974863,1
641,677,68,0.110875068968708,1
641,684,68,0.121181883608697,1
641,685,68,0.181164711783049,1
641,686,68,0.220765711994636,1
641,687,68,0.159304703813371,1
641,688,68,0.12320901227073,1
641,689,68,0.15152750819082,1
641,690,68,0.1474406701459,1
641,691,68,0.131995088269109,1
642,664,68,0.149491360191821,1
642,665,68,0.127312265944646,1
642,666,68,0.129417344335343,1
642,667,68,0.134781344459176,1
642,668,68,0.108445250875532,1
642,685,68,0.120413028703959,1
642,686,68,0.129364088854147,1
642,687,68,0.100954789560923,1
642,689,68,0.130424710595425,1
642,690,68,0.172321132065048,1
642,691,68,0.210812830080158,1
642,692,68,0.187958810569144,1
642,693,68,0.125391768067115,1
643,663,68,0.120167262664534,1
643,664,68,0.12682695372257,1
643,665,68,0.1176380466851,1
643,666,68,0.118077401681739,1
643,667,68,0.106061150363576,1
643,685,68,0.103236529312643,1
643,690,68,0.140179657277991,1
643,691,68,0.206010969936405,1
643,692,68,0.206327888523012,1
643,693,68,0.171828576051808,1
643,694,68,0.167017892643631,1
644,662,68,0.12075002294036,1
644,663,68,0.126954389982442,1
644,664,68,0.11756118624834,1
644,665,68,0.103919820338307,1
644,666,68,0.105504032019175,1
644,691,68,0.128913710223438,1
644,692,68,0.160504613310438,1
644,693,68,0.20306108031649,1
644,694,68,0.242497521200109,1
644,695,68,0.197318485898434,1
645,661,68,0.100182568744201,1
645,662,68,0.110497956111476,1
645,663,68,0.117577961343665,1
645,664,68,0.104457255177999,1
645,692,68,0.112736429188761,1
645,693,68,0.157094748398138,1
645,694,68,0.193360652693728,1
645,695,68,0.18118834941737,1
645,696,68,0.15686471173381,1
646,662,68,0.104742355548084,1
646,663,68,0.120283272252331,1
646,664,68,0.102679149538185,1
646,694,68,0.0999401359380028,1
646,695,68,0.111777438382144,1
646,696,68,0.124387037893442,1
646,697,68,0.152132097876406,1
647,661,68,0.106915242359818,1
647,662,68,0.117729155059967,1
647,663,68,0.130638124665295,1
647,664,68,0.106456171179713,1
648,660,68,0.119310033507608,1
648,661,68,0.152184950319598,1
648,662,68,0.1255315677901,1
648,663,68,0.103592194012282,1
649,660,68,0.133344328793323,1
649,661,68,0.174784903386877,1
649,662,68,0.122709266930923,1
650,659,68,0.10153970663472,1
650,660,68,0.124080358650735,1
650,661,68,0.135281198728174,1
651,658,68,0.133503692198906,1
651,659,68,0.143758438685875,1
651,660,68,0.146351988245171,1
651,661,68,0.111049257637108,1
651,687,68,0.100274592124267,1
652,658,68,0.13434276285979,1
652,659,68,0.157872873176981,1
652,660,68,0.166296313007534,1
652,661,68,0.112123691599731,1
653,658,68,0.110271938934274,1
653,659,68,0.141995223666391,1
653,660,68,0.148922052671012,1
653,661,68,0.106472782881252,1
654,658,68,0.106881528775383,1
654,659,68,0.143880025448221,1
654,660,68,0.12677282680785,1
655,658,68,0.107449921290992,1
655,659,68,0.133133703310727,1
655,660,68,0.104542699234964,1
655,704,68,0.148920342482722,1
655,705,68,0.111849898079612,1
656,659,68,0.101439894817538,1
656,679,68,0.10228978214703,1
656,680,68,0.10681709715925,1
656,704,68,0.166914497056085,1
656,705,68,0.125539062118401,1
657,658,68,0.102379245691122,1
658,658,68,0.107628303733223,1
658,659,68,0.105396224799416,1
659,660,68,0.10013811474159,1
663,657,68,0.120275592744406,1
663,658,68,0.192723024784688,1
663,659,68,0.160842478980363,1
664,657,68,0.149739991068954,1
664,658,68,0.237171406648704,1
664,659,68,0.2195331564192,1
664,660,68,0.13170877878501,1
665,657,68,0.151898314047928,1
665,658,68,0.168706044557997,1
665,659,68,0.177107851051333,1
665,660,68,0.150479173662222,1
665,661,68,0.112057146757304,1
666,658,68,0.121743740372882,1
666,659,68,0.131466226156703,1
666,660,68,0.153293239474603,1
666,661,68,0.152001557134607,1
666,662,68,0.100271204426445,1
667,659,68,0.126251764025478,1
667,660,68,0.142535272806653,1
667,661,68,0.163149969592697,1
667,662,68,0.128155889845689,1
668,660,68,0.148014868587359,1
668,661,68,0.188732970325456,1
668,662,68,0.179939193033314,1
668,663,68,0.121815492030611,1
669,661,68,0.24461972325954,1
669,662,68,0.248648556510562,1
669,663,68,0.162652184978318,1
669,664,68,0.113633090712619,1
669,665,68,0.11667114761926,1
669,666,68,0.158267926671876,1
669,667,68,0.156801053514929,1
670,662,68,0.236047714906174,1
670,663,68,0.176591047400306,1
670,664,68,0.130294409497845,1
670,665,68,0.117580978682239,1
670,666,68,0.160155026859624,1
670,667,68,0.187321509447675,1
670,668,68,0.125113225234293,1
670,708,68,0.112230300598395,1
671,663,68,0.181074856093872,1
671,664,68,0.138748055392901,1
671,665,68,0.101802084375683,1
671,666,68,0.1106345751021,1
671,667,68,0.146909378912548,1
671,668,68,0.141925922915446,1
671,669,68,0.129536273225444,1
671,708,68,0.104112102145236,1
672,667,68,0.102707961309051,1
672,668,68,0.142829991624252,1
672,669,68,0.178866425687305,1
672,670,68,0.12865366356715,1
673,668,68,0.12460548449191,1
673,669,68,0.170652391332415,1
673,670,68,0.138797541924109,1
673,707,68,0.1110554883868,1
674,668,68,0.115630209382691,1
674,669,68,0.123469461965023,1
674,670,68,0.109170523211184,1
675,669,68,0.13459960699788,1
675,670,68,0.118453327210796,1
677,675,68,0.132754847586448,1
677,676,68,0.104086427535054,1
678,676,68,0.143004234757248,1
679,684,68,0.100183701607781,1
679,685,68,0.110839046085437,1
679,686,68,0.12488882020911,1
679,687,68,0.107437710328746,1
679,703,68,0.101770636518409,1
680,686,68,0.102744975447955,1
680,701,68,0.100435055714674,1
680,702,68,0.105450101176998,1
680,703,68,0.117757629150343,1
681,694,68,0.110801193191766,1
681,695,68,0.139441226296137,1
681,696,68,0.122738656026498,1
681,699,68,0.102584860430958,1
681,700,68,0.114484089119853,1
681,701,68,0.121868780190564,1
681,702,68,0.141697019114698,1
682,693,68,0.102287483741112,1
682,694,68,0.132442275274539,1
682,695,68,0.178219843798812,1
682,696,68,0.145697454525777,1
682,697,68,0.108509257667823,1
682,700,68,0.126740561981648,1
682,702,68,0.191348730546678,1
682,703,68,0.181594317617145,1
683,692,68,0.121297860517737,1
683,693,68,0.1267786327337,1
683,694,68,0.149091916850552,1
683,695,68,0.182830424284189,1
683,696,68,0.15049807287676,1
683,698,68,0.155825592614721,1
683,699,68,0.158297250409937,1
683,700,68,0.156523665331525,1
683,701,68,0.194880890261062,1
683,702,68,0.212902789099225,1
683,703,68,0.164869678293528,1
684,691,68,0.129693163938405,1
684,692,68,0.153740600766737,1
684,693,68,0.157230986136596,1
684,694,68,0.16697799188118,1
684,695,68,0.184265849583862,1
684,696,68,0.157076437401228,1
684,697,68,0.153271823995767,1
684,698,68,0.192619040979514,1
684,699,68,0.190066241830354,1
684,700,68,0.177597367940159,1
684,701,68,0.202938404262239,1
684,702,68,0.189681503929792,1
685,690,68,0.143385181921983,1
685,691,68,0.177134081200386,1
685,692,68,0.193385837122553,1
685,693,68,0.17291200756556,1
685,694,68,0.165777908097408,1
685,695,68,0.170685342412516,1
685,696,68,0.152018136157389,1
685,697,68,0.142155556541769,1
685,698,68,0.168177400303972,1
685,699,68,0.178066112032373,1
685,700,68,0.176142934496758,1
685,701,68,0.180288278409852,1
685,702,68,0.152824462703632,1
686,690,68,0.172259794037922,1
686,691,68,0.204120961339272,1
686,692,68,0.199444522265368,1
686,693,68,0.167545120818181,1
686,694,68,0.152182586556166,1
686,695,68,0.144381045259556,1
686,696,68,0.133748129302208,1
686,697,68,0.126428795745748,1
686,698,68,0.150875360020697,1
686,699,68,0.184432500352285,1
686,700,68,0.186802745071221,1
686,701,68,0.166118867356341,1
687,691,68,0.157110292593611,1
687,692,68,0.161184614674552,1
687,693,68,0.155440636855778,1
687,697,68,0.124212609580823,1
687,698,68,0.152954164690665,1
687,699,68,0.193294794105201,1
687,700,68,0.185380630918616,1
687,701,68,0.152381632865819,1
688,691,68,0.136434737068879,1
688,692,68,0.168660174475911,1
688,693,68,0.163461561541893,1
688,694,68,0.141427364903814,1
688,698,68,0.135664596799694,1
688,699,68,0.150028588066051,1
688,700,68,0.141369371002835,1
689,691,68,0.151902998003116,1
689,692,68,0.205832936067583,1
689,693,68,0.176987898226843,1
690,692,68,0.138298591767392,1
638,672,69,0.118667187890347,1
638,673,69,0.125367313463866,1
638,674,69,0.113283700334348,1
638,675,69,0.114599662990888,1
638,676,69,0.11954855575587,1
638,682,69,0.1307472172495,1
638,683,69,0.153084280608621,1
638,684,69,0.155235632119408,1
638,685,69,0.137462178978755,1
639,671,69,0.129854291996874,1
639,672,69,0.160478579233928,1
639,673,69,0.190179332115848,1
639,674,69,0.167267841563968,1
639,675,69,0.172376054162857,1
639,676,69,0.192501724241432,1
639,677,69,0.133368707146138,1
639,680,69,0.10455070553046,1
639,681,69,0.1270999520596,1
639,682,69,0.149895073557354,1
639,683,69,0.162906708924652,1
639,684,69,0.158673306654023,1
639,685,69,0.16222964864868,1
639,686,69,0.16487988495867,1
639,687,69,0.136196345535646,1
640,667,69,0.211366604298413,1
640,668,69,0.160407350436312,1
640,669,69,0.115118590761128,1
640,670,69,0.112824955941815,1
640,671,69,0.136597215849309,1
640,672,69,0.172700772079498,1
640,673,69,0.205890537823477,1
640,674,69,0.172213488239075,1
640,675,69,0.167106844220528,1
640,676,69,0.189389835129524,1
640,677,69,0.146483901494769,1
640,678,69,0.117915576476451,1
640,679,69,0.112623404260781,1
640,680,69,0.113532919429109,1
640,681,69,0.124286648751551,1
640,682,69,0.133741539086188,1
640,683,69,0.140637780774139,1
640,684,69,0.156448264545917,1
640,685,69,0.205480746209118,1
640,686,69,0.22969215414779,1
640,687,69,0.168915068781493,1
640,688,69,0.126543846756669,1
640,689,69,0.127286373476084,1
641,666,69,0.157338924071383,1
641,667,69,0.185794431127182,1
641,668,69,0.148515038751009,1
641,669,69,0.10935624748085,1
641,671,69,0.113002259985061,1
641,672,69,0.133692259520442,1
641,673,69,0.145627576450123,1
641,674,69,0.126017588051914,1
641,675,69,0.116220257021356,1
641,676,69,0.118821486088576,1
641,677,69,0.105415363658173,1
641,678,69,0.0999061500305918,1
641,682,69,0.0999854069095412,1
641,683,69,0.10380517236539,1
641,684,69,0.133226761518103,1
641,685,69,0.1938096370308,1
641,686,69,0.221854786040451,1
641,687,69,0.162019001380247,1
641,688,69,0.12286098350734,1
641,689,69,0.135298017395174,1
641,690,69,0.142494587754031,1
642,664,69,0.122735224757,1
642,665,69,0.115822131723291,1
642,666,69,0.116486371033551,1
642,667,69,0.118908019437445,1
642,668,69,0.10337209169012,1
642,684,69,0.111977508626188,1
642,685,69,0.144576584049279,1
642,686,69,0.148741883790058,1
642,687,69,0.115115442707525,1
642,688,69,0.102478120717265,1
642,689,69,0.128762004539941,1
642,690,69,0.167177495693434,1
642,691,69,0.202894070081738,1
643,664,69,0.105529172876323,1
643,665,69,0.103262073207796,1
643,666,69,0.101560784433066,1
643,684,69,0.116423921928683,1
643,685,69,0.123774507269875,1
643,689,69,0.100674296895593,1
643,690,69,0.146374830696402,1
643,691,69,0.19548250617975,1
643,692,69,0.200935632167184,1
643,693,69,0.176233008044316,1
644,662,69,0.125623395097624,1
644,663,69,0.117881884677854,1
644,664,69,0.113350310534289,1
644,684,69,0.103788745843475,1
644,685,69,0.10407396603567,1
644,690,69,0.104568951169855,1
644,691,69,0.139812489655844,1
644,692,69,0.177319173680747,1
644,693,69,0.20425368066488,1
644,694,69,0.200035223479176,1
645,661,69,0.13593171296044,1
645,662,69,0.139005357033591,1
645,663,69,0.131321481048473,1
645,664,69,0.112154779990677,1
645,692,69,0.133248645392458,1
645,693,69,0.169033594633589,1
645,694,69,0.170371125269832,1
645,695,69,0.155283332211893,1
646,661,69,0.110378242931205,1
646,662,69,0.125738696645683,1
646,663,69,0.125760024981167,1
646,664,69,0.10077222423778,1
646,694,69,0.10255243221097,1
646,695,69,0.106623453737441,1
646,696,69,0.124073659505524,1
647,660,69,0.109540370491416,1
647,661,69,0.133737138346895,1
647,662,69,0.130697523752831,1
647,663,69,0.120667770508674,1
648,660,69,0.155091039512045,1
648,661,69,0.190802864587647,1
648,662,69,0.145152906609951,1
648,663,69,0.103047155915098,1
649,659,69,0.100830642962602,1
649,660,69,0.152887783242023,1
649,661,69,0.182581172510671,1
649,662,69,0.129328392758447,1
650,659,69,0.124011155936061,1
650,660,69,0.141858441281981,1
650,661,69,0.132884821896457,1
651,658,69,0.13079758610715,1
651,659,69,0.173224274875736,1
651,660,69,0.179827921865301,1
651,661,69,0.125546360374159,1
652,658,69,0.131942453684298,1
652,659,69,0.181140518609857,1
652,660,69,0.20356646818836,1
652,661,69,0.133554071949476,1
653,658,69,0.108012627702862,1
653,659,69,0.154597394206902,1
653,660,69,0.184999498574257,1
653,661,69,0.127438231660448,1
654,658,69,0.102755356399802,1
654,659,69,0.144796392262626,1
654,660,69,0.152840725831762,1
654,661,69,0.110691359889066,1
654,704,69,0.112931989764321,1
655,658,69,0.107817350343197,1
655,659,69,0.134256436476382,1
655,660,69,0.12157013992211,1
655,680,69,0.104450054958512,1
655,704,69,0.164333136673197,1
655,705,69,0.125812114920026,1
656,659,69,0.102519372201677,1
656,679,69,0.113628973189221,1
656,680,69,0.126361248754769,1
656,704,69,0.167701619386057,1
656,705,69,0.12858623639828,1
657,679,69,0.107434420667196,1
657,704,69,0.0997885609695339,1
659,660,69,0.103990776812946,1
663,657,69,0.114580829133864,1
663,658,69,0.15897532372738,1
663,659,69,0.147242876521936,1
663,660,69,0.110556320371703,1
663,692,69,0.103054519528371,1
664,657,69,0.132572020833248,1
664,658,69,0.182989264829659,1
664,659,69,0.183355321374064,1
664,660,69,0.136877566906692,1
664,692,69,0.104476568323461,1
665,658,69,0.145709807095971,1
665,659,69,0.157479834872109,1
665,660,69,0.145919092749524,1
665,661,69,0.124452275585584,1
666,659,69,0.125165729104076,1
666,660,69,0.140791327360954,1
666,661,69,0.152830867740029,1
666,662,69,0.120439226174255,1
667,659,69,0.123891464541628,1
667,660,69,0.132378322946843,1
667,661,69,0.151805495484771,1
667,662,69,0.140059464809282,1
667,663,69,0.104813442737752,1
668,660,69,0.137092081161385,1
668,661,69,0.164251526923735,1
668,662,69,0.174888603976157,1
668,663,69,0.136740446841792,1
668,664,69,0.109328252678912,1
668,665,69,0.103609393931449,1
668,666,69,0.111172859589478,1
668,667,69,0.101010092910899,1
669,661,69,0.203183930657445,1
669,662,69,0.226765422873757,1
669,663,69,0.162075949560998,1
669,664,69,0.125166143034999,1
669,665,69,0.133575618143341,1
669,666,69,0.173204221011779,1
669,667,69,0.171137572839462,1
669,668,69,0.108523472927173,1
670,662,69,0.236684231737472,1
670,663,69,0.169452067904424,1
670,664,69,0.126251426344988,1
670,665,69,0.130530971020679,1
670,666,69,0.178729425444514,1
670,667,69,0.199850392428872,1
670,668,69,0.146490905641713,1
670,669,69,0.108288174982947,1
671,663,69,0.158404556555419,1
671,664,69,0.121276499503496,1
671,665,69,0.10809042493066,1
671,666,69,0.126456953941472,1
671,667,69,0.155525449123439,1
671,668,69,0.164296209677645,1
671,669,69,0.170542819459771,1
671,670,69,0.120719304908662,1
672,667,69,0.10733704886388,1
672,668,69,0.15296638654583,1
672,669,69,0.20027098981892,1
672,670,69,0.154607284977392,1
673,667,69,0.102219707998833,1
673,668,69,0.131807337916502,1
673,669,69,0.165586225401027,1
673,670,69,0.13859718846417,1
673,671,69,0.100901784616865,1
673,706,69,0.106651873363221,1
673,707,69,0.112809400853423,1
674,669,69,0.132108864808502,1
674,670,69,0.112669949703847,1
674,706,69,0.109878562948912,1
677,675,69,0.117127560927118,1
678,684,69,0.102561331725827,1
678,685,69,0.109547723211769,1
678,686,69,0.112210312091953,1
679,684,69,0.101747292992902,1
679,685,69,0.114969009196844,1
679,686,69,0.123125975548873,1
679,687,69,0.1080951960292,1
679,703,69,0.10420347195016,1
680,686,69,0.101195272534613,1
680,695,69,0.104449052809961,1
680,696,69,0.0997879291802295,1
680,700,69,0.111815999315553,1
680,701,69,0.107486303640592,1
680,702,69,0.104586194660699,1
681,694,69,0.103448603553471,1
681,695,69,0.122890753855081,1
681,696,69,0.117446385774557,1
681,699,69,0.113863105591109,1
681,700,69,0.128829682245949,1
681,701,69,0.128329196187647,1
681,702,69,0.150909084498051,1
681,703,69,0.159264879301354,1
682,693,69,0.102395585069684,1
682,694,69,0.118222669650082,1
682,695,69,0.141922709504328,1
682,696,69,0.130240707406968,1
682,699,69,0.119550832375949,1
682,701,69,0.159879523151215,1
682,702,69,0.210357462492528,1
682,703,69,0.196001118055338,1
682,704,69,0.137453660716064,1
683,694,69,0.14406252541385,1
683,695,69,0.171142583582222,1
683,696,69,0.154364612526975,1
683,697,69,0.138854097959775,1
683,698,69,0.162258427740789,1
683,699,69,0.162953831692428,1
683,700,69,0.165280167054705,1
683,701,69,0.201686590005937,1
683,702,69,0.214186955325082,1
683,703,69,0.165750000438823,1
684,691,69,0.126579488387775,1
684,692,69,0.147651676880662,1
684,693,69,0.148352701578527,1
684,694,69,0.16462383600367,1
684,695,69,0.190606334542292,1
684,696,69,0.168903293536009,1
684,697,69,0.162025961955515,1
684,698,69,0.206854626516205,1
684,699,69,0.203762954662039,1
684,700,69,0.196645456002508,1
684,701,69,0.220013686649817,1
684,702,69,0.187867113976649,1
684,703,69,0.136960167911787,1
685,690,69,0.141489410970677,1
685,691,69,0.168202813484096,1
685,692,69,0.181381894802908,1
685,693,69,0.164613389694309,1
685,694,69,0.161338673228562,1
685,695,69,0.169804170619536,1
685,696,69,0.15253682428341,1
685,697,69,0.148003692452422,1
685,698,69,0.181444790517456,1
685,699,69,0.18915622558775,1
685,700,69,0.19306501887093,1
685,701,69,0.200261142620106,1
685,702,69,0.161019586951066,1
686,690,69,0.167666772938042,1
686,691,69,0.192558846708888,1
686,692,69,0.188941373652567,1
686,693,69,0.1683701396135,1
686,694,69,0.156802676559866,1
686,695,69,0.14460204080108,1
686,696,69,0.131860157680936,1
686,697,69,0.132230244605387,1
686,698,69,0.152287801261192,1
686,699,69,0.175104011450212,1
686,700,69,0.185201899902976,1
686,701,69,0.175390190219282,1
686,702,69,0.149335656807035,1
687,691,69,0.147718167258494,1
687,692,69,0.153478615170859,1
687,693,69,0.155073523698226,1
687,694,69,0.156093220742663,1
687,695,69,0.140180844606167,1
687,698,69,0.147112978462361,1
687,699,69,0.171555065747584,1
687,700,69,0.177427220544724,1
687,701,69,0.159736357516247,1
688,692,69,0.152931888671224,1
688,693,69,0.151240457988227,1
688,699,69,0.142535316378329,1
688,700,69,0.15074753161574,1
689,692,69,0.174694274300448,1
639,672,70,0.153308652955047,1
639,673,70,0.159928138248899,1
639,674,70,0.149280723816306,1
639,675,70,0.169533851940591,1
639,676,70,0.191577743276616,1
639,677,70,0.137155390806857,1
639,678,70,0.101262470952183,1
639,681,70,0.107615711518811,1
639,682,70,0.120669469804045,1
639,683,70,0.128277095355869,1
639,684,70,0.140725109306098,1
639,685,70,0.156192880058978,1
640,671,70,0.145285734864748,1
640,672,70,0.163717033172184,1
640,673,70,0.177686188802028,1
640,674,70,0.164636188573863,1
640,675,70,0.164388124128521,1
640,676,70,0.171778675589677,1
640,677,70,0.136423778792323,1
640,678,70,0.118677449020084,1
640,679,70,0.114081421474548,1
640,680,70,0.108023128476818,1
640,681,70,0.113138432366004,1
640,682,70,0.121809903963143,1
640,683,70,0.124055588152833,1
640,684,70,0.142673896094381,1
640,685,70,0.181026992607602,1
640,686,70,0.194931673049636,1
640,687,70,0.155071138148956,1
641,667,70,0.139259249190622,1
641,668,70,0.126138597489551,1
641,669,70,0.106359463844459,1
641,670,70,0.103610396080001,1
641,671,70,0.117500109651272,1
641,672,70,0.127988574609205,1
641,673,70,0.136792525887731,1
641,674,70,0.133025700018426,1
641,675,70,0.123249882502976,1
641,676,70,0.114344474576492,1
641,677,70,0.10516719028364,1
641,678,70,0.105022663033791,1
641,679,70,0.100914180758735,1
641,681,70,0.100540346670134,1
641,682,70,0.106210546748236,1
641,683,70,0.109704537674297,1
641,684,70,0.137252838860607,1
641,685,70,0.182848419386446,1
641,686,70,0.194860193714883,1
641,687,70,0.15130681765103,1
641,688,70,0.11987532154129,1
641,689,70,0.122769984061663,1
642,666,70,0.10091833096089,1
642,667,70,0.100281051625259,1
642,684,70,0.12605310986091,1
642,685,70,0.154075198560949,1
642,686,70,0.151543390066783,1
642,687,70,0.121686182188664,1
642,688,70,0.108685134738675,1
642,689,70,0.123680468699785,1
642,690,70,0.154323328363806,1
643,684,70,0.125675583072754,1
643,685,70,0.133010242966306,1
643,686,70,0.111563425201727,1
643,689,70,0.107572281450591,1
643,690,70,0.141508451793163,1
643,691,70,0.175624540479551,1
644,663,70,0.11831547732032,1
644,664,70,0.111066217912057,1
644,684,70,0.108944549605659,1
644,685,70,0.109324734266061,1
644,690,70,0.111521040853735,1
644,691,70,0.142825449277012,1
644,692,70,0.175880676577903,1
644,693,70,0.185648814585429,1
645,662,70,0.162174595835842,1
645,663,70,0.143460528242996,1
645,664,70,0.117676357081371,1
645,691,70,0.106761739344678,1
645,692,70,0.140062798042509,1
645,693,70,0.1600641145573,1
645,694,70,0.14424979647802,1
646,661,70,0.1392649570802,1
646,662,70,0.150054633035481,1
646,663,70,0.135254848757011,1
646,664,70,0.103377069754122,1
646,693,70,0.106474231639485,1
646,694,70,0.103704630722633,1
646,695,70,0.103065957093365,1
647,661,70,0.154788510471493,1
647,662,70,0.143215851495476,1
647,663,70,0.118731477898532,1
648,660,70,0.169145987772264,1
648,661,70,0.196795407926039,1
648,662,70,0.150844456809375,1
648,663,70,0.107534232484377,1
649,659,70,0.117836526562964,1
649,660,70,0.160030902047141,1
649,661,70,0.172786237922301,1
649,662,70,0.129534312500016,1
649,664,70,0.10060826402036,1
650,659,70,0.141027202629889,1
650,660,70,0.154457529126403,1
650,661,70,0.133179475356542,1
650,662,70,0.101944302326695,1
650,664,70,0.109901579686847,1
650,665,70,0.100743543181943,1
651,659,70,0.181454485215403,1
651,660,70,0.190085718369601,1
651,661,70,0.136518351115445,1
651,664,70,0.10820139109694,1
652,658,70,0.12643082182869,1
652,659,70,0.184830897973326,1
652,660,70,0.209780486356713,1
652,661,70,0.148773255396899,1
653,658,70,0.107350240188839,1
653,659,70,0.159282645652311,1
653,660,70,0.193833231093445,1
653,661,70,0.143929522872348,1
654,659,70,0.139904796251805,1
654,660,70,0.161148286789547,1
654,661,70,0.127802915697053,1
654,662,70,0.10239029111103,1
654,704,70,0.11874481083144,1
655,659,70,0.124378900882918,1
655,660,70,0.129675659017504,1
655,661,70,0.116282390231571,1
655,662,70,0.105620422859138,1
655,680,70,0.111230962419647,1
655,704,70,0.155312884701254,1
656,660,70,0.105136428680265,1
656,661,70,0.108583285945632,1
656,662,70,0.102091509234628,1
656,679,70,0.1135964687188,1
656,680,70,0.127530189683,1
656,704,70,0.145867057275261,1
656,705,70,0.119264664499798,1
657,679,70,0.109025135420731,1
657,680,70,0.102768678439791,1
659,660,70,0.102908260304394,1
662,661,70,0.106725095565021,1
662,662,70,0.1128997140452,1
663,658,70,0.120554669330261,1
663,659,70,0.122891058856814,1
663,660,70,0.115986745515853,1
663,661,70,0.110741347494549,1
663,662,70,0.110098545448964,1
663,692,70,0.10453194792387,1
664,658,70,0.131984151778391,1
664,659,70,0.139684236427044,1
664,660,70,0.130808282953649,1
664,661,70,0.112852318954448,1
664,662,70,0.100109553507862,1
664,692,70,0.107097230358252,1
665,659,70,0.12685731228794,1
665,660,70,0.128633696846546,1
665,661,70,0.12573099535192,1
665,662,70,0.10923537965116,1
665,666,70,0.101286293766127,1
666,660,70,0.121536077764266,1
666,661,70,0.137772616278532,1
666,662,70,0.12925148875001,1
666,663,70,0.101461005294641,1
666,666,70,0.114547997875872,1
666,667,70,0.101898355994176,1
667,660,70,0.118371292637491,1
667,661,70,0.133239615162572,1
667,662,70,0.140024378717048,1
667,663,70,0.122235838883521,1
667,664,70,0.104735493009088,1
667,665,70,0.100976956651174,1
667,666,70,0.104676998033833,1
668,661,70,0.14048790510104,1
668,662,70,0.158442747129581,1
668,663,70,0.145268099228819,1
668,664,70,0.129543604159959,1
668,665,70,0.123018102971601,1
668,666,70,0.124638141463197,1
668,667,70,0.115047133212213,1
669,662,70,0.188115951819243,1
669,663,70,0.155870111974845,1
669,664,70,0.135904371733645,1
669,665,70,0.146066561087514,1
669,666,70,0.172647505705383,1
669,667,70,0.168393287066464,1
669,668,70,0.123040477027313,1
670,663,70,0.155383557959998,1
670,664,70,0.125480490892712,1
670,665,70,0.140808570851798,1
670,666,70,0.180194926093662,1
670,667,70,0.190931749605752,1
670,668,70,0.157766590965889,1
670,669,70,0.129315756972358,1
671,665,70,0.114606852317456,1
671,666,70,0.136135486796958,1
671,667,70,0.154741376810798,1
671,668,70,0.169620091180646,1
671,669,70,0.181740446126093,1
671,670,70,0.13825541223631,1
672,667,70,0.115641636054766,1
672,668,70,0.152415989132478,1
672,669,70,0.190274165869027,1
672,670,70,0.158976532841394,1
672,671,70,0.107566726061879,1
672,706,70,0.105290966522714,1
673,669,70,0.151473686277834,1
673,670,70,0.133337836613574,1
673,671,70,0.107841434587198,1
673,705,70,0.101831941866777,1
673,706,70,0.121220553471296,1
674,705,70,0.10336675415979,1
674,706,70,0.125852876223081,1
675,705,70,0.102262909315753,1
676,686,70,0.105843803949931,1
677,684,70,0.106498239633053,1
677,685,70,0.118036498770736,1
677,686,70,0.119954251632668,1
677,687,70,0.100630692540668,1
677,704,70,0.120306550420324,1
678,683,70,0.102672624679679,1
678,684,70,0.113639637356963,1
678,685,70,0.126917157985156,1
678,686,70,0.12650677815317,1
678,687,70,0.107420248979522,1
678,703,70,0.103265809479028,1
679,684,70,0.10273923487962,1
679,685,70,0.114301338617086,1
679,686,70,0.115012395693388,1
679,687,70,0.10484302790587,1
679,692,70,0.10496878665621,1
679,693,70,0.100281879487106,1
680,691,70,0.10255163702788,1
680,692,70,0.107904286730071,1
680,693,70,0.101441670363342,1
680,694,70,0.103173557347661,1
680,695,70,0.111387864025528,1
680,696,70,0.105974518978435,1
680,699,70,0.107013082558653,1
680,700,70,0.123661144661405,1
680,701,70,0.116293381186884,1
681,695,70,0.109999822923687,1
681,696,70,0.110979553848159,1
681,699,70,0.121431059131782,1
682,702,70,0.206568251674592,1
682,703,70,0.190518646544005,1
683,695,70,0.159414951046995,1
683,701,70,0.198078702718373,1
683,702,70,0.204482279463894,1
684,694,70,0.163558769951423,1
684,695,70,0.18662355655298,1
684,696,70,0.176497564369088,1
684,697,70,0.171955031948966,1
684,698,70,0.202893438292434,1
684,699,70,0.205185569888919,1
684,700,70,0.206522980703053,1
684,701,70,0.218283760390925,1
684,702,70,0.185455966346711,1
685,691,70,0.157618817626166,1
685,692,70,0.168409266978699,1
685,693,70,0.161045544777143,1
685,694,70,0.161443223465527,1
685,695,70,0.166489749463882,1
685,696,70,0.154766615704219,1
685,697,70,0.157060076236827,1
685,698,70,0.184881593618547,1
685,699,70,0.193040422659733,1
685,700,70,0.200568802225527,1
685,701,70,0.203270267933771,1
686,691,70,0.170647500411765,1
686,692,70,0.173574558473368,1
686,693,70,0.167895349951218,1
686,694,70,0.161188394517459,1
686,695,70,0.147996677412559,1
686,698,70,0.152583413298153,1
686,699,70,0.16371354743809,1
686,700,70,0.175485176473328,1
686,701,70,0.174778411207128,1
687,692,70,0.148237160386248,1
687,693,70,0.155356271197798,1
687,699,70,0.14701054145169,1
687,700,70,0.15980408968685,1
