x,y,z,signal,mito.p
145,790,42,0.114230055354875,1
132,817,44,0.100563439658503,1
152,805,45,0.124981660558105,1
152,804,46,0.124880966414481,1
152,805,46,0.173645351554222,1
152,806,46,0.134092258400582,1
153,805,46,0.226551943446373,1
151,805,47,0.110174022485006,1
151,806,47,0.102848719608911,1
151,807,47,0.106858860610856,1
152,804,47,0.166325974426086,1
152,805,47,0.217713995367516,1
152,806,47,0.157390316863422,1
153,805,47,0.244470076337742,1
151,804,48,0.101997503343296,1
151,805,48,0.12345188079369,1
151,806,48,0.120537502089851,1
151,807,48,0.129200684175599,1
152,804,48,0.197056206193742,1
152,805,48,0.227567904219579,1
152,806,48,0.175669669843142,1
153,804,48,0.204791986938095,1
153,805,48,0.221686882586338,1
128,782,49,0.101363502776297,1
151,804,49,0.105500916644329,1
151,805,49,0.117919214711411,1
151,806,49,0.123118099968406,1
151,807,49,0.133726681144614,1
151,808,49,0.102095877295164,1
152,804,49,0.192120101715716,1
152,805,49,0.198235691467606,1
152,806,49,0.176855897833892,1
152,807,49,0.173909243410932,1
153,804,49,0.189897183726823,1
153,805,49,0.176837467014873,1
153,806,49,0.129069282893196,1
128,782,50,0.101984333804174,1
128,784,50,0.100910444487504,1
129,784,50,0.100480392043727,1
134,782,50,0.101294496134166,1
151,805,50,0.105006900979938,1
151,806,50,0.11714470638169,1
151,807,50,0.119203206650563,1
151,808,50,0.1015947267688,1
152,804,50,0.162170031702764,1
152,805,50,0.166415209218877,1
152,806,50,0.175623048149642,1
152,807,50,0.164797403775684,1
152,808,50,0.11123207349739,1
153,804,50,0.154542689967473,1
153,805,50,0.140336624241386,1
153,806,50,0.124930409374012,1
153,807,50,0.10748065021561,1
127,782,51,0.10715841588451,1
127,783,51,0.103849767975948,1
127,784,51,0.116069618843924,1
128,781,51,0.123913152343441,1
128,782,51,0.101602940029758,1
128,783,51,0.11171347516153,1
128,784,51,0.131438383855632,1
128,785,51,0.100880935569819,1
129,784,51,0.113873846009284,1
130,816,51,0.112951139515997,1
131,782,51,0.107648847778537,1
132,782,51,0.106653736052377,1
133,782,51,0.102259499832093,1
134,782,51,0.110360792474899,1
151,806,51,0.107970069068165,1
151,807,51,0.0997429414245862,1
152,803,51,0.104026080763561,1
152,804,51,0.129315299469758,1
152,805,51,0.151058633383578,1
152,806,51,0.178430599996436,1
152,807,51,0.1473224275097,1
152,808,51,0.110036651882968,1
153,803,51,0.100094031098228,1
153,804,51,0.126124077228468,1
153,805,51,0.131120768122206,1
153,806,51,0.136741819349591,1
153,807,51,0.106593607139266,1
127,781,52,0.131992245217239,1
127,782,52,0.111483035459197,1
127,783,52,0.128884538986244,1
127,784,52,0.136581246829994,1
128,780,52,0.0998136146833304,1
128,781,52,0.117526426943677,1
128,782,52,0.106750083921303,1
128,783,52,0.136716558670333,1
128,784,52,0.158307729398055,1
128,785,52,0.113586675984581,1
129,783,52,0.107642148633326,1
129,784,52,0.11904280841767,1
129,816,52,0.122883804172732,1
130,816,52,0.133488954079443,1
130,817,52,0.139054102846304,1
131,782,52,0.115295219443393,1
131,816,52,0.101716248173633,1
131,817,52,0.104999068971146,1
132,782,52,0.112052844054282,1
133,782,52,0.102934904384371,1
134,782,52,0.104737987487549,1
152,803,52,0.107129005003097,1
152,804,52,0.108060414938699,1
152,805,52,0.138492529298015,1
152,806,52,0.166191054730832,1
152,807,52,0.123391588486792,1
152,808,52,0.10042850907033,1
153,804,52,0.107260133962524,1
153,805,52,0.126384080313081,1
153,806,52,0.138098597773782,1
127,781,53,0.106228498278817,1
127,782,53,0.115511422100538,1
127,783,53,0.158549813630844,1
127,784,53,0.150218538788305,1
128,781,53,0.106283638235008,1
128,782,53,0.114735933408103,1
128,783,53,0.165414498532331,1
128,784,53,0.176402196862875,1
128,785,53,0.118398568506772,1
129,782,53,0.100385732577252,1
129,783,53,0.11680383426611,1
129,784,53,0.120197250870657,1
129,816,53,0.111928730134718,1
129,817,53,0.114261056602469,1
130,782,53,0.101673471680555,1
130,816,53,0.140309794981785,1
130,817,53,0.134095624312566,1
131,781,53,0.10128477965038,1
131,782,53,0.111683160167836,1
131,816,53,0.109436147042022,1
131,817,53,0.104157275080503,1
132,782,53,0.103894581444887,1
141,790,53,0.105296935842349,1
152,803,53,0.101508106276579,1
152,805,53,0.125387574293284,1
152,806,53,0.144366612141826,1
152,807,53,0.105733818146365,1
153,804,53,0.101440831608576,1
153,805,53,0.126889664257494,1
153,806,53,0.132567718130226,1
126,783,54,0.102087010459064,1
127,782,54,0.120972499918873,1
127,783,54,0.175576622528685,1
127,784,54,0.149460816446827,1
128,781,54,0.101662186616427,1
128,782,54,0.126527899523192,1
128,783,54,0.18731303475666,1
128,784,54,0.179817976630215,1
128,785,54,0.114682372925174,1
128,815,54,0.100522809070476,1
128,816,54,0.104924158366895,1
128,817,54,0.105605303487508,1
129,780,54,0.102198564842973,1
129,781,54,0.109144282169212,1
129,782,54,0.114480015168131,1
129,783,54,0.129324111841263,1
129,784,54,0.122226449187307,1
129,816,54,0.101862311325066,1
130,781,54,0.108391407176708,1
130,782,54,0.107589307083053,1
130,816,54,0.128529691255533,1
130,817,54,0.115659195440261,1
131,779,54,0.0998652144408322,1
131,781,54,0.104291279770557,1
131,782,54,0.103400718281362,1
131,816,54,0.103336101485605,1
132,779,54,0.113806495090848,1
132,780,54,0.10015347375744,1
134,792,54,0.113146220803119,1
135,791,54,0.102482488777801,1
135,792,54,0.101464676208358,1
140,790,54,0.108336517757656,1
141,789,54,0.130933976346475,1
141,790,54,0.175777531527495,1
141,791,54,0.109769045540864,1
142,790,54,0.134820602539403,1
152,805,54,0.10753033281936,1
152,806,54,0.119390063783809,1
153,805,54,0.117207536738724,1
126,783,55,0.10548520905507,1
127,782,55,0.127368636800689,1
127,783,55,0.173459463890771,1
127,784,55,0.141576467179661,1
128,781,55,0.107347331779455,1
128,782,55,0.144405892007891,1
128,783,55,0.195947677394518,1
128,784,55,0.17258477338462,1
128,785,55,0.106929675477548,1
129,780,55,0.110257897961629,1
129,781,55,0.129037301282888,1
129,782,55,0.138580990693555,1
129,783,55,0.14413189152231,1
129,784,55,0.122973953970724,1
129,813,55,0.106417272565814,1
130,780,55,0.109497169174496,1
130,781,55,0.124748573876445,1
130,782,55,0.116124878622224,1
130,816,55,0.103080237710229,1
131,779,55,0.109453946071737,1
131,780,55,0.106827467218178,1
131,781,55,0.107057438524991,1
132,778,55,0.103255232454638,1
132,779,55,0.119305142586958,1
132,780,55,0.102899774720461,1
133,779,55,0.106114100843039,1
133,780,55,0.0997051429955105,1
133,792,55,0.111089768403025,1
134,791,55,0.118674170251452,1
134,792,55,0.127013571211597,1
135,791,55,0.131789920138954,1
135,792,55,0.110788437583568,1
136,791,55,0.1126511594185,1
137,790,55,0.115893284270473,1
138,790,55,0.108194092841182,1
139,784,55,0.105931241411081,1
139,785,55,0.104421580868137,1
139,788,55,0.101550741161709,1
140,789,55,0.110715661991448,1
140,790,55,0.139878849318647,1
141,789,55,0.148402057394706,1
141,790,55,0.218397896396647,1
141,791,55,0.131924556618312,1
142,789,55,0.103586235585566,1
142,790,55,0.154292272651617,1
153,805,55,0.102509154643616,1
127,782,56,0.124143777225397,1
127,783,56,0.149517568555036,1
127,784,56,0.122843848945687,1
128,781,56,0.119186082981829,1
128,782,56,0.163971339260137,1
128,783,56,0.188384614774494,1
128,784,56,0.15384358242336,1
129,780,56,0.113631979634876,1
129,781,56,0.155411661691126,1
129,782,56,0.177820596530086,1
129,783,56,0.161752397186695,1
129,784,56,0.120041547485871,1
129,813,56,0.100709481024098,1
130,780,56,0.11605807234974,1
130,781,56,0.139179643738263,1
130,782,56,0.131483491433384,1
130,783,56,0.100445872383283,1
131,779,56,0.104248514170398,1
131,780,56,0.107898034194541,1
131,781,56,0.105858204388905,1
132,779,56,0.107686864065993,1
132,792,56,0.108802309868809,1
133,779,56,0.103497055257369,1
133,780,56,0.100321878285828,1
133,792,56,0.122888444556244,1
133,820,56,0.1084060472599,1
134,791,56,0.128529636790938,1
134,792,56,0.128353934006791,1
135,791,56,0.148182859184824,1
135,792,56,0.111923893678664,1
136,790,56,0.116355928328023,1
136,791,56,0.126223148327155,1
137,790,56,0.12678045185118,1
137,791,56,0.103155028492371,1
138,788,56,0.100941554664287,1
138,789,56,0.114444471573297,1
138,790,56,0.126685215059996,1
139,786,56,0.128003138441964,1
139,787,56,0.132986267651494,1
139,788,56,0.132655874524033,1
139,789,56,0.134314365019847,1
139,790,56,0.146667196643488,1
139,791,56,0.104704077830571,1
140,788,56,0.10155163438107,1
140,789,56,0.142296510914172,1
140,790,56,0.195573157052017,1
140,791,56,0.132690317934043,1
141,789,56,0.154439806347122,1
141,790,56,0.237339462603684,1
141,791,56,0.152687745676737,1
142,789,56,0.103489125212307,1
142,790,56,0.154210347007503,1
142,791,56,0.103770140737751,1
127,782,57,0.117958559934991,1
127,783,57,0.12317706333918,1
127,784,57,0.102424887021907,1
128,781,57,0.128265908328013,1
128,782,57,0.177343552033563,1
128,783,57,0.173474615941158,1
128,784,57,0.135413231799881,1
129,780,57,0.112903058171345,1
129,781,57,0.174661911437975,1
129,782,57,0.214885060720643,1
129,783,57,0.175855753579135,1
129,784,57,0.121004862781347,1
130,780,57,0.123630252343002,1
130,781,57,0.153014522355076,1
130,782,57,0.152095149095016,1
130,783,57,0.113297044160174,1
131,779,57,0.107612628822722,1
131,780,57,0.121054469134664,1
131,781,57,0.113679494547737,1
132,779,57,0.108358554132877,1
132,780,57,0.111414584355938,1
132,792,57,0.119001665862449,1
132,793,57,0.100948852920045,1
133,779,57,0.110486148187234,1
133,780,57,0.109036954237892,1
133,791,57,0.101426333133331,1
133,792,57,0.125222350497256,1
133,793,57,0.107038768061754,1
133,820,57,0.115824408343371,1
134,779,57,0.113187494073369,1
134,780,57,0.108519725763022,1
134,791,57,0.123888501667649,1
134,792,57,0.119105377344647,1
135,779,57,0.102113109893088,1
135,790,57,0.107599905893281,1
135,791,57,0.145139127067362,1
135,792,57,0.106445169331481,1
136,790,57,0.122889032773873,1
136,791,57,0.130983016268002,1
137,790,57,0.125077158779345,1
137,791,57,0.105677240324861,1
138,783,57,0.105584530690895,1
138,788,57,0.106176103338225,1
138,789,57,0.121352205290838,1
138,790,57,0.130144446681394,1
139,787,57,0.150848933799101,1
139,788,57,0.149893515869931,1
139,789,57,0.160203696421904,1
139,790,57,0.182222305292833,1
139,791,57,0.122652634644824,1
140,787,57,0.113825274483276,1
140,788,57,0.117072943831041,1
140,789,57,0.170260573034475,1
140,790,57,0.239610570866418,1
140,791,57,0.162107430097029,1
141,789,57,0.141830119692472,1
141,790,57,0.216589541120653,1
141,791,57,0.152468046392579,1
142,790,57,0.127410552753162,1
142,791,57,0.0998394309014598,1
127,783,58,0.102008799300342,1
128,781,58,0.130184870303959,1
128,782,58,0.172386402435947,1
128,783,58,0.151255915040347,1
128,784,58,0.115408331514725,1
129,780,58,0.107406916046615,1
129,781,58,0.168628181972685,1
129,782,58,0.218091478583996,1
129,783,58,0.171336433969493,1
129,784,58,0.116045044418566,1
130,779,58,0.104836949657045,1
130,780,58,0.124481708252836,1
130,781,58,0.1477519788792,1
130,782,58,0.154575913370551,1
130,783,58,0.116338020369118,1
131,778,58,0.102819450335445,1
131,779,58,0.120077319832005,1
131,780,58,0.135644009182704,1
131,781,58,0.11785135182578,1
132,778,58,0.1048858915423,1
132,779,58,0.121414970290357,1
132,780,58,0.129516382755273,1
132,791,58,0.104637750846525,1
132,792,58,0.125875380993821,1
132,793,58,0.110390105320041,1
133,778,58,0.102707078982608,1
133,779,58,0.120523570046397,1
133,780,58,0.116949156699048,1
133,791,58,0.105136755467837,1
133,792,58,0.120271170219275,1
133,793,58,0.107690741945172,1
133,820,58,0.10520243976966,1
134,779,58,0.120461894338781,1
134,780,58,0.11355246132587,1
134,791,58,0.112139954727861,1
134,792,58,0.102701654308925,1
135,780,58,0.108444314084495,1
135,790,58,0.121045101224288,1
135,791,58,0.128413398451841,1
136,790,58,0.125938505459669,1
136,791,58,0.125800720926708,1
137,789,58,0.101884739845374,1
137,790,58,0.121887668512183,1
137,791,58,0.112624341051819,1
138,788,58,0.106260937391724,1
138,789,58,0.122002392735533,1
138,790,58,0.130079862564394,1
138,791,58,0.103402918651009,1
139,787,58,0.143282701339636,1
139,788,58,0.147710291678027,1
139,789,58,0.170119771162939,1
139,790,58,0.203974190148101,1
139,791,58,0.131733669105021,1
140,788,58,0.12546368311863,1
140,789,58,0.194701266026061,1
140,790,58,0.283762578189141,1
140,791,58,0.181529210640031,1
141,789,58,0.130523356870269,1
141,790,58,0.201261374018215,1
141,791,58,0.145213318738957,1
142,790,58,0.103236093595881,1
148,794,58,0.108169529308742,1
128,783,59,0.139715640712642,1
129,781,59,0.152839756361967,1
129,782,59,0.202442994304211,1
129,783,59,0.165011700171997,1
130,780,59,0.120497732042429,1
130,781,59,0.13727997312194,1
130,782,59,0.153512644649946,1
131,779,59,0.121653710397,1
131,780,59,0.136564765843483,1
131,781,59,0.118192931981098,1
131,792,59,0.100316039681222,1
132,778,59,0.109648558963341,1
132,779,59,0.123693747168097,1
132,780,59,0.133552405332862,1
132,791,59,0.111682419449341,1
132,792,59,0.130401083854023,1
132,793,59,0.116285832393988,1
133,780,59,0.114573367484321,1
133,790,59,0.107274882974907,1
133,791,59,0.111284174329167,1
133,792,59,0.11224911266958,1
133,793,59,0.101056376923909,1
134,780,59,0.113862963983161,1
134,790,59,0.119990764697297,1
134,791,59,0.10648532063107,1
135,789,59,0.110252070249942,1
135,790,59,0.141313838901559,1
135,791,59,0.114139655019746,1
136,789,59,0.106713309426618,1
136,790,59,0.127745749657921,1
136,791,59,0.115023430220377,1
137,789,59,0.104271106084491,1
137,790,59,0.118568105898741,1
137,791,59,0.119541126785083,1
138,788,59,0.107438331225132,1
138,789,59,0.12713269617424,1
138,790,59,0.135337210117887,1
138,791,59,0.118807989761883,1
139,787,59,0.121442856163105,1
139,788,59,0.138515382642165,1
139,789,59,0.177138983013955,1
139,790,59,0.216118204513707,1
139,791,59,0.138156907569413,1
140,788,59,0.129492864943061,1
140,789,59,0.215031134764996,1
140,790,59,0.315377380340519,1
140,791,59,0.187411484958961,1
141,789,59,0.134156613766282,1
141,790,59,0.206410064704264,1
141,791,59,0.139707089771194,1
148,794,59,0.111672376177985,1
131,792,60,0.101169412744807,1
132,790,60,0.103780674190465,1
132,791,60,0.114746848112983,1
132,792,60,0.124529234058616,1
132,793,60,0.116389870663758,1
133,790,60,0.120005470138004,1
133,791,60,0.117004405584429,1
133,792,60,0.102168946996097,1
134,790,60,0.130508531607453,1
134,791,60,0.105844326810045,1
135,789,60,0.130856320726624,1
135,790,60,0.1503482189895,1
135,791,60,0.105212341433069,1
136,789,60,0.11978106511282,1
136,790,60,0.126438032941096,1
136,791,60,0.10545110332555,1
137,789,60,0.108898461665192,1
137,790,60,0.118802281872305,1
137,791,60,0.124576759864396,1
137,792,60,0.115751948645904,1
138,788,60,0.111330403877581,1
138,789,60,0.139664487564821,1
138,790,60,0.149458550719666,1
138,791,60,0.13617299111722,1
138,792,60,0.107855573596115,1
139,787,60,0.104769119450171,1
139,788,60,0.137727007626503,1
139,789,60,0.19097941701948,1
139,790,60,0.221062173679282,1
139,791,60,0.144524668397125,1
140,787,60,0.107514265763773,1
140,788,60,0.138807127692866,1
140,789,60,0.227508254594905,1
140,790,60,0.307770724258489,1
140,791,60,0.177572041903387,1
141,788,60,0.106885297725371,1
141,789,60,0.153804193628104,1
141,790,60,0.213466737303865,1
141,791,60,0.13980991892695,1
142,790,60,0.101381040375954,1
132,790,61,0.110322569221981,1
132,791,61,0.119263215741565,1
132,792,61,0.115820955288035,1
132,793,61,0.111774475508165,1
133,790,61,0.124545845760155,1
133,791,61,0.125672489483746,1
134,789,61,0.102898587392285,1
134,790,61,0.127887237783357,1
134,791,61,0.109955924459948,1
135,789,61,0.139783884850439,1
135,790,61,0.143903129329509,1
135,791,61,0.1037125063031,1
136,788,61,0.121698131720853,1
136,789,61,0.12861443816568,1
136,790,61,0.120495542565702,1
136,791,61,0.101481625590388,1
137,788,61,0.102545743958678,1
137,789,61,0.110650979838177,1
137,790,61,0.118439819991184,1
137,791,61,0.124148602788533,1
137,792,61,0.124471109442608,1
138,788,61,0.108368880620129,1
138,789,61,0.147522497753744,1
138,790,61,0.166449805129755,1
138,791,61,0.15090170999186,1
138,792,61,0.124686081199901,1
139,788,61,0.13709794155183,1
139,789,61,0.204657045457003,1
139,790,61,0.223497329302788,1
139,791,61,0.154914933689894,1
140,787,61,0.107624632819506,1
140,788,61,0.153122035466021,1
140,789,61,0.230353615763694,1
140,790,61,0.260723400840251,1
140,791,61,0.161170660845259,1
141,788,61,0.138542320830956,1
141,789,61,0.179872626405049,1
141,790,61,0.202110738487593,1
141,791,61,0.145353652214975,1
142,789,61,0.105845971640821,1
142,790,61,0.117736769210377,1
142,791,61,0.116120107523684,1
132,791,62,0.120735491786358,1
132,792,62,0.107327550238475,1
132,793,62,0.10183702885997,1
133,790,62,0.123243880504583,1
133,791,62,0.133074990477091,1
133,792,62,0.101924869359124,1
134,789,62,0.108397365603424,1
134,790,62,0.120360339654553,1
134,791,62,0.11393290741633,1
135,789,62,0.133961902838407,1
135,790,62,0.124655787992045,1
135,791,62,0.0999340141175012,1
136,789,62,0.128959809056824,1
136,790,62,0.109434513104166,1
137,789,62,0.11156782594102,1
137,790,62,0.116096883820286,1
137,791,62,0.119922302701118,1
137,792,62,0.121522799295954,1
138,788,62,0.101724526792104,1
138,789,62,0.146973538205705,1
138,790,62,0.17576644253591,1
138,791,62,0.160195091015861,1
138,792,62,0.132205256249105,1
139,788,62,0.13581039852107,1
139,789,62,0.210621354349239,1
139,790,62,0.22790103146972,1
139,791,62,0.174076014001465,1
139,792,62,0.118104383442206,1
140,788,62,0.175107584327657,1
140,789,62,0.23311884862001,1
140,790,62,0.216050210913047,1
140,791,62,0.157813147301874,1
140,792,62,0.105260586171506,1
141,788,62,0.185667615763696,1
141,789,62,0.213469351604435,1
141,790,62,0.187865741468849,1
141,791,62,0.1594592307629,1
141,792,62,0.113922798787459,1
142,789,62,0.135309531210602,1
142,790,62,0.13512092031739,1
142,791,62,0.139964870700322,1
142,792,62,0.106938128382725,1
143,791,62,0.102601635526282,1
150,806,62,0.106677264757508,1
132,791,63,0.115857250494282,1
132,792,63,0.100783291443527,1
133,790,63,0.114420038755886,1
133,791,63,0.128778943029051,1
133,792,63,0.104134073162943,1
134,790,63,0.107368355113206,1
134,791,63,0.108237174335993,1
135,789,63,0.117820818973705,1
135,790,63,0.102051662936773,1
136,789,63,0.121910739714714,1
137,789,63,0.116118593407937,1
137,790,63,0.114413688184085,1
137,791,63,0.111804518178883,1
137,792,63,0.113492397770273,1
138,788,63,0.100068498095993,1
138,789,63,0.14424820611184,1
138,790,63,0.175271838653891,1
138,791,63,0.16188752384741,1
138,792,63,0.137442844047456,1
139,788,63,0.131444146209805,1
139,789,63,0.200373775403,1
139,790,63,0.223595866648442,1
139,791,63,0.190605528466283,1
139,792,63,0.14488117185153,1
140,788,63,0.193880223146192,1
140,789,63,0.231690590861066,1
140,790,63,0.190589450517777,1
140,791,63,0.163707109722937,1
140,792,63,0.139343004845135,1
141,788,63,0.231045011121125,1
141,789,63,0.236462844050863,1
141,790,63,0.173338683204433,1
141,791,63,0.166684623785542,1
141,792,63,0.144318149545008,1
142,788,63,0.151371325517597,1
142,789,63,0.157911063751142,1
142,790,63,0.14573085221556,1
142,791,63,0.15778636161395,1
142,792,63,0.125786549239034,1
143,790,63,0.104168810681768,1
143,791,63,0.118292090223137,1
143,792,63,0.10031992845332,1
150,806,63,0.100465871782644,1
132,792,64,0.102143239707158,1
133,791,64,0.121202601940715,1
133,792,64,0.10927278593515,1
134,790,64,0.103614230387504,1
134,791,64,0.104870053238013,1
134,794,64,0.113060003348902,1
134,795,64,0.125581882183155,1
135,794,64,0.121698970475619,1
135,795,64,0.131804375042522,1
137,789,64,0.125510141418344,1
137,790,64,0.117119543738703,1
137,791,64,0.106423753852644,1
137,792,64,0.109180032729508,1
137,793,64,0.105879990226989,1
138,789,64,0.139703658501695,1
138,790,64,0.164653726173521,1
138,791,64,0.159906101873678,1
138,792,64,0.148410847980373,1
138,793,64,0.11808625762492,1
139,788,64,0.121611968731231,1
139,789,64,0.177258663515469,1
139,790,64,0.203157874795096,1
139,791,64,0.203235868095437,1
139,792,64,0.18449191033274,1
139,793,64,0.127269794453302,1
140,788,64,0.190877001794647,1
140,789,64,0.219383945214163,1
140,790,64,0.179753599478677,1
140,791,64,0.179940696256142,1
140,792,64,0.185758048777582,1
140,793,64,0.129198342198005,1
141,788,64,0.242926593281172,1
141,789,64,0.23559920985754,1
141,790,64,0.164236124336209,1
141,791,64,0.171037161911734,1
141,792,64,0.17594564194707,1
141,793,64,0.125307162764916,1
142,789,64,0.163562626044764,1
142,790,64,0.149075860687884,1
142,791,64,0.173734270452361,1
142,792,64,0.155104023871543,1
142,793,64,0.112371200506203,1
143,790,64,0.118144502063037,1
143,791,64,0.143565307231261,1
143,792,64,0.128290678825914,1
143,793,64,0.100984102406065,1
144,792,64,0.100173516728477,1
132,792,65,0.100071297576187,1
133,791,65,0.110707514088005,1
133,792,65,0.111021349978523,1
133,793,65,0.104945541166974,1
133,794,65,0.110004920809798,1
133,795,65,0.105148051424883,1
134,791,65,0.104057299869536,1
134,792,65,0.11046573485695,1
134,793,65,0.119699596971305,1
134,794,65,0.145081873884878,1
134,795,65,0.151474764676819,1
134,796,65,0.116843931101103,1
135,793,65,0.110553640713618,1
135,794,65,0.136126184244097,1
135,795,65,0.149243785927835,1
135,796,65,0.116886544200395,1
136,793,65,0.10618446910005,1
136,794,65,0.114011380005108,1
136,795,65,0.112334295296489,1
137,789,65,0.130214270292453,1
137,790,65,0.121940172381965,1
137,791,65,0.105514685293998,1
137,792,65,0.109318699588912,1
137,793,65,0.120208448791432,1
137,794,65,0.111111935493276,1
138,789,65,0.132009412457649,1
138,790,65,0.144879363626969,1
138,791,65,0.144599982039381,1
138,792,65,0.152253521244967,1
138,793,65,0.141320015186656,1
138,794,65,0.104629417763457,1
139,789,65,0.148945777448685,1
139,790,65,0.171935827732695,1
139,791,65,0.197027187457414,1
139,792,65,0.216009035679069,1
139,793,65,0.169782395674371,1
140,789,65,0.19383249037495,1
140,790,65,0.17968444033568,1
140,791,65,0.203705723265393,1
140,792,65,0.237673221643129,1
140,793,65,0.181848079059147,1
141,789,65,0.213733243461146,1
141,790,65,0.16977308222859,1
141,791,65,0.184683854459178,1
141,792,65,0.210882196188617,1
141,793,65,0.163795843441452,1
142,789,65,0.16246353051343,1
142,790,65,0.153813724932266,1
142,791,65,0.185458036001329,1
142,792,65,0.192411269441707,1
142,793,65,0.144317387040675,1
143,790,65,0.130526287065491,1
143,791,65,0.165667388540809,1
143,792,65,0.169086752078514,1
143,793,65,0.12999747941768,1
144,791,65,0.107850846069251,1
144,792,65,0.118851474294698,1
144,793,65,0.115202575166941,1
145,793,65,0.103905104004681,1
133,792,66,0.110357350312482,1
133,793,66,0.126955653561051,1
133,794,66,0.141085425282168,1
133,795,66,0.115864385356255,1
134,791,66,0.0999525756515487,1
134,792,66,0.118431377978926,1
134,793,66,0.147860646639563,1
134,794,66,0.174224059664164,1
134,795,66,0.15827618350451,1
134,796,66,0.133686475380431,1
134,797,66,0.100881589144961,1
135,792,66,0.106933694964675,1
135,793,66,0.122756563985403,1
135,794,66,0.139978857208372,1
135,795,66,0.144441740604458,1
135,796,66,0.13034313352472,1
136,793,66,0.110030900421714,1
136,794,66,0.12036798648372,1
136,795,66,0.122443871851385,1
137,790,66,0.117745690511073,1
137,791,66,0.102258715541922,1
137,792,66,0.10464098604348,1
137,793,66,0.12173341388563,1
137,794,66,0.12898895850818,1
137,795,66,0.117295649560854,1
138,790,66,0.123056892656309,1
138,791,66,0.122947603999561,1
138,792,66,0.14121297047123,1
138,793,66,0.147631209085782,1
138,794,66,0.124517654885674,1
139,789,66,0.123046522597381,1
139,790,66,0.138874838077631,1
139,791,66,0.171268963228947,1
139,792,66,0.211747072174711,1
139,793,66,0.192055964208397,1
139,794,66,0.125426004511664,1
140,789,66,0.154953788732117,1
140,790,66,0.171067433333751,1
140,791,66,0.212165578124303,1
140,792,66,0.252549419748678,1
140,793,66,0.212968625901915,1
140,794,66,0.129146023507846,1
141,789,66,0.176338288106856,1
141,790,66,0.178812276986747,1
141,791,66,0.202768496511022,1
141,792,66,0.223702290467482,1
141,793,66,0.181265743607163,1
141,794,66,0.114554871307787,1
142,790,66,0.156153905194646,1
142,791,66,0.186837972771402,1
142,792,66,0.21231683719812,1
142,793,66,0.16127809770577,1
142,794,66,0.104301323041914,1
143,790,66,0.129557982813094,1
143,791,66,0.165510269076547,1
143,792,66,0.198638925544701,1
143,793,66,0.15442674573719,1
143,794,66,0.10870610360783,1
144,791,66,0.107243260830928,1
144,792,66,0.132320895477654,1
144,793,66,0.137322292112418,1
144,794,66,0.126659997952414,1
145,793,66,0.123835649224457,1
145,794,66,0.130779710827002,1
150,802,66,0.10320688967993,1
132,794,67,0.104573744054234,1
133,793,67,0.141035241604142,1
133,794,67,0.166895957307875,1
133,795,67,0.129511927551385,1
133,796,67,0.10766017641434,1
134,792,67,0.118418774871595,1
134,793,67,0.15619513489322,1
134,794,67,0.180041640936904,1
134,795,67,0.149624950950951,1
134,796,67,0.142911710302905,1
134,797,67,0.114908041528966,1
135,792,67,0.111745129984266,1
135,793,67,0.130176951151815,1
135,794,67,0.137913243863364,1
135,795,67,0.130610010041248,1
135,796,67,0.132277160407701,1
135,797,67,0.105456059603714,1
136,792,67,0.102322286617451,1
136,793,67,0.11569934673985,1
136,794,67,0.12650983906342,1
136,795,67,0.128118919278461,1
136,796,67,0.10894397228095,1
137,790,67,0.111138220106924,1
137,791,67,0.105561056450359,1
137,792,67,0.10198460612715,1
137,793,67,0.118079144548785,1
137,794,67,0.137759207095191,1
137,795,67,0.135109624360344,1
138,790,67,0.113437453886625,1
138,791,67,0.112760927363686,1
138,792,67,0.125169813948716,1
138,793,67,0.142042150361624,1
138,794,67,0.139822914179367,1
138,795,67,0.114495254361871,1
139,790,67,0.118710105991372,1
139,791,67,0.143825168707926,1
139,792,67,0.18256889619091,1
139,793,67,0.194116839133621,1
139,794,67,0.155121997187963,1
140,789,67,0.122608169749295,1
140,790,67,0.151947473791564,1
140,791,67,0.198482546798934,1
140,792,67,0.229857944375608,1
140,793,67,0.215782506534672,1
140,794,67,0.157440304468906,1
141,790,67,0.175825710908418,1
141,791,67,0.209750857616919,1
141,792,67,0.213186222852697,1
141,793,67,0.175829468965487,1
141,794,67,0.125523910068013,1
142,790,67,0.151608017755459,1
142,791,67,0.177244252183576,1
142,792,67,0.203463660818442,1
142,793,67,0.157319578247164,1
142,794,67,0.108198330186689,1
143,790,67,0.119569317659564,1
143,791,67,0.148641527326924,1
143,792,67,0.200224847413858,1
143,793,67,0.163377980174084,1
143,794,67,0.122494491246173,1
144,791,67,0.102806411511352,1
144,792,67,0.140725828238755,1
144,793,67,0.152369334760221,1
144,794,67,0.150514270647375,1
144,795,67,0.106858196142795,1
145,793,67,0.132458244293854,1
145,794,67,0.147067881777527,1
150,802,67,0.112421242576281,1
132,794,68,0.112633186102081,1
133,793,68,0.147172279513625,1
133,794,68,0.17507503628556,1
133,795,68,0.14450027915139,1
133,796,68,0.118949172885586,1
134,792,68,0.11685362579905,1
134,793,68,0.156940526450342,1
134,794,68,0.175685911185433,1
134,795,68,0.149357322823009,1
134,796,68,0.145603524884878,1
134,797,68,0.118929696346339,1
135,792,68,0.115890626398227,1
135,793,68,0.142074469652421,1
135,794,68,0.147484601288397,1
135,795,68,0.134003873255475,1
135,796,68,0.133447506522488,1
135,797,68,0.110194925996647,1
136,791,68,0.104323174237512,1
136,792,68,0.106230535254678,1
136,793,68,0.123851280563282,1
136,794,68,0.138207581428796,1
136,795,68,0.137320777996671,1
136,796,68,0.119257333565283,1
137,791,68,0.10853987766325,1
137,792,68,0.10048876869847,1
137,793,68,0.115151160589063,1
137,794,68,0.141043030041257,1
137,795,68,0.142592112058214,1
137,796,68,0.106657559466961,1
138,791,68,0.105775614276729,1
138,792,68,0.111202096184186,1
138,793,68,0.133798302087315,1
138,794,68,0.14995776230644,1
138,795,68,0.128334076215377,1
139,790,68,0.106838991926524,1
139,791,68,0.12241425400451,1
139,792,68,0.152340610132707,1
139,793,68,0.185033952877187,1
139,794,68,0.178205486931515,1
139,795,68,0.117533180553483,1
140,790,68,0.134298396000532,1
140,791,68,0.174146436723071,1
140,792,68,0.194941825250183,1
140,793,68,0.204079786105294,1
140,794,68,0.177337648071442,1
140,795,68,0.107906824780207,1
141,790,68,0.166171534619909,1
141,791,68,0.203441134261864,1
141,792,68,0.194604841906701,1
141,793,68,0.168136039890369,1
141,794,68,0.135383875383063,1
142,791,68,0.168047534923153,1
142,792,68,0.181885496236056,1
142,793,68,0.152258542880645,1
142,794,68,0.113593081020977,1
143,791,68,0.130050146681248,1
143,792,68,0.176206614501477,1
143,793,68,0.164704280210795,1
143,794,68,0.132191629207383,1
143,795,68,0.105896678178961,1
144,792,68,0.134522212808087,1
144,793,68,0.159692971019703,1
144,794,68,0.160290883345916,1
144,795,68,0.127216517186268,1
145,793,68,0.129743184222646,1
145,794,68,0.145089891073293,1
145,795,68,0.109186067406657,1
150,802,68,0.101987470964858,1
132,795,69,0.106607190609311,1
133,794,69,0.16539085000509,1
133,795,69,0.15717499653272,1
133,796,69,0.128706657618289,1
134,793,69,0.149727703856274,1
134,794,69,0.159808185424409,1
134,795,69,0.153437494401476,1
134,796,69,0.141651312426398,1
134,797,69,0.11447730283129,1
135,792,69,0.115960591617233,1
135,793,69,0.148992246641318,1
135,794,69,0.154876122219348,1
135,795,69,0.143329824107412,1
135,796,69,0.131190112444827,1
135,797,69,0.110631220083035,1
136,792,69,0.105267198173364,1
136,793,69,0.128983719014121,1
136,794,69,0.146451440596024,1
136,795,69,0.140997846213071,1
136,796,69,0.124687780495272,1
136,797,69,0.100335984615988,1
137,793,69,0.113062889972448,1
137,794,69,0.138039002613703,1
137,795,69,0.135677853482168,1
137,796,69,0.115163567623852,1
138,791,69,0.103339510969266,1
138,792,69,0.103936878649527,1
138,793,69,0.128118886599704,1
138,794,69,0.152861596664646,1
138,795,69,0.133092843971401,1
138,796,69,0.103049508785611,1
139,791,69,0.112941858748973,1
139,792,69,0.132245516477884,1
139,793,69,0.173211083550776,1
139,794,69,0.187900969169031,1
139,795,69,0.134928507795433,1
140,791,69,0.150149837147907,1
140,792,69,0.167115220875271,1
140,793,69,0.192417652692266,1
140,794,69,0.187873649728074,1
140,795,69,0.130284987122874,1
141,791,69,0.177506324922807,1
141,792,69,0.176156910111889,1
141,793,69,0.167930958903566,1
141,794,69,0.148784878141516,1
141,795,69,0.117538256653757,1
142,791,69,0.15236809296745,1
142,792,69,0.161735709234722,1
142,793,69,0.152388484511897,1
142,794,69,0.124582685612355,1
142,795,69,0.104306856644787,1
143,792,69,0.145878865199502,1
143,793,69,0.159810549187841,1
143,794,69,0.138518258372792,1
143,795,69,0.11668125624813,1
144,792,69,0.119301460780322,1
144,793,69,0.1545280607772,1
144,794,69,0.156405324659053,1
144,795,69,0.136600897655945,1
145,793,69,0.120168961959905,1
145,794,69,0.13359211002277,1
145,795,69,0.117392585647409,1
133,795,70,0.151521931016271,1
133,796,70,0.126621633091548,1
134,794,70,0.149482515141559,1
134,795,70,0.152191834644432,1
134,796,70,0.134796224186587,1
134,797,70,0.109477344061839,1
135,793,70,0.144322844393115,1
135,794,70,0.154366976290407,1
135,795,70,0.147021957230846,1
135,796,70,0.129113148678178,1
135,797,70,0.110684192348336,1
136,793,70,0.128439704851327,1
136,794,70,0.145297913148237,1
136,795,70,0.140157239650603,1
136,796,70,0.126799351065718,1
136,797,70,0.10852202416894,1
137,793,70,0.112211684599752,1
137,794,70,0.131384638193079,1
137,795,70,0.129961565463599,1
137,796,70,0.121150272357638,1
137,797,70,0.0998108478818937,1
138,792,70,0.10214492810961,1
138,793,70,0.122025115364655,1
138,794,70,0.143982211921754,1
138,795,70,0.132847470077062,1
138,796,70,0.114945687457175,1
139,792,70,0.119549296474365,1
139,793,70,0.154556763618875,1
139,794,70,0.17516781127704,1
139,795,70,0.143000759916073,1
139,796,70,0.105692686484062,1
140,792,70,0.144164842602411,1
140,793,70,0.173901531224251,1
140,794,70,0.181386796616477,1
140,795,70,0.144448810108916,1
141,792,70,0.155553988571329,1
141,793,70,0.163701695942173,1
141,794,70,0.156620263737589,1
141,795,70,0.133713925536416,1
142,792,70,0.144791621164086,1
142,793,70,0.149928634640922,1
142,794,70,0.135612441503321,1
142,795,70,0.117684711950276,1
143,793,70,0.146725920370043,1
143,794,70,0.137877177408416,1
143,795,70,0.119953510914174,1
144,793,70,0.135411630540782,1
144,794,70,0.140518394381439,1
144,795,70,0.130846538885325,1
144,796,70,0.105452138152859,1
145,794,70,0.120144845037146,1
145,795,70,0.116955431020417,1
