x,y,z,signal,mito.p
617,637,19,0.231368748675052,1
615,633,20,0.113507582499417,1
615,634,20,0.140932281733357,1
616,633,20,0.115240362703098,1
616,634,20,0.153605986073217,1
616,635,20,0.183199803168902,1
616,637,20,0.234833459434728,1
617,634,20,0.107747592089652,1
617,635,20,0.139766837432139,1
617,636,20,0.211187873282773,1
617,637,20,0.269114782810064,1
617,638,20,0.197597627841804,1
618,636,20,0.132495868436225,1
618,637,20,0.188697154407646,1
614,634,21,0.101336586373344,1
615,633,21,0.11745158169694,1
615,634,21,0.154251968851162,1
615,635,21,0.161361079963031,1
615,636,21,0.147551505597152,1
615,637,21,0.136384030530739,1
616,632,21,0.099820259363946,1
616,633,21,0.112900552799966,1
616,634,21,0.165985494455591,1
616,635,21,0.205025661837383,1
616,636,21,0.223632183640528,1
616,637,21,0.228613515518416,1
617,634,21,0.106726413608225,1
617,635,21,0.140637617380353,1
617,636,21,0.200017468021137,1
617,637,21,0.257158649512094,1
617,638,21,0.182945344580081,1
618,636,21,0.114261655713016,1
618,637,21,0.167094970938772,1
618,638,21,0.153846795834477,1
619,638,21,0.1404458366477,1
620,638,21,0.145616694424,1
614,633,22,0.10786881938567,1
614,634,22,0.109199280517455,1
615,633,22,0.103818668692083,1
615,634,22,0.137869879152657,1
615,635,22,0.145222643077657,1
615,636,22,0.125865827903822,1
615,637,22,0.115061533651186,1
616,634,22,0.137960726097467,1
616,635,22,0.176185395095183,1
616,636,22,0.180712252604803,1
616,637,22,0.183261969057874,1
616,638,22,0.126854316735203,1
617,635,22,0.11287492176146,1
617,636,22,0.152745783149392,1
617,637,22,0.198208677028381,1
617,638,22,0.14493517894414,1
618,637,22,0.124983065744661,1
618,638,22,0.117044589562775,1
619,638,22,0.106885570048347,1
619,639,22,0.107118645837088,1
620,638,22,0.121672762112404,1
620,639,22,0.11901700309246,1
633,628,22,0.133317826321293,1
613,633,23,0.102490821860868,1
614,633,23,0.107045412742369,1
614,634,23,0.110580764082033,1
615,634,23,0.114215916345959,1
615,635,23,0.124310874603501,1
615,636,23,0.109207613600522,1
615,637,23,0.100066504691809,1
616,634,23,0.101285444118442,1
616,635,23,0.134385898819196,1
616,636,23,0.135321753065767,1
616,637,23,0.138017303918971,1
616,638,23,0.105335431418243,1
617,636,23,0.106688364642012,1
617,637,23,0.134756944320522,1
617,638,23,0.110102510471495,1
633,628,23,0.116478092415079,1
633,629,23,0.1049500181567,1
634,627,23,0.107504679995016,1
607,622,24,0.155873053062987,1
608,622,24,0.184026161793263,1
608,623,24,0.18171512008932,1
609,631,24,0.100022246761741,1
610,631,24,0.109568877260549,1
610,632,24,0.104145445370423,1
613,638,24,0.1003676830104,1
634,628,24,0.110310957370282,1
634,629,24,0.114653158116303,1
606,622,25,0.162285954147208,1
607,621,25,0.218540332206039,1
607,622,25,0.232935607935886,1
607,623,25,0.17595576146886,1
608,621,25,0.188009375499337,1
608,622,25,0.225955403627959,1
608,623,25,0.194204483560233,1
608,624,25,0.126263081768363,1
609,622,25,0.165974231177302,1
609,623,25,0.179340550881525,1
609,630,25,0.102582834348016,1
609,631,25,0.115206812512449,1
609,632,25,0.105967405902301,1
610,630,25,0.10805267007326,1
610,631,25,0.129184834978393,1
610,632,25,0.121823313146483,1
611,625,25,0.116703249051676,1
611,631,25,0.10434047219295,1
611,632,25,0.106169534908043,1
612,624,25,0.124231236472385,1
612,625,25,0.129754796074344,1
613,624,25,0.104729839584105,1
613,638,25,0.10404770320786,1
613,639,25,0.107891400406844,1
635,627,25,0.107484920239874,1
605,622,26,0.114607908930603,1
606,618,26,0.140287736820725,1
606,621,26,0.198185257252441,1
606,622,26,0.214113471693225,1
606,623,26,0.164665207310191,1
607,617,26,0.195099620075425,1
607,618,26,0.191657653730708,1
607,620,26,0.176510102118905,1
607,621,26,0.279365368201958,1
607,622,26,0.306638971755867,2
607,623,26,0.208453402029831,1
607,624,26,0.126373873647939,1
608,620,26,0.143487651611411,1
608,621,26,0.215305570967339,1
608,622,26,0.256765611207222,1
608,623,26,0.197241603675836,1
608,624,26,0.120572490145814,1
609,621,26,0.12354022236712,1
609,622,26,0.158352041792718,1
609,623,26,0.161737582816798,1
609,631,26,0.113144761151968,1
609,632,26,0.103143111638939,1
610,630,26,0.103101729439499,1
610,631,26,0.127115278396692,1
610,632,26,0.118215850682762,1
611,624,26,0.125376637802566,1
611,625,26,0.148234382691893,1
611,626,26,0.111336732663545,1
612,624,26,0.135412828761877,1
612,625,26,0.156757416481246,1
612,626,26,0.102290849653096,1
612,639,26,0.125841209906787,1
613,624,26,0.0997250988231954,1
613,625,26,0.103061185994824,1
635,625,26,0.107193153403335,1
647,617,26,0.100941848773101,1
647,619,26,0.102268170595651,1
648,619,26,0.100759893453425,1
605,618,27,0.134233800990613,1
605,621,27,0.12329099237944,1
605,622,27,0.136799530034675,1
605,623,27,0.115006426373753,1
606,617,27,0.226332690771896,1
606,618,27,0.226333431490391,1
606,619,27,0.153755044777387,1
606,620,27,0.156001861830658,1
606,621,27,0.232521001651311,1
606,622,27,0.255296025713433,2
606,623,27,0.178198787786304,1
606,624,27,0.110989989264601,1
607,616,27,0.143928738582177,1
607,617,27,0.227975713322672,1
607,618,27,0.245560217889623,1
607,619,27,0.165653794177844,1
607,620,27,0.18252534630058,1
607,621,27,0.304466575125491,2
607,622,27,0.340505122414838,2
607,623,27,0.218018169238844,2
607,624,27,0.120557904527217,1
608,617,27,0.164023309376887,1
608,618,27,0.1897298467045,1
608,620,27,0.141886174653862,1
608,621,27,0.214245733516232,1
608,622,27,0.250451138539463,2
608,623,27,0.179431354254659,1
608,624,27,0.112461252267923,1
609,621,27,0.118072652369036,1
609,622,27,0.139245894471876,1
609,623,27,0.132737451594738,1
610,626,27,0.104722203647857,1
610,631,27,0.107616909739906,1
611,624,27,0.156839788735042,1
611,625,27,0.18536490154352,1
611,626,27,0.117310333215723,1
612,624,27,0.137408062956955,1
612,625,27,0.167649932485203,1
612,626,27,0.0997845741611645,1
612,639,27,0.103570898355555,1
636,624,27,0.10535900369505,1
646,616,27,0.107281908907689,1
646,617,27,0.108318217653665,1
646,620,27,0.108120598316406,1
647,616,27,0.108353205709628,1
647,617,27,0.106333712983844,1
647,618,27,0.100937273747104,1
647,619,27,0.103586322728918,1
647,620,27,0.101829098814907,1
647,621,27,0.099765740304141,1
605,617,28,0.153468528327826,1
605,618,28,0.179393969756507,1
605,619,28,0.129084119048931,1
605,621,28,0.132108625164283,1
605,622,28,0.150149150894008,1
605,623,28,0.117241402824025,1
606,616,28,0.140331308496893,1
606,617,28,0.254598181747928,1
606,618,28,0.310301062208584,3
606,619,28,0.200888596542761,1
606,620,28,0.160706883924128,1
606,621,28,0.242198989860845,1
606,622,28,0.27863358190072,1
606,623,28,0.181135889119264,1
606,624,28,0.0998437989619957,1
607,616,28,0.133112331403567,1
607,617,28,0.220551557206271,1
607,618,28,0.262937713423101,1
607,619,28,0.176769789308865,1
607,620,28,0.172227028137444,1
607,621,28,0.28569946990983,1
607,622,28,0.33024843698828,2
607,623,28,0.20550028810588,1
607,624,28,0.10901832734633,1
608,617,28,0.127532509874756,1
608,618,28,0.151642548308822,1
608,619,28,0.126765528552092,1
608,620,28,0.132960538576717,1
608,621,28,0.189799387099664,1
608,622,28,0.219021123866713,1
608,623,28,0.155571569742662,1
609,621,28,0.105284114876636,1
609,622,28,0.118780114782055,1
610,624,28,0.139477369001518,1
610,625,28,0.14485717475088,1
610,640,28,0.10084931342584,1
611,623,28,0.103124430282782,1
611,624,28,0.176807184699937,1
611,625,28,0.198609318590745,1
611,626,28,0.108566325670684,1
612,624,28,0.127526649484311,1
612,625,28,0.149072701741362,1
636,624,28,0.109628407063113,1
636,625,28,0.10905891436268,1
636,626,28,0.105838804100091,1
637,624,28,0.121840077348889,1
645,616,28,0.125641106983986,1
645,617,28,0.125482429832302,1
645,618,28,0.115189111519006,1
645,619,28,0.109218179731993,1
645,620,28,0.110175591065348,1
646,615,28,0.109120895072029,1
646,616,28,0.125362694866192,1
646,617,28,0.127986886206753,1
646,618,28,0.120985680350914,1
646,619,28,0.119186823700324,1
646,620,28,0.121915870279583,1
646,621,28,0.130396988116463,1
647,615,28,0.101165861653199,1
647,616,28,0.1150625140139,1
647,617,28,0.122993986048842,1
647,618,28,0.122989748703335,1
647,619,28,0.120930638430995,1
647,620,28,0.112741407252763,1
647,621,28,0.109827998018719,1
648,616,28,0.103906345797452,1
648,617,28,0.113100938938662,1
648,618,28,0.112178439410836,1
648,619,28,0.108472374243947,1
648,620,28,0.103594546882795,1
648,621,28,0.104680189659112,1
649,617,28,0.102812326366392,1
649,618,28,0.103729695329349,1
649,619,28,0.103488667709707,1
649,620,28,0.109507506554666,1
605,617,29,0.157187654104647,1
605,618,29,0.21986765617714,3
605,619,29,0.164972801558098,1
605,620,29,0.117851950936327,1
605,621,29,0.133782017173348,1
605,622,29,0.14963952567663,1
606,616,29,0.134684016227536,1
606,617,29,0.251461021063844,3
606,618,29,0.372324907516747,3
606,619,29,0.26058072538664,3
606,620,29,0.17054522679488,1
606,621,29,0.230417339340089,1
606,622,29,0.273700440296672,1
606,623,29,0.171945293679343,1
607,616,29,0.122162311679988,1
607,617,29,0.18940682808323,1
607,618,29,0.259705784343351,3
607,619,29,0.196365072266368,1
607,620,29,0.16893954517058,1
607,621,29,0.248999700648798,1
607,622,29,0.293911728718917,1
607,623,29,0.181933272578974,1
608,617,29,0.101740920635263,1
608,618,29,0.12211965500902,1
608,619,29,0.121094620434252,1
608,620,29,0.13195574304553,1
608,621,29,0.164598063357217,1
608,622,29,0.182339273457506,1
608,623,29,0.131429734877912,1
609,622,29,0.101348078402933,1
609,640,29,0.107790150724349,1
612,624,29,0.104845805600226,1
612,625,29,0.113261260921121,1
634,631,29,0.11524852149946,1
636,623,29,0.107290786636708,1
636,624,29,0.100030394665184,1
643,613,29,0.183615302672838,1
644,612,29,0.198897915587843,1
644,613,29,0.194933459488359,1
644,616,29,0.13480643085173,1
644,617,29,0.127242780014078,1
644,618,29,0.1161165128604,1
645,615,29,0.141535008729787,1
645,616,29,0.145944680216354,1
645,617,29,0.137080305915901,1
645,618,29,0.122607930105076,1
645,619,29,0.118080506163666,1
645,620,29,0.115034780642019,1
646,615,29,0.127492184288462,1
646,616,29,0.134422978315615,1
646,617,29,0.133773302838114,1
646,618,29,0.127864591404669,1
646,619,29,0.127920058148431,1
646,620,29,0.126144283593291,1
646,621,29,0.135835975094981,1
647,615,29,0.111958413339108,1
647,616,29,0.119771947739582,1
647,617,29,0.131087849720861,1
647,618,29,0.131543859990715,1
647,619,29,0.127142281942997,1
647,620,29,0.118327797211756,1
647,621,29,0.117686454817323,1
648,616,29,0.108065828719463,1
648,617,29,0.12182653745052,1
648,618,29,0.120636475152266,1
648,619,29,0.115191627783304,1
648,620,29,0.11330379776998,1
649,617,29,0.107755739993095,1
649,618,29,0.109130698699167,1
649,619,29,0.11100831115443,1
604,618,30,0.105503117013975,1
604,619,30,0.100054849268434,1
605,617,30,0.162467070712119,1
605,618,30,0.235545856340073,3
605,619,30,0.193022928631751,1
605,620,30,0.141293599857979,1
605,621,30,0.137196304610779,1
605,622,30,0.143540994235959,1
606,616,30,0.14616734237449,1
606,617,30,0.231198056633664,3
606,618,30,0.37218343028423,3
606,619,30,0.294112833790269,3
606,620,30,0.192948181421285,1
606,621,30,0.209468404226161,1
606,622,30,0.242043765764497,1
606,623,30,0.155806530006398,1
607,617,30,0.161442090601946,1
607,618,30,0.240228874737078,3
607,619,30,0.214672496298458,1
607,620,30,0.185276080681652,1
607,621,30,0.217512628866107,1
607,622,30,0.247485236328556,1
607,623,30,0.157653729431695,1
608,618,30,0.108638011970899,1
608,619,30,0.124550300964043,1
608,620,30,0.140686755338151,1
608,621,30,0.14863020958404,1
608,622,30,0.152364585447519,1
642,613,30,0.150401300183991,1
643,611,30,0.149511414055777,1
643,612,30,0.277991291822329,1
643,613,30,0.275347427869979,1
643,614,30,0.171965521830004,1
644,611,30,0.147790354632985,1
644,612,30,0.281066907513827,1
644,613,30,0.290822932595378,1
644,614,30,0.194264002469878,1
644,615,30,0.171701041755665,1
644,616,30,0.163901689935783,1
644,617,30,0.146693971438493,1
644,618,30,0.126976175820526,1
644,619,30,0.110087913959979,1
645,612,30,0.153271355600248,1
645,613,30,0.173244753563535,1
645,615,30,0.170751081178935,1
645,616,30,0.163500274976168,1
645,617,30,0.148938914909689,1
645,618,30,0.137351964423888,1
645,619,30,0.130020430798102,1
645,620,30,0.119570330701035,1
646,615,30,0.14322797531437,1
646,616,30,0.140259186479916,1
646,617,30,0.140307540147544,1
646,618,30,0.142545479471795,1
646,619,30,0.13823835392509,1
646,620,30,0.127877695586276,1
646,621,30,0.133061875402565,1
647,615,30,0.117391158675014,1
647,616,30,0.12151465139251,1
647,617,30,0.135038656992785,1
647,618,30,0.139305021236436,1
647,619,30,0.13051243127247,1
647,620,30,0.122506680422581,1
647,621,30,0.124727605007289,1
648,616,30,0.107194493232377,1
648,617,30,0.122501092355112,1
648,618,30,0.123524329598238,1
648,619,30,0.115347570812309,1
648,620,30,0.118056280311716,1
649,617,30,0.107389138802738,1
649,618,30,0.109766649098675,1
649,619,30,0.111354923838345,1
604,617,31,0.123043091327883,1
604,618,31,0.131064811197088,1
604,619,31,0.125821678902944,1
605,616,31,0.167284780053078,1
605,617,31,0.180595578548945,1
605,618,31,0.23495373904679,1
605,619,31,0.217096388643675,1
605,620,31,0.183827758165833,1
605,621,31,0.156604534362493,1
605,622,31,0.140957335447154,1
606,616,31,0.167519315492971,1
606,617,31,0.21412114030823,1
606,618,31,0.320464526033981,3
606,619,31,0.2979228065119,1
606,620,31,0.233266229814647,1
606,621,31,0.200405865942497,1
606,622,31,0.198398540607283,1
606,623,31,0.143319366905132,1
606,632,31,0.111599448084999,1
606,633,31,0.104107930157243,1
607,617,31,0.151199849186038,1
607,618,31,0.213953607213365,1
607,619,31,0.229707404234448,1
607,620,31,0.220150305640441,1
607,621,31,0.201943706467003,1
607,622,31,0.199604343173552,1
608,618,31,0.107746840478238,1
608,619,31,0.131958901992052,1
608,620,31,0.152229208249665,1
608,621,31,0.141954930758855,1
641,617,31,0.16418710620052,1
642,612,31,0.149122896312307,1
642,613,31,0.167957461375595,1
642,614,31,0.143685303627427,1
642,616,31,0.160180843077754,1
642,617,31,0.173938654292346,1
643,611,31,0.146650726549896,1
643,612,31,0.283560514540913,1
643,613,31,0.319253647367439,1
643,614,31,0.219083344220281,1
643,615,31,0.182529028107217,1
643,616,31,0.188429885746032,1
643,617,31,0.176335096481577,1
644,611,31,0.141028509780174,1
644,612,31,0.278312088288115,1
644,613,31,0.321221148190636,1
644,614,31,0.228691421675405,1
644,615,31,0.20439045215637,1
644,616,31,0.195330506387438,1
644,617,31,0.167905513044684,1
644,618,31,0.138887473863719,1
644,619,31,0.117538322011271,1
645,612,31,0.14756403245405,1
645,613,31,0.178686049840889,1
645,614,31,0.176412098526285,1
645,615,31,0.19527693501159,1
645,616,31,0.182326626778498,1
645,617,31,0.16155700000492,1
645,618,31,0.15116332522849,1
645,619,31,0.137604070142196,1
645,620,31,0.122336533027145,1
646,615,31,0.156208228181908,1
646,616,31,0.150218005035272,1
646,617,31,0.146727946452985,1
646,618,31,0.152664325900796,1
646,619,31,0.142549357350974,1
646,620,31,0.126108228031262,1
646,621,31,0.120133712473885,1
647,616,31,0.12653565528155,1
647,617,31,0.138154140767977,1
647,618,31,0.145117384800955,1
647,619,31,0.136016481656425,1
647,620,31,0.127128186505756,1
648,616,31,0.106591940522652,1
648,617,31,0.120249754740439,1
648,618,31,0.125930978452611,1
648,619,31,0.121203048550396,1
648,620,31,0.125399959542235,1
649,617,31,0.104218068461676,1
649,618,31,0.111227171683821,1
649,619,31,0.116204037464902,1
604,617,32,0.152649326351276,1
604,618,32,0.162465774454753,1
604,619,32,0.155680259288863,1
604,620,32,0.157057396578743,1
604,621,32,0.140957084910016,1
605,616,32,0.18948425495178,1
605,617,32,0.198494616153233,1
605,618,32,0.221740040031263,1
605,619,32,0.23018253157722,1
605,620,32,0.245489697131745,1
605,621,32,0.203450349671373,1
605,622,32,0.151735061870246,1
605,632,32,0.166192852062474,1
605,633,32,0.145722355738707,1
606,616,32,0.179756235565086,1
606,617,32,0.195786549336049,1
606,618,32,0.244493583257034,1
606,619,32,0.275747089069628,1
606,620,32,0.289970125963583,1
606,621,32,0.223121480024164,1
606,622,32,0.172077065320994,1
606,623,32,0.131295653937425,1
606,631,32,0.100454761005221,1
606,632,32,0.156019388537396,1
606,633,32,0.136701461084541,1
607,617,32,0.142562581354691,1
607,618,32,0.176509198006625,1
607,619,32,0.22575379748233,1
607,620,32,0.256564615065059,1
607,621,32,0.200570784736793,1
607,622,32,0.161406089504513,1
607,623,32,0.122185916635552,1
607,629,32,0.0999286003367373,1
607,632,32,0.101094316960932,1
607,640,32,0.102135505734639,1
608,618,32,0.102919436439331,1
608,619,32,0.128450565091612,1
608,620,32,0.153064128708394,1
608,621,32,0.132141478208114,1
608,622,32,0.113855894478703,1
613,645,32,0.110965698055138,1
614,645,32,0.11293381977472,1
615,645,32,0.111140442262409,1
637,624,32,0.112995234052279,1
638,621,32,0.10629202578267,1
638,622,32,0.128583545847276,1
638,623,32,0.151572332552678,1
638,624,32,0.12126053048418,1
639,618,32,0.103327931796324,1
639,621,32,0.146414175919981,1
640,615,32,0.106628388229767,1
640,616,32,0.130258833224254,1
640,617,32,0.150455830136715,1
641,616,32,0.163227156817029,1
641,617,32,0.195547297262212,1
641,618,32,0.17468834855249,1
642,612,32,0.139905188396891,1
642,613,32,0.173193959882042,1
642,614,32,0.171199008902859,1
642,615,32,0.170859509295078,1
642,616,32,0.191355832729894,1
642,617,32,0.20017251783078,1
642,618,32,0.160732514962634,1
643,611,32,0.139095604867854,1
643,612,32,0.245715921274409,1
643,613,32,0.312063209722002,1
643,614,32,0.257823509718739,1
643,615,32,0.217945208467101,1
643,616,32,0.215677782011003,1
643,617,32,0.1988338216522,1
643,618,32,0.156018255673816,1
644,611,32,0.128115575152315,1
644,612,32,0.226580265035882,1
644,613,32,0.290241512148595,1
644,614,32,0.244202829461966,1
644,615,32,0.219727268236528,1
644,616,32,0.205033374024065,1
644,617,32,0.178102483489054,1
644,618,32,0.146411213046002,1
644,619,32,0.122102890806614,1
645,612,32,0.129116166016752,1
645,613,32,0.162396626204674,1
645,614,32,0.176786716905057,1
645,615,32,0.195031996834013,1
645,616,32,0.177617301982006,1
645,617,32,0.156162880959936,1
645,618,32,0.144881520424939,1
645,619,32,0.129468127123917,1
645,620,32,0.118185339616525,1
646,615,32,0.148500453132412,1
646,616,32,0.139159306658412,1
646,617,32,0.131808808460573,1
646,618,32,0.135310468001639,1
646,619,32,0.126633408337032,1
646,620,32,0.117204552078906,1
647,616,32,0.118112716525273,1
647,617,32,0.124443049283156,1
647,618,32,0.129849205003681,1
647,619,32,0.128637444010696,1
647,620,32,0.128373192687657,1
648,617,32,0.108185868687305,1
648,618,32,0.116447319918785,1
648,619,32,0.126158673139346,1
648,620,32,0.138673493362059,1
649,618,32,0.11423045839288,1
649,619,32,0.133687706280282,1
604,618,33,0.187531851714375,1
604,619,33,0.178745655893887,1
604,620,33,0.184056727324095,1
604,621,33,0.173535431108169,1
605,617,33,0.205167553000824,1
605,618,33,0.199519552691729,1
605,619,33,0.219707944198147,1
605,620,33,0.278174249290558,1
605,621,33,0.25607922659255,1
605,622,33,0.178857547958286,1
605,631,33,0.107714216185707,1
605,632,33,0.194100652255925,1
605,633,33,0.17219091811082,1
606,617,33,0.17551528450156,1
606,618,33,0.177685970943647,1
606,619,33,0.230287648245975,1
606,620,33,0.30647407474741,1
606,621,33,0.256752125773448,1
606,622,33,0.166762203154959,1
606,623,33,0.121557155562612,1
606,631,33,0.100702269911693,1
606,632,33,0.164568358366989,1
606,633,33,0.142950630702642,1
607,615,33,0.123731948635178,1
607,616,33,0.141447179123552,1
607,617,33,0.134713448894788,1
607,618,33,0.143255872080036,1
607,619,33,0.194879452395749,1
607,620,33,0.246250632884341,1
607,621,33,0.193987365897889,1
607,622,33,0.131435050622405,1
608,619,33,0.112930203325598,1
608,620,33,0.129874182467044,1
608,621,33,0.111138710288281,1
612,645,33,0.127480125827083,1
613,646,33,0.122067194710914,1
614,645,33,0.101918627716513,1
614,646,33,0.115980471194485,1
615,645,33,0.106643856174806,1
637,623,33,0.112603187003039,1
637,624,33,0.100238242453424,1
638,622,33,0.110776161263807,1
638,623,33,0.126382631554848,1
639,616,33,0.121865599458204,1
639,617,33,0.122195458832633,1
639,618,33,0.133215334846028,1
639,622,33,0.113205412925193,1
640,615,33,0.132520116074013,1
640,616,33,0.167679953370082,1
640,617,33,0.169518732568961,1
640,618,33,0.174197284869159,1
641,615,33,0.148476673890143,1
641,616,33,0.181979861593716,1
641,617,33,0.196233420446827,1
641,618,33,0.181367777579829,1
641,619,33,0.157916128958497,1
642,613,33,0.159601721036888,1
642,614,33,0.178304939282368,1
642,615,33,0.177826914423131,1
642,616,33,0.19185501163791,1
642,617,33,0.203218875141731,1
642,618,33,0.179910174296987,1
642,619,33,0.143332536444253,1
643,612,33,0.178560574306445,1
643,613,33,0.242853610723591,1
643,614,33,0.254756150859875,1
643,615,33,0.222303465375789,1
643,616,33,0.21085533425026,1
643,617,33,0.208357587913938,1
643,618,33,0.179657785362784,1
643,619,33,0.142739253608633,1
644,612,33,0.153286420507283,1
644,613,33,0.210139190180765,1
644,614,33,0.229577560639468,1
644,615,33,0.214755064624796,1
644,616,33,0.195383881690744,1
644,617,33,0.181440531386111,1
644,618,33,0.156560744827944,1
645,613,33,0.134274823723725,1
645,614,33,0.16348160451293,1
645,615,33,0.180602484659617,1
645,616,33,0.164440954785874,1
645,617,33,0.148476662997224,1
645,618,33,0.13575047657342,1
645,619,33,0.12639705377966,1
646,617,33,0.122521756222535,1
646,618,33,0.121255661349369,1
646,619,33,0.120225899247737,1
646,620,33,0.124941433008083,1
647,617,33,0.11427173166313,1
647,618,33,0.118813741223137,1
647,619,33,0.128612172438519,1
648,618,33,0.111466946617772,1
648,619,33,0.135060061578703,1
604,619,34,0.181268902553686,1
604,620,34,0.180169926844461,1
604,621,34,0.18715351885021,1
604,622,34,0.160331720899404,1
604,632,34,0.105861831730946,1
604,633,34,0.104783530782063,1
605,618,34,0.177807917172321,1
605,619,34,0.193671449459834,1
605,620,34,0.263054333014364,1
605,621,34,0.293614657030804,1
605,622,34,0.218420531882416,1
605,623,34,0.153387790011887,1
605,632,34,0.16501177642243,1
605,633,34,0.151554827631777,1
606,615,34,0.126409232063149,1
606,616,34,0.158784403535332,1
606,617,34,0.156403363933626,1
606,618,34,0.141908145671569,1
606,619,34,0.183558561457549,1
606,620,34,0.279120168594324,1
606,621,34,0.297133636313148,1
606,622,34,0.193613346629664,1
606,623,34,0.125930292198712,1
606,632,34,0.129450992562264,1
606,633,34,0.114836649337565,1
607,615,34,0.109189248139017,1
607,616,34,0.129487396697702,1
607,617,34,0.127638214761139,1
607,618,34,0.123509471656665,1
607,619,34,0.153157960313021,1
607,620,34,0.199224049583959,1
607,621,34,0.189075705130192,1
607,622,34,0.123113873515818,1
611,609,34,0.110642102109158,1
612,645,34,0.114193302646028,1
612,646,34,0.146492397971621,1
613,646,34,0.103785358145653,1
614,646,34,0.102882858017188,1
615,646,34,0.11064559873617,1
639,615,34,0.103858188202368,1
639,616,34,0.141891163610783,1
639,617,34,0.138180261987839,1
639,618,34,0.140062591077047,1
639,619,34,0.163732893262309,1
639,620,34,0.153526576693401,1
639,621,34,0.114575894641538,1
640,615,34,0.14745920989411,1
640,616,34,0.193802948778508,1
640,617,34,0.177633096714617,1
640,618,34,0.169521630085426,1
641,615,34,0.158799566478638,1
641,616,34,0.189778472695103,1
641,617,34,0.17945703975776,1
641,618,34,0.165853494062641,1
641,619,34,0.154609833920448,1
642,615,34,0.169436654423979,1
642,616,34,0.177248238991945,1
642,617,34,0.188642036237294,1
642,618,34,0.18484051642084,1
642,619,34,0.148272061298859,1
643,613,34,0.16951270878473,1
643,614,34,0.212264398685852,1
643,615,34,0.199773379491245,1
643,616,34,0.186809629396055,1
643,617,34,0.20143675001479,1
643,618,34,0.192758535700765,1
643,619,34,0.150552788009108,1
644,613,34,0.143777871653446,1
644,614,34,0.191412345193883,1
644,615,34,0.191119783174254,1
644,616,34,0.174533048205708,1
644,617,34,0.177648139835814,1
644,618,34,0.16416266249019,1
645,618,34,0.132600309744,1
646,618,34,0.117138486524917,1
646,619,34,0.123552466008123,1
647,618,34,0.113914857849477,1
604,620,35,0.160949305837407,1
604,621,35,0.17538168284951,1
604,622,35,0.164047731301379,1
605,618,35,0.160517586777017,1
605,619,35,0.167304986417901,1
605,620,35,0.221237767534238,1
605,621,35,0.289508680127128,1
605,622,35,0.237794133044495,1
605,623,35,0.161306844119121,1
605,632,35,0.122410572197873,1
605,633,35,0.11578757938409,1
606,617,35,0.138891406207494,1
606,618,35,0.126287057083174,1
606,619,35,0.147774527221617,1
606,620,35,0.232967742047059,1
606,621,35,0.311356716778779,1
606,622,35,0.221992842896389,1
606,623,35,0.12914098008633,1
607,616,35,0.111678944608167,1
607,617,35,0.12256546950665,1
607,618,35,0.114821399250906,1
607,619,35,0.120455739839522,1
607,620,35,0.155162137594632,1
607,621,35,0.183535228824961,1
607,622,35,0.128504354325841,1
611,645,35,0.137850119397515,1
612,645,35,0.103238239500932,1
612,646,35,0.14368765649794,1
615,646,35,0.103979513534657,1
616,611,35,0.104538799569947,1
618,612,35,0.10361904505772,1
639,615,35,0.105632808108089,1
639,616,35,0.153030785483206,1
639,617,35,0.151448000774733,1
639,618,35,0.139884448279035,1
639,619,35,0.153064716926022,1
639,620,35,0.130373012801652,1
640,615,35,0.156503796647192,1
640,616,35,0.211763716555007,1
640,617,35,0.191616761712625,1
640,618,35,0.168524143702915,1
640,619,35,0.181029410835629,1
640,620,35,0.159955784477428,1
641,615,35,0.163893443996068,1
641,616,35,0.190136196156441,1
641,617,35,0.172539153839673,1
641,618,35,0.160842500766201,1
642,616,35,0.156607889381557,1
642,617,35,0.168778634970493,1
642,618,35,0.181231942879376,1
643,615,35,0.162920030964641,1
643,616,35,0.158507886785451,1
643,617,35,0.181141760402628,1
643,618,35,0.191121329968758,1
604,621,36,0.150508660794069,1
604,622,36,0.149598317763894,1
605,619,36,0.1418946057732,1
605,620,36,0.176752676533051,1
605,621,36,0.249758828176833,1
605,622,36,0.227196237821867,1
605,623,36,0.149107504617701,1
606,618,36,0.110912878290703,1
606,619,36,0.120437875452293,1
606,620,36,0.18511305725527,1
606,621,36,0.279954762265481,1
606,622,36,0.223453822984135,1
606,623,36,0.123195178263547,1
607,614,36,0.100513985806052,1
607,617,36,0.114228268916152,1
607,618,36,0.103454365907644,1
607,620,36,0.122164555621311,1
607,621,36,0.161546869590211,1
607,622,36,0.123364454225459,1
611,645,36,0.108952751973697,1
611,646,36,0.174944332149976,1
612,646,36,0.126291566751658,1
612,647,36,0.136256463555838,1
613,609,36,0.112938841410398,1
614,609,36,0.114956602162055,1
615,610,36,0.106195078803197,1
616,611,36,0.104988023551238,1
616,612,36,0.104101329048303,1
639,616,36,0.142274158644298,1
639,617,36,0.141453987197953,1
639,618,36,0.123099004681325,1
639,619,36,0.123712875133935,1
639,620,36,0.102494383845395,1
640,615,36,0.156170288144885,1
640,616,36,0.210863700012084,1
640,617,36,0.189616625703978,1
640,618,36,0.157197261659242,1
640,619,36,0.155945654368401,1
641,615,36,0.159422793948705,1
641,616,36,0.181762526072991,1
641,617,36,0.16461643971164,1
642,616,36,0.136275940095085,1
604,621,37,0.125159117102217,1
604,622,37,0.127497717891336,1
605,620,37,0.143708429294553,1
605,621,37,0.200660128458775,1
605,622,37,0.205377895267524,1
605,623,37,0.133010275645063,1
606,620,37,0.14416223919476,1
606,621,37,0.224292599536204,1
606,622,37,0.210512860875581,1
606,623,37,0.119053570621684,1
607,617,37,0.106955633303625,1
607,620,37,0.101140078113827,1
607,621,37,0.137858811946911,1
607,622,37,0.119830954682032,1
611,646,37,0.139280784491567,1
612,646,37,0.109901492543495,1
612,647,37,0.128932761938843,1
613,609,37,0.113443477670855,1
614,609,37,0.126621676663224,1
615,610,37,0.106966776759805,1
619,612,37,0.101488466343546,1
639,615,37,0.10050446539481,1
639,616,37,0.140810727649768,1
639,617,37,0.134566645024859,1
639,618,37,0.108249091189425,1
640,615,37,0.163426475449658,1
640,616,37,0.227093495809463,1
640,617,37,0.200937244319202,1
640,618,37,0.152973608551155,1
640,619,37,0.133035732396864,1
640,620,37,0.104690254716307,1
641,616,37,0.194275745036605,1
605,620,38,0.118886070205576,1
605,621,38,0.155129676695887,1
605,622,38,0.176905079363367,1
605,623,38,0.119269936672614,1
606,620,38,0.11024400948985,1
606,621,38,0.163528618351515,1
606,622,38,0.178864704606096,1
606,623,38,0.110775366080717,1
606,640,38,0.101717381037213,1
606,641,38,0.10053380002579,1
607,621,38,0.109299571623074,1
607,622,38,0.107048157757968,1
607,643,38,0.113597296580647,1
610,646,38,0.135806782071948,1
611,646,38,0.111502544677201,1
611,647,38,0.145120238745744,1
612,647,38,0.115003343677664,1
614,609,38,0.127598662572098,1
614,610,38,0.100285147362819,1
615,609,38,0.158787932841101,1
615,610,38,0.100579452249494,1
616,610,38,0.110543684585614,1
619,612,38,0.112274406027596,1
639,615,38,0.106571853979939,1
639,616,38,0.14291119833571,1
639,617,38,0.130028894596197,1
640,615,38,0.168466476589507,1
640,616,38,0.249009831063507,1
640,617,38,0.220634735536075,1
640,618,38,0.146517320970389,1
640,619,38,0.11197600540336,1
641,615,38,0.162675637433015,1
641,616,38,0.224830579021848,1
641,617,38,0.208920403254998,1
641,618,38,0.159915360854863,1
641,619,38,0.136863841828699,1
642,616,38,0.139421324933047,1
605,621,39,0.116194212051926,1
605,622,39,0.144266528001668,1
605,623,39,0.106828698118029,1
605,640,39,0.0997615138515527,1
606,621,39,0.114009038027514,1
606,622,39,0.142899139874331,1
606,623,39,0.102275414386814,1
606,639,39,0.105051616412605,1
606,640,39,0.119416555362919,1
606,641,39,0.105593212347371,1
606,642,39,0.0998314790705592,1
606,643,39,0.117144989597585,1
607,642,39,0.106761467021702,1
607,643,39,0.123075541333709,1
607,644,39,0.142120121876126,1
608,644,39,0.110444635272765,1
609,645,39,0.10955192787852,1
609,646,39,0.165937402218021,1
610,646,39,0.129114161719648,1
610,647,39,0.162734829555089,1
611,647,39,0.124683848151497,1
612,647,39,0.106289803627185,1
612,648,39,0.120164419612664,1
614,609,39,0.114584162367091,1
615,608,39,0.146798739533839,1
615,609,39,0.136122034041942,1
616,609,39,0.151078469389154,1
639,615,39,0.104999330401203,1
639,616,39,0.129136862562932,1
639,617,39,0.120571782106076,1
640,615,39,0.152210570465184,1
640,616,39,0.234907858071785,1
640,617,39,0.224854347371198,1
640,618,39,0.140179918708048,1
641,615,39,0.156633378812116,1
641,616,39,0.240638600993922,1
641,617,39,0.233805451093062,1
641,618,39,0.156231822244553,1
642,616,39,0.151522137981733,1
642,617,39,0.146412977698887,1
605,622,40,0.114861114833733,1
605,639,40,0.110101639037972,1
605,640,40,0.101415919502727,1
606,622,40,0.116852765258446,1
606,623,40,0.100070480607259,1
606,638,40,0.100673360104555,1
606,639,40,0.132944809201621,1
606,640,40,0.13141963714196,1
606,641,40,0.103369858641716,1
606,642,40,0.10399403379574,1
606,643,40,0.129931980295481,1
607,640,40,0.103613108416842,1
607,641,40,0.101834599739023,1
607,642,40,0.114675989674615,1
607,643,40,0.133190531669369,1
607,644,40,0.144189547742799,1
608,644,40,0.104339829510727,1
608,645,40,0.117898256735175,1
609,646,40,0.153067254976159,1
610,646,40,0.117706672075065,1
610,647,40,0.149763378166137,1
611,647,40,0.109561960256957,1
611,648,40,0.13083476363984,1
612,647,40,0.0997046963858298,1
612,648,40,0.116579113346274,1
615,609,40,0.10571124801811,1
616,608,40,0.123113601192842,1
616,609,40,0.114064766201332,1
617,608,40,0.109662120647548,1
617,609,40,0.106278616599329,1
635,629,40,0.108532350656192,1
637,609,40,0.110777577343283,1
639,616,40,0.101991534023661,1
639,617,40,0.101318318948111,1
640,615,40,0.120422570901039,1
640,616,40,0.183882200975204,1
640,617,40,0.198680187922032,1
640,618,40,0.127561517718165,1
641,616,40,0.220551034346157,1
641,617,40,0.230792055755132,1
641,618,40,0.146815656237111,1
641,619,40,0.104443562778763,1
642,617,40,0.144219111125078,1
605,638,41,0.112553319219665,1
605,639,41,0.119657169051637,1
606,637,41,0.107762482709982,1
606,638,41,0.133923254761646,1
606,639,41,0.153114976854481,1
606,640,41,0.133245290373393,1
606,641,41,0.100097375224373,1
606,642,41,0.111536835586346,1
606,643,41,0.147864709698366,1
606,644,41,0.156303377829739,1
607,639,41,0.108544365545895,1
607,640,41,0.111548349401773,1
607,641,41,0.105757564709876,1
607,642,41,0.12747436347291,1
607,643,41,0.153324208043439,1
607,644,41,0.149280473279168,1
607,645,41,0.134390822418603,1
608,643,41,0.10740889855788,1
608,644,41,0.103277650082026,1
608,645,41,0.108610779673294,1
608,646,41,0.151369669793902,1
609,646,41,0.139974532719512,1
609,647,41,0.187353839631391,1
610,646,41,0.107974524272053,1
610,647,41,0.142314244586373,1
610,648,41,0.158356660390392,1
611,647,41,0.102883348198545,1
611,648,41,0.124509496089312,1
612,648,41,0.111481488664693,1
617,608,41,0.10055301513498,1
635,629,41,0.107605918784592,1
637,609,41,0.101824251465934,1
640,614,41,0.102321894472366,1
640,616,41,0.131010499102744,1
640,617,41,0.15492703572295,1
640,618,41,0.113630323911182,1
641,615,41,0.112438594996315,1
641,616,41,0.174145303859491,1
641,617,41,0.195685702691559,1
641,618,41,0.135406859442242,1
605,637,42,0.120762680512287,1
605,638,42,0.133489498725395,1
605,639,42,0.124102427704714,1
606,636,42,0.103393779491933,1
606,637,42,0.152737308458378,1
606,638,42,0.171186590975151,1
606,639,42,0.160080453935863,1
606,640,42,0.125933690789453,1
606,642,42,0.116574113496434,1
606,643,42,0.158062660505449,1
606,644,42,0.152008953426637,1
607,638,42,0.112293435957162,1
607,639,42,0.11648683942907,1
607,640,42,0.111989708695515,1
607,641,42,0.104044239259604,1
607,642,42,0.131392110735541,1
607,643,42,0.163197942008158,1
607,644,42,0.144706046392092,1
607,645,42,0.123504874844829,1
608,643,42,0.108828801447919,1
608,646,42,0.135027491750767,1
609,646,42,0.121850894017498,1
609,647,42,0.166877395773828,1
610,647,42,0.126467334893319,1
610,648,42,0.146201676855311,1
611,648,42,0.112852743778291,1
611,649,42,0.123241865314561,1
612,649,42,0.100291018646182,1
617,607,42,0.099995482859655,1
640,617,42,0.110254227047912,1
641,617,42,0.147307144744284,1
641,618,42,0.11621191304537,1
605,636,43,0.11522396885994,1
605,637,43,0.149150324682455,1
605,638,43,0.156042601347875,1
605,639,43,0.129581653126172,1
606,636,43,0.138241491085774,1
606,637,43,0.19688420700207,1
606,638,43,0.20154557027602,1
606,639,43,0.159339953299391,1
606,640,43,0.115353507453187,1
606,642,43,0.125260246962603,1
606,643,43,0.164957867366092,1
607,637,43,0.121733620851092,1
607,638,43,0.130171079868452,1
607,639,43,0.118475973589484,1
607,640,43,0.105310856992884,1
607,642,43,0.127314335599264,1
607,643,43,0.159112204148061,1
607,644,43,0.132834115358316,1
607,646,43,0.138198986915672,1
608,643,43,0.103050412897892,1
608,646,43,0.121901197517633,1
608,647,43,0.152699433778869,1
609,646,43,0.108374403330084,1
609,647,43,0.147920285371318,1
609,648,43,0.161241835178279,1
610,647,43,0.114970196525019,1
610,648,43,0.133425698898566,1
611,648,43,0.102544523951745,1
641,617,43,0.104226957083614,1
604,638,44,0.109218234196588,1
604,639,44,0.101874271750174,1
605,635,44,0.105643602990859,1
605,636,44,0.152520484904847,1
605,637,44,0.18621332922186,1
605,638,44,0.189377112200083,1
605,639,44,0.147046684157072,1
605,640,44,0.106778841227574,1
605,641,44,0.101601415021092,1
605,642,44,0.130137758429102,1
605,643,44,0.146632753233477,1
606,635,44,0.113409437298849,1
606,636,44,0.18104303787735,1
606,637,44,0.232443988713684,1
606,638,44,0.231342562097675,1
606,639,44,0.168282974475326,1
606,640,44,0.114283681195319,1
606,641,44,0.106349268072235,1
606,642,44,0.145888026144416,1
606,643,44,0.177352190118363,1
606,644,44,0.14214531719787,1
607,636,44,0.107859810941622,1
607,637,44,0.13664075484672,1
607,638,44,0.14520874371296,1
607,639,44,0.121250955608342,1
607,642,44,0.125458748626304,1
607,643,44,0.150606348492037,1
607,644,44,0.124090184063711,1
607,645,44,0.111729465966684,1
607,646,44,0.130502976218741,1
608,646,44,0.110912333644751,1
608,647,44,0.134951350246664,1
609,647,44,0.126266491252023,1
609,648,44,0.138225576531054,1
610,647,44,0.104294798183407,1
610,648,44,0.118117836197222,1
610,649,44,0.120960615744198,1
611,649,44,0.104283142760033,1
604,636,45,0.111194961322214,1
604,637,45,0.127559110383056,1
604,638,45,0.134747859626041,1
604,639,45,0.118689104443459,1
604,640,45,0.100124901630793,1
605,635,45,0.131524938990339,1
605,636,45,0.198758333723239,1
605,637,45,0.226817229596721,1
605,638,45,0.228598134716729,1
605,639,45,0.174167394699308,1
605,640,45,0.124304033850342,1
605,641,45,0.126888858181485,1
605,642,45,0.162783945727049,1
605,643,45,0.166064032401884,1
606,635,45,0.14046630444258,1
606,636,45,0.217197496718223,1
606,637,45,0.248186587813992,1
606,638,45,0.24924049951714,1
606,639,45,0.180784919267732,1
606,640,45,0.122458076217815,1
606,641,45,0.130822618035109,1
606,642,45,0.177079529461824,1
606,643,45,0.187794371063286,1
606,644,45,0.143128337783893,1
607,636,45,0.123047176172524,1
607,637,45,0.142384503914193,1
607,638,45,0.152426075975511,1
607,639,45,0.122014777984484,1
607,641,45,0.101425712236945,1
607,642,45,0.127110431047718,1
607,643,45,0.137516523751855,1
607,644,45,0.114951242845886,1
607,645,45,0.108745339902219,1
607,646,45,0.1252573276603,1
608,646,45,0.100916402914219,1
608,647,45,0.121661389904925,1
609,647,45,0.107559700129097,1
609,648,45,0.121374699168659,1
610,648,45,0.107117316900965,1
610,649,45,0.113059513167545,1
604,636,46,0.137270256638155,1
604,637,46,0.157611617406679,1
604,638,46,0.162015461181558,1
604,639,46,0.134628429661665,1
604,640,46,0.108137427876326,1
605,635,46,0.152932193672957,1
605,636,46,0.2416162186921,1
605,637,46,0.266211994172086,1
605,638,46,0.268931454982588,1
605,639,46,0.203594833349546,1
605,640,46,0.141807734743841,1
605,641,46,0.146220706784877,1
605,642,46,0.18013890381103,1
605,643,46,0.166755155436339,1
606,635,46,0.155998463239917,1
606,636,46,0.240572350260309,1
606,637,46,0.255948555135722,1
606,638,46,0.26158276500931,1
606,639,46,0.194583949287979,1
606,640,46,0.137742769680357,1
606,641,46,0.159767892516873,1
606,642,46,0.203985605927257,1
606,643,46,0.186473256056039,1
606,644,46,0.140616201901517,1
607,636,46,0.130731476981485,1
607,637,46,0.144479854928186,1
607,638,46,0.154350538875573,1
607,639,46,0.122339463222368,1
607,641,46,0.110400431807293,1
607,642,46,0.131044016614636,1
607,643,46,0.126173694474704,1
607,644,46,0.107902968686867,1
607,645,46,0.107867958845066,1
607,646,46,0.124713574927563,1
608,647,46,0.111236136556192,1
609,648,46,0.111057971972342,1
610,648,46,0.0999014769683229,1
610,649,46,0.110405682194271,1
603,637,47,0.107007755921241,1
603,638,47,0.108031494238643,1
604,635,47,0.10846870333023,1
604,636,47,0.166657881669294,1
604,637,47,0.18822878067468,1
604,638,47,0.183602699565507,1
604,639,47,0.145288621488294,1
605,635,47,0.171213812379837,1
605,636,47,0.27758241521317,1
605,637,47,0.29916019854339,1
605,638,47,0.292658302310596,1
605,639,47,0.223291540276248,1
605,640,47,0.157361210983742,1
605,641,47,0.156634206673963,1
605,642,47,0.180000520167521,1
606,635,47,0.161986856376154,1
606,636,47,0.25385831290076,1
606,637,47,0.263541856499006,1
606,638,47,0.261326149622519,1
606,639,47,0.202550137055907,1
606,640,47,0.157304360839262,1
606,641,47,0.18293126003576,1
606,642,47,0.215013749666205,1
606,643,47,0.172552769988475,1
607,636,47,0.134150317659075,1
607,637,47,0.146212199415105,1
607,638,47,0.150055460897328,1
607,639,47,0.122319115249597,1
607,640,47,0.10654205095344,1
607,641,47,0.120560736686168,1
607,642,47,0.1350187011651,1
607,643,47,0.117869858895232,1
607,644,47,0.102264445217338,1
608,647,47,0.104025100400848,1
609,648,47,0.106441498417764,1
610,649,47,0.110902181444204,1
603,636,48,0.105116908569342,1
603,637,48,0.125826711431542,1
603,638,48,0.119829745568019,1
604,635,48,0.119328279147003,1
604,636,48,0.182923831064974,1
604,637,48,0.206788223281725,1
604,638,48,0.190363509591009,1
604,639,48,0.148179896310845,1
605,634,48,0.110683190199784,1
605,635,48,0.181738812188237,1
605,636,48,0.293777745814701,1
605,637,48,0.320554871904515,1
605,638,48,0.293978981601082,1
605,639,48,0.228774948578618,1
605,640,48,0.175700660197816,1
605,641,48,0.165545104631644,1
605,642,48,0.167756476126352,1
606,625,48,0.108214397242276,1
606,626,48,0.113087246539426,1
606,635,48,0.161157654699923,1
606,636,48,0.256334099112293,1
606,637,48,0.27455185263483,1
606,638,48,0.255137773385591,1
606,639,48,0.209406706732708,1
606,640,48,0.18679126393455,1
606,641,48,0.199716845241417,1
606,642,48,0.203500587813995,1
606,643,48,0.148925669120134,1
607,636,48,0.132993010368381,1
607,637,48,0.147318429808411,1
607,638,48,0.143930416091709,1
607,639,48,0.125042475725116,1
607,640,48,0.121462605025328,1
607,641,48,0.128783877521377,1
607,642,48,0.13158792184824,1
607,643,48,0.108653948311457,1
609,648,48,0.102311186732947,1
610,649,48,0.110697732246705,1
603,636,49,0.119381501949442,1
603,637,49,0.141758182855119,1
603,638,49,0.12913824596365,1
604,635,49,0.129295648643807,1
604,636,49,0.182175509312629,1
604,637,49,0.20088792118178,1
604,638,49,0.176209860591352,1
604,639,49,0.142192799431974,1
605,634,49,0.123594981071144,1
605,635,49,0.190950942929104,1
605,636,49,0.277995235059023,1
605,637,49,0.301921096017928,1
605,638,49,0.263634860241787,1
605,639,49,0.221005944431187,1
605,640,49,0.196882747350918,1
605,641,49,0.175474185518015,1
606,625,49,0.105521275510018,1
606,626,49,0.115167107822541,1
606,634,49,0.101671783278103,1
606,635,49,0.164337515626652,1
606,636,49,0.239923045142056,1
606,637,49,0.264828854883814,1
606,638,49,0.238313550996092,1
606,639,49,0.216754743130843,1
606,640,49,0.22057305982846,1
606,641,49,0.209859873950691,1
606,642,49,0.175682403665502,1
607,626,49,0.109007249247664,1
607,636,49,0.126899805565123,1
607,637,49,0.141984733785353,1
607,638,49,0.136162588379535,1
607,639,49,0.129179159767572,1
607,640,49,0.135606385040333,1
607,641,49,0.132079399462494,1
607,642,49,0.120630462260955,1
607,643,49,0.0997116787469357,1
603,637,50,0.155451126736815,1
604,636,50,0.179906339989484,1
604,637,50,0.188894098383925,1
604,638,50,0.161865247827969,1
604,639,50,0.1355703839429,1
605,634,50,0.131694018879708,1
605,635,50,0.202273740128137,1
605,636,50,0.252566151272327,1
605,637,50,0.262158216136459,1
605,638,50,0.228605781545897,1
605,639,50,0.210745468268803,1
605,640,50,0.212140415481316,1
606,625,50,0.100362955483536,1
606,626,50,0.106926865104435,1
606,627,50,0.101132692714717,1
606,634,50,0.114220175477304,1
606,635,50,0.172335576075697,1
606,636,50,0.216566731348179,1
606,637,50,0.237191885336503,1
606,638,50,0.220215336367122,1
606,639,50,0.221977331379673,1
606,640,50,0.243830226273217,1
606,641,50,0.216303972355049,1
607,625,50,0.10289159413826,1
607,626,50,0.111727832028827,1
607,627,50,0.106260240244906,1
607,635,50,0.0997393903329785,1
607,636,50,0.121465698614336,1
607,637,50,0.134955108303733,1
607,638,50,0.132339718441759,1
607,639,50,0.134246033738697,1
607,640,50,0.145307400880723,1
607,641,50,0.135805714565882,1
607,642,50,0.109412008333426,1
604,636,51,0.187952427318585,1
604,637,51,0.188888717281918,1
604,638,51,0.158756332482961,1
605,634,51,0.138326684605601,1
605,635,51,0.205483186222984,1
605,636,51,0.222600340991359,1
605,637,51,0.21332990045486,1
605,638,51,0.19732421557385,1
605,639,51,0.201829004029491,1
605,640,51,0.213756750380438,1
606,627,51,0.11343376118707,1
606,628,51,0.117477702916802,1
606,634,51,0.129255693416761,1
606,635,51,0.174313425171984,1
606,636,51,0.186956182728846,1
606,637,51,0.191697957531163,1
606,638,51,0.196067739148198,1
606,639,51,0.223881827559131,1
606,640,51,0.254562082614223,1
606,641,51,0.215179844895756,1
607,624,51,0.120047854485996,1
607,625,51,0.104831350696657,1
607,627,51,0.111686907331987,1
607,635,51,0.10438947943572,1
607,636,51,0.116630506138314,1
607,637,51,0.122265859768401,1
607,638,51,0.126078523041035,1
607,639,51,0.140137479895461,1
607,640,51,0.156025423214546,1
607,641,51,0.142461560423496,1
607,642,51,0.10370625376757,1
605,634,52,0.140786588941171,1
605,635,52,0.191648852252122,1
605,636,52,0.189038582062097,1
605,637,52,0.170321279272296,1
605,638,52,0.16830510888682,1
606,627,52,0.107179624397885,1
606,628,52,0.128783670555915,1
606,633,52,0.116000525058441,1
606,634,52,0.138721193454544,1
606,635,52,0.161477318302128,1
606,636,52,0.154217982943751,1
606,637,52,0.145740666735617,1
606,638,52,0.167233376368119,1
606,639,52,0.2164346002402,1
606,640,52,0.245510154033706,1
606,641,52,0.19524157659638,1
607,624,52,0.125131220336551,1
607,628,52,0.100616379245047,1
607,635,52,0.104856230123749,1
607,636,52,0.110106671566569,1
607,637,52,0.10814010753441,1
607,638,52,0.119477751782097,1
607,639,52,0.147576243416297,1
607,640,52,0.165053365587332,1
607,641,52,0.141528069940357,1
607,642,52,0.0997412748079727,1
636,629,52,0.111750260549135,1
637,629,52,0.103041992671472,1
639,627,52,0.113181742612115,1
605,634,53,0.134251088053133,1
605,635,53,0.166515282466116,1
605,636,53,0.156564960387613,1
605,637,53,0.142859478756099,1
605,638,53,0.144736513886653,1
606,628,53,0.11976548823859,1
606,632,53,0.113340430656718,1
606,633,53,0.134892713663461,1
606,634,53,0.135467238892491,1
606,635,53,0.140481783280539,1
606,636,53,0.12677021250728,1
606,637,53,0.117392465825299,1
606,638,53,0.141562317277825,1
606,639,53,0.198226606773125,1
606,640,53,0.218324434550628,1
607,624,53,0.111801174052737,1
607,634,53,0.101224498236402,1
607,635,53,0.10478743044708,1
607,636,53,0.102910384423608,1
607,638,53,0.112768900980425,1
607,639,53,0.152721459261172,1
607,640,53,0.168687918740711,1
607,641,53,0.13311229872481,1
629,604,53,0.108846546013038,1
636,629,53,0.118894054715233,1
637,629,53,0.108650266504821,1
638,627,53,0.10520572943121,1
639,626,53,0.102839471520644,1
639,627,53,0.133891273151338,1
639,628,53,0.11224195602177,1
640,626,53,0.102263464854624,1
640,627,53,0.106421749555541,1
606,632,54,0.12030101681745,1
606,633,54,0.133663948823852,1
606,634,54,0.12355738960753,1
606,635,54,0.116035262577266,1
606,636,54,0.100918363639647,1
606,638,54,0.120943840648873,1
606,639,54,0.174673839184326,1
606,640,54,0.18403198950495,1
607,633,54,0.104183537908313,1
607,634,54,0.106512498464079,1
607,635,54,0.101210500835433,1
607,638,54,0.107296777742181,1
607,639,54,0.154854804776782,1
607,640,54,0.166132842971472,1
607,641,54,0.122049864076718,1
608,640,54,0.101497725324732,1
629,604,54,0.112640157570268,1
629,605,54,0.106567224489346,1
630,604,54,0.102208956687739,1
636,629,54,0.109551230731701,1
637,629,54,0.106002611816644,1
638,627,54,0.111140224404028,1
639,626,54,0.116866043726758,1
639,627,54,0.142949955341662,1
639,628,54,0.115829342835697,1
640,626,54,0.111712298726274,1
640,627,54,0.110985849955365,1
606,632,55,0.118261775229443,1
606,633,55,0.124780762452214,1
606,634,55,0.115097033674344,1
606,639,55,0.149060185777383,1
607,632,55,0.100598765394956,1
607,633,55,0.110647341603217,1
607,634,55,0.11201319382897,1
607,638,55,0.103885638358353,1
607,639,55,0.150266434953332,1
607,640,55,0.159020660056433,1
608,639,55,0.10553024038239,1
608,640,55,0.111239949077857,1
629,605,55,0.104714393424904,1
635,606,55,0.10183123382704,1
635,607,55,0.107025609415551,1
636,607,55,0.101113978679803,1
637,610,55,0.099793005280503,1
637,611,55,0.10208557259375,1
637,630,55,0.101456571876591,1
638,611,55,0.100551980307671,1
638,627,55,0.109921001761499,1
639,626,55,0.129459042429436,1
639,627,55,0.140186792139964,1
639,628,55,0.109846722946552,1
640,625,55,0.106488446898835,1
640,626,55,0.11436189235404,1
640,627,55,0.105681619278316,1
607,632,56,0.107336122965761,1
607,633,56,0.117708414942111,1
607,634,56,0.111741818536877,1
607,639,56,0.134536297352408,1
608,639,56,0.110654716109409,1
608,640,56,0.122139763337571,1
608,641,56,0.100938068930194,1
611,622,56,0.101484621143124,1
611,623,56,0.121461036444986,1
611,624,56,0.101905937465829,1
635,607,56,0.109620738448108,1
636,610,56,0.103050227718268,1
636,611,56,0.100857831688531,1
637,610,56,0.108053094897103,1
637,611,56,0.109531220439421,1
637,630,56,0.100285964331747,1
638,610,56,0.10049058781595,1
638,611,56,0.10220700685523,1
639,625,56,0.108523407569659,1
639,626,56,0.13592432756133,1
639,627,56,0.126420157660948,1
640,625,56,0.110133740470389,1
640,626,56,0.111425553525413,1
607,632,57,0.1079305604508,1
607,633,57,0.119571659637158,1
607,634,57,0.103852654599494,1
608,639,57,0.107331460796411,1
608,640,57,0.127538893125314,1
608,641,57,0.107285242140916,1
611,623,57,0.129005635567233,1
611,624,57,0.112808257096923,1
613,648,57,0.105752543074198,1
630,605,57,0.101014101505107,1
634,607,57,0.106577060795241,1
636,610,57,0.110958541407327,1
636,611,57,0.111029508774885,1
637,609,57,0.103435150798454,1
637,610,57,0.114534087618255,1
637,611,57,0.117670257046707,1
637,612,57,0.108846241011305,1
637,613,57,0.10346032433436,1
638,610,57,0.104064587232375,1
638,611,57,0.105309702343466,1
638,613,57,0.101900349398361,1
639,625,57,0.111345033067855,1
639,626,57,0.137641607141214,1
639,627,57,0.117800852253101,1
640,625,57,0.112679317614224,1
640,626,57,0.108799717354077,1
611,623,58,0.112385306836362,1
611,624,58,0.103342321342378,1
634,607,58,0.112533232676952,1
635,610,58,0.104023804143482,1
635,611,58,0.100247174647039,1
636,609,58,0.100436951082588,1
636,610,58,0.124963621884171,1
636,611,58,0.121769088195492,1
636,612,58,0.100940040548541,1
637,609,58,0.105247830563308,1
637,610,58,0.12124791648393,1
637,611,58,0.121775776447784,1
637,612,58,0.113381279103126,1
637,613,58,0.110698941360719,1
638,610,58,0.105198496532967,1
638,611,58,0.106631688784236,1
638,612,58,0.103615058249351,1
638,613,58,0.103204602166931,1
639,625,58,0.111486837087943,1
639,626,58,0.136234154857641,1
639,627,58,0.111819550407161,1
640,625,58,0.114314192261555,1
640,626,58,0.110849176500146,1
627,609,59,0.10683004883999,1
628,609,59,0.106667286843666,1
635,610,59,0.100504432716052,1
636,609,59,0.100218526269958,1
636,610,59,0.130352719293477,1
636,611,59,0.120668718192631,1
636,612,59,0.102813513694567,1
637,609,59,0.100196130428408,1
637,610,59,0.119486934512849,1
637,611,59,0.11815402247428,1
637,612,59,0.113535686230545,1
637,613,59,0.114733199285423,1
638,610,59,0.10401415301721,1
638,611,59,0.107381393937299,1
638,612,59,0.108380514257666,1
638,613,59,0.106018994766883,1
639,625,59,0.108534202452429,1
639,626,59,0.126418000862978,1
640,625,59,0.111340817508186,1
621,609,60,0.103579242331541,1
627,609,60,0.11108835232355,1
628,609,60,0.119663519623439,1
630,606,60,0.122030115214495,1
636,609,60,0.101614922240704,1
636,610,60,0.133822288295046,1
636,611,60,0.120678630748959,1
636,612,60,0.10862629119001,1
637,610,60,0.117320550773784,1
637,611,60,0.114020170590775,1
637,612,60,0.113337478675658,1
637,613,60,0.110131692601609,1
638,610,60,0.102315173541317,1
638,611,60,0.103483297500619,1
638,612,60,0.107343094433948,1
638,613,60,0.102066390163317,1
638,615,60,0.10199256885097,1
638,628,60,0.105310726277856,1
641,610,60,0.100889486511267,1
620,609,61,0.100666159885068,1
620,610,61,0.101039525578151,1
621,609,61,0.105052161058557,1
621,610,61,0.101884565558669,1
627,609,61,0.104658763287356,1
628,609,61,0.115712341992267,1
630,605,61,0.114129219603304,1
630,606,61,0.136069116241236,1
631,606,61,0.118543302722082,1
636,610,61,0.125121318673142,1
636,611,61,0.115942542050381,1
636,612,61,0.114000280120604,1
637,610,61,0.112906620155872,1
637,611,61,0.110301763746611,1
637,612,61,0.114898379509776,1
637,613,61,0.105554400876825,1
638,610,61,0.103448919448123,1
638,611,61,0.102422686652261,1
638,612,61,0.111061806279845,1
638,613,61,0.104858343350043,1
638,615,61,0.110717938611528,1
638,616,61,0.103477785683584,1
638,628,61,0.110048634093914,1
639,610,61,0.0997875697139011,1
640,610,61,0.100311726085281,1
641,610,61,0.103131238357183,1
642,610,61,0.103927695918774,1
620,609,62,0.101135481301991,1
620,610,62,0.115440716163037,1
621,609,62,0.10557526081679,1
621,610,62,0.120804171640917,1
627,610,62,0.102798437894613,1
628,610,62,0.10763585252612,1
630,605,62,0.107032471954547,1
630,606,62,0.132790173322901,1
631,606,62,0.117101712030231,1
632,641,62,0.111102578475819,1
632,642,62,0.127337406801795,1
633,641,62,0.124427025799245,1
636,610,62,0.109147778796225,1
636,611,62,0.11188471184887,1
636,612,62,0.116600703111815,1
637,610,62,0.104302085546247,1
637,611,62,0.108353151245033,1
637,612,62,0.115898872337942,1
637,613,62,0.103675579307548,1
638,610,62,0.100984581694503,1
638,611,62,0.103068778359397,1
638,612,62,0.113810318505431,1
638,613,62,0.111070673115945,1
638,614,62,0.103620101670867,1
638,615,62,0.112723826081429,1
638,616,62,0.111593511444121,1
638,628,62,0.10200576017593,1
639,610,62,0.10036245440926,1
639,612,62,0.102473926943434,1
639,613,62,0.101329865442295,1
640,610,62,0.102139361827979,1
641,610,62,0.10051264597701,1
619,618,63,0.100885663096683,1
620,610,63,0.131150353290324,1
620,611,63,0.102414930893903,1
621,609,63,0.100475718981458,1
621,610,63,0.13885620029315,1
621,611,63,0.1129172189661,1
622,611,63,0.0999528806532819,1
623,611,63,0.102199174846439,1
624,611,63,0.104978753677133,1
627,610,63,0.116597968989136,1
627,611,63,0.108703576450613,1
628,610,63,0.118858554692076,1
628,611,63,0.108954712699125,1
630,606,63,0.119605482150783,1
630,645,63,0.10156596946253,1
631,606,63,0.110968464856574,1
631,644,63,0.0999554731680139,1
632,641,63,0.115927803930917,1
632,642,63,0.147142422022531,1
633,640,63,0.106693310027257,1
633,641,63,0.124355655393682,1
633,642,63,0.123751828212429,1
634,639,63,0.113934192780776,1
634,640,63,0.129510674865695,1
635,637,63,0.117483574200166,1
635,638,63,0.114193912649494,1
635,639,63,0.105655617880562,1
636,611,63,0.107359150596616,1
636,612,63,0.116173439255313,1
637,611,63,0.104683468427744,1
637,612,63,0.116352802060258,1
637,613,63,0.107576616832369,1
637,614,63,0.0998520993663056,1
638,611,63,0.101936089065737,1
638,612,63,0.113372771733354,1
638,613,63,0.115669892286761,1
638,614,63,0.110463087877622,1
638,615,63,0.112170607402045,1
638,616,63,0.124306125290798,1
638,617,63,0.110021815727233,1
639,612,63,0.103452416075135,1
639,613,63,0.108300712732765,1
639,614,63,0.100050197992003,1
639,616,63,0.100529573573201,1
640,610,63,0.104269461253716,1
618,622,64,0.106322656671016,1
619,617,64,0.114155656717819,1
619,618,64,0.125756702640859,1
620,610,64,0.132314446869581,1
620,611,64,0.105483891011866,1
620,618,64,0.119213326172353,1
621,610,64,0.136952085365858,1
621,611,64,0.120059912947375,1
622,611,64,0.10478470721732,1
622,612,64,0.121183463081959,1
622,613,64,0.108559833490935,1
623,611,64,0.10390170541394,1
623,612,64,0.117004656121567,1
624,611,64,0.110622767177859,1
624,612,64,0.109654767927195,1
627,610,64,0.126260467467793,1
627,611,64,0.138377129713684,1
628,610,64,0.125327347343901,1
628,611,64,0.139538870422429,1
630,606,64,0.106788873606012,1
631,606,64,0.105594105566733,1
631,644,64,0.0998478729137174,1
632,641,64,0.121391038547222,1
632,642,64,0.160883240283418,1
632,643,64,0.101346564287186,1
633,640,64,0.117761256492384,1
633,641,64,0.133519966219955,1
633,642,64,0.139506747204174,1
634,638,64,0.105881972738254,1
634,639,64,0.120794847302218,1
634,640,64,0.137799031607209,1
635,611,64,0.100618514257179,1
635,637,64,0.128903852131705,1
635,638,64,0.12298855048224,1
635,639,64,0.104010569246846,1
636,611,64,0.102311513520519,1
636,612,64,0.108057343135529,1
636,637,64,0.107706776322002,1
637,611,64,0.100543897761742,1
637,612,64,0.112597141432971,1
637,613,64,0.111453711721136,1
637,614,64,0.10624460890608,1
638,612,64,0.107999981023854,1
638,613,64,0.115594001319795,1
638,614,64,0.114295805014212,1
638,615,64,0.111124364313903,1
638,616,64,0.126478227812361,1
638,617,64,0.115298541783701,1
639,613,64,0.111734563852795,1
639,614,64,0.107757711611442,1
639,616,64,0.101921405410869,1
640,613,64,0.10621891251006,1
619,617,65,0.101092192841719,1
619,618,65,0.118556537618718,1
620,610,65,0.116369337511364,1
620,611,65,0.10286123557289,1
620,618,65,0.106361903858324,1
621,610,65,0.116007442062033,1
621,611,65,0.117495708911979,1
621,612,65,0.103844789911946,1
622,611,65,0.103495029174428,1
622,612,65,0.130094666041372,1
622,613,65,0.117630247355066,1
623,612,65,0.121121896303533,1
624,611,65,0.100070992574454,1
624,612,65,0.111489505853108,1
627,610,65,0.125227034452444,1
627,611,65,0.153917381949869,1
627,612,65,0.103337561136757,1
628,610,65,0.12349599711581,1
628,611,65,0.155244346454642,1
628,612,65,0.113403130298724,1
631,606,65,0.099805477672806,1
631,607,65,0.107220124270883,1
632,641,65,0.12452099901182,1
632,642,65,0.156175222637211,1
632,643,65,0.104859901037466,1
633,639,65,0.10658468583857,1
633,640,65,0.128694087189714,1
633,641,65,0.148161781386478,1
633,642,65,0.156547836718879,1
634,638,65,0.108421678598726,1
634,639,65,0.123516029193928,1
634,640,65,0.135672156485509,1
635,637,65,0.127218608626724,1
635,638,65,0.118560491748331,1
636,614,65,0.101982177006204,1
637,612,65,0.107109473999255,1
637,613,65,0.112434423008322,1
637,614,65,0.121495479854996,1
637,615,65,0.104938155767864,1
638,612,65,0.101925533827186,1
638,613,65,0.106674519741909,1
638,614,65,0.112055948536209,1
638,615,65,0.107993238306967,1
638,616,65,0.116397201598273,1
638,617,65,0.108349741761373,1
639,613,65,0.104403258978308,1
639,614,65,0.104263491934081,1
640,613,65,0.105251152903615,1
622,612,66,0.110596547921724,1
622,613,66,0.101353100038612,1
623,612,66,0.102684171173863,1
627,610,66,0.110571842781337,1
627,611,66,0.149276214147823,1
627,612,66,0.109625683833353,1
628,610,66,0.113049633289974,1
628,611,66,0.154127419214836,1
628,612,66,0.122069765439808,1
630,607,66,0.101367282619204,1
631,607,66,0.10619424004843,1
632,640,66,0.113796135924839,1
632,641,66,0.126466997212828,1
632,642,66,0.135090518180344,1
633,639,66,0.122158564515838,1
633,640,66,0.147530220833344,1
633,641,66,0.159289660692174,1
634,638,66,0.117928865837682,1
634,639,66,0.130831561121642,1
636,614,66,0.109031943495132,1
637,613,66,0.106574500959266,1
637,614,66,0.126804459844748,1
637,615,66,0.108308719028261,1
638,614,66,0.102749082078434,1
638,615,66,0.10101997278847,1
638,616,66,0.100882558614756,1
627,612,67,0.102483839499762,1
628,612,67,0.11609194932796,1
632,640,67,0.134601066649032,1
632,641,67,0.136170866998007,1
632,642,67,0.119508382670443,1
633,638,67,0.107065597321354,1
633,639,67,0.130711597404233,1
633,640,67,0.165240102898469,1
633,641,67,0.167229694561483,1
634,637,67,0.106277745165806,1
634,639,67,0.137385253184481,1
637,614,67,0.123592290520141,1
619,637,68,0.121623319152873,1
629,644,68,0.101286119479423,1
632,639,68,0.116977402038124,1
632,640,68,0.144836238560482,1
632,641,68,0.130099829284998,1
632,642,68,0.100727356304246,1
633,638,68,0.122382348644636,1
633,639,68,0.143907922213888,1
633,640,68,0.166795611737661,1
633,641,68,0.150858007600663,1
634,637,68,0.119340087071245,1
634,638,68,0.141121143163707,1
634,639,68,0.133902471072114,1
634,640,68,0.129103257907687,1
635,637,68,0.114709420043155,1
619,636,69,0.100658262518763,1
619,637,69,0.144411425610764,1
619,638,69,0.101292132370734,1
629,644,69,0.100330091546786,1
632,639,69,0.12931948235067,1
632,640,69,0.145361495116685,1
632,641,69,0.122857606702437,1
633,637,69,0.102482750207858,1
633,638,69,0.125737999498864,1
633,639,69,0.149273436453467,1
633,640,69,0.157337279240607,1
633,641,69,0.132534364012119,1
634,636,69,0.11422374835475,1
634,637,69,0.127180374480886,1
634,638,69,0.129510358971043,1
634,639,69,0.118683625305181,1
634,640,69,0.11305423010181,1
635,637,69,0.109881242606996,1
619,637,70,0.134833565113063,1
632,638,70,0.104832309273533,1
632,639,70,0.138138629251261,1
632,640,70,0.142809088112611,1
632,641,70,0.11423909647768,1
633,636,70,0.103397047367645,1
633,637,70,0.11436860239217,1
633,638,70,0.13191468763366,1
633,639,70,0.152127609993761,1
633,640,70,0.146702053984422,1
634,637,70,0.130101245364474,1
