x,y,z,signal,mito.p
618,620,12,0.0999752656019131,1
617,620,13,0.103326297858468,1
618,620,13,0.126864599650779,1
618,621,13,0.166376484891683,1
619,620,13,0.100229996513709,1
619,621,13,0.120767571432936,1
649,605,13,0.105193856149455,1
618,620,14,0.131654532048181,1
619,620,14,0.0998924031667609,1
619,621,14,0.125665485336802,1
640,576,14,0.13178701172957,1
640,577,14,0.142401856334227,1
641,576,14,0.124822613047173,1
641,577,14,0.138764405664383,1
641,578,14,0.10038451257032,1
642,577,14,0.103572554079249,1
647,588,14,0.105920620815015,1
647,589,14,0.113177712232069,1
649,605,14,0.111909297167147,1
618,620,15,0.119394791310673,1
619,621,15,0.115425760185192,1
639,575,15,0.10297288799307,1
639,576,15,0.132640733366564,1
639,577,15,0.118076388640268,1
640,575,15,0.130220522827983,1
640,576,15,0.181246931535978,1
640,577,15,0.168892999727514,1
641,576,15,0.159325629110851,1
641,577,15,0.160333692517751,1
641,578,15,0.107818711958077,1
642,577,15,0.115960341080095,1
642,578,15,0.10312035633106,1
643,578,15,0.104320875831594,1
643,579,15,0.105197396348143,1
644,579,15,0.102351599462593,1
647,588,15,0.142559662052388,1
647,589,15,0.145010754016453,1
649,605,15,0.116798551200374,1
639,575,16,0.142464839192128,1
639,576,16,0.161684850195716,1
639,577,16,0.11899483600221,1
640,575,16,0.179921208823976,1
640,576,16,0.21453864410927,1
640,577,16,0.163625173185903,1
641,576,16,0.17793175876891,1
641,577,16,0.155839012690981,1
641,578,16,0.105193899721131,1
642,577,16,0.123277986234104,1
642,578,16,0.113026159049439,1
643,578,16,0.112029086597852,1
643,579,16,0.112245528899216,1
646,588,16,0.106848741089067,1
646,589,16,0.102087598676692,1
649,605,16,0.104799543373055,1
638,575,17,0.108487439150982,1
638,576,17,0.104385427269837,1
639,574,17,0.142518900749333,1
639,575,17,0.194791263323185,1
639,576,17,0.191726867338301,1
639,577,17,0.122202702623796,1
640,575,17,0.232877897250801,1
640,576,17,0.235757113611972,1
640,577,17,0.151456932968347,1
641,576,17,0.190749881429427,1
641,577,17,0.145346844140574,1
641,578,17,0.107352832703571,1
642,577,17,0.129915804310703,1
642,578,17,0.122237189605483,1
642,579,17,0.104824248513442,1
643,578,17,0.116334403919996,1
643,579,17,0.115030913655759,1
635,627,18,0.106149884082091,1
636,626,18,0.101454916152897,1
638,574,18,0.120677280026998,1
638,575,18,0.119406631913672,1
639,574,18,0.20326425504246,1
639,575,18,0.220328056293368,1
639,576,18,0.185047656169342,1
639,577,18,0.108173320044569,1
640,574,18,0.214507185359077,1
640,575,18,0.253965891369219,1
640,576,18,0.223089607343048,1
640,577,18,0.132028344350944,1
641,575,18,0.208756116250007,1
641,576,18,0.196493695854415,1
641,577,18,0.138166046728489,1
641,578,18,0.11356314727945,1
642,576,18,0.177723900087751,1
642,577,18,0.140804823687647,1
642,578,18,0.130639878425261,1
642,579,18,0.11698381796744,1
643,578,18,0.125369993121951,1
643,579,18,0.12439445597131,1
611,611,19,0.10731714750079,1
611,612,19,0.111854255247228,1
612,610,19,0.100537307545721,1
612,611,19,0.104299405888162,1
635,626,19,0.1054266487223,1
636,626,19,0.123164830591096,1
638,573,19,0.113980509472543,1
638,574,19,0.140847295178992,1
638,575,19,0.122825254732882,1
639,573,19,0.186310624774743,1
639,574,19,0.258886658617234,1
639,575,19,0.232590106329713,1
639,576,19,0.16496766010031,1
640,573,19,0.17682760892314,1
640,574,19,0.255016818412549,1
640,575,19,0.253763566290933,1
640,576,19,0.194105379782789,1
640,577,19,0.112047942240713,1
641,574,19,0.192387544664034,1
641,575,19,0.221176549329222,1
641,576,19,0.193366142724925,1
641,577,19,0.126418393008063,1
641,578,19,0.10783026934518,1
642,576,19,0.212374918242451,1
642,577,19,0.142073925006469,1
642,578,19,0.125083629173256,1
642,579,19,0.121354133337508,1
643,577,19,0.132975919378404,1
643,578,19,0.125704743417029,1
643,579,19,0.133138746732244,1
643,580,19,0.10864141056164,1
610,611,20,0.115240199309312,1
611,611,20,0.108986432879375,1
611,612,20,0.118552463666997,1
612,611,20,0.104872384322688,1
617,589,20,0.101778250668819,1
622,580,20,0.103944961195456,1
622,581,20,0.11860199376988,1
634,626,20,0.112780382117095,1
635,625,20,0.116549397463128,1
638,573,20,0.113260302344246,1
638,574,20,0.145436438399694,1
638,575,20,0.12031261777623,1
639,573,20,0.194389989971517,1
639,574,20,0.28421910042619,1
639,575,20,0.232159465668308,1
639,576,20,0.142046224313345,1
640,573,20,0.183040929944675,1
640,574,20,0.272888547468799,1
640,575,20,0.244424478578632,1
640,576,20,0.166223766166715,1
641,574,20,0.192409657289689,1
641,575,20,0.214704412551251,1
641,576,20,0.180297809714014,1
641,577,20,0.118162747702432,1
641,578,20,0.10037473072902,1
642,576,20,0.223895225849553,1
642,577,20,0.140591529439887,1
642,578,20,0.119158022822377,1
642,579,20,0.118550633656598,1
643,577,20,0.133903168218932,1
643,578,20,0.124130880009251,1
643,579,20,0.137288937994312,1
643,580,20,0.11762246981087,1
611,611,21,0.111981985615914,1
611,612,21,0.129717193717811,1
616,590,21,0.105215903417596,1
622,580,21,0.110253802224069,1
622,581,21,0.13503575947632,1
623,581,21,0.118219140344313,1
627,574,21,0.261790275117059,1
627,575,21,0.166063574899284,1
628,574,21,0.165039204792578,1
628,575,21,0.11215849447607,1
634,625,21,0.132767450693779,1
638,573,21,0.108946041935568,1
638,574,21,0.141606063240698,1
638,575,21,0.11871888568412,1
639,573,21,0.186071982704372,1
639,574,21,0.28052566015247,1
639,575,21,0.227145956107569,1
639,576,21,0.125994712921926,1
640,573,21,0.178148418928654,1
640,574,21,0.268914331313854,1
640,575,21,0.233292220319481,1
640,576,21,0.148029922601475,1
641,574,21,0.181524711864467,1
641,575,21,0.195225738292093,1
641,576,21,0.16239053706293,1
641,577,21,0.118466104604832,1
642,575,21,0.236379752864411,1
642,576,21,0.205609282653813,1
642,577,21,0.1429213178575,1
642,578,21,0.126263441234691,1
642,579,21,0.12034354277339,1
642,580,21,0.0998548770606613,1
643,577,21,0.132503406336202,1
643,578,21,0.129902242626496,1
643,579,21,0.14854242354948,1
643,580,21,0.138233844256607,1
611,611,22,0.107070205026109,1
617,586,22,0.122793294908413,1
617,587,22,0.102868871509139,1
622,580,22,0.102313517817622,1
622,581,22,0.137672423209184,1
623,580,22,0.107486085782212,1
623,581,22,0.142094523516377,1
626,574,22,0.217017872483221,1
626,575,22,0.135949043594636,1
627,573,22,0.218402950711082,1
627,574,22,0.291343570553908,1
627,575,22,0.183059066654879,1
628,574,22,0.181970450111664,1
628,575,22,0.125782834753641,1
638,574,22,0.117807932650479,1
638,575,22,0.101306369415922,1
639,573,22,0.148103787485499,1
639,574,22,0.223313870760284,1
639,575,22,0.186973197468389,1
639,576,22,0.10146841247959,1
640,573,22,0.148255275310615,1
640,574,22,0.217482019763599,1
640,575,22,0.192948573566371,1
640,576,22,0.125422388062542,1
641,574,22,0.160020401273185,1
641,575,22,0.166702847639099,1
641,576,22,0.144777449476412,1
641,577,22,0.125218701369377,1
641,578,22,0.103513884817289,1
642,575,22,0.204441605304191,1
642,576,22,0.181080574876369,1
642,577,22,0.160103764782613,1
642,578,22,0.150321465980332,1
642,579,22,0.122083882662886,1
643,576,22,0.16652740628501,1
643,577,22,0.140795891494033,1
643,578,22,0.146125535351207,1
643,579,22,0.155892823711048,1
643,580,22,0.147486551120905,1
644,578,22,0.134888138637463,1
644,579,22,0.164800214148797,1
611,603,23,0.102476377850219,1
611,604,23,0.102793187507635,1
612,604,23,0.113219029073996,1
613,604,23,0.100611096179311,1
614,596,23,0.10820150002613,1
617,586,23,0.132999524333968,1
617,587,23,0.114423720562522,1
622,581,23,0.112602914680063,1
623,581,23,0.130691663362386,1
626,575,23,0.115020946634836,1
627,574,23,0.246990654232375,1
627,575,23,0.159497639195442,1
628,574,23,0.156708431024315,1
628,575,23,0.113740168106801,1
638,574,23,0.106820245212853,1
639,573,23,0.121569867599134,1
639,574,23,0.172488545337804,1
639,575,23,0.151771814579093,1
640,573,23,0.123795759354925,1
640,574,23,0.164978171767186,1
640,575,23,0.156839614448337,1
640,576,23,0.111404846086314,1
641,574,23,0.143604478168136,1
641,575,23,0.150024002147135,1
641,576,23,0.139599740054035,1
641,577,23,0.129813672301766,1
641,578,23,0.101195207177098,1
642,575,23,0.172484188170187,1
642,576,23,0.160827664610466,1
642,577,23,0.168343484640604,1
642,578,23,0.158692924801217,1
642,579,23,0.109982677469115,1
643,576,23,0.140225048071639,1
643,577,23,0.13560277948413,1
643,578,23,0.14616905256278,1
643,579,23,0.142419775186051,1
643,580,23,0.135201233809487,1
644,578,23,0.12914416081869,1
610,603,24,0.144124822017851,1
610,604,24,0.127948695632592,1
611,603,24,0.10477708217399,1
611,604,24,0.106897759224755,1
612,604,24,0.123064234483743,1
612,605,24,0.101572799322769,1
613,596,24,0.112014751516393,1
613,604,24,0.117357684734798,1
614,596,24,0.127880898104475,1
616,587,24,0.130883640167582,1
616,588,24,0.103630199406819,1
617,586,24,0.129323785053692,1
617,587,24,0.117822322196533,1
623,581,24,0.104038128332022,1
626,575,24,0.103340752762036,1
627,574,24,0.175824643402352,1
627,575,24,0.120517415547138,1
628,574,24,0.11924269348209,1
638,574,24,0.100445120771869,1
639,573,24,0.111312724669976,1
639,574,24,0.136949732495345,1
639,575,24,0.121305986635342,1
640,573,24,0.120784106884042,1
640,574,24,0.139056804290227,1
640,575,24,0.134893171166061,1
640,576,24,0.102557530097081,1
641,574,24,0.143846660437196,1
641,575,24,0.14596256638942,1
641,576,24,0.136949590887397,1
641,577,24,0.12270236082025,1
642,575,24,0.151923258832534,1
642,576,24,0.148022962026207,1
642,577,24,0.160966418613222,1
642,578,24,0.145725590935663,1
643,576,24,0.124066818752366,1
643,577,24,0.124616595269332,1
643,578,24,0.132361297314381,1
643,579,24,0.119715674919811,1
643,580,24,0.1129808880779,1
610,601,25,0.121143235531937,1
610,602,25,0.12608505879246,1
610,603,25,0.140029313209374,1
610,604,25,0.134318460757407,1
611,601,25,0.111966789993851,1
611,602,25,0.104768465875028,1
611,603,25,0.10402688683957,1
611,604,25,0.108766624666027,1
612,604,25,0.116954014940941,1
612,605,25,0.10233492240354,1
613,596,25,0.11067266763999,1
613,604,25,0.113392618631848,1
614,596,25,0.124841098330787,1
616,587,25,0.119688333693016,1
616,588,25,0.110086497880504,1
617,586,25,0.105455711030304,1
617,587,25,0.10233195952956,1
639,573,25,0.107906312813012,1
639,574,25,0.110036325095396,1
640,572,25,0.112130804675866,1
640,573,25,0.129145108502647,1
640,574,25,0.130766802717938,1
640,575,25,0.119284511398293,1
641,573,25,0.13954658260911,1
641,574,25,0.147013537004427,1
641,575,25,0.146590292635052,1
641,576,25,0.129047507948031,1
641,577,25,0.10695694045391,1
642,574,25,0.14282206157919,1
642,575,25,0.143159665819057,1
642,576,25,0.137857188901974,1
642,577,25,0.139990839419318,1
642,578,25,0.116496621270369,1
643,576,25,0.117002227000621,1
643,577,25,0.113946196777561,1
643,578,25,0.109461636472581,1
609,600,26,0.203684089928175,1
609,601,26,0.197968923880268,1
610,600,26,0.145613535477478,1
610,601,26,0.156621494637441,1
610,602,26,0.145492221038108,1
610,603,26,0.139831987980929,1
610,604,26,0.145034271828665,1
611,600,26,0.107961289375417,1
611,601,26,0.135030095158418,1
611,602,26,0.116362997832482,1
611,603,26,0.104072746028737,1
611,604,26,0.110243497522656,1
611,605,26,0.10379971501295,1
612,601,26,0.103607378741426,1
612,604,26,0.101830340607678,1
614,596,26,0.105204618353468,1
616,588,26,0.105759525435304,1
639,573,26,0.117513900086779,1
639,574,26,0.103710632721025,1
640,572,26,0.120285483514896,1
640,573,26,0.155556962338227,1
640,574,26,0.14591902739201,1
640,575,26,0.11636494766499,1
641,573,26,0.147005933746936,1
641,574,26,0.157153178015879,1
641,575,26,0.149521370183781,1
641,576,26,0.118329147933717,1
642,574,26,0.131567780840931,1
642,575,26,0.133947153826024,1
642,576,26,0.123066914141828,1
642,577,26,0.113238712578704,1
643,576,26,0.105648886056595,1
608,600,27,0.187959899861048,1
608,601,27,0.18212490081076,1
609,599,27,0.167590664112695,1
609,600,27,0.227026526143193,1
609,601,27,0.227286757979106,1
609,602,27,0.198088048842911,1
610,599,27,0.137120511680085,1
610,600,27,0.184163510609463,1
610,601,27,0.186768454162076,1
610,602,27,0.160070094769854,1
610,603,27,0.133704927985288,1
610,604,27,0.15255513528032,1
610,605,27,0.169397004198667,1
611,600,27,0.128579809576045,1
611,601,27,0.143481148538743,1
611,602,27,0.115923283369515,1
611,604,27,0.105984409748925,1
611,605,27,0.111886846861002,1
611,606,27,0.100570454698366,1
612,601,27,0.101907604082443,1
615,589,27,0.103199515173738,1
619,589,27,0.112337410671335,1
639,573,27,0.124235016315292,1
639,574,27,0.114184337773656,1
640,572,27,0.120357714461064,1
640,573,27,0.171066376720604,1
640,574,27,0.16557573551999,1
640,575,27,0.127503687210971,1
641,572,27,0.11492868361055,1
641,573,27,0.153620811336033,1
641,574,27,0.167771856928039,1
641,575,27,0.153435686176915,1
641,576,27,0.109422400178192,1
642,573,27,0.120954014635259,1
642,574,27,0.133693120061046,1
642,575,27,0.133624276812701,1
642,576,27,0.111309641973887,1
608,600,28,0.153729969277752,1
608,601,28,0.158969452444017,1
609,599,28,0.139944707907175,1
609,600,28,0.206136674222149,1
609,601,28,0.226359726996959,1
609,602,28,0.200351749920697,1
610,599,28,0.130933878310203,1
610,600,28,0.194853026174153,1
610,601,28,0.203916392319664,1
610,602,28,0.166719818806967,1
610,603,28,0.12440923766245,1
610,604,28,0.152205222041935,1
611,600,28,0.132018780368025,1
611,601,28,0.138410799726443,1
611,602,28,0.111779508036762,1
611,604,28,0.101052085113806,1
611,605,28,0.119528512784832,1
611,606,28,0.108075708597034,1
618,589,28,0.112000329291581,1
619,588,28,0.10940820670468,1
619,589,28,0.144067165797362,1
619,590,28,0.122051465335817,1
620,589,28,0.104019240010403,1
639,573,28,0.115331732508022,1
639,574,28,0.123127184662887,1
639,575,28,0.103482785533424,1
640,572,28,0.112417713270512,1
640,573,28,0.155769341580788,1
640,574,28,0.170849400666207,1
640,575,28,0.136458614347419,1
641,573,28,0.149595670784567,1
641,574,28,0.168609881868695,1
641,575,28,0.144888208677231,1
641,576,28,0.103023757924996,1
642,574,28,0.138777313773448,1
642,576,28,0.102781510298422,1
643,612,28,0.130940610134171,1
608,601,29,0.13153766191978,1
609,600,29,0.174049359028569,1
609,601,29,0.212889020449556,1
609,602,29,0.183337446093916,1
610,599,29,0.125672936093426,1
610,600,29,0.193201507146525,1
610,601,29,0.21667825305333,1
610,602,29,0.165603087639704,1
610,607,29,0.132535453304024,1
611,600,29,0.134630433958769,1
611,601,29,0.139455299947539,1
611,604,29,0.100440730925495,1
611,605,29,0.121770841955458,1
611,606,29,0.113115067054659,1
611,607,29,0.100025972140053,1
612,607,29,0.100123605373427,1
613,607,29,0.100959996376225,1
618,588,29,0.113498497804936,1
618,589,29,0.128421012602251,1
618,590,29,0.101406115875589,1
619,588,29,0.125141546823803,1
619,589,29,0.164859711272604,1
619,590,29,0.135633127156581,1
620,589,29,0.111765630457903,1
638,574,29,0.108339142951145,1
639,573,29,0.113990944888985,1
639,574,29,0.156809136060858,1
639,575,29,0.148220722971414,1
639,576,29,0.107124092296609,1
640,573,29,0.136069769816378,1
640,574,29,0.195064871663681,1
640,575,29,0.180249445153467,1
640,576,29,0.132332638044381,1
641,573,29,0.147788731588048,1
641,574,29,0.188843707740437,1
641,575,29,0.163501364268072,1
641,576,29,0.122188520043203,1
641,579,29,0.114517138236226,1
641,580,29,0.122040027770823,1
642,574,29,0.159774907556736,1
642,576,29,0.107375631583126,1
642,612,29,0.123283214835244,1
642,613,29,0.116371646810201,1
607,638,30,0.118861539351893,1
608,601,30,0.11524636470149,1
608,640,30,0.109944367072844,1
609,600,30,0.147094166391176,1
609,601,30,0.193638814274384,1
609,602,30,0.162285975933046,1
610,600,30,0.172359692998456,1
610,601,30,0.209489318630722,1
610,602,30,0.157658315350612,1
611,601,30,0.132784116859914,1
611,606,30,0.112042539352869,1
611,607,30,0.102103262694274,1
612,606,30,0.102000389966842,1
612,607,30,0.107782754432319,1
613,606,30,0.104716223435303,1
613,608,30,0.0999460616859616,1
618,588,30,0.110704736393649,1
618,589,30,0.122401280537931,1
619,588,30,0.119590449922505,1
619,589,30,0.153659001910194,1
619,590,30,0.125528561344444,1
620,589,30,0.102795071982629,1
637,574,30,0.100988154571949,1
638,573,30,0.112476502354581,1
638,574,30,0.138724820796585,1
638,575,30,0.131754006184872,1
638,576,30,0.103203142515779,1
639,573,30,0.12663718817994,1
639,574,30,0.190725285218231,1
639,575,30,0.197809211901275,1
639,576,30,0.150944584521209,1
640,573,30,0.139088557149234,1
640,574,30,0.21664971360544,1
640,575,30,0.226718496178525,1
640,576,30,0.176612332164114,1
640,577,30,0.118073534695479,1
641,573,30,0.165082220929875,1
641,574,30,0.205801106958142,1
641,575,30,0.182793954791236,1
641,576,30,0.136949046241445,1
641,577,30,0.100746549627598,1
641,579,30,0.116613251754552,1
641,580,30,0.127495561093365,1
641,581,30,0.101871581199171,1
642,574,30,0.176447032117652,1
607,640,31,0.116832308356485,1
608,601,31,0.102001403008313,1
608,641,31,0.105631707923265,1
609,600,31,0.116326157980282,1
609,601,31,0.158249713711238,1
609,602,31,0.139464123211963,1
610,600,31,0.136841816346396,1
610,601,31,0.175946992669031,1
610,602,31,0.142470917440953,1
611,601,31,0.114576101607,1
611,606,31,0.111916225063658,1
611,607,31,0.107213839056596,1
611,608,31,0.102562540839841,1
612,606,31,0.107179929399618,1
612,608,31,0.107501738906875,1
618,588,31,0.106283965022579,1
618,589,31,0.111585864614953,1
619,588,31,0.111321613291915,1
619,589,31,0.130284300868974,1
619,590,31,0.105224051321039,1
632,578,31,0.119130834096449,1
632,579,31,0.103177413441002,1
634,631,31,0.114623006516395,1
635,575,31,0.10076369508217,1
637,574,31,0.11578950743076,1
637,575,31,0.127811662711044,1
637,576,31,0.110750497546545,1
638,573,31,0.120993348965919,1
638,574,31,0.164353430181372,1
638,575,31,0.180432162977477,1
638,576,31,0.15430509361733,1
638,622,31,0.135849297134969,1
638,623,31,0.151652635151855,1
639,574,31,0.198490346128969,1
639,575,31,0.228807866979963,1
639,576,31,0.195515686011152,1
639,577,31,0.12211624552536,1
640,573,31,0.140245308901057,1
640,574,31,0.203838878307762,1
640,575,31,0.237542179827055,1
640,576,31,0.20080435070689,1
640,577,31,0.133265660132002,1
640,578,31,0.101573648970454,1
641,574,31,0.19273027946877,1
641,575,31,0.182768922863278,1
641,576,31,0.14099444762233,1
641,577,31,0.103759149782438,1
609,601,32,0.122946699887281,1
610,601,32,0.136904102057478,1
618,588,32,0.107899689918235,1
618,589,32,0.103189624403248,1
619,587,32,0.104899681977808,1
619,588,32,0.110024157704827,1
619,589,32,0.10723062504484,1
631,576,32,0.101018752781538,1
631,577,32,0.111764061877561,1
631,578,32,0.117009296505079,1
631,579,32,0.122443185597485,1
631,580,32,0.110023493236765,1
632,577,32,0.130904402071276,1
632,578,32,0.149307248074174,1
632,579,32,0.128885127203872,1
633,577,32,0.104714938070856,1
633,578,32,0.107901617964905,1
635,575,32,0.103595374744642,1
636,575,32,0.110923607815959,1
636,576,32,0.102964740089627,1
637,574,32,0.124631082851658,1
637,575,32,0.159111583251676,1
637,576,32,0.143321000842988,1
638,574,32,0.174898015458209,1
638,575,32,0.22597642696171,1
638,576,32,0.20280683958605,1
638,577,32,0.12020698914028,1
638,593,32,0.10243315474746,1
639,574,32,0.187703654833505,1
639,575,32,0.239940953100961,1
639,576,32,0.22408434870996,1
639,577,32,0.142290694095404,1
640,574,32,0.179693252707185,1
640,575,32,0.219128310190086,1
640,576,32,0.196493216565977,1
640,577,32,0.134177909423009,1
640,578,32,0.103530507411747,1
641,575,32,0.170082179699325,1
641,577,32,0.104783312923682,1
612,605,33,0.101794197902297,1
613,603,33,0.100327716890435,1
613,604,33,0.11405365542391,1
614,600,33,0.10763220339824,1
614,601,33,0.102271449364282,1
614,604,33,0.116811709846577,1
616,597,33,0.124550268285286,1
616,598,33,0.102986177354301,1
619,588,33,0.109393381441864,1
630,577,33,0.112110663668557,1
630,578,33,0.108338391339731,1
630,580,33,0.102684192959701,1
631,576,33,0.127494874839466,1
631,577,33,0.161449083855971,1
631,578,33,0.157462754775052,1
631,579,33,0.138185904519903,1
631,580,33,0.12471486029201,1
632,575,33,0.106073219717874,1
632,576,33,0.13074619331511,1
632,577,33,0.167227156511346,1
632,578,33,0.166886164573657,1
632,579,33,0.134892038302481,1
633,577,33,0.111338802318163,1
633,578,33,0.10976465569449,1
635,576,33,0.102267408091318,1
636,575,33,0.116675515679795,1
636,576,33,0.122002185770071,1
636,577,33,0.104057866301326,1
637,574,33,0.125740744514463,1
637,575,33,0.174524366549232,1
637,576,33,0.161696821513743,1
637,577,33,0.110466584504635,1
638,574,33,0.173820400763226,1
638,575,33,0.252913787890632,1
638,576,33,0.229424820128662,1
638,577,33,0.137039337647384,1
639,574,33,0.179498552672229,1
639,575,33,0.238425660918872,1
639,576,33,0.223919582416531,1
639,577,33,0.146150284063271,1
639,607,33,0.104947120640235,1
640,575,33,0.194015839988264,1
640,577,33,0.131029136887225,1
640,606,33,0.104471971511625,1
640,607,33,0.111677125490687,1
612,600,34,0.102784004776883,1
612,601,34,0.105049176398739,1
612,602,34,0.100583635130407,1
612,604,34,0.101447530753786,1
612,605,34,0.105777161071233,1
613,600,34,0.104387747461592,1
613,601,34,0.105552124256745,1
613,603,34,0.102832805054191,1
613,604,34,0.121344395067884,1
614,600,34,0.101969279790058,1
614,601,34,0.101093303919461,1
614,603,34,0.102262103239744,1
614,604,34,0.125309003668235,1
614,605,34,0.104791558863397,1
616,597,34,0.124792363410993,1
616,598,34,0.109895087507098,1
630,577,34,0.141022279030482,1
630,578,34,0.165245287927933,1
630,579,34,0.12998838383028,1
630,580,34,0.105135110637061,1
631,576,34,0.133730199557465,1
631,577,34,0.199162025302934,1
631,578,34,0.208192756262995,1
631,579,34,0.152351535730507,1
631,580,34,0.121990051058259,1
632,576,34,0.141041341638805,1
632,577,34,0.178545803508224,1
632,578,34,0.167500307349242,1
632,579,34,0.126208813245696,1
632,580,34,0.10054778653384,1
633,577,34,0.104631618133104,1
636,575,34,0.110598497754233,1
636,576,34,0.125080600941763,1
636,577,34,0.119239806858544,1
637,575,34,0.161236116395782,1
637,576,34,0.15733531851518,1
637,577,34,0.11942359218862,1
638,575,34,0.236377901068174,1
638,576,34,0.218731306862683,1
638,577,34,0.134856886852732,1
639,575,34,0.214369934579149,1
639,577,34,0.132048234821115,1
639,606,34,0.118515710958149,1
639,607,34,0.138047433733041,1
639,608,34,0.103694848881333,1
640,606,34,0.108336637579765,1
640,607,34,0.127266167111261,1
640,608,34,0.102771009524466,1
612,600,35,0.147900111685252,1
612,601,35,0.147006881430892,1
612,602,35,0.111637159370722,1
612,604,35,0.106188292514633,1
613,600,35,0.111430433553144,1
613,601,35,0.114624553310899,1
613,603,35,0.102354398942787,1
613,604,35,0.12341811274466,1
614,604,35,0.123888795776463,1
614,605,35,0.1280882230326,1
616,597,35,0.101795243622525,1
616,598,35,0.102373951732467,1
629,578,35,0.108804412202184,1
629,579,35,0.10049900804237,1
630,577,35,0.142120426877859,1
630,578,35,0.197062306228406,1
630,579,35,0.156100998286859,1
630,580,35,0.104998110394271,1
631,577,35,0.190466687320174,1
631,578,35,0.222983749955798,1
631,579,35,0.15648233759668,1
631,580,35,0.11277179849689,1
632,576,35,0.125677750763643,1
632,577,35,0.152539917872418,1
632,578,35,0.144541476171206,1
632,579,35,0.109933485046721,1
636,575,35,0.105122768959787,1
636,576,35,0.12612371776214,1
636,577,35,0.127411685616742,1
636,578,35,0.10421279628886,1
637,576,35,0.151079264572244,1
637,577,35,0.126944913142875,1
637,578,35,0.0999998073485146,1
638,577,35,0.127924872818647,1
639,606,35,0.122569772209672,1
639,607,35,0.15239516187127,1
639,608,35,0.120004359060261,1
611,601,36,0.162976587000306,1
612,600,36,0.183462191802784,1
612,601,36,0.1819741319183,1
612,602,36,0.118385921827764,1
613,600,36,0.120580256797091,1
613,601,36,0.126257188699161,1
613,602,36,0.105465983052961,1
613,604,36,0.113889858600276,1
613,605,36,0.134944106455501,1
614,604,36,0.113011736824627,1
614,605,36,0.142203343777607,1
614,606,36,0.144819234713857,1
615,605,36,0.100507885771389,1
615,606,36,0.114030072254184,1
615,607,36,0.122333461223975,1
629,579,36,0.103758997281571,1
630,578,36,0.185021251733584,1
630,579,36,0.155844088791254,1
630,580,36,0.100444793984298,1
631,577,36,0.155564511131123,1
631,578,36,0.194444454566727,1
631,579,36,0.143116377358785,1
631,580,36,0.100849117353297,1
632,577,36,0.118737948292443,1
632,578,36,0.11748591617776,1
636,576,36,0.11936560918056,1
636,577,36,0.121203516945915,1
636,578,36,0.114808741678979,1
636,579,36,0.110986078706665,1
637,577,36,0.122761901515734,1
637,578,36,0.109573888003308,1
637,579,36,0.100363783345383,1
638,607,36,0.10507782477582,1
639,607,36,0.13869758849898,1
639,611,36,0.103051894334882,1
612,601,37,0.186927556137603,1
613,600,37,0.122616568189876,1
613,601,37,0.132887861020869,1
613,602,37,0.113314581759832,1
613,605,37,0.12895257615858,1
614,601,37,0.101233016499093,1
614,602,37,0.107468166930388,1
614,605,37,0.135085823332237,1
614,606,37,0.154550707155888,1
614,607,37,0.139202115830246,1
615,606,37,0.122727861143728,1
630,578,37,0.141593351204176,1
630,579,37,0.1296111293651,1
631,577,37,0.113921437172578,1
631,578,37,0.1417493051261,1
631,579,37,0.116694610966876,1
632,581,37,0.102574163584458,1
633,581,37,0.106496976054444,1
634,580,37,0.111652627315762,1
634,581,37,0.101568376797638,1
635,578,37,0.102007143576648,1
635,579,37,0.128867197459129,1
635,580,37,0.135424854544499,1
635,581,37,0.102347340331248,1
636,577,37,0.104332770899188,1
636,578,37,0.116401079477452,1
636,579,37,0.140286756458012,1
636,580,37,0.131070573551261,1
637,578,37,0.108924103596617,1
637,579,37,0.113418434849978,1
638,607,37,0.100447506321139,1
614,602,38,0.103176269684503,1
614,605,38,0.116536129887734,1
615,606,38,0.118220578209626,1
615,607,38,0.131459842906144,1
632,581,38,0.113234518804873,1
632,582,38,0.113017466500043,1
633,580,38,0.103170921261253,1
633,581,38,0.127998345557585,1
633,582,38,0.124215594240641,1
634,579,38,0.102313550496379,1
634,580,38,0.138543388337022,1
634,581,38,0.127280066475958,1
634,582,38,0.104407311144192,1
635,579,38,0.141876730493052,1
635,580,38,0.173956997968012,1
635,581,38,0.128822242382243,1
636,578,38,0.110957016398661,1
636,579,38,0.145127994504102,1
636,580,38,0.149771613212932,1
636,581,38,0.108060393152861,1
637,579,38,0.111307485175917,1
616,607,39,0.111993586574694,1
626,585,39,0.10260154838293,1
627,584,39,0.112023400494112,1
627,585,39,0.100339775351814,1
628,584,39,0.101036758776714,1
628,585,39,0.100121699112594,1
629,584,39,0.111430106765572,1
629,585,39,0.119492566151994,1
630,584,39,0.117534661990473,1
630,585,39,0.112715492998362,1
632,581,39,0.113789262492923,1
632,582,39,0.129715331028655,1
632,583,39,0.104028662385374,1
633,580,39,0.101484686500639,1
633,581,39,0.13702187629816,1
633,582,39,0.146718927116018,1
633,583,39,0.111840421240045,1
634,579,39,0.103910256355388,1
634,580,39,0.152813330140371,1
634,581,39,0.145306649269309,1
634,582,39,0.118736913465134,1
635,579,39,0.14337555258155,1
635,580,39,0.192971731912254,1
635,581,39,0.149930900368083,1
635,582,39,0.0998497573887116,1
636,579,39,0.136490737565674,1
636,580,39,0.148551061634281,1
636,581,39,0.114227310339277,1
626,584,40,0.103861739293975,1
626,585,40,0.123110039208315,1
627,584,40,0.106994150665358,1
627,585,40,0.105218768255304,1
628,585,40,0.106767338305066,1
628,586,40,0.102549545587424,1
629,584,40,0.116975887922377,1
629,585,40,0.145767103850132,1
629,586,40,0.118103522901601,1
630,584,40,0.126813413824201,1
630,585,40,0.142635182660106,1
630,586,40,0.106528641770099,1
631,583,40,0.107747254409162,1
631,584,40,0.107745054039515,1
632,581,40,0.107023180294604,1
632,582,40,0.14037171033362,1
632,583,40,0.126360508036274,1
633,581,40,0.133888234026926,1
633,582,40,0.15521890059576,1
633,583,40,0.125300812193115,1
634,579,40,0.102028983879327,1
634,580,40,0.145486317075987,1
634,581,40,0.148733093204391,1
634,582,40,0.128318096303143,1
634,583,40,0.102346338182696,1
635,579,40,0.136094333348818,1
635,580,40,0.178782245208949,1
635,581,40,0.151597081264741,1
635,582,40,0.112886500934402,1
636,580,40,0.132362942145156,1
636,581,40,0.110084940193081,1
637,608,40,0.109330638228182,1
626,585,41,0.115153273815358,1
626,589,41,0.114636056233407,1
626,590,41,0.101708002233918,1
627,589,41,0.109017651985349,1
628,585,41,0.099950571354445,1
628,586,41,0.100675887261773,1
628,587,41,0.105085645891692,1
629,584,41,0.108756646752185,1
629,585,41,0.149513668890019,1
629,586,41,0.126201569454533,1
630,584,41,0.121013860332475,1
630,585,41,0.152948500372763,1
630,586,41,0.12182221296166,1
631,583,41,0.119672168601158,1
631,584,41,0.113565293184501,1
631,585,41,0.105137496186332,1
632,582,41,0.142170403590424,1
632,583,41,0.144013245848104,1
632,584,41,0.102153838517386,1
633,581,41,0.126066203149598,1
633,582,41,0.148120170435738,1
633,583,41,0.124851664462258,1
634,580,41,0.132924624622636,1
634,581,41,0.145092592517215,1
634,582,41,0.134786932526645,1
634,583,41,0.110011859599228,1
635,580,41,0.148535473867132,1
635,581,41,0.141889104849084,1
635,582,41,0.129453389004453,1
635,583,41,0.117844500179702,1
635,584,41,0.105752488609603,1
636,582,41,0.101625346764227,1
619,604,42,0.103085433632612,1
626,589,42,0.125234888247073,1
626,590,42,0.117105350265191,1
627,588,42,0.110406934879961,1
627,589,42,0.12950811502972,1
627,590,42,0.109296151246495,1
628,587,42,0.114473414059192,1
628,588,42,0.116763454215221,1
628,589,42,0.107406556580286,1
629,585,42,0.134356934547463,1
629,586,42,0.123168218288918,1
629,587,42,0.109338720774111,1
629,588,42,0.101228583081043,1
630,584,42,0.108684568306884,1
630,585,42,0.144168524409048,1
630,586,42,0.125556022393349,1
631,582,42,0.101093848565413,1
631,583,42,0.129608613100801,1
631,584,42,0.11546239307193,1
631,585,42,0.105699396522192,1
632,582,42,0.139074559748265,1
632,583,42,0.158302086865992,1
632,584,42,0.111987889578035,1
633,581,42,0.115132337624959,1
633,582,42,0.131265665731302,1
633,583,42,0.12026645358533,1
634,581,42,0.129879955714136,1
634,582,42,0.128917043456665,1
634,583,42,0.110409342215069,1
635,582,42,0.138011988174479,1
635,583,42,0.131602856040246,1
635,584,42,0.109565827243217,1
636,583,42,0.116697835270912,1
625,592,43,0.101453053463741,1
626,589,43,0.116121392888131,1
626,590,43,0.121193299387853,1
626,591,43,0.102212028490908,1
627,588,43,0.110633420452682,1
627,589,43,0.130360039335073,1
627,590,43,0.111994207471079,1
628,587,43,0.111428374791445,1
628,588,43,0.121049665357366,1
628,589,43,0.108360449500791,1
629,585,43,0.111705577795225,1
629,586,43,0.111975580579518,1
629,587,43,0.111907456263829,1
629,588,43,0.10296345472518,1
630,585,43,0.126962864673456,1
630,586,43,0.121768641585812,1
630,587,43,0.102374104233334,1
631,582,43,0.103748964903134,1
631,583,43,0.136146684717734,1
631,584,43,0.113074904862151,1
631,585,43,0.102732241625595,1
632,582,43,0.134752358401605,1
632,583,43,0.166979288138546,1
632,584,43,0.11530753933483,1
633,581,43,0.108725460324968,1
633,582,43,0.114899087549513,1
633,583,43,0.11585488673085,1
634,582,43,0.115958990358134,1
634,583,43,0.106086781402081,1
635,583,43,0.142741453978279,1
635,584,43,0.110796737987878,1
627,588,44,0.10813680697994,1
627,589,44,0.117909367512597,1
628,587,44,0.114844917063118,1
628,588,44,0.125333294877698,1
628,589,44,0.104415350118445,1
629,587,44,0.125515707699975,1
631,582,44,0.102796237524967,1
631,583,44,0.132053223778036,1
631,584,44,0.107403201561221,1
632,582,44,0.119879090491279,1
632,583,44,0.153651823476545,1
632,584,44,0.107183371562036,1
633,583,44,0.104628851331667,1
630,583,45,0.102539785531962,1
631,582,45,0.110788742585301,1
631,583,45,0.140585995837013,1
631,584,45,0.113759415894748,1
632,582,45,0.10768973979662,1
632,583,45,0.138208365718967,1
632,584,45,0.104152155408553,1
630,583,46,0.136808505799966,1
631,582,46,0.131695761746755,1
631,583,46,0.156381305772566,1
631,584,46,0.128300297273428,1
632,583,46,0.130065941413859,1
631,583,47,0.163391792395429,1
