x,y,z,fucci_ch00,fucci_ch02
152,372,11,0.00276188296330205,0.00965896086060884
153,372,11,0.021011673151751,0.00933852140077821
154,372,11,0.00247196154726482,0.0197451743343252
155,372,11,0.0360112916762036,0.0139620050354772
156,372,11,0.00486762798504616,0.0153200579842832
157,372,11,0.0701762417029068,0.00784313725490196
151,373,11,0.0301670862897688,0.0072480354009308
152,373,11,0.0184328984512093,0.0115968566414893
153,373,11,0.0216983291371023,0.0236362249179828
154,373,11,0.0361486228732738,0.00848401617456321
155,373,11,0.00173952849622339,0.0122072175173571
156,373,11,0.00143434805828946,0.00820935378042268
157,373,11,0.0021210040436408,0.0100404364080262
158,373,11,0.00833142595559625,0.0176394293125811
159,373,11,0.0029755092698558,0.00741588464179446
151,374,11,0.0455634393835355,0.00756847486076143
152,374,11,0.0112153810940719,0.00770580605783169
153,374,11,0.00221255817502098,0.00779736018921187
154,374,11,0.0303044174868391,0.00804150453955901
155,374,11,0.00500495918211643,0.00759899290455482
156,374,11,0.00233463035019455,0.00717174029144732
157,374,11,0.00202944991226062,0.00990310521095598
158,374,11,0.0450904097047379,0.0081025406271458
159,374,11,0.042221713588159,0.00720225833524071
160,374,11,0.00396734569314107,0.00749217975127794
152,375,11,0.0219424734874495,0.00874341954680705
153,375,11,0.00238040741588464,0.0169985503929198
154,375,11,0.00250247959105821,0.00828564888990616
155,375,11,0.00225833524071107,0.00946059357595178
156,375,11,0.0246128023193713,0.00822461280231937
157,375,11,0.0122529945830472,0.00859082932784009
158,375,11,0.0523689631494621,0.00752269779507134
159,375,11,0.0449073014419776,0.00915541313801785
160,375,11,0.00167849240863661,0.00749217975127794
161,375,11,0.0129854276340887,0.00756847486076143
152,376,11,0.00187685969329366,0.00762951094834821
153,376,11,0.00204470893415732,0.0170595864805066
154,376,11,0.00196841382467384,0.00941481651026169
155,376,11,0.0644235904478523,0.00816357671473259
156,376,11,0.0508583199816892,0.019653620202945
157,376,11,0.00180056458381018,0.0116731517509728
158,376,11,0.00656137941557946,0.0133363851377127
159,376,11,0.00230411230640116,0.0119172961013199
160,376,11,0.00971999694819562,0.01025406271458
161,376,11,0.00558480201419089,0.0109407186999313
162,376,11,0.00231937132829786,0.0105439841306172
153,377,11,0.00360112916762036,0.0130312046997787
154,377,11,0.00614938582436866,0.0072480354009308
155,377,11,0.00762951094834821,0.00749217975127794
156,377,11,0.00205996795605402,0.00770580605783169
157,377,11,0.0284733348592355,0.00733958953231098
158,377,11,0.00314335851071946,0.00773632410162509
159,377,11,0.0791943236438544,0.00776684214541848
160,377,11,0.0245365072098878,0.0233005264362554
161,377,11,0.0102082856488899,0.00720225833524071
162,377,11,0.0698100251773861,0.00820935378042268
154,378,11,0.00227359426260777,0.00772106507972839
155,378,11,0.00236514839398795,0.00953688868543526
156,378,11,0.00151064316777295,0.00828564888990616
157,378,11,0.0178683146410315,0.00836194399938964
158,378,11,0.00692759594110018,0.00778210116731518
159,378,11,0.00828564888990616,0.00888075074387732
160,378,11,0.00437933928435187,0.00764476997024491
161,378,11,0.00164797436484321,0.00816357671473259
162,378,11,0.0298924238956283,0.00758373388265812
163,378,11,0.00460822461280232,0.0164797436484321
154,379,11,0.00161745632104982,0.0162966353856718
155,379,11,0.00289921416037232,0.00915541313801785
156,379,11,0.00370794232089723,0.0134737163347829
157,379,11,0.00224307621881437,0.0122377355611505
158,379,11,0.00163271534294652,0.00775158312352178
159,379,11,0.0385290302891585,0.00775158312352178
160,379,11,0.0120393682764935,0.00718699931334401
161,379,11,0.00216678110933089,0.00720225833524071
162,379,11,0.00157167925535973,0.00758373388265812
163,379,11,0.00221255817502098,0.00791943236438544
155,380,11,0.0125886930647745,0.00926222629129473
156,380,11,0.0102693217364767,0.00828564888990616
157,380,11,0.0025787747005417,0.00944533455405508
158,380,11,0.00248722056916152,0.00744640268558785
159,380,11,0.00317387655451286,0.0120851453421836
160,380,11,0.00181582360570687,0.013870450904097
161,380,11,0.00729381246662089,0.00900282291905089
162,380,11,0.00305180437933928,0.00695811398489357
163,380,11,0.00201419089036393,0.00781261921110857
155,381,11,0.00584420538643473,0.0164187075608454
156,381,11,0.0221103227283131,0.0121309224078737
157,381,11,0.0701457236591135,0.00784313725490196
158,381,11,0.0168612191958495,0.00781261921110857
159,381,11,0.0511635004196231,0.0146486610208286
160,381,11,0.00209048599984741,0.0072480354009308
161,381,11,0.00125123979552911,0.00775158312352178
162,381,11,0.00193789578088045,0.0120851453421836
163,381,11,0.00228885328450446,0.0101167315175097
156,382,11,0.019806210421912,0.0112458991378653
157,382,11,0.0224612802319371,0.0141145952544442
158,382,11,0.0303196765087358,0.0234683756771191
159,382,11,0.0997787441824979,0.0120851453421836
160,382,11,0.00204470893415732,0.00875867856870375
161,382,11,0.00245670252536812,0.00738536659800107
162,382,11,0.00195315480277714,0.00741588464179446
163,382,11,0.00205996795605402,0.00776684214541848
157,383,11,0.0424505989166094,0.00804150453955901
158,383,11,0.00242618448157473,0.00830090791180285
159,383,11,0.00196841382467384,0.00927748531319142
160,383,11,0.00181582360570687,0.00701915007248035
161,383,11,0.00207522697795071,0.0129549095902953
162,383,11,0.00222781719691768,0.0081025406271458
163,383,11,0.00184634164950027,0.00749217975127794
157,384,11,0.0330510414282445,0.00721751735713741
158,384,11,0.00222781719691768,0.00779736018921187
159,384,11,0.0238803692683299,0.0135042343785763
160,384,11,0.00331120775158312,0.0137788967727169
161,384,11,0.00326543068589303,0.00698863202868696
162,384,11,0.00222781719691768,0.00788891432059205
163,384,11,0.00202944991226062,0.00787365529869535
158,385,11,0.00233463035019455,0.00743114366369116
159,385,11,0.0121461814297704,0.00741588464179446
160,385,11,0.00190737773708705,0.0114137483787289
161,385,11,0.00196841382467384,0.00799572747386892
162,385,11,0.0270847638666361,0.00758373388265812
163,385,11,0.00158693827725643,0.00737010757610437
159,386,11,0.00749217975127794,0.00944533455405508
160,386,11,0.00230411230640116,0.00773632410162509
161,386,11,0.0568551155870909,0.0126955062180514
162,386,11,0.00474555580987259,0.00753795681696803
160,387,11,0.00236514839398795,0.0189364461738003
161,387,11,0.0257419699397269,0.00915541313801785
154,370,12,0.00262455176623178,0.00720225833524071
155,370,12,0.0740672922865644,0.00778210116731518
156,370,12,0.0029755092698558,0.00784313725490196
157,370,12,0.0257724879835203,0.00753795681696803
158,370,12,0.0029755092698558,0.00706492713817044
152,371,12,0.0817120622568093,0.00752269779507134
153,371,12,0.00209048599984741,0.00834668497749294
154,371,12,0.00181582360570687,0.00762951094834821
155,371,12,0.00161745632104982,0.0101319905394064
156,371,12,0.00149538414587625,0.00747692072938125
157,371,12,0.00219729915312428,0.00843823910887312
158,371,12,0.0723125047684443,0.013519493400473
159,371,12,0.00196841382467384,0.00848401617456321
150,372,12,0.00141908903639277,0.00778210116731518
151,372,12,0.00152590218966964,0.00773632410162509
152,372,12,0.00758373388265812,0.00706492713817044
153,372,12,0.00187685969329366,0.0110933089188983
154,372,12,0.00207522697795071,0.0113832303349355
155,372,12,0.0386816205081254,0.00881971465629053
156,372,12,0.00196841382467384,0.00711070420386053
157,372,12,0.00184634164950027,0.00714122224765393
158,372,12,0.00193789578088045,0.00773632410162509
159,372,12,0.0926527809567407,0.00776684214541848
160,372,12,0.00390630960555428,0.00727855344472419
151,373,12,0.0183718623636225,0.00773632410162509
152,373,12,0.0172732127870604,0.00796520943007553
153,373,12,0.0181734950789654,0.00752269779507134
154,373,12,0.00163271534294652,0.00711070420386053
155,373,12,0.0021362630655375,0.00737010757610437
156,373,12,0.00526436255436027,0.0072327763790341
157,373,12,0.00195315480277714,0.00764476997024491
158,373,12,0.0021362630655375,0.0126802471961547
159,373,12,0.0017242694743267,0.0076752880140383
160,373,12,0.00204470893415732,0.0141298542763409
161,373,12,0.00205996795605402,0.0076752880140383
151,374,12,0.050614175631342,0.00735484855420768
152,374,12,0.0422980086976425,0.0177767605096513
153,374,12,0.0046845197222858,0.00839246204318303
154,374,12,0.00205996795605402,0.00796520943007553
155,374,12,0.00189211871519036,0.00749217975127794
156,374,12,0.0418554970626383,0.0068207827878233
157,374,12,0.00210574502174411,0.00732433051041428
158,374,12,0.00228885328450446,0.00758373388265812
159,374,12,0.0600289921416037,0.00796520943007553
160,374,12,0.00267032883192187,0.00772106507972839
161,374,12,0.00202944991226062,0.0106202792401007
162,374,12,0.00393682764934768,0.0102235446707866
152,375,12,0.00320439459830625,0.0145723659113451
153,375,12,0.00204470893415732,0.00784313725490196
154,375,12,0.00164797436484321,0.00706492713817044
155,375,12,0.00205996795605402,0.00744640268558785
156,375,12,0.00190737773708705,0.0225986114290074
157,375,12,0.0579232471198596,0.00971999694819562
158,375,12,0.00158693827725643,0.00703440909437705
159,375,12,0.0021515220874342,0.00755321583886473
160,375,12,0.0147707331960021,0.00791943236438544
161,375,12,0.0469520103761349,0.0072327763790341
162,375,12,0.00131227588311589,0.00703440909437705
152,376,12,0.00988784618905928,0.00746166170748455
153,376,12,0.0021362630655375,0.00787365529869535
154,376,12,0.00157167925535973,0.00790417334248875
155,376,12,0.00166323338673991,0.00733958953231098
156,376,12,0.00178530556191348,0.00746166170748455
157,376,12,0.00192263675898375,0.00749217975127794
158,376,12,0.00199893186846723,0.00787365529869535
159,376,12,0.0118867780575265,0.0143282215609979
160,376,12,0.00151064316777295,0.00691233691920348
161,376,12,0.00794995040817884,0.00761425192645151
162,376,12,0.00251773861295491,0.00819409475852598
163,376,12,0.00161745632104982,0.0162203402761883
153,377,12,0.00157167925535973,0.019653620202945
154,377,12,0.00222781719691768,0.00988784618905928
155,377,12,0.00228885328450446,0.0081177996490425
156,377,12,0.0280918593118181,0.00718699931334401
157,377,12,0.0130006866559854,0.00732433051041428
158,377,12,0.00242618448157473,0.00730907148851759
159,377,12,0.0025482566567483,0.00773632410162509
160,377,12,0.00134279392690929,0.00737010757610437
161,377,12,0.0038300144960708,0.00737010757610437
162,377,12,0.00260929274433509,0.00755321583886473
163,377,12,0.0227359426260777,0.00753795681696803
153,378,12,0.0266575112535286,0.00813305867093919
154,378,12,0.0365453574425879,0.00729381246662089
155,378,12,0.00494392309452964,0.00935378042267491
156,378,12,0.044983596551461,0.007690547035935
157,378,12,0.00645456626230259,0.00799572747386892
158,378,12,0.0207675288014038,0.00738536659800107
159,378,12,0.0176241702906844,0.00737010757610437
160,378,12,0.00549324788281071,0.00758373388265812
161,378,12,0.00181582360570687,0.0076600289921416
162,378,12,0.00183108262760357,0.00700389105058366
163,378,12,0.0740978103303578,0.00747692072938125
154,379,12,0.00570687418936446,0.0076600289921416
155,379,12,0.00198367284657053,0.0100251773861295
156,379,12,0.0287785152971694,0.00910963607232776
157,379,12,0.00250247959105821,0.0191958495460441
158,379,12,0.00209048599984741,0.0174258030060273
159,379,12,0.00193789578088045,0.00749217975127794
160,379,12,0.00184634164950027,0.0172732127870604
161,379,12,0.00210574502174411,0.00965896086060884
162,379,12,0.00419623102159152,0.0120546272983902
163,379,12,0.0387579156176089,0.00817883573662928
164,379,12,0.00917067215991455,0.00756847486076143
154,380,12,0.00238040741588464,0.00744640268558785
155,380,12,0.00202944991226062,0.00933852140077821
156,380,12,0.00234988937209125,0.00842298008697642
157,380,12,0.00205996795605402,0.0068207827878233
158,380,12,0.00231937132829786,0.0176394293125811
159,380,12,0.00201419089036393,0.0111543450064851
160,380,12,0.00204470893415732,0.00747692072938125
161,380,12,0.0203402761882963,0.00865186541542687
162,380,12,0.0021515220874342,0.0076600289921416
163,380,12,0.00183108262760357,0.00770580605783169
164,380,12,0.0931563286793317,0.00738536659800107
155,381,12,0.00233463035019455,0.00741588464179446
156,381,12,0.049759670405127,0.00784313725490196
157,381,12,0.00230411230640116,0.00772106507972839
158,381,12,0.00225833524071107,0.00721751735713741
159,381,12,0.0021210040436408,0.00994888227664607
160,381,12,0.0021210040436408,0.0249485008010987
161,381,12,0.00218204013122759,0.0216983291371023
162,381,12,0.00219729915312428,0.00831616693369955
163,381,12,0.00221255817502098,0.00798046845197223
164,381,12,0.00877393759060044,0.00790417334248875
156,382,12,0.010406652933547,0.00750743877317464
157,382,12,0.00149538414587625,0.00741588464179446
158,382,12,0.00183108262760357,0.0157473105973907
159,382,12,0.00239566643778134,0.0148165102616922
160,382,12,0.00170901045243,0.00714122224765393
161,382,12,0.00111390859845884,0.00801098649576562
162,382,12,0.00238040741588464,0.00743114366369116
163,382,12,0.002563515678645,0.0072480354009308
164,382,12,0.00181582360570687,0.00714122224765393
156,383,12,0.0137941557946136,0.00720225833524071
157,383,12,0.0284580758373388,0.00822461280231937
158,383,12,0.0145113298237583,0.00759899290455482
159,383,12,0.0284885938811322,0.00733958953231098
160,383,12,0.00180056458381018,0.0115510795757992
161,383,12,0.00347905699244678,0.00822461280231937
162,383,12,0.00141908903639277,0.00807202258335241
163,383,12,0.0383611810482948,0.00903334096284428
164,383,12,0.00296025024795911,0.00752269779507134
157,384,12,0.0265659571221485,0.00796520943007553
158,384,12,0.0918593118181125,0.00761425192645151
159,384,12,0.00131227588311589,0.00953688868543526
160,384,12,0.00164797436484321,0.00782787823300526
161,384,12,0.00447089341573205,0.0076600289921416
162,384,12,0.00236514839398795,0.00845349813076982
163,384,12,0.0107118333714809,0.0190432593270771
158,385,12,0.050064850843061,0.00752269779507134
159,385,12,0.0312504768444343,0.00773632410162509
160,385,12,0.0286259250782025,0.00743114366369116
161,385,12,0.00758373388265812,0.00790417334248875
162,385,12,0.00184634164950027,0.00933852140077821
163,385,12,0.00231937132829786,0.0076752880140383
159,386,12,0.00247196154726482,0.0177462424658579
160,386,12,0.0016937514305333,0.0190585183489738
161,386,12,0.0372625314717327,0.00790417334248875
162,386,12,0.0175326161593042,0.00816357671473259
160,387,12,0.00160219729915312,0.00730907148851759
161,387,12,0.00227359426260777,0.0186160067139696
162,387,12,0.00186160067139696,0.00778210116731518
160,388,12,0.0186923018234531,0.0207827878233005
154,370,13,0.00209048599984741,0.00816357671473259
155,370,13,0.00204470893415732,0.00735484855420768
156,370,13,0.0190280003051804,0.00733958953231098
157,370,13,0.0638590066376745,0.00796520943007553
158,370,13,0.00701915007248035,0.00788891432059205
159,370,13,0.0521858548867018,0.0093842984664683
152,371,13,0.00202944991226062,0.0117952239261463
153,371,13,0.00175478751812009,0.0124208438239109
154,371,13,0.00190737773708705,0.00912489509422446
155,371,13,0.011261158159762,0.00817883573662928
156,371,13,0.0596169985503929,0.00738536659800107
157,371,13,0.004272526131075,0.00746166170748455
158,371,13,0.0195468070496681,0.00790417334248875
159,371,13,0.00219729915312428,0.00753795681696803
160,371,13,0.00198367284657053,0.00836194399938964
151,372,13,0.0173800259403372,0.00688181887541009
152,372,13,0.0021362630655375,0.00820935378042268
153,372,13,0.00183108262760357,0.0184786755168994
154,372,13,0.00207522697795071,0.0148470283054856
155,372,13,0.036392767223621,0.0140840772106508
156,372,13,0.0108339055466545,0.0125276569771878
157,372,13,0.00199893186846723,0.0076752880140383
158,372,13,0.00207522697795071,0.0080872816052491
159,372,13,0.00283817807278553,0.0072480354009308
160,372,13,0.0146028839551385,0.00854505226215
161,372,13,0.0356908522163729,0.0115358205539025
151,373,13,0.0542610818646525,0.00732433051041428
152,373,13,0.00167849240863661,0.0115205615320058
153,373,13,0.00405889982452125,0.0174105439841306
154,373,13,0.0189211871519036,0.00764476997024491
155,373,13,0.00134279392690929,0.00753795681696803
156,373,13,0.00166323338673991,0.00828564888990616
157,373,13,0.00241092545967803,0.00755321583886473
158,373,13,0.027695124742504,0.0110780498970016
159,373,13,0.00177004654001678,0.0105439841306172
160,373,13,0.072281986724651,0.00764476997024491
161,373,13,0.0157015335317006,0.0160372320134279
151,374,13,0.0025787747005417,0.0141298542763409
152,374,13,0.0016937514305333,0.00732433051041428
153,374,13,0.00207522697795071,0.00798046845197223
154,374,13,0.00195315480277714,0.00776684214541848
155,374,13,0.00267032883192187,0.00859082932784009
156,374,13,0.00234988937209125,0.0085297932402533
157,374,13,0.00572213321126116,0.00802624551766232
158,374,13,0.00770580605783169,0.0072632944228275
159,374,13,0.00245670252536812,0.0102235446707866
160,374,13,0.0415960936903944,0.0202182040131228
161,374,13,0.0634622720683604,0.00875867856870375
162,374,13,0.00489814602883955,0.0119325551232166
152,375,13,0.00253299763485161,0.00706492713817044
153,375,13,0.00242618448157473,0.00695811398489357
154,375,13,0.00144960708018616,0.00756847486076143
155,375,13,0.00224307621881437,0.0141145952544442
156,375,13,0.00242618448157473,0.0185397116044862
157,375,13,0.00152590218966964,0.00712596322575723
158,375,13,0.00151064316777295,0.00762951094834821
159,375,13,0.00242618448157473,0.00779736018921187
160,375,13,0.00590524147402152,0.00698863202868696
161,375,13,0.0372320134279393,0.00764476997024491
162,375,13,0.00177004654001678,0.00794995040817884
152,376,13,0.00166323338673991,0.00772106507972839
153,376,13,0.00209048599984741,0.00802624551766232
154,376,13,0.0191653315022507,0.00743114366369116
155,376,13,0.0146486610208286,0.00747692072938125
156,376,13,0.0196231021591516,0.0076600289921416
157,376,13,0.00189211871519036,0.00762951094834821
158,376,13,0.00210574502174411,0.00772106507972839
159,376,13,0.0266117341878386,0.00822461280231937
160,376,13,0.00163271534294652,0.0122529945830472
161,376,13,0.00218204013122759,0.0112764171816587
162,376,13,0.0621042191195544,0.00842298008697642
163,376,13,0.00187685969329366,0.00782787823300526
153,377,13,0.00401312275883116,0.0201724269474327
154,377,13,0.00224307621881437,0.0107270923933776
155,377,13,0.00273136491950866,0.00830090791180285
156,377,13,0.0325932707713436,0.012115663385977
157,377,13,0.00207522697795071,0.00790417334248875
158,377,13,0.0182040131227588,0.00796520943007553
159,377,13,0.00866712443732357,0.00709544518196384
160,377,13,0.00666819256885634,0.00761425192645151
161,377,13,0.00221255817502098,0.00784313725490196
162,377,13,0.00209048599984741,0.00775158312352178
163,377,13,0.0173189898527504,0.00732433051041428
153,378,13,0.00227359426260777,0.00952162966353857
154,378,13,0.0255588616769665,0.00758373388265812
155,378,13,0.0021210040436408,0.0129091325246052
156,378,13,0.0361028458075837,0.00741588464179446
157,378,13,0.00175478751812009,0.0114442664225223
158,378,13,0.00238040741588464,0.016937514305333
159,378,13,0.00218204013122759,0.00759899290455482
160,378,13,0.00711070420386053,0.00732433051041428
161,378,13,0.00187685969329366,0.00717174029144732
162,378,13,0.0282444495307851,0.00781261921110857
163,378,13,0.00242618448157473,0.00813305867093919
154,379,13,0.00221255817502098,0.00740062561989776
155,379,13,0.00192263675898375,0.007690547035935
156,379,13,0.00218204013122759,0.0118867780575265
157,379,13,0.00222781719691768,0.010406652933547
158,379,13,0.00164797436484321,0.00741588464179446
159,379,13,0.00192263675898375,0.0194705119401846
160,379,13,0.0356298161287861,0.00805676356145571
161,379,13,0.00207522697795071,0.00749217975127794
162,379,13,0.00198367284657053,0.0250247959105821
163,379,13,0.0107423514152743,0.00758373388265812
154,380,13,0.00204470893415732,0.0112458991378653
155,380,13,0.00201419089036393,0.00709544518196384
156,380,13,0.00233463035019455,0.00704966811627375
157,380,13,0.00209048599984741,0.00793469138628214
158,380,13,0.00473029678797589,0.00794995040817884
159,380,13,0.013015945677882,0.00781261921110857
160,380,13,0.00209048599984741,0.00738536659800107
161,380,13,0.00170901045243,0.00878919661249714
162,380,13,0.00207522697795071,0.00871290150301366
163,380,13,0.00238040741588464,0.00775158312352178
164,380,13,0.00231937132829786,0.0150759136339361
155,381,13,0.0321660181582361,0.0109407186999313
156,381,13,0.0021362630655375,0.00752269779507134
157,381,13,0.00201419089036393,0.00776684214541848
158,381,13,0.0718699931334401,0.010101472495613
159,381,13,0.0235141527428092,0.00775158312352178
160,381,13,0.00204470893415732,0.00753795681696803
161,381,13,0.00141908903639277,0.00791943236438544
162,381,13,0.00190737773708705,0.00698863202868696
163,381,13,0.00160219729915312,0.0114900434882124
164,381,13,0.0406347753109026,0.0120241092545968
156,382,13,0.0629739833676661,0.00737010757610437
157,382,13,0.023071641107805,0.00782787823300526
158,382,13,0.0197604333562219,0.00794995040817884
159,382,13,0.00184634164950027,0.00732433051041428
160,382,13,0.0399786373693446,0.00746166170748455
161,382,13,0.0586404211490043,0.00790417334248875
162,382,13,0.00753795681696803,0.00779736018921187
163,382,13,0.00143434805828946,0.0089417868314641
164,382,13,0.00332646677347982,0.00743114366369116
157,383,13,0.0021362630655375,0.00733958953231098
158,383,13,0.00181582360570687,0.00715648126955062
159,383,13,0.00181582360570687,0.00778210116731518
160,383,13,0.00219729915312428,0.00807202258335241
161,383,13,0.00224307621881437,0.0382391088731212
162,383,13,0.00164797436484321,0.0108644235904479
163,383,13,0.0021515220874342,0.00737010757610437
164,383,13,0.00184634164950027,0.00785839627679866
157,384,13,0.088517586022736,0.00773632410162509
158,384,13,0.00192263675898375,0.0100404364080262
159,384,13,0.0883344777599756,0.00698863202868696
160,384,13,0.00199893186846723,0.0183260852979324
161,384,13,0.0334935530632486,0.00842298008697642
162,384,13,0.00205996795605402,0.0163729304951553
163,384,13,0.00210574502174411,0.00743114366369116
158,385,13,0.00567635614557107,0.00871290150301366
159,385,13,0.00205996795605402,0.0144350347142748
160,385,13,0.00239566643778134,0.00782787823300526
161,385,13,0.0098268101014725,0.00727855344472419
162,385,13,0.0106660563057908,0.00973525597009232
163,385,13,0.00186160067139696,0.0072327763790341
159,386,13,0.00177004654001678,0.0106507972838941
160,386,13,0.00500495918211643,0.0199435416189822
161,386,13,0.0416571297779812,0.00833142595559625
162,386,13,0.0042420080872816,0.00740062561989776
163,386,13,0.00927748531319142,0.00868238345922026
160,387,13,0.00250247959105821,0.00755321583886473
161,387,13,0.00161745632104982,0.00735484855420768
162,387,13,0.00177004654001678,0.00779736018921187
161,388,13,0.0169832913710231,0.00784313725490196
153,370,14,0.0017242694743267,0.00929274433508812
154,370,14,0.00205996795605402,0.00738536659800107
155,370,14,0.022369726100557,0.00737010757610437
156,370,14,0.0246128023193713,0.013321126115816
157,370,14,0.00190737773708705,0.0112916762035554
158,370,14,0.00201419089036393,0.00776684214541848
159,370,14,0.013321126115816,0.00683604180972
152,371,14,0.0129549095902953,0.0125276569771878
153,371,14,0.0122835126268406,0.0161593041886015
154,371,14,0.00189211871519036,0.0209811551079576
155,371,14,0.00167849240863661,0.00740062561989776
156,371,14,0.00250247959105821,0.007690547035935
157,371,14,0.00222781719691768,0.00656137941557946
158,371,14,0.00209048599984741,0.00773632410162509
159,371,14,0.00202944991226062,0.00750743877317464
160,371,14,0.00251773861295491,0.0114137483787289
151,372,14,0.0021210040436408,0.00730907148851759
152,372,14,0.00192263675898375,0.00761425192645151
153,372,14,0.0218356603341726,0.00788891432059205
154,372,14,0.00210574502174411,0.00756847486076143
155,372,14,0.0690470740825513,0.023422598611429
156,372,14,0.0406958113984894,0.0080872816052491
157,372,14,0.0226443884946975,0.00715648126955062
158,372,14,0.0197146562905318,0.00712596322575723
159,372,14,0.00195315480277714,0.00932326237888151
160,372,14,0.0245822842755779,0.00881971465629053
161,372,14,0.00309758144502937,0.0117036697947662
151,373,14,0.0209353780422675,0.00796520943007553
152,373,14,0.00241092545967803,0.00773632410162509
153,373,14,0.00160219729915312,0.0105897611963073
154,373,14,0.00175478751812009,0.00798046845197223
155,373,14,0.00450141145952544,0.0179598687724117
156,373,14,0.161577782864118,0.00758373388265812
157,373,14,0.00227359426260777,0.00709544518196384
158,373,14,0.00189211871519036,0.0106965743495842
159,373,14,0.00187685969329366,0.013824673838407
160,373,14,0.00207522697795071,0.0072632944228275
161,373,14,0.00216678110933089,0.00698863202868696
152,374,14,0.00750743877317464,0.0072327763790341
153,374,14,0.0197451743343252,0.00738536659800107
154,374,14,0.00173952849622339,0.00801098649576562
155,374,14,0.0021362630655375,0.00732433051041428
156,374,14,0.0016937514305333,0.00823987182421607
157,374,14,0.00196841382467384,0.00828564888990616
158,374,14,0.00199893186846723,0.00764476997024491
159,374,14,0.0235294117647059,0.00738536659800107
160,374,14,0.0169680323491264,0.00791943236438544
161,374,14,0.0219119554436561,0.0103608758678569
162,374,14,0.0424048218509194,0.00782787823300526
152,375,14,0.0567635614557107,0.00773632410162509
153,375,14,0.00155642023346304,0.00735484855420768
154,375,14,0.00183108262760357,0.00756847486076143
155,375,14,0.0211337453269245,0.0117341878385595
156,375,14,0.00221255817502098,0.00732433051041428
157,375,14,0.00189211871519036,0.0246738384069581
158,375,14,0.0127718013275349,0.00817883573662928
159,375,14,0.038300144960708,0.00778210116731518
160,375,14,0.00563057907988098,0.0231174181734951
161,375,14,0.0352941176470588,0.00788891432059205
162,375,14,0.0363775082017243,0.00776684214541848
153,376,14,0.00222781719691768,0.0142519264515145
154,376,14,0.00231937132829786,0.007690547035935
155,376,14,0.00186160067139696,0.00746166170748455
156,376,14,0.00234988937209125,0.00834668497749294
157,376,14,0.00584420538643473,0.00914015411612116
158,376,14,0.00205996795605402,0.00781261921110857
159,376,14,0.0165255207141222,0.00798046845197223
160,376,14,0.00988784618905928,0.0081177996490425
161,376,14,0.0874647135118639,0.00750743877317464
162,376,14,0.00318913557640955,0.00758373388265812
163,376,14,0.00952162966353857,0.00753795681696803
153,377,14,0.0105134660868238,0.00820935378042268
154,377,14,0.0147096971084154,0.00802624551766232
155,377,14,0.00398260471503777,0.00737010757610437
156,377,14,0.002563515678645,0.0136568245975433
157,377,14,0.0284580758373388,0.00833142595559625
158,377,14,0.0132600900282292,0.00735484855420768
159,377,14,0.00914015411612116,0.00994888227664607
160,377,14,0.0245212481879911,0.00781261921110857
161,377,14,0.0723582818341344,0.00857557030594339
162,377,14,0.0333409628442817,0.0184786755168994
163,377,14,0.0509040970473793,0.00779736018921187
154,378,14,0.00181582360570687,0.0155947203784237
155,378,14,0.0883344777599756,0.00779736018921187
156,378,14,0.00199893186846723,0.00775158312352178
157,378,14,0.00540169375143053,0.00759899290455482
158,378,14,0.00183108262760357,0.0089723048752575
159,378,14,0.0502021820401312,0.0163729304951553
160,378,14,0.0249942778667887,0.00788891432059205
161,378,14,0.0419623102159152,0.0142519264515145
162,378,14,0.00700389105058366,0.00776684214541848
163,378,14,0.00239566643778134,0.00827038986800946
154,379,14,0.00154116121156634,0.00784313725490196
155,379,14,0.00196841382467384,0.00898756389715419
156,379,14,0.00190737773708705,0.0146334019989319
157,379,14,0.00164797436484321,0.00793469138628214
158,379,14,0.00177004654001678,0.00782787823300526
159,379,14,0.0142977035172045,0.00752269779507134
160,379,14,0.00727855344472419,0.00747692072938125
161,379,14,0.00683604180972,0.00758373388265812
162,379,14,0.0205691615167468,0.00773632410162509
163,379,14,0.00192263675898375,0.00994888227664607
155,380,14,0.0144960708018616,0.00749217975127794
156,380,14,0.0016937514305333,0.00787365529869535
157,380,14,0.00180056458381018,0.00747692072938125
158,380,14,0.00250247959105821,0.0072480354009308
159,380,14,0.00163271534294652,0.00761425192645151
160,380,14,0.0016937514305333,0.00816357671473259
161,380,14,0.00207522697795071,0.00764476997024491
162,380,14,0.0102082856488899,0.00686655985351339
163,380,14,0.00154116121156634,0.0121766994735637
156,381,14,0.00326543068589303,0.0163271534294652
157,381,14,0.00204470893415732,0.00842298008697642
158,381,14,0.0456092164492256,0.00805676356145571
159,381,14,0.0269321736476692,0.00733958953231098
160,381,14,0.0021515220874342,0.009399557488365
161,381,14,0.0227054245822843,0.00819409475852598
162,381,14,0.0898298619058518,0.00776684214541848
163,381,14,0.014373998626688,0.00759899290455482
164,381,14,0.002563515678645,0.00694285496299687
156,382,14,0.00750743877317464,0.00823987182421607
157,382,14,0.0149996185244526,0.00721751735713741
158,382,14,0.00230411230640116,0.00845349813076982
159,382,14,0.00193789578088045,0.00857557030594339
160,382,14,0.0654764629587243,0.00901808194094758
161,382,14,0.0269779507133593,0.0186923018234531
162,382,14,0.00202944991226062,0.00790417334248875
163,382,14,0.0161745632104982,0.0110780498970016
164,382,14,0.00192263675898375,0.0102235446707866
157,383,14,0.0134279392690929,0.00791943236438544
158,383,14,0.00180056458381018,0.00764476997024491
159,383,14,0.00250247959105821,0.0110017547875181
160,383,14,0.0112306401159686,0.00781261921110857
161,383,14,0.00190737773708705,0.0101472495613031
162,383,14,0.00160219729915312,0.00715648126955062
163,383,14,0.00247196154726482,0.00721751735713741
164,383,14,0.00210574502174411,0.00756847486076143
158,384,14,0.0042572671091783,0.0160067139696345
159,384,14,0.00140383001449607,0.0190737773708705
160,384,14,0.0017242694743267,0.0154879072251469
161,384,14,0.00305180437933928,0.00750743877317464
162,384,14,0.011306935225452,0.0111238269626917
163,384,14,0.00192263675898375,0.00776684214541848
158,385,14,0.0127718013275349,0.00819409475852598
159,385,14,0.00617990386816205,0.00773632410162509
160,385,14,0.00375371938658732,0.00782787823300526
161,385,14,0.00177004654001678,0.007690547035935
162,385,14,0.00228885328450446,0.0158541237506676
163,385,14,0.00225833524071107,0.0185702296482795
159,386,14,0.00234988937209125,0.00932326237888151
160,386,14,0.00242618448157473,0.00840772106507973
161,386,14,0.00180056458381018,0.00770580605783169
162,386,14,0.00190737773708705,0.0107881284809644
163,386,14,0.00216678110933089,0.00717174029144732
160,387,14,0.0261997405966278,0.00737010757610437
161,387,14,0.0220035095750362,0.00776684214541848
162,387,14,0.00163271534294652,0.00921644922560464
161,388,14,0.00198367284657053,0.0147096971084154
151,369,22,0.00163271534294652,0.00802624551766232
152,369,22,0.00132753490501259,0.00741588464179446
153,369,22,0.017944609750515,0.00822461280231937
154,369,22,0.00216678110933089,0.00752269779507134
155,369,22,0.00163271534294652,0.00827038986800946
156,369,22,0.00177004654001678,0.00781261921110857
150,370,22,0.00489814602883955,0.00788891432059205
151,370,22,0.0472266727702754,0.00712596322575723
152,370,22,0.0222476539253834,0.00750743877317464
153,370,22,0.00209048599984741,0.00793469138628214
154,370,22,0.00378423743038071,0.00743114366369116
155,370,22,0.0397802700846876,0.00729381246662089
156,370,22,0.00205996795605402,0.0152590218966964
157,370,22,0.0153047989623865,0.0264133669031815
150,371,22,0.00253299763485161,0.00842298008697642
151,371,22,0.00216678110933089,0.00721751735713741
152,371,22,0.035187304493782,0.0117952239261463
153,371,22,0.00952162966353857,0.007690547035935
154,371,22,0.00202944991226062,0.00759899290455482
155,371,22,0.0350194552529183,0.00729381246662089
156,371,22,0.00218204013122759,0.00779736018921187
157,371,22,0.0138551918822004,0.00784313725490196
158,371,22,0.00949111161974517,0.0156404974441138
150,372,22,0.00175478751812009,0.0157778286411841
151,372,22,0.00247196154726482,0.00686655985351339
152,372,22,0.00210574502174411,0.00775158312352178
153,372,22,0.00166323338673991,0.00756847486076143
154,372,22,0.00209048599984741,0.00782787823300526
155,372,22,0.00242618448157473,0.00898756389715419
156,372,22,0.00228885328450446,0.0123292896925307
157,372,22,0.00236514839398795,0.00804150453955901
158,372,22,0.022568093385214,0.00823987182421607
159,372,22,0.00225833524071107,0.00840772106507973
151,373,22,0.00205996795605402,0.014175631342031
152,373,22,0.00198367284657053,0.0153047989623865
153,373,22,0.00315861753261616,0.00755321583886473
154,373,22,0.0444647898069734,0.00761425192645151
155,373,22,0.0247043564507515,0.00776684214541848
156,373,22,0.00184634164950027,0.00738536659800107
157,373,22,0.0021210040436408,0.00738536659800107
158,373,22,0.0218814373998627,0.0081025406271458
159,373,22,0.0137178606851301,0.00790417334248875
151,374,22,0.00238040741588464,0.00733958953231098
152,374,22,0.00227359426260777,0.00802624551766232
153,374,22,0.00227359426260777,0.016235599298085
154,374,22,0.0304264896620127,0.00744640268558785
155,374,22,0.0140840772106508,0.00732433051041428
156,374,22,0.00224307621881437,0.007690547035935
157,374,22,0.0627908751049058,0.00758373388265812
158,374,22,0.0132600900282292,0.00704966811627375
159,374,22,0.0693522545204852,0.0101167315175097
160,374,22,0.00674448767833982,0.00799572747386892
152,375,22,0.0151674677653162,0.00909437705043107
153,375,22,0.00146486610208286,0.0107423514152743
154,375,22,0.00175478751812009,0.00785839627679866
155,375,22,0.00184634164950027,0.00738536659800107
156,375,22,0.00247196154726482,0.00814831769283589
157,375,22,0.0108033875028611,0.00802624551766232
158,375,22,0.011306935225452,0.0076752880140383
159,375,22,0.0923628595407034,0.0076752880140383
160,375,22,0.00189211871519036,0.00772106507972839
153,376,22,0.00152590218966964,0.00753795681696803
154,376,22,0.0108949416342412,0.00750743877317464
155,376,22,0.0320286869611658,0.0234683756771191
156,376,22,0.00260929274433509,0.00743114366369116
157,376,22,0.0187228198672465,0.00762951094834821
158,376,22,0.039505607690547,0.00834668497749294
159,376,22,0.0671396963454643,0.00750743877317464
160,376,22,0.00195315480277714,0.00758373388265812
153,377,22,0.00238040741588464,0.00788891432059205
154,377,22,0.00205996795605402,0.00776684214541848
155,377,22,0.00189211871519036,0.00773632410162509
156,377,22,0.0458686198214694,0.00813305867093919
157,377,22,0.00561532005798428,0.0243839169909209
158,377,22,0.00189211871519036,0.00762951094834821
159,377,22,0.00173952849622339,0.00805676356145571
160,377,22,0.00238040741588464,0.00788891432059205
154,378,22,0.00447089341573205,0.00764476997024491
155,378,22,0.0059662775616083,0.0081177996490425
156,378,22,0.00209048599984741,0.0102388036926833
157,378,22,0.00199893186846723,0.0081177996490425
158,378,22,0.0339665827420462,0.00865186541542687
159,378,22,0.0268101014724956,0.0115968566414893
160,378,22,0.0564431219958801,0.0129549095902953
161,378,22,0.00292973220416571,0.0125429159990845
155,379,22,0.0046845197222858,0.00711070420386053
156,379,22,0.0224917982757305,0.00799572747386892
157,379,22,0.00224307621881437,0.00846875715266651
158,379,22,0.00164797436484321,0.00805676356145571
159,379,22,0.0287327382314794,0.00750743877317464
160,379,22,0.00567635614557107,0.00752269779507134
161,379,22,0.0055237659266041,0.00729381246662089
157,380,22,0.0038605325398642,0.00778210116731518
158,380,22,0.0224612802319371,0.0113679713130388
159,380,22,0.00668345159075303,0.00842298008697642
160,380,22,0.00222781719691768,0.0251621271076524
161,380,22,0.0025787747005417,0.0100709544518196
158,381,22,0.00187685969329366,0.0110475318532082
159,381,22,0.00219729915312428,0.00849927519645991
160,381,22,0.00189211871519036,0.0133363851377127
161,381,22,0.00173952849622339,0.0085145342183566
159,382,22,0.00192263675898375,0.0080872816052491
160,382,22,0.00247196154726482,0.0122377355611505
161,382,22,0.00354009308003357,0.00759899290455482
160,383,22,0.00181582360570687,0.00962844281681544
151,369,23,0.00181582360570687,0.0185549706263828
152,369,23,0.0491340505073625,0.00778210116731518
153,369,23,0.0603036545357443,0.00822461280231937
154,369,23,0.0217593652246891,0.00802624551766232
155,369,23,0.0588845654993515,0.00825513084611276
156,369,23,0.00225833524071107,0.0105134660868238
157,369,23,0.00184634164950027,0.00802624551766232
150,370,23,0.00186160067139696,0.00773632410162509
151,370,23,0.00216678110933089,0.00794995040817884
152,370,23,0.00222781719691768,0.0101167315175097
153,370,23,0.00175478751812009,0.00872816052491035
154,370,23,0.0169985503929198,0.01538109407187
155,370,23,0.0218051422903792,0.0108949416342412
156,370,23,0.00375371938658732,0.0176699473563745
157,370,23,0.0208438239108873,0.00788891432059205
158,370,23,0.00221255817502098,0.00770580605783169
150,371,23,0.00195315480277714,0.00779736018921187
151,371,23,0.029251544975967,0.00779736018921187
152,371,23,0.0617685206378271,0.00839246204318303
153,371,23,0.112352178225376,0.00743114366369116
154,371,23,0.053528648813611,0.00834668497749294
155,371,23,0.00173952849622339,0.0141908903639277
156,371,23,0.0578927290760662,0.00976577401388571
157,371,23,0.00444037537193866,0.0195162890058747
158,371,23,0.00204470893415732,0.00764476997024491
159,371,23,0.00141908903639277,0.00801098649576562
149,372,23,0.00184634164950027,0.00753795681696803
150,372,23,0.0138857099259937,0.0101319905394064
151,372,23,0.0191805905241474,0.0110780498970016
152,372,23,0.0301518272678721,0.00761425192645151
153,372,23,0.0129549095902953,0.0119020370794232
154,372,23,0.00187685969329366,0.00828564888990616
155,372,23,0.0241855497062638,0.00794995040817884
156,372,23,0.0117341878385595,0.00784313725490196
157,372,23,0.0584878309300374,0.00772106507972839
158,372,23,0.00976577401388571,0.01367208361944
159,372,23,0.0389868009460594,0.00837720302128634
160,372,23,0.0269779507133593,0.00793469138628214
150,373,23,0.00219729915312428,0.0076600289921416
151,373,23,0.00149538414587625,0.00733958953231098
152,373,23,0.00199893186846723,0.013321126115816
153,373,23,0.11265735866331,0.00775158312352178
154,373,23,0.00225833524071107,0.00750743877317464
155,373,23,0.0342107270923934,0.0133669031815061
156,373,23,0.00204470893415732,0.0151522087434195
157,373,23,0.00219729915312428,0.00741588464179446
158,373,23,0.00189211871519036,0.00755321583886473
159,373,23,0.00173952849622339,0.0206912336919203
160,373,23,0.00207522697795071,0.00781261921110857
150,374,23,0.00245670252536812,0.0115968566414893
151,374,23,0.00193789578088045,0.0123445487144274
152,374,23,0.00204470893415732,0.0103608758678569
153,374,23,0.007690547035935,0.00834668497749294
154,374,23,0.00227359426260777,0.00747692072938125
155,374,23,0.00218204013122759,0.00784313725490196
156,374,23,0.0457770656900893,0.00814831769283589
157,374,23,0.00180056458381018,0.00791943236438544
158,374,23,0.0021210040436408,0.0155184252689403
159,374,23,0.00108339055466545,0.00753795681696803
160,374,23,0.00173952849622339,0.00770580605783169
161,374,23,0.00187685969329366,0.00791943236438544
151,375,23,0.00314335851071946,0.00886549172198062
152,375,23,0.00875867856870375,0.00787365529869535
153,375,23,0.020859082932784,0.0103150988021668
154,375,23,0.0462806134126802,0.00740062561989776
155,375,23,0.00683604180972,0.00775158312352178
156,375,23,0.00155642023346304,0.00794995040817884
157,375,23,0.00196841382467384,0.00762951094834821
158,375,23,0.022415503166247,0.00798046845197223
159,375,23,0.00244144350347143,0.00784313725490196
160,375,23,0.0284428168154421,0.00772106507972839
161,375,23,0.0169832913710231,0.00801098649576562
152,376,23,0.00192263675898375,0.00788891432059205
153,376,23,0.00154116121156634,0.00775158312352178
154,376,23,0.00193789578088045,0.00802624551766232
155,376,23,0.0168917372396429,0.00747692072938125
156,376,23,0.0260624093995575,0.00863660639353018
157,376,23,0.0320439459830625,0.00782787823300526
158,376,23,0.00230411230640116,0.0133821622034028
159,376,23,0.00219729915312428,0.00878919661249714
160,376,23,0.0489662012664988,0.00883497367818723
161,376,23,0.0021362630655375,0.00807202258335241
152,377,23,0.0265049210345617,0.00909437705043107
153,377,23,0.00259403372243839,0.0125886930647745
154,377,23,0.0021362630655375,0.00741588464179446
155,377,23,0.0527046616311894,0.00814831769283589
156,377,23,0.00253299763485161,0.00833142595559625
157,377,23,0.00202944991226062,0.00747692072938125
158,377,23,0.00167849240863661,0.0112764171816587
159,377,23,0.00148012512397955,0.0080872816052491
160,377,23,0.0431067368581674,0.00785839627679866
153,378,23,0.0719920653086137,0.00804150453955901
154,378,23,0.00396734569314107,0.00759899290455482
155,378,23,0.00207522697795071,0.0072632944228275
156,378,23,0.00190737773708705,0.0115053025101091
157,378,23,0.00199893186846723,0.00752269779507134
158,378,23,0.0446784161135271,0.00784313725490196
159,378,23,0.0305333028152895,0.00759899290455482
160,378,23,0.0190127412832837,0.00796520943007553
161,378,23,0.0651865415426871,0.00842298008697642
162,378,23,0.0089723048752575,0.0213778896772717
154,379,23,0.00231937132829786,0.00787365529869535
155,379,23,0.00187685969329366,0.01196307316701
156,379,23,0.00193789578088045,0.0191348134584573
157,379,23,0.00305180437933928,0.0107118333714809
158,379,23,0.0319523918516823,0.0111848630502785
159,379,23,0.00167849240863661,0.00804150453955901
160,379,23,0.0021362630655375,0.0118410009918364
161,379,23,0.0166628519111925,0.00877393759060044
162,379,23,0.00209048599984741,0.00987258716716258
155,380,23,0.0198977645532921,0.0175631342030976
156,380,23,0.0151216906996262,0.00866712443732357
157,380,23,0.0250247959105821,0.0126497291523613
158,380,23,0.00593575951781491,0.00869764248111696
159,380,23,0.0170595864805066,0.00804150453955901
160,380,23,0.028549629968719,0.00770580605783169
161,380,23,0.00187685969329366,0.00985732814526589
162,380,23,0.00285343709468223,0.00793469138628214
156,381,23,0.00189211871519036,0.00854505226215
157,381,23,0.00227359426260777,0.00790417334248875
158,381,23,0.0585030899519341,0.00817883573662928
159,381,23,0.00984206912336919,0.00816357671473259
160,381,23,0.0107118333714809,0.00776684214541848
161,381,23,0.0100099183642329,0.00784313725490196
157,382,23,0.00199893186846723,0.00781261921110857
158,382,23,0.0397039749752041,0.0156710154879072
159,382,23,0.0116578927290761,0.00823987182421607
160,382,23,0.0158693827725643,0.00744640268558785
161,382,23,0.0808575570305943,0.00749217975127794
158,383,23,0.00186160067139696,0.00747692072938125
159,383,23,0.00180056458381018,0.00878919661249714
160,383,23,0.0114747844663157,0.0290989547570001
161,383,23,0.0243381399252308,0.0165560387579156
158,384,23,0.00201419089036393,0.00788891432059205
159,384,23,0.00994888227664607,0.00891126878767071
160,384,23,0.0016937514305333,0.0072327763790341
161,384,23,0.00167849240863661,0.00856031128404669
159,385,23,0.00175478751812009,0.00735484855420768
160,385,23,0.0016937514305333,0.00755321583886473
161,385,23,0.00178530556191348,0.011261158159762
160,386,23,0.00227359426260777,0.00787365529869535
152,369,24,0.031464103150988,0.00781261921110857
153,369,24,0.00277714198519875,0.00746166170748455
154,369,24,0.00166323338673991,0.00776684214541848
155,369,24,0.00192263675898375,0.00828564888990616
156,369,24,0.0177767605096513,0.00814831769283589
157,369,24,0.00262455176623178,0.0072632944228275
151,370,24,0.0198367284657053,0.00762951094834821
152,370,24,0.0245517662317845,0.00779736018921187
153,370,24,0.0453498130769818,0.0080872816052491
154,370,24,0.00234988937209125,0.00816357671473259
155,370,24,0.0715190356298161,0.00704966811627375
156,370,24,0.00196841382467384,0.00775158312352178
157,370,24,0.00221255817502098,0.0103761348897536
158,370,24,0.00892652780956741,0.0154116121156634
150,371,24,0.00218204013122759,0.0127260242618448
151,371,24,0.0800030518043793,0.00773632410162509
152,371,24,0.0420080872816053,0.00737010757610437
153,371,24,0.0376134889753567,0.00924696726939803
154,371,24,0.00204470893415732,0.0076600289921416
155,371,24,0.00198367284657053,0.00819409475852598
156,371,24,0.0021362630655375,0.00759899290455482
157,371,24,0.00209048599984741,0.00708018616006714
158,371,24,0.00202944991226062,0.00823987182421607
159,371,24,0.00192263675898375,0.00917067215991455
149,372,24,0.00218204013122759,0.0130006866559854
150,372,24,0.00241092545967803,0.00752269779507134
151,372,24,0.00187685969329366,0.0076752880140383
152,372,24,0.0122224765392538,0.00947585259784848
153,372,24,0.00195315480277714,0.00770580605783169
154,372,24,0.00196841382467384,0.00750743877317464
155,372,24,0.00167849240863661,0.00718699931334401
156,372,24,0.00195315480277714,0.00781261921110857
157,372,24,0.00202944991226062,0.00741588464179446
158,372,24,0.0021515220874342,0.0127260242618448
159,372,24,0.0029755092698558,0.0072480354009308
160,372,24,0.00283817807278553,0.00753795681696803
149,373,24,0.0021515220874342,0.0100404364080262
150,373,24,0.0295414663920043,0.00773632410162509
151,373,24,0.00166323338673991,0.00695811398489357
152,373,24,0.00218204013122759,0.00733958953231098
153,373,24,0.00196841382467384,0.00814831769283589
154,373,24,0.00204470893415732,0.00854505226215
155,373,24,0.00201419089036393,0.00753795681696803
156,373,24,0.00193789578088045,0.00729381246662089
157,373,24,0.00216678110933089,0.0158541237506676
158,373,24,0.00180056458381018,0.0152132448310063
159,373,24,0.00184634164950027,0.00764476997024491
160,373,24,0.00273136491950866,0.019851987487602
161,373,24,0.00260929274433509,0.00750743877317464
150,374,24,0.00183108262760357,0.00784313725490196
151,374,24,0.0021210040436408,0.0112001220721752
152,374,24,0.00143434805828946,0.00772106507972839
153,374,24,0.00131227588311589,0.0125123979552911
154,374,24,0.00253299763485161,0.0116426337071794
155,374,24,0.0595407034409094,0.00833142595559625
156,374,24,0.00431830319676509,0.00776684214541848
157,374,24,0.0144197756923781,0.00717174029144732
158,374,24,0.0454566262302586,0.00747692072938125
159,374,24,0.00251773861295491,0.00778210116731518
160,374,24,0.00167849240863661,0.00791943236438544
161,374,24,0.00173952849622339,0.00759899290455482
150,375,24,0.00143434805828946,0.00924696726939803
151,375,24,0.0268253604943923,0.0081025406271458
152,375,24,0.0837262531471733,0.00773632410162509
153,375,24,0.022720683604181,0.00798046845197223
154,375,24,0.00120546272983902,0.00738536659800107
155,375,24,0.0021515220874342,0.00779736018921187
156,375,24,0.0025787747005417,0.00753795681696803
157,375,24,0.00210574502174411,0.007690547035935
158,375,24,0.0220950637064164,0.00772106507972839
159,375,24,0.00201419089036393,0.00756847486076143
160,375,24,0.00247196154726482,0.00749217975127794
161,375,24,0.14891279468986,0.00750743877317464
151,376,24,0.00151064316777295,0.0133821622034028
152,376,24,0.0156710154879072,0.0151369497215229
153,376,24,0.0124818799114977,0.0132448310063325
154,376,24,0.00265506981002518,0.007690547035935
155,376,24,0.0310826276035706,0.00740062561989776
156,376,24,0.00155642023346304,0.00727855344472419
157,376,24,0.0338139925230793,0.00762951094834821
158,376,24,0.00396734569314107,0.0150148775463493
159,376,24,0.00170901045243,0.00762951094834821
160,376,24,0.00187685969329366,0.00785839627679866
161,376,24,0.0219272144655528,0.00747692072938125
162,376,24,0.0122529945830472,0.00782787823300526
152,377,24,0.0021515220874342,0.0139467460135805
153,377,24,0.0012664988174258,0.0310215915159838
154,377,24,0.0021515220874342,0.00758373388265812
155,377,24,0.0369878690775921,0.00849927519645991
156,377,24,0.0269321736476692,0.00798046845197223
157,377,24,0.00659189745937285,0.0081177996490425
158,377,24,0.00230411230640116,0.00787365529869535
159,377,24,0.00222781719691768,0.0134889753566796
160,377,24,0.00222781719691768,0.00778210116731518
161,377,24,0.00196841382467384,0.00778210116731518
162,377,24,0.00195315480277714,0.00762951094834821
152,378,24,0.035034714274815,0.0110017547875181
153,378,24,0.00224307621881437,0.00706492713817044
154,378,24,0.00178530556191348,0.00761425192645151
155,378,24,0.00184634164950027,0.00839246204318303
156,378,24,0.017441062027924,0.00759899290455482
157,378,24,0.0231479362172885,0.00755321583886473
158,378,24,0.00479133287556268,0.0080872816052491
159,378,24,0.123369192034791,0.00827038986800946
160,378,24,0.0623941405355917,0.0076600289921416
161,378,24,0.00190737773708705,0.00732433051041428
162,378,24,0.00166323338673991,0.0268558785381857
153,379,24,0.00184634164950027,0.00762951094834821
154,379,24,0.0368810559243153,0.0116273746852827
155,379,24,0.0214694438086519,0.0191042954146639
156,379,24,0.00180056458381018,0.00975051499198901
157,379,24,0.023270008392462,0.00773632410162509
158,379,24,0.00265506981002518,0.00785839627679866
159,379,24,0.041870756084535,0.00732433051041428
160,379,24,0.00180056458381018,0.00740062561989776
161,379,24,0.00321965362020294,0.00825513084611276
162,379,24,0.00218204013122759,0.00749217975127794
154,380,24,0.00296025024795911,0.00761425192645151
155,380,24,0.00201419089036393,0.00805676356145571
156,380,24,0.0319066147859922,0.00845349813076982
157,380,24,0.0213473716334783,0.00694285496299687
158,380,24,0.00193789578088045,0.00770580605783169
159,380,24,0.00184634164950027,0.00813305867093919
160,380,24,0.00663767452506294,0.0072480354009308
161,380,24,0.0123292896925307,0.00756847486076143
162,380,24,0.00192263675898375,0.0109407186999313
154,381,24,0.0171511406118868,0.00753795681696803
155,381,24,0.0397039749752041,0.00744640268558785
156,381,24,0.0961013199053941,0.0080872816052491
157,381,24,0.107560845349813,0.0171358815899901
158,381,24,0.00192263675898375,0.0157778286411841
159,381,24,0.00158693827725643,0.00770580605783169
160,381,24,0.00402838178072786,0.0076752880140383
161,381,24,0.0646982528419928,0.00752269779507134
162,381,24,0.00234988937209125,0.0265964751659419
155,382,24,0.00189211871519036,0.00787365529869535
156,382,24,0.00286869611657893,0.00971999694819562
157,382,24,0.00167849240863661,0.00759899290455482
158,382,24,0.00199893186846723,0.0105134660868238
159,382,24,0.032318608377203,0.00796520943007553
160,382,24,0.0173495078965438,0.00764476997024491
161,382,24,0.0590829327840085,0.0112001220721752
162,382,24,0.0132295719844358,0.0076752880140383
156,383,24,0.0332036316472114,0.00759899290455482
157,383,24,0.0110475318532082,0.00775158312352178
158,383,24,0.00193789578088045,0.00709544518196384
159,383,24,0.00204470893415732,0.0159456778820478
160,383,24,0.00230411230640116,0.00727855344472419
161,383,24,0.00614938582436866,0.0072632944228275
162,383,24,0.0034027618829633,0.00747692072938125
157,384,24,0.00291447318226902,0.0390478370336461
158,384,24,0.00492866407263294,0.0169222552834363
159,384,24,0.0138551918822004,0.024933241779202
160,384,24,0.0251773861295491,0.00823987182421607
161,384,24,0.0034027618829633,0.00804150453955901
162,384,24,0.00175478751812009,0.00729381246662089
158,385,24,0.0391699092088197,0.00813305867093919
159,385,24,0.00196841382467384,0.00787365529869535
160,385,24,0.00216678110933089,0.00735484855420768
161,385,24,0.0603036545357443,0.00929274433508812
159,386,24,0.0346074616617075,0.00747692072938125
160,386,24,0.0478370336461433,0.00846875715266651
161,386,24,0.00155642023346304,0.0256198977645533
160,387,24,0.0197299153124285,0.0169222552834363
153,369,25,0.0545052262149996,0.01538109407187
154,369,25,0.0295872434576944,0.00706492713817044
155,369,25,0.0559700923170825,0.0136568245975433
156,369,25,0.00361638818951705,0.00827038986800946
157,369,25,0.0671702143892576,0.00788891432059205
151,370,25,0.00230411230640116,0.00717174029144732
152,370,25,0.0135500114442664,0.00762951094834821
153,370,25,0.0220950637064164,0.00758373388265812
154,370,25,0.00190737773708705,0.0076752880140383
155,370,25,0.00181582360570687,0.00685130083161669
156,370,25,0.00239566643778134,0.00730907148851759
157,370,25,0.00227359426260777,0.00788891432059205
158,370,25,0.00180056458381018,0.0072480354009308
150,371,25,0.0298161287861448,0.00761425192645151
151,371,25,0.00120546272983902,0.00834668497749294
152,371,25,0.0504005493247883,0.00738536659800107
153,371,25,0.00605783169298848,0.0097962920576791
154,371,25,0.00231937132829786,0.0076752880140383
155,371,25,0.00173952849622339,0.00781261921110857
156,371,25,0.0432898451209277,0.0076752880140383
157,371,25,0.00207522697795071,0.0152742809185931
158,371,25,0.00210574502174411,0.00831616693369955
159,371,25,0.00180056458381018,0.00819409475852598
150,372,25,0.0207522697795071,0.00685130083161669
151,372,25,0.00741588464179446,0.00730907148851759
152,372,25,0.00143434805828946,0.00761425192645151
153,372,25,0.00184634164950027,0.00785839627679866
154,372,25,0.0107270923933776,0.00759899290455482
155,372,25,0.00201419089036393,0.00909437705043107
156,372,25,0.0021210040436408,0.0184786755168994
157,372,25,0.00231937132829786,0.00750743877317464
158,372,25,0.0275120164797436,0.00730907148851759
159,372,25,0.00463874265659571,0.00781261921110857
160,372,25,0.0187228198672465,0.00762951094834821
149,373,25,0.00250247959105821,0.011261158159762
150,373,25,0.00328068970778973,0.00727855344472419
151,373,25,0.0259708552681773,0.0103303578240635
152,373,25,0.0802319371328298,0.00743114366369116
153,373,25,0.00190737773708705,0.0072480354009308
154,373,25,0.0712596322575723,0.00814831769283589
155,373,25,0.00180056458381018,0.0081177996490425
156,373,25,0.00198367284657053,0.00741588464179446
157,373,25,0.00204470893415732,0.012466620889601
158,373,25,0.0307011520561532,0.00743114366369116
159,373,25,0.00456244754711223,0.00778210116731518
160,373,25,0.0108644235904479,0.0241702906843671
161,373,25,0.00656137941557946,0.0128023193713283
149,374,25,0.00222781719691768,0.00883497367818723
150,374,25,0.00204470893415732,0.00752269779507134
151,374,25,0.00187685969329366,0.0076752880140383
152,374,25,0.0487678339818418,0.00749217975127794
153,374,25,0.00244144350347143,0.00730907148851759
154,374,25,0.00196841382467384,0.00747692072938125
155,374,25,0.00160219729915312,0.00819409475852598
156,374,25,0.00245670252536812,0.0076600289921416
157,374,25,0.00193789578088045,0.0106202792401007
158,374,25,0.00170901045243,0.00883497367818723
159,374,25,0.00170901045243,0.00761425192645151
160,374,25,0.0629739833676661,0.00881971465629053
161,374,25,0.00337224383916991,0.0101472495613031
150,375,25,0.00234988937209125,0.00976577401388571
151,375,25,0.00180056458381018,0.00785839627679866
152,375,25,0.00186160067139696,0.00775158312352178
153,375,25,0.00175478751812009,0.0216525520714122
154,375,25,0.0021515220874342,0.0081025406271458
155,375,25,0.00366216525520714,0.00697337300679027
156,375,25,0.0358434424353399,0.0200656137941558
157,375,25,0.0113221942473487,0.00798046845197223
158,375,25,0.0063935301747158,0.0123903257801175
159,375,25,0.00187685969329366,0.00679026474402991
160,375,25,0.00434882124055848,0.00762951094834821
161,375,25,0.0029755092698558,0.0135652704661631
162,375,25,0.00244144350347143,0.00776684214541848
151,376,25,0.00177004654001678,0.00823987182421607
152,376,25,0.00859082932784009,0.0104219119554437
153,376,25,0.0110170138094148,0.00976577401388571
154,376,25,0.00187685969329366,0.00807202258335241
155,376,25,0.00463874265659571,0.00817883573662928
156,376,25,0.00357061112382696,0.00741588464179446
157,376,25,0.00183108262760357,0.00732433051041428
158,376,25,0.02563515678645,0.010605020218204
159,376,25,0.00193789578088045,0.00814831769283589
160,376,25,0.00233463035019455,0.00706492713817044
161,376,25,0.0314030670634012,0.00924696726939803
162,376,25,0.0166781109330892,0.0149080643930724
151,377,25,0.00146486610208286,0.00733958953231098
152,377,25,0.00123598077363241,0.00906385900663768
153,377,25,0.00570687418936446,0.00836194399938964
154,377,25,0.00192263675898375,0.013870450904097
155,377,25,0.00744640268558785,0.00740062561989776
156,377,25,0.036896314946212,0.00830090791180285
157,377,25,0.00210574502174411,0.00776684214541848
158,377,25,0.00238040741588464,0.00953688868543526
159,377,25,0.00888075074387732,0.00868238345922026
160,377,25,0.0202944991226062,0.00773632410162509
161,377,25,0.00361638818951705,0.00787365529869535
162,377,25,0.00192263675898375,0.0163729304951553
152,378,25,0.00160219729915312,0.012817578393225
153,378,25,0.00151064316777295,0.00859082932784009
154,378,25,0.00816357671473259,0.00840772106507973
155,378,25,0.0139162279697871,0.00784313725490196
156,378,25,0.0131074998092622,0.00697337300679027
157,378,25,0.0101319905394064,0.0179140917067216
158,378,25,0.00189211871519036,0.0081177996490425
159,378,25,0.00314335851071946,0.00737010757610437
160,378,25,0.00204470893415732,0.00772106507972839
161,378,25,0.00141908903639277,0.0111848630502785
162,378,25,0.0021362630655375,0.00801098649576562
153,379,25,0.00964370183871214,0.0183413443198291
154,379,25,0.00585946440833143,0.00827038986800946
155,379,25,0.00158693827725643,0.0072480354009308
156,379,25,0.00192263675898375,0.00737010757610437
157,379,25,0.0274204623483635,0.00761425192645151
158,379,25,0.00291447318226902,0.00732433051041428
159,379,25,0.00186160067139696,0.00741588464179446
160,379,25,0.0511024643320363,0.00770580605783169
161,379,25,0.00593575951781491,0.00749217975127794
162,379,25,0.0593270771343557,0.00753795681696803
153,380,25,0.045838101777676,0.0282749675745785
154,380,25,0.0446631570916304,0.00921644922560464
155,380,25,0.00140383001449607,0.00782787823300526
156,380,25,0.00184634164950027,0.00758373388265812
157,380,25,0.00193789578088045,0.007690547035935
158,380,25,0.00198367284657053,0.0155489433127337
159,380,25,0.0279392690928511,0.00746166170748455
160,380,25,0.0263218127718013,0.00733958953231098
161,380,25,0.00221255817502098,0.00804150453955901
162,380,25,0.0293888761730373,0.00720225833524071
154,381,25,0.0204776073853666,0.0076752880140383
155,381,25,0.00198367284657053,0.0126192111085679
156,381,25,0.00180056458381018,0.00865186541542687
157,381,25,0.00146486610208286,0.00753795681696803
158,381,25,0.0021210040436408,0.0192874036774243
159,381,25,0.00210574502174411,0.0111848630502785
160,381,25,0.015030136568246,0.0161745632104982
161,381,25,0.0155947203784237,0.00950637064164187
162,381,25,0.07348744945449,0.0195925841153582
155,382,25,0.0252079041733425,0.00721751735713741
156,382,25,0.00187685969329366,0.00843823910887312
157,382,25,0.00563057907988098,0.00762951094834821
158,382,25,0.0244144350347143,0.00715648126955062
159,382,25,0.00325017166399634,0.0103761348897536
160,382,25,0.0305638208590829,0.00791943236438544
161,382,25,0.0029907682917525,0.0167849240863661
162,382,25,0.026993209735256,0.00868238345922026
156,383,25,0.00155642023346304,0.00733958953231098
157,383,25,0.00367742427710384,0.00764476997024491
158,383,25,0.0280308232242313,0.00794995040817884
159,383,25,0.116151674677653,0.0137026016632334
160,383,25,0.00163271534294652,0.0068207827878233
161,383,25,0.0328526741435874,0.00755321583886473
162,383,25,0.0301670862897688,0.0155031662470436
156,384,25,0.00178530556191348,0.00891126878767071
157,384,25,0.0231937132829786,0.00794995040817884
158,384,25,0.0154116121156634,0.0134737163347829
159,384,25,0.00152590218966964,0.00759899290455482
160,384,25,0.00180056458381018,0.0133516441596094
161,384,25,0.00221255817502098,0.0122987716487373
162,384,25,0.0304875257495994,0.00714122224765393
157,385,25,0.0139620050354772,0.00779736018921187
158,385,25,0.00181582360570687,0.00753795681696803
159,385,25,0.00752269779507134,0.0170138094148165
160,385,25,0.00115968566414893,0.00741588464179446
161,385,25,0.00189211871519036,0.00827038986800946
162,385,25,0.00187685969329366,0.00802624551766232
158,386,25,0.00123598077363241,0.0115815976195926
159,386,25,0.00152590218966964,0.0134584573128862
160,386,25,0.011810482948043,0.0141603723201343
161,386,25,0.00218204013122759,0.00877393759060044
159,387,25,0.00317387655451286,0.00721751735713741
160,387,25,0.0166475928892958,0.00778210116731518
153,369,26,0.00271610589761196,0.00735484855420768
154,369,26,0.00163271534294652,0.00743114366369116
155,369,26,0.00228885328450446,0.00840772106507973
156,369,26,0.0538796063172351,0.0153505760280766
157,369,26,0.0280918593118181,0.0100709544518196
152,370,26,0.0429694056610971,0.00790417334248875
153,370,26,0.00245670252536812,0.00746166170748455
154,370,26,0.00321965362020294,0.0196993972686351
155,370,26,0.00163271534294652,0.0100404364080262
156,370,26,0.00222781719691768,0.0108949416342412
157,370,26,0.00227359426260777,0.0171053635461967
158,370,26,0.00160219729915312,0.016937514305333
159,370,26,0.00183108262760357,0.0072327763790341
151,371,26,0.00238040741588464,0.0111238269626917
152,371,26,0.00122072175173571,0.00805676356145571
153,371,26,0.00631723506523232,0.00805676356145571
154,371,26,0.0251621271076524,0.0170595864805066
155,371,26,0.00865186541542687,0.00752269779507134
156,371,26,0.00144960708018616,0.00834668497749294
157,371,26,0.0259555962462806,0.00785839627679866
158,371,26,0.0371557183184558,0.00733958953231098
159,371,26,0.00183108262760357,0.00746166170748455
160,371,26,0.00180056458381018,0.00820935378042268
150,372,26,0.00119020370794232,0.00755321583886473
151,372,26,0.0283054856183719,0.00820935378042268
152,372,26,0.00749217975127794,0.0085145342183566
153,372,26,0.0355230029755093,0.0108949416342412
154,372,26,0.0012817578393225,0.0212405584802014
155,372,26,0.00205996795605402,0.00776684214541848
156,372,26,0.00238040741588464,0.0076600289921416
157,372,26,0.0130769817654688,0.0202487220569162
158,372,26,0.0397344930189975,0.0125734340428779
159,372,26,0.00602731364919509,0.0191042954146639
160,372,26,0.00450141145952544,0.0177157244220645
150,373,26,0.0221713588158999,0.011261158159762
151,373,26,0.00201419089036393,0.0137483787289235
152,373,26,0.00167849240863661,0.00732433051041428
153,373,26,0.00205996795605402,0.00759899290455482
154,373,26,0.00184634164950027,0.00773632410162509
155,373,26,0.00822461280231937,0.00802624551766232
156,373,26,0.00192263675898375,0.00746166170748455
157,373,26,0.0303349355306325,0.0076752880140383
158,373,26,0.00488288700694285,0.00793469138628214
159,373,26,0.00178530556191348,0.00782787823300526
160,373,26,0.00187685969329366,0.00779736018921187
161,373,26,0.0021362630655375,0.00755321583886473
149,374,26,0.00170901045243,0.00700389105058366
150,374,26,0.111436636911574,0.00956740672922866
151,374,26,0.035736629282063,0.00746166170748455
152,374,26,0.00224307621881437,0.00907911802853437
153,374,26,0.0156099794003204,0.0076600289921416
154,374,26,0.00195315480277714,0.0105134660868238
155,374,26,0.00177004654001678,0.00801098649576562
156,374,26,0.00218204013122759,0.00865186541542687
157,374,26,0.00193789578088045,0.00820935378042268
158,374,26,0.00584420538643473,0.00761425192645151
159,374,26,0.0299687190051118,0.00918593118181125
160,374,26,0.00224307621881437,0.0116426337071794
161,374,26,0.00273136491950866,0.00762951094834821
150,375,26,0.00216678110933089,0.00927748531319142
151,375,26,0.00221255817502098,0.012314030670634
152,375,26,0.00228885328450446,0.00738536659800107
153,375,26,0.00210574502174411,0.00775158312352178
154,375,26,0.00985732814526589,0.0115358205539025
155,375,26,0.00198367284657053,0.00753795681696803
156,375,26,0.00224307621881437,0.00755321583886473
157,375,26,0.0353093766689555,0.00756847486076143
158,375,26,0.00534065766384375,0.00759899290455482
159,375,26,0.00199893186846723,0.00778210116731518
160,375,26,0.123918516823072,0.00834668497749294
161,375,26,0.00170901045243,0.00744640268558785
162,375,26,0.00286869611657893,0.015030136568246
152,376,26,0.00527962157625696,0.0167849240863661
153,376,26,0.00195315480277714,0.00790417334248875
154,376,26,0.0012817578393225,0.00770580605783169
155,376,26,0.00204470893415732,0.00782787823300526
156,376,26,0.00247196154726482,0.00791943236438544
157,376,26,0.00210574502174411,0.0101472495613031
158,376,26,0.00143434805828946,0.0081177996490425
159,376,26,0.0103456168459602,0.00787365529869535
160,376,26,0.0887922484168765,0.00729381246662089
161,376,26,0.025833524071107,0.0076752880140383
162,376,26,0.00614938582436866,0.00787365529869535
151,377,26,0.00222781719691768,0.0076600289921416
152,377,26,0.00177004654001678,0.00727855344472419
153,377,26,0.0021515220874342,0.00756847486076143
154,377,26,0.00225833524071107,0.00686655985351339
155,377,26,0.0157473105973907,0.0148622873273823
156,377,26,0.0016937514305333,0.00756847486076143
157,377,26,0.00531013962005035,0.00747692072938125
158,377,26,0.0600442511635004,0.00759899290455482
159,377,26,0.0155642023346304,0.00781261921110857
160,377,26,0.0376592660410468,0.00816357671473259
161,377,26,0.00778210116731518,0.0112458991378653
162,377,26,0.00262455176623178,0.00746166170748455
152,378,26,0.0228732738231479,0.00762951094834821
153,378,26,0.014526588845655,0.00791943236438544
154,378,26,0.00161745632104982,0.00791943236438544
155,378,26,0.00234988937209125,0.00720225833524071
156,378,26,0.00248722056916152,0.00790417334248875
157,378,26,0.00167849240863661,0.00776684214541848
158,378,26,0.00776684214541848,0.00729381246662089
159,378,26,0.00915541313801785,0.00730907148851759
160,378,26,0.00248722056916152,0.00796520943007553
161,378,26,0.00193789578088045,0.00787365529869535
162,378,26,0.00158693827725643,0.00747692072938125
152,379,26,0.00366216525520714,0.00706492713817044
153,379,26,0.00250247959105821,0.00714122224765393
154,379,26,0.00204470893415732,0.00883497367818723
155,379,26,0.0117494468604562,0.0102235446707866
156,379,26,0.00158693827725643,0.0107270923933776
157,379,26,0.009399557488365,0.00737010757610437
158,379,26,0.00498970016021973,0.00750743877317464
159,379,26,0.0199130235751888,0.00778210116731518
160,379,26,0.11113145647364,0.0114137483787289
161,379,26,0.0392767223620966,0.00756847486076143
162,379,26,0.00190737773708705,0.00788891432059205
153,380,26,0.00146486610208286,0.00776684214541848
154,380,26,0.00205996795605402,0.0127412832837415
155,380,26,0.00180056458381018,0.00755321583886473
156,380,26,0.00195315480277714,0.00788891432059205
157,380,26,0.00216678110933089,0.00929274433508812
158,380,26,0.00146486610208286,0.0118562600137331
159,380,26,0.00190737773708705,0.00730907148851759
160,380,26,0.00148012512397955,0.00784313725490196
161,380,26,0.00181582360570687,0.00775158312352178
162,380,26,0.0021362630655375,0.0314946211947814
154,381,26,0.0123598077363241,0.00727855344472419
155,381,26,0.00186160067139696,0.00814831769283589
156,381,26,0.00573739223315786,0.00791943236438544
157,381,26,0.0156557564660105,0.0113221942473487
158,381,26,0.00239566643778134,0.00761425192645151
159,381,26,0.00187685969329366,0.00805676356145571
160,381,26,0.00210574502174411,0.0121461814297704
161,381,26,0.00173952849622339,0.0103608758678569
162,381,26,0.00170901045243,0.00793469138628214
154,382,26,0.0399938963912413,0.00782787823300526
155,382,26,0.00151064316777295,0.00685130083161669
156,382,26,0.00196841382467384,0.0205691615167468
157,382,26,0.00209048599984741,0.0089723048752575
158,382,26,0.0021362630655375,0.0239566643778134
159,382,26,0.0240634775310903,0.00700389105058366
160,382,26,0.002563515678645,0.00741588464179446
161,382,26,0.0987563897154192,0.0207370107576104
162,382,26,0.00189211871519036,0.00756847486076143
155,383,26,0.00192263675898375,0.00775158312352178
156,383,26,0.0326390478370336,0.007690547035935
157,383,26,0.00199893186846723,0.00679026474402991
158,383,26,0.00929274433508812,0.00793469138628214
159,383,26,0.00178530556191348,0.00865186541542687
160,383,26,0.00154116121156634,0.0093842984664683
161,383,26,0.00193789578088045,0.0146944380865187
162,383,26,0.00219729915312428,0.0141603723201343
156,384,26,0.00239566643778134,0.0132143129625391
157,384,26,0.00190737773708705,0.0161135271229114
158,384,26,0.00146486610208286,0.00672922865644312
159,384,26,0.00151064316777295,0.00733958953231098
160,384,26,0.0021515220874342,0.00825513084611276
161,384,26,0.00181582360570687,0.00747692072938125
162,384,26,0.0284580758373388,0.0164644846265354
157,385,26,0.027695124742504,0.00788891432059205
158,385,26,0.00943007553215839,0.0080872816052491
159,385,26,0.00189211871519036,0.00787365529869535
160,385,26,0.00143434805828946,0.00749217975127794
161,385,26,0.00196841382467384,0.00779736018921187
162,385,26,0.00239566643778134,0.00796520943007553
157,386,26,0.00154116121156634,0.00930800335698482
158,386,26,0.00181582360570687,0.00778210116731518
159,386,26,0.00187685969329366,0.00762951094834821
160,386,26,0.0933241779201953,0.00802624551766232
161,386,26,0.0355840390630961,0.011612115663386
158,387,26,0.00231937132829786,0.00733958953231098
159,387,26,0.00576791027695125,0.00813305867093919
160,387,26,0.0102388036926833,0.00823987182421607
161,387,26,0.0017242694743267,0.0072327763790341
159,388,26,0.00157167925535973,0.00773632410162509
154,369,27,0.00216678110933089,0.0144960708018616
155,369,27,0.00219729915312428,0.00752269779507134
156,369,27,0.00872816052491035,0.00793469138628214
152,370,27,0.00222781719691768,0.00798046845197223
153,370,27,0.00242618448157473,0.0146334019989319
154,370,27,0.00239566643778134,0.00776684214541848
155,370,27,0.00222781719691768,0.00794995040817884
156,370,27,0.00395208667124437,0.0235294117647059
157,370,27,0.00703440909437705,0.00759899290455482
158,370,27,0.0101625085831998,0.00773632410162509
151,371,27,0.0119172961013199,0.00801098649576562
152,371,27,0.0286411841000992,0.0126039520866712
153,371,27,0.00178530556191348,0.0150606546120394
154,371,27,0.00218204013122759,0.0117341878385595
155,371,27,0.00250247959105821,0.0167086289768826
156,371,27,0.00770580605783169,0.0093690394445716
157,371,27,0.00242618448157473,0.0124971389333944
158,371,27,0.0279545281147478,0.00755321583886473
159,371,27,0.00230411230640116,0.00744640268558785
151,372,27,0.0796215762569619,0.0098268101014725
152,372,27,0.00195315480277714,0.00744640268558785
153,372,27,0.00228885328450446,0.00968947890440223
154,372,27,0.00311284046692607,0.00785839627679866
155,372,27,0.0424200808728161,0.00778210116731518
156,372,27,0.02221713588159,0.0122987716487373
157,372,27,0.00245670252536812,0.0202334630350195
158,372,27,0.00198367284657053,0.00921644922560464
159,372,27,0.0021362630655375,0.00933852140077821
160,372,27,0.00234988937209125,0.0153658350499733
151,373,27,0.00167849240863661,0.00917067215991455
152,373,27,0.0192721446555276,0.00798046845197223
153,373,27,0.00241092545967803,0.0200503547722591
154,373,27,0.00146486610208286,0.00807202258335241
155,373,27,0.0349126420996414,0.00791943236438544
156,373,27,0.00239566643778134,0.00779736018921187
157,373,27,0.00332646677347982,0.00755321583886473
158,373,27,0.0537880521858549,0.00798046845197223
159,373,27,0.00216678110933089,0.00740062561989776
160,373,27,0.0198367284657053,0.0139314869916838
161,373,27,0.00231937132829786,0.0148622873273823
150,374,27,0.00205996795605402,0.00712596322575723
151,374,27,0.00250247959105821,0.0072632944228275
152,374,27,0.00134279392690929,0.00881971465629053
153,374,27,0.0263065537499046,0.00845349813076982
154,374,27,0.0149080643930724,0.00735484855420768
155,374,27,0.00317387655451286,0.00717174029144732
156,374,27,0.0185397116044862,0.00793469138628214
157,374,27,0.0021515220874342,0.00764476997024491
158,374,27,0.0303959716182193,0.00772106507972839
159,374,27,0.00207522697795071,0.00747692072938125
160,374,27,0.00135805294880598,0.00791943236438544
161,374,27,0.00175478751812009,0.0112764171816587
150,375,27,0.00138857099259937,0.0112001220721752
151,375,27,0.00198367284657053,0.00781261921110857
152,375,27,0.00250247959105821,0.00714122224765393
153,375,27,0.00167849240863661,0.00814831769283589
154,375,27,0.0017242694743267,0.00785839627679866
155,375,27,0.00236514839398795,0.00762951094834821
156,375,27,0.0021515220874342,0.0120393682764935
157,375,27,0.00196841382467384,0.00880445563439384
158,375,27,0.00236514839398795,0.00849927519645991
159,375,27,0.00224307621881437,0.00741588464179446
160,375,27,0.0190585183489738,0.00814831769283589
161,375,27,0.00408941786831464,0.00762951094834821
162,375,27,0.00183108262760357,0.00828564888990616
150,376,27,0.0637216754406043,0.00816357671473259
151,376,27,0.00183108262760357,0.00892652780956741
152,376,27,0.0016937514305333,0.0076600289921416
153,376,27,0.00204470893415732,0.00755321583886473
154,376,27,0.00175478751812009,0.00727855344472419
155,376,27,0.00166323338673991,0.00801098649576562
156,376,27,0.0420538643472953,0.0102388036926833
157,376,27,0.00245670252536812,0.0159761959258412
158,376,27,0.0426947432669566,0.0180819409475853
159,376,27,0.0515297169451438,0.0126039520866712
160,376,27,0.145464255741207,0.01367208361944
161,376,27,0.00204470893415732,0.0169985503929198
162,376,27,0.00196841382467384,0.00799572747386892
151,377,27,0.0021515220874342,0.00752269779507134
152,377,27,0.00209048599984741,0.00779736018921187
153,377,27,0.00242618448157473,0.00782787823300526
154,377,27,0.00186160067139696,0.00772106507972839
155,377,27,0.0017242694743267,0.011612115663386
156,377,27,0.0021362630655375,0.00866712443732357
157,377,27,0.0209201190203708,0.00802624551766232
158,377,27,0.00463874265659571,0.0148470283054856
159,377,27,0.0449988555733577,0.00859082932784009
160,377,27,0.0235141527428092,0.00782787823300526
161,377,27,0.00177004654001678,0.0122835126268406
162,377,27,0.00247196154726482,0.0156252384222171
151,378,27,0.0270542458228428,0.00814831769283589
152,378,27,0.00146486610208286,0.00770580605783169
153,378,27,0.0273289082169833,0.0101625085831998
154,378,27,0.00323491264209964,0.0116426337071794
155,378,27,0.00422674906538491,0.00778210116731518
156,378,27,0.00184634164950027,0.00788891432059205
157,378,27,0.00195315480277714,0.00947585259784848
158,378,27,0.0182650492103456,0.00752269779507134
159,378,27,0.00190737773708705,0.00889600976577401
160,378,27,0.00167849240863661,0.0116731517509728
161,378,27,0.00199893186846723,0.0144960708018616
162,378,27,0.00219729915312428,0.00717174029144732
152,379,27,0.0677195391775387,0.00817883573662928
153,379,27,0.00785839627679866,0.0098115510795758
154,379,27,0.015533684290837,0.00991836423285267
155,379,27,0.00167849240863661,0.00802624551766232
156,379,27,0.00234988937209125,0.00862134737163348
157,379,27,0.00231937132829786,0.00793469138628214
158,379,27,0.00199893186846723,0.00837720302128634
159,379,27,0.00247196154726482,0.00773632410162509
160,379,27,0.00238040741588464,0.00758373388265812
161,379,27,0.101029983978027,0.00823987182421607
162,379,27,0.0371099412527657,0.00892652780956741
153,380,27,0.0397955291065843,0.0068207827878233
154,380,27,0.00219729915312428,0.00881971465629053
155,380,27,0.00143434805828946,0.012664988174258
156,380,27,0.00178530556191348,0.00843823910887312
157,380,27,0.00668345159075303,0.0115968566414893
158,380,27,0.00370794232089723,0.0205691615167468
159,380,27,0.00175478751812009,0.00825513084611276
160,380,27,0.00149538414587625,0.00733958953231098
161,380,27,0.0429999237048905,0.0125886930647745
162,380,27,0.00210574502174411,0.0111543450064851
153,381,27,0.0012970168612192,0.00796520943007553
154,381,27,0.00158693827725643,0.00750743877317464
155,381,27,0.0644235904478523,0.00993362325474937
156,381,27,0.0176089112687877,0.00807202258335241
157,381,27,0.00199893186846723,0.00805676356145571
158,381,27,0.00209048599984741,0.0072480354009308
159,381,27,0.002563515678645,0.0111543450064851
160,381,27,0.00825513084611276,0.00775158312352178
161,381,27,0.00274662394140536,0.00993362325474937
162,381,27,0.00503547722590982,0.00743114366369116
154,382,27,0.0282749675745785,0.00788891432059205
155,382,27,0.0775921263447013,0.00753795681696803
156,382,27,0.0621652552071412,0.007690547035935
157,382,27,0.00747692072938125,0.00932326237888151
158,382,27,0.00923170824750134,0.010955977721828
159,382,27,0.00158693827725643,0.00764476997024491
160,382,27,0.00195315480277714,0.0072480354009308
161,382,27,0.00216678110933089,0.00775158312352178
162,382,27,0.00144960708018616,0.00845349813076982
155,383,27,0.00195315480277714,0.00709544518196384
156,383,27,0.00204470893415732,0.007690547035935
157,383,27,0.00199893186846723,0.00752269779507134
158,383,27,0.00228885328450446,0.0143587396047913
159,383,27,0.0021515220874342,0.00749217975127794
160,383,27,0.00175478751812009,0.00775158312352178
161,383,27,0.00189211871519036,0.0076752880140383
162,383,27,0.00178530556191348,0.00959792477302205
155,384,27,0.00415045395590143,0.00743114366369116
156,384,27,0.00181582360570687,0.00759899290455482
157,384,27,0.0021210040436408,0.00755321583886473
158,384,27,0.00233463035019455,0.00962844281681544
159,384,27,0.0284428168154421,0.0163576714732586
160,384,27,0.00268558785381857,0.0093690394445716
161,384,27,0.0386358434424353,0.0110322728313115
162,384,27,0.069764248111696,0.00761425192645151
156,385,27,0.00202944991226062,0.00819409475852598
157,385,27,0.00483710994125277,0.020355535210193
158,385,27,0.00161745632104982,0.0216220340276188
159,385,27,0.0158236057068742,0.0104371709773404
160,385,27,0.0161287861448081,0.00791943236438544
161,385,27,0.00238040741588464,0.00804150453955901
162,385,27,0.0216372930495155,0.00776684214541848
157,386,27,0.00227359426260777,0.00814831769283589
158,386,27,0.00196841382467384,0.0260929274433509
159,386,27,0.0287174792095827,0.00744640268558785
160,386,27,0.00140383001449607,0.00720225833524071
161,386,27,0.00205996795605402,0.0109712367437247
157,387,27,0.0117952239261463,0.0081025406271458
158,387,27,0.0307469291218433,0.00738536659800107
159,387,27,0.00846875715266651,0.00776684214541848
160,387,27,0.0136263065537499,0.00787365529869535
161,387,27,0.0467078660257877,0.00807202258335241
158,388,27,0.00178530556191348,0.00820935378042268
159,388,27,0.0261081864652476,0.0119172961013199
154,370,28,0.0127718013275349,0.00776684214541848
155,370,28,0.0346379797055009,0.0108339055466545
156,370,28,0.00239566643778134,0.0107118333714809
157,370,28,0.0217746242465858,0.00721751735713741
152,371,28,0.00662241550316625,0.00840772106507973
153,371,28,0.0437170977340352,0.00741588464179446
154,371,28,0.00196841382467384,0.0107270923933776
155,371,28,0.00184634164950027,0.00790417334248875
156,371,28,0.0145723659113451,0.00788891432059205
157,371,28,0.00749217975127794,0.00782787823300526
158,371,28,0.00239566643778134,0.00747692072938125
159,371,28,0.0109254596780346,0.00814831769283589
152,372,28,0.00178530556191348,0.00749217975127794
153,372,28,0.0220340276188296,0.00888075074387732
154,372,28,0.0210727092393378,0.018097199969482
155,372,28,0.0129854276340887,0.00700389105058366
156,372,28,0.00276188296330205,0.00743114366369116
157,372,28,0.00373846036469062,0.015030136568246
158,372,28,0.0361791409170672,0.017441062027924
159,372,28,0.00286869611657893,0.00706492713817044
160,372,28,0.00373846036469062,0.0141908903639277
151,373,28,0.0585946440833143,0.00825513084611276
152,373,28,0.0144808117799649,0.00817883573662928
153,373,28,0.00228885328450446,0.00720225833524071
154,373,28,0.00224307621881437,0.00799572747386892
155,373,28,0.00224307621881437,0.0105897611963073
156,373,28,0.00236514839398795,0.00987258716716258
157,373,28,0.00210574502174411,0.00738536659800107
158,373,28,0.0021362630655375,0.0238498512245365
159,373,28,0.00251773861295491,0.0224765392538338
160,373,28,0.015732051575494,0.00846875715266651
151,374,28,0.00141908903639277,0.00762951094834821
152,374,28,0.00242618448157473,0.0141145952544442
153,374,28,0.0142977035172045,0.0213015945677882
154,374,28,0.0016937514305333,0.00759899290455482
155,374,28,0.00198367284657053,0.00746166170748455
156,374,28,0.0100404364080262,0.00788891432059205
157,374,28,0.00224307621881437,0.00764476997024491
158,374,28,0.0017242694743267,0.00750743877317464
159,374,28,0.00654612039368277,0.00785839627679866
160,374,28,0.00209048599984741,0.014175631342031
161,374,28,0.037094682230869,0.00975051499198901
151,375,28,0.00216678110933089,0.00816357671473259
152,375,28,0.00164797436484321,0.0108949416342412
153,375,28,0.00196841382467384,0.00820935378042268
154,375,28,0.0645609216449226,0.00926222629129473
155,375,28,0.0228732738231479,0.00805676356145571
156,375,28,0.00170901045243,0.00787365529869535
157,375,28,0.0524299992370489,0.00828564888990616
158,375,28,0.017593652246891,0.00775158312352178
159,375,28,0.00123598077363241,0.0141451132982376
160,375,28,0.00155642023346304,0.00912489509422446
161,375,28,0.00248722056916152,0.00834668497749294
150,376,28,0.00225833524071107,0.0135805294880598
151,376,28,0.00166323338673991,0.0134431982909895
152,376,28,0.00241092545967803,0.00746166170748455
153,376,28,0.00227359426260777,0.0080872816052491
154,376,28,0.0600595101853971,0.00746166170748455
155,376,28,0.00189211871519036,0.00827038986800946
156,376,28,0.00196841382467384,0.0102082856488899
157,376,28,0.00216678110933089,0.00933852140077821
158,376,28,0.0144045166704814,0.00743114366369116
159,376,28,0.00465400167849241,0.0085145342183566
160,376,28,0.0359044785229267,0.0144350347142748
161,376,28,0.0200808728160525,0.010605020218204
162,376,28,0.0016937514305333,0.0130769817654688
151,377,28,0.0121461814297704,0.00798046845197223
152,377,28,0.00286869611657893,0.0076600289921416
153,377,28,0.0295109483482109,0.00793469138628214
154,377,28,0.0351415274280919,0.00714122224765393
155,377,28,0.0102235446707866,0.0076600289921416
156,377,28,0.002563515678645,0.00946059357595178
157,377,28,0.0228274967574578,0.0105439841306172
158,377,28,0.00160219729915312,0.00845349813076982
159,377,28,0.00453192950331884,0.0081025406271458
160,377,28,0.00558480201419089,0.00790417334248875
161,377,28,0.00184634164950027,0.00770580605783169
162,377,28,0.00187685969329366,0.00759899290455482
151,378,28,0.103761348897536,0.00781261921110857
152,378,28,0.00204470893415732,0.009399557488365
153,378,28,0.00204470893415732,0.00994888227664607
154,378,28,0.00230411230640116,0.00802624551766232
155,378,28,0.00189211871519036,0.0117494468604562
156,378,28,0.00241092545967803,0.00865186541542687
157,378,28,0.0135805294880598,0.0173342488746471
158,378,28,0.015030136568246,0.00987258716716258
159,378,28,0.0325627527275502,0.017792019531548
160,378,28,0.00416571297779812,0.0166628519111925
161,378,28,0.0174105439841306,0.00747692072938125
162,378,28,0.0311741817349508,0.00755321583886473
152,379,28,0.00199893186846723,0.00747692072938125
153,379,28,0.00207522697795071,0.00839246204318303
154,379,28,0.0161593041886015,0.00880445563439384
155,379,28,0.0021515220874342,0.00787365529869535
156,379,28,0.00173952849622339,0.0110170138094148
157,379,28,0.00198367284657053,0.0144045166704814
158,379,28,0.00241092545967803,0.0146486610208286
159,379,28,0.0017242694743267,0.00785839627679866
160,379,28,0.0145418478675517,0.00862134737163348
161,379,28,0.00949111161974517,0.00830090791180285
162,379,28,0.0146486610208286,0.0257724879835203
153,380,28,0.0130464637216754,0.00704966811627375
154,380,28,0.0330968184939345,0.00741588464179446
155,380,28,0.00209048599984741,0.00798046845197223
156,380,28,0.00497444113832303,0.00784313725490196
157,380,28,0.00241092545967803,0.00732433051041428
158,380,28,0.128648813611048,0.0076600289921416
159,380,28,0.00209048599984741,0.0080872816052491
160,380,28,0.00192263675898375,0.00753795681696803
161,380,28,0.00633249408712902,0.00798046845197223
162,380,28,0.0120851453421836,0.00822461280231937
153,381,28,0.00151064316777295,0.00738536659800107
154,381,28,0.00991836423285267,0.0118410009918364
155,381,28,0.0319981689173724,0.00746166170748455
156,381,28,0.00195315480277714,0.00755321583886473
157,381,28,0.00489814602883955,0.0081177996490425
158,381,28,0.0820019836728466,0.0097962920576791
159,381,28,0.00201419089036393,0.00793469138628214
160,381,28,0.00170901045243,0.00807202258335241
161,381,28,0.00181582360570687,0.0140077821011673
162,381,28,0.00367742427710384,0.0072327763790341
154,382,28,0.0152132448310063,0.00787365529869535
155,382,28,0.00645456626230259,0.00773632410162509
156,382,28,0.00202944991226062,0.00729381246662089
157,382,28,0.00221255817502098,0.00828564888990616
158,382,28,0.0161898222323949,0.0076600289921416
159,382,28,0.0245670252536812,0.0121919584954604
160,382,28,0.0117341878385595,0.00857557030594339
161,382,28,0.00193789578088045,0.00788891432059205
162,382,28,0.0286259250782025,0.0190890363927672
154,383,28,0.00630197604333562,0.00770580605783169
155,383,28,0.00747692072938125,0.00784313725490196
156,383,28,0.00193789578088045,0.011261158159762
157,383,28,0.00201419089036393,0.00837720302128634
158,383,28,0.00205996795605402,0.00782787823300526
159,383,28,0.00187685969329366,0.00830090791180285
160,383,28,0.0859235523002976,0.00817883573662928
161,383,28,0.0402532997634852,0.0072327763790341
162,383,28,0.00230411230640116,0.00799572747386892
155,384,28,0.00228885328450446,0.00735484855420768
156,384,28,0.00170901045243,0.0116578927290761
157,384,28,0.00175478751812009,0.0176852063782712
158,384,28,0.00410467689021134,0.00732433051041428
159,384,28,0.0146334019989319,0.00679026474402991
160,384,28,0.0021515220874342,0.00788891432059205
161,384,28,0.0172732127870604,0.00793469138628214
162,384,28,0.0326848249027237,0.00926222629129473
156,385,28,0.00230411230640116,0.00746166170748455
157,385,28,0.00175478751812009,0.00755321583886473
158,385,28,0.0388189517051957,0.00793469138628214
159,385,28,0.0649576562142367,0.00991836423285267
160,385,28,0.00184634164950027,0.00846875715266651
161,385,28,0.00210574502174411,0.00761425192645151
162,385,28,0.00219729915312428,0.00978103303578241
156,386,28,0.0492256046387427,0.0085145342183566
157,386,28,0.00689707789730678,0.012314030670634
158,386,28,0.00149538414587625,0.0106202792401007
159,386,28,0.0805981536583505,0.00762951094834821
160,386,28,0.0252231631952392,0.00775158312352178
161,386,28,0.0160067139696345,0.00827038986800946
157,387,28,0.00173952849622339,0.00880445563439384
158,387,28,0.0984054322117952,0.0124055848020142
159,387,28,0.00460822461280232,0.00784313725490196
160,387,28,0.00167849240863661,0.00799572747386892
161,387,28,0.00186160067139696,0.0072480354009308
158,388,28,0.00268558785381857,0.00747692072938125
159,388,28,0.0160677500572213,0.00737010757610437
