x,y,z,fucci_ch00,fucci_ch02
254,545,19,0.00842298008697642,0.00785839627679866
255,545,19,0.0280155642023346,0.0102388036926833
251,546,19,0.182619974059663,0.00863660639353018
252,546,19,0.206851300831617,0.00825513084611276
253,546,19,0.182162203402762,0.00868238345922026
254,546,19,0.0542153047989624,0.0333409628442817
255,546,19,0.00276188296330205,0.0110933089188983
249,547,19,0.122987716487373,0.00781261921110857
250,547,19,0.143770504310674,0.0200198367284657
251,547,19,0.0995498588540474,0.00845349813076982
252,547,19,0.171877622644388,0.0081025406271458
253,547,19,0.0301365682459754,0.00761425192645151
254,547,19,0.10101472495613,0.00741588464179446
255,547,19,0.0983596551461051,0.00775158312352178
247,548,19,0.0650034332799268,0.00791943236438544
248,548,19,0.186816205081254,0.00794995040817884
249,548,19,0.166369115739681,0.0179293507286183
250,548,19,0.16595712214847,0.0125276569771878
251,548,19,0.127840085450523,0.00868238345922026
252,548,19,0.00209048599984741,0.00822461280231937
253,548,19,0.097108415350576,0.0160524910353246
254,548,19,0.0616311894407569,0.00799572747386892
255,548,19,0.0239719233997101,0.00738536659800107
246,549,19,0.245227740901808,0.00802624551766232
247,549,19,0.0327611200122072,0.0179140917067216
248,549,19,0.065491721980621,0.00859082932784009
249,549,19,0.0524605172808423,0.0103456168459602
250,549,19,0.0674601358052949,0.00779736018921187
251,549,19,0.158770122835126,0.00782787823300526
252,549,19,0.0610666056305791,0.00694285496299687
253,549,19,0.074891279468986,0.00747692072938125
254,549,19,0.00785839627679866,0.00859082932784009
255,549,19,0.0726176852063783,0.00842298008697642
245,550,19,0.100526436255436,0.0121461814297704
246,550,19,0.0438544289311055,0.00709544518196384
247,550,19,0.0376592660410468,0.00794995040817884
248,550,19,0.0651102464332036,0.0134431982909895
249,550,19,0.101243610284581,0.00773632410162509
250,550,19,0.0964980544747082,0.00703440909437705
251,550,19,0.0493018997482261,0.00761425192645151
252,550,19,0.078461890592813,0.00779736018921187
253,550,19,0.0352483405813687,0.0128786144808118
254,550,19,0.0723735408560311,0.00868238345922026
255,550,19,0.0631265735866331,0.00732433051041428
245,551,19,0.0671854734111543,0.012817578393225
246,551,19,0.191287098496986,0.00753795681696803
247,551,19,0.063782711528191,0.00805676356145571
248,551,19,0.0849011978332189,0.00740062561989776
249,551,19,0.13990997177081,0.00781261921110857
250,551,19,0.0994888227664607,0.00796520943007553
251,551,19,0.092988479438468,0.0080872816052491
252,551,19,0.260669871061265,0.00730907148851759
253,551,19,0.0301670862897688,0.0113984893568322
254,551,19,0.102220187685969,0.00770580605783169
255,551,19,0.16595712214847,0.0226291294728008
245,552,19,0.155764095521477,0.00779736018921187
246,552,19,0.102906843671321,0.00712596322575723
247,552,19,0.148790722514687,0.00907911802853437
248,552,19,0.176333257038224,0.0178530556191348
249,552,19,0.0315098802166781,0.0104219119554437
250,552,19,0.077958342870222,0.00776684214541848
251,552,19,0.18655680170901,0.0196841382467384
252,552,19,0.0848554207675288,0.0100862134737163
253,552,19,0.0749675745784695,0.00965896086060884
254,552,19,0.252140077821012,0.0114137483787289
255,552,19,0.00479133287556268,0.00773632410162509
245,553,19,0.0958571755550469,0.00753795681696803
246,553,19,0.0724193179217212,0.00807202258335241
247,553,19,0.0551766231784543,0.0180361638818952
248,553,19,0.0248111696040284,0.00985732814526589
249,553,19,0.10600442511635,0.00727855344472419
250,553,19,0.0874799725337606,0.0126039520866712
251,553,19,0.0376134889753567,0.0177615014877546
252,553,19,0.0895094224460212,0.00761425192645151
253,553,19,0.140886549172198,0.00656137941557946
254,553,19,0.00547798886091402,0.00779736018921187
246,554,19,0.119127183947509,0.00718699931334401
247,554,19,0.0761120012207217,0.00801098649576562
248,554,19,0.129335469596399,0.00801098649576562
249,554,19,0.0365758754863813,0.00779736018921187
250,554,19,0.0882429236285954,0.0102388036926833
251,554,19,0.0966201266498817,0.0137788967727169
252,554,19,0.13653772793164,0.0137026016632334
253,554,19,0.0846875715266651,0.00947585259784848
254,554,19,0.0745098039215686,0.00747692072938125
246,555,19,0.0507820248722057,0.00846875715266651
247,555,19,0.159334706645304,0.0149385824368658
248,555,19,0.22891584649424,0.0115205615320058
249,555,19,0.145815213244831,0.00775158312352178
250,555,19,0.0890821698329137,0.0144960708018616
251,555,19,0.0676890211337453,0.0109254596780346
252,555,19,0.132219424734874,0.0148317692835889
253,555,19,0.0105439841306172,0.00737010757610437
246,556,19,0.0225833524071107,0.0261997405966278
247,556,19,0.103746089875639,0.00822461280231937
248,556,19,0.215030136568246,0.00888075074387732
249,556,19,0.172762645914397,0.00778210116731518
250,556,19,0.0964370183871214,0.00770580605783169
251,556,19,0.0321355001144427,0.010955977721828
252,545,20,0.0593575951781491,0.010406652933547
253,545,20,0.072281986724651,0.0163729304951553
254,545,20,0.0578469520103761,0.00798046845197223
255,545,20,0.0458228427557794,0.00781261921110857
250,546,20,0.0702220187685969,0.00804150453955901
251,546,20,0.0434729533836881,0.0176394293125811
252,546,20,0.127428091859312,0.00694285496299687
253,546,20,0.0505836575875486,0.00785839627679866
254,546,20,0.109925993743801,0.0116426337071794
255,546,20,0.0800335698481727,0.00741588464179446
248,547,20,0.091935606927596,0.0160219729915312
249,547,20,0.107774471656367,0.017441062027924
250,547,20,0.11468680857557,0.00709544518196384
251,547,20,0.076249332417792,0.00758373388265812
252,547,20,0.0631723506523232,0.00802624551766232
253,547,20,0.0639963378347448,0.00784313725490196
254,547,20,0.0520180056458381,0.00735484855420768
255,547,20,0.0206149385824369,0.00746166170748455
256,547,20,0.0867475394827192,0.00782787823300526
247,548,20,0.102952620737011,0.00738536659800107
248,548,20,0.030914778362707,0.00889600976577401
249,548,20,0.117158770122835,0.0142214084077211
250,548,20,0.123765926604105,0.00764476997024491
251,548,20,0.181857022964828,0.00871290150301366
252,548,20,0.0664682993820096,0.00790417334248875
253,548,20,0.0951552605477989,0.00732433051041428
254,548,20,0.148165102616922,0.00820935378042268
255,548,20,0.199633783474479,0.00759899290455482
256,548,20,0.0449683375295644,0.00753795681696803
245,549,20,0.0340123598077363,0.0106660563057908
246,549,20,0.0462653543907836,0.0127870603494316
247,549,20,0.128465705348287,0.0132448310063325
248,549,20,0.0924391546501869,0.00888075074387732
249,549,20,0.14891279468986,0.00787365529869535
250,549,20,0.175280384527352,0.00711070420386053
251,549,20,0.0667277027542535,0.00782787823300526
252,549,20,0.205706874189364,0.00782787823300526
253,549,20,0.120943007553216,0.00746166170748455
254,549,20,0.185778591592279,0.00773632410162509
255,549,20,0.0505683985656519,0.00788891432059205
256,549,20,0.0896467536430915,0.0122072175173571
245,550,20,0.124391546501869,0.0100251773861295
246,550,20,0.0833905546654459,0.00950637064164187
247,550,20,0.0174258030060273,0.0134431982909895
248,550,20,0.085648889906157,0.0103150988021668
249,550,20,0.107301441977569,0.0282597085526818
250,550,20,0.0352941176470588,0.00775158312352178
251,550,20,0.0788433661402304,0.00770580605783169
252,550,20,0.0886396581979095,0.00898756389715419
253,550,20,0.103044174868391,0.01196307316701
254,550,20,0.0741130693522545,0.0179598687724117
255,550,20,0.132051575494011,0.00762951094834821
256,550,20,0.0428015564202335,0.00761425192645151
245,551,20,0.089372091248951,0.00753795681696803
246,551,20,0.0900587472343023,0.00790417334248875
247,551,20,0.131303883421073,0.00848401617456321
248,551,20,0.047501335164416,0.0085145342183566
249,551,20,0.101472495613031,0.00730907148851759
250,551,20,0.195498588540475,0.00779736018921187
251,551,20,0.0915388723582818,0.0102693217364767
252,551,20,0.10914778362707,0.0252384222171359
253,551,20,0.0737010757610437,0.0101930266269932
254,551,20,0.0388189517051957,0.0122987716487373
255,551,20,0.0533455405508507,0.0144808117799649
256,551,20,0.116365300984207,0.0080872816052491
245,552,20,0.111192492561227,0.00778210116731518
246,552,20,0.0293278400854505,0.00752269779507134
247,552,20,0.130861371786069,0.00785839627679866
248,552,20,0.212344548714427,0.0157473105973907
249,552,20,0.0353551537346456,0.00791943236438544
250,552,20,0.172640573739223,0.00738536659800107
251,552,20,0.148119325551232,0.00770580605783169
252,552,20,0.103150988021668,0.00764476997024491
253,552,20,0.102388036926833,0.00794995040817884
254,552,20,0.135927367055772,0.00759899290455482
255,552,20,0.0427100022888533,0.0276798657206073
245,553,20,0.13002212558175,0.00804150453955901
246,553,20,0.0792858777752346,0.00813305867093919
247,553,20,0.064087891966125,0.00790417334248875
248,553,20,0.24596017395285,0.0296482795452811
249,553,20,0.0441138323033494,0.00794995040817884
250,553,20,0.108735790035859,0.00799572747386892
251,553,20,0.123964293888762,0.00825513084611276
252,553,20,0.152834363317311,0.00828564888990616
253,553,20,0.102525368123903,0.00880445563439384
254,553,20,0.0573586633096818,0.00991836423285267
255,553,20,0.042923628595407,0.0107270923933776
245,554,20,0.151171129930571,0.0101625085831998
246,554,20,0.0695353627832456,0.00787365529869535
247,554,20,0.0339513237201495,0.010452429999237
248,554,20,0.118608377203021,0.0178377965972381
249,554,20,0.0575570305943389,0.00785839627679866
250,554,20,0.067505912870985,0.0125581750209812
251,554,20,0.0971847104600595,0.00817883573662928
252,554,20,0.171847104600595,0.0076600289921416
253,554,20,0.0961165789272908,0.00743114366369116
254,554,20,0.0798046845197223,0.00727855344472419
245,555,20,0.041519798580911,0.00730907148851759
246,555,20,0.0190585183489738,0.00750743877317464
247,555,20,0.133974212252995,0.0128633554589151
248,555,20,0.0717326619363699,0.00820935378042268
249,555,20,0.138124666208896,0.00772106507972839
250,555,20,0.104325932707713,0.00762951094834821
251,555,20,0.190997177080949,0.00799572747386892
252,555,20,0.0627756160830091,0.0128480964370184
253,555,20,0.00160219729915312,0.0133363851377127
245,556,20,0.00524910353246357,0.00909437705043107
246,556,20,0.0617837796597238,0.0080872816052491
247,556,20,0.287083237964446,0.00721751735713741
248,556,20,0.103761348897536,0.00784313725490196
249,556,20,0.09062333104448,0.00744640268558785
250,556,20,0.0146486610208286,0.00764476997024491
251,556,20,0.0575417715724422,0.0251773861295491
252,556,20,0.0325780117494469,0.0115053025101091
246,557,20,0.0231631952391852,0.00866712443732357
247,557,20,0.173311970702678,0.00770580605783169
248,557,20,0.0218356603341726,0.0149385824368658
249,557,20,0.00442511635004196,0.00773632410162509
250,557,20,0.103013656824598,0.0246433203631647
255,544,21,0.039856565194171,0.00996414129854276
252,545,21,0.073990997177081,0.00692759594110018
253,545,21,0.0666971847104601,0.0159914549477378
254,545,21,0.031464103150988,0.00813305867093919
255,545,21,0.0284275577935454,0.00805676356145571
256,545,21,0.0626382848859388,0.00886549172198062
250,546,21,0.156084534981308,0.00694285496299687
251,546,21,0.163790341039139,0.00697337300679027
252,546,21,0.0352941176470588,0.00781261921110857
253,546,21,0.233432516975662,0.0102388036926833
254,546,21,0.0823071641107805,0.0072632944228275
255,546,21,0.0244449530785077,0.0137788967727169
256,546,21,0.0113221942473487,0.00796520943007553
249,547,21,0.144075684748608,0.00744640268558785
250,547,21,0.207186999313344,0.00773632410162509
251,547,21,0.0200350957503624,0.00714122224765393
252,547,21,0.199282825970855,0.00700389105058366
253,547,21,0.0682688639658198,0.00778210116731518
254,547,21,0.0609445334554055,0.00755321583886473
255,547,21,0.00514229037918669,0.0157778286411841
256,547,21,0.0175020981155108,0.0154726482032502
247,548,21,0.133836881055924,0.0212252994583047
248,548,21,0.108384832532235,0.00796520943007553
249,548,21,0.215350576028077,0.00875867856870375
250,548,21,0.205935759517815,0.00741588464179446
251,548,21,0.0440680552376593,0.00794995040817884
252,548,21,0.159822995345998,0.018295567254139
253,548,21,0.0590676737621118,0.00721751735713741
254,548,21,0.100679026474403,0.00718699931334401
255,548,21,0.029556725413901,0.0119783321889067
256,548,21,0.0966659037155718,0.00801098649576562
246,549,21,0.0884107728694591,0.00807202258335241
247,549,21,0.0862897688258183,0.00935378042267491
248,549,21,0.057953765163653,0.00984206912336919
249,549,21,0.154787518120089,0.0144502937361715
250,549,21,0.0525978484779126,0.0129396505683986
251,549,21,0.109956511787594,0.0103303578240635
252,549,21,0.115922789349203,0.0134431982909895
253,549,21,0.0214999618524453,0.00956740672922866
254,549,21,0.190157930876631,0.0081025406271458
255,549,21,0.0503700312809949,0.00746166170748455
256,549,21,0.033325703822385,0.00759899290455482
246,550,21,0.185885404745556,0.00802624551766232
247,550,21,0.151766231784543,0.00971999694819562
248,550,21,0.0337529564354925,0.00872816052491035
249,550,21,0.0968490119783322,0.00874341954680705
250,550,21,0.0601052872510872,0.014023041123064
251,550,21,0.331029221026932,0.00901808194094758
252,550,21,0.301350423437858,0.00863660639353018
253,550,21,0.244144350347143,0.013321126115816
254,550,21,0.0818951705195697,0.00761425192645151
255,550,21,0.0513466086823835,0.00798046845197223
256,550,21,0.0400854505226215,0.00846875715266651
245,551,21,0.0978561074235142,0.00782787823300526
246,551,21,0.205233844510567,0.00778210116731518
247,551,21,0.0312046997787442,0.00746166170748455
248,551,21,0.0288853284504463,0.0076600289921416
249,551,21,0.0805828946364538,0.00756847486076143
250,551,21,0.130907148851759,0.00785839627679866
251,551,21,0.296772716868849,0.00743114366369116
252,551,21,0.153826199740597,0.00698863202868696
253,551,21,0.0814984359502556,0.00704966811627375
254,551,21,0.0973830777447166,0.00756847486076143
255,551,21,0.0398718242160677,0.0076600289921416
256,551,21,0.0046692607003891,0.0191042954146639
245,552,21,0.173830777447166,0.00860608834973678
246,552,21,0.0357824063477531,0.00779736018921187
247,552,21,0.0273136491950866,0.0167544060425727
248,552,21,0.189486533913176,0.00730907148851759
249,552,21,0.142442969405661,0.0117341878385595
250,552,21,0.0205844205386435,0.0108949416342412
251,552,21,0.135606927595941,0.0212405584802014
252,552,21,0.121629663538567,0.0276646066987106
253,552,21,0.157442587930114,0.0072327763790341
254,552,21,0.0246738384069581,0.00732433051041428
255,552,21,0.0263523308155947,0.0108339055466545
256,552,21,0.0197451743343252,0.00807202258335241
245,553,21,0.0421759365224689,0.00782787823300526
246,553,21,0.0874189364461738,0.00717174029144732
247,553,21,0.254657816433967,0.00737010757610437
248,553,21,0.125307087815671,0.00840772106507973
249,553,21,0.0958876935988403,0.0144045166704814
250,553,21,0.03076218814374,0.00973525597009232
251,553,21,0.115663385976959,0.00712596322575723
252,553,21,0.00357061112382696,0.0103608758678569
253,553,21,0.00672922865644312,0.00778210116731518
254,553,21,0.0268253604943923,0.00737010757610437
255,553,21,0.0140535591668574,0.0139925230792706
245,554,21,0.0942244602121004,0.0110627908751049
246,554,21,0.124589913786526,0.00747692072938125
247,554,21,0.0478828107118334,0.00709544518196384
248,554,21,0.118425268940261,0.00704966811627375
249,554,21,0.187548638132296,0.0149080643930724
250,554,21,0.199420157167926,0.0076752880140383
251,554,21,0.108995193408103,0.0072632944228275
252,554,21,0.101518272678721,0.00735484855420768
253,554,21,0.0363622491798276,0.00762951094834821
254,554,21,0.0903639276722362,0.00782787823300526
245,555,21,0.313862821393149,0.00805676356145571
246,555,21,0.17251850156405,0.00997940032043946
247,555,21,0.0842755779354543,0.00802624551766232
248,555,21,0.201174944686046,0.00732433051041428
249,555,21,0.172823682001984,0.00717174029144732
250,555,21,0.0752574959945067,0.00794995040817884
251,555,21,0.0571145189593347,0.00782787823300526
252,555,21,0.0650492103456169,0.00779736018921187
253,555,21,0.0442969405661097,0.00709544518196384
254,555,21,0.0268101014724956,0.00733958953231098
245,556,21,0.0691538872358282,0.00775158312352178
246,556,21,0.0204776073853666,0.00711070420386053
247,556,21,0.100114442664225,0.007690547035935
248,556,21,0.157518883039597,0.0118410009918364
249,556,21,0.284794384679942,0.0169680323491264
250,556,21,0.0179903868162051,0.0154879072251469
251,556,21,0.0376745250629435,0.013015945677882
252,556,21,0.0325932707713436,0.0190280003051804
253,556,21,0.0357213702601663,0.00781261921110857
245,557,21,0.0468146791790646,0.00828564888990616
246,557,21,0.0939650568398566,0.00878919661249714
247,557,21,0.0471198596169985,0.00750743877317464
248,557,21,0.111894407568475,0.00741588464179446
249,557,21,0.190768291752499,0.00782787823300526
250,557,21,0.0820477607385367,0.00776684214541848
251,557,21,0.052826733806363,0.00779736018921187
253,544,22,0.178393224994278,0.00775158312352178
254,544,22,0.00613412680247196,0.00764476997024491
255,544,22,0.105806057831693,0.0109864957656214
256,544,22,0.0387884336614023,0.0157625696192874
251,545,22,0.0954757000076295,0.00807202258335241
252,545,22,0.0132906080720226,0.00744640268558785
253,545,22,0.110978866254673,0.00814831769283589
254,545,22,0.021210040436408,0.0126497291523613
255,545,22,0.0475776302738994,0.0267643244068055
256,545,22,0.0507057297627222,0.00781261921110857
249,546,22,0.0204776073853666,0.00698863202868696
250,546,22,0.0318760967421988,0.00788891432059205
251,546,22,0.0379797055008774,0.00781261921110857
252,546,22,0.0836652170595865,0.0170290684367132
253,546,22,0.0566262302586404,0.00704966811627375
254,546,22,0.0607461661707485,0.0163118944075685
255,546,22,0.139085984588388,0.0148928053711757
256,546,22,0.0753643091477836,0.007690547035935
247,547,22,0.198931868467231,0.00788891432059205
248,547,22,0.0418402380407416,0.00863660639353018
249,547,22,0.0555580987258717,0.0117036697947662
250,547,22,0.0428168154421302,0.0072480354009308
251,547,22,0.0798046845197223,0.00770580605783169
252,547,22,0.0524605172808423,0.0103913939116503
253,547,22,0.069764248111696,0.00753795681696803
254,547,22,0.0927595941100176,0.0142214084077211
255,547,22,0.0152590218966964,0.0154421301594568
256,547,22,0.00143434805828946,0.00941481651026169
246,548,22,0.103852903028916,0.0080872816052491
247,548,22,0.102906843671321,0.00775158312352178
248,548,22,0.0357061112382696,0.00775158312352178
249,548,22,0.0689250019073777,0.00730907148851759
250,548,22,0.0211184863050278,0.00729381246662089
251,548,22,0.167254139009689,0.00732433051041428
252,548,22,0.0902876325627527,0.007690547035935
253,548,22,0.0559853513389792,0.00747692072938125
254,548,22,0.0253452353704128,0.00770580605783169
255,548,22,0.0405432211795224,0.00955214770733196
256,548,22,0.0923170824750134,0.00971999694819562
245,549,22,0.0196841382467384,0.014526588845655
246,549,22,0.0169985503929198,0.00750743877317464
247,549,22,0.0483100633249409,0.00744640268558785
248,549,22,0.129915312428473,0.00740062561989776
249,549,22,0.0809338521400778,0.00735484855420768
250,549,22,0.0737621118486305,0.00746166170748455
251,549,22,0.096604867627985,0.0160219729915312
252,549,22,0.0496833752956435,0.0123445487144274
253,549,22,0.213382162203403,0.00964370183871214
254,549,22,0.0461890592813001,0.0072632944228275
255,549,22,0.0732433051041428,0.0206301976043336
256,549,22,0.0801861600671397,0.0115663385976959
245,550,22,0.13186846723125,0.016083009079118
246,550,22,0.105928130006867,0.00831616693369955
247,550,22,0.269550621805142,0.00753795681696803
248,550,22,0.129549095902953,0.0137026016632334
249,550,22,0.0544899671931029,0.0112458991378653
250,550,22,0.196200503547723,0.0194094758525978
251,550,22,0.0250095368886854,0.0101472495613031
252,550,22,0.0978713664454108,0.00729381246662089
253,550,22,0.105836575875486,0.00755321583886473
254,550,22,0.172549019607843,0.00813305867093919
255,550,22,0.0647287708857862,0.00807202258335241
256,550,22,0.0153047989623865,0.00883497367818723
244,551,22,0.0975661860074769,0.00762951094834821
245,551,22,0.148561837186236,0.00762951094834821
246,551,22,0.062882429236286,0.00796520943007553
247,551,22,0.153658350499733,0.00796520943007553
248,551,22,0.0444037537193866,0.007690547035935
249,551,22,0.089219501029984,0.00721751735713741
250,551,22,0.165987640192264,0.00779736018921187
251,551,22,0.0228122377355611,0.0080872816052491
252,551,22,0.0611276417181659,0.00761425192645151
253,551,22,0.0451972228580148,0.00743114366369116
254,551,22,0.0922102693217365,0.0127565423056382
255,551,22,0.0518806744487678,0.00773632410162509
256,551,22,0.0364538033112078,0.00831616693369955
244,552,22,0.191897459372854,0.00802624551766232
245,552,22,0.0912184328984512,0.00798046845197223
246,552,22,0.191577019913024,0.00807202258335241
247,552,22,0.0625467307545586,0.0170138094148165
248,552,22,0.0658274204623484,0.0172579537651637
249,552,22,0.0777904936293584,0.0101777676050965
250,552,22,0.137087052719921,0.00770580605783169
251,552,22,0.124299992370489,0.00773632410162509
252,552,22,0.080872816052491,0.00756847486076143
253,552,22,0.0571602960250248,0.00764476997024491
254,552,22,0.138231479362173,0.00735484855420768
255,552,22,0.00173952849622339,0.00738536659800107
256,552,22,0.00155642023346304,0.0122072175173571
243,553,22,0.0516670481422141,0.0152742809185931
244,553,22,0.109056229495689,0.022369726100557
245,553,22,0.110337987335012,0.00732433051041428
246,553,22,0.258548867017624,0.00804150453955901
247,553,22,0.107042038605325,0.0191805905241474
248,553,22,0.0980697337300679,0.0144808117799649
249,553,22,0.058655680170901,0.0176241702906844
250,553,22,0.0373540856031128,0.00735484855420768
251,553,22,0.139269092851148,0.00772106507972839
252,553,22,0.048203250171664,0.0081177996490425
253,553,22,0.132875562676432,0.00888075074387732
254,553,22,0.0232394903486687,0.0185702296482795
255,553,22,0.0480354009308003,0.0144808117799649
243,554,22,0.0629434653238727,0.00848401617456321
244,554,22,0.0172274357213703,0.0158236057068742
245,554,22,0.191927977416648,0.0227512016479744
246,554,22,0.123201342793927,0.00755321583886473
247,554,22,0.0888838025482567,0.00877393759060044
248,554,22,0.0496833752956435,0.00825513084611276
249,554,22,0.0745860990310521,0.00828564888990616
250,554,22,0.0850843060959793,0.00773632410162509
251,554,22,0.112916762035554,0.00749217975127794
252,554,22,0.0358129243915465,0.00863660639353018
253,554,22,0.133592736705577,0.0081025406271458
254,554,22,0.0597543297474632,0.0127718013275349
255,554,22,0.0458686198214694,0.0156404974441138
243,555,22,0.0765239948119326,0.00743114366369116
244,555,22,0.0784924086366064,0.00711070420386053
245,555,22,0.112153810940719,0.0137941557946136
246,555,22,0.173571374074922,0.0097962920576791
247,555,22,0.12480354009308,0.0120851453421836
248,555,22,0.0974288548104067,0.0142824444953079
249,555,22,0.110841535057603,0.0152590218966964
250,555,22,0.100556954299229,0.00793469138628214
251,555,22,0.084245059891661,0.0134279392690929
252,555,22,0.0495765621423667,0.00984206912336919
253,555,22,0.159609369039445,0.0170901045243
254,555,22,0.0391851682307164,0.00839246204318303
243,556,22,0.0627756160830091,0.00802624551766232
244,556,22,0.0314793621728847,0.00801098649576562
245,556,22,0.139772640573739,0.010757610437171
246,556,22,0.0324101625085832,0.00964370183871214
247,556,22,0.0173495078965438,0.00721751735713741
248,556,22,0.150804913405051,0.00778210116731518
249,556,22,0.146990157930877,0.0149080643930724
250,556,22,0.108857862211032,0.0151827267872129
251,556,22,0.0361943999389639,0.00814831769283589
252,556,22,0.0318913557640955,0.00872816052491035
253,556,22,0.0076600289921416,0.00708018616006714
245,557,22,0.277897306782635,0.00959792477302205
246,557,22,0.1233234149691,0.00856031128404669
247,557,22,0.0335851071946288,0.0164492256046387
248,557,22,0.140718699931334,0.00889600976577401
249,557,22,0.0369268329900053,0.00738536659800107
250,557,22,0.0332646677347982,0.00988784618905928
251,557,22,0.00648508430609598,0.00817883573662928
253,544,23,0.108140688181888,0.00813305867093919
254,544,23,0.0902113374532692,0.0168917372396429
255,544,23,0.0715037766079194,0.0129854276340887
256,544,23,0.142824444953078,0.00846875715266651
250,545,23,0.0373083085374228,0.00798046845197223
251,545,23,0.0644693675135424,0.00782787823300526
252,545,23,0.0421301594567788,0.00738536659800107
253,545,23,0.0799572747386892,0.0118410009918364
254,545,23,0.0798352025635157,0.00825513084611276
255,545,23,0.0997482261387045,0.00802624551766232
256,545,23,0.12494087129015,0.00729381246662089
248,546,23,0.0806439307240406,0.0170138094148165
249,546,23,0.0126192111085679,0.00761425192645151
250,546,23,0.0569161516746777,0.0153047989623865
251,546,23,0.0599221789883269,0.0108796826123445
252,546,23,0.24965285725185,0.00819409475852598
253,546,23,0.134767681391623,0.0118715190356298
254,546,23,0.110322728313115,0.00778210116731518
255,546,23,0.0836957351033799,0.00759899290455482
256,546,23,0.207904173342489,0.0072327763790341
247,547,23,0.0635996032654307,0.0119325551232166
248,547,23,0.0962691691462577,0.00758373388265812
249,547,23,0.0920576791027695,0.0503547722590982
250,547,23,0.064789806973373,0.0093690394445716
251,547,23,0.0964980544747082,0.0395208667124437
252,547,23,0.100755321583886,0.00805676356145571
253,547,23,0.0565651941710536,0.00718699931334401
254,547,23,0.0690318150606546,0.0157015335317006
255,547,23,0.0136568245975433,0.00779736018921187
256,547,23,0.00308232242313268,0.00819409475852598
246,548,23,0.192172121766995,0.0133363851377127
247,548,23,0.0968642710002289,0.0113679713130388
248,548,23,0.0513618677042802,0.00782787823300526
249,548,23,0.0992294193942168,0.00842298008697642
250,548,23,0.14683756771191,0.0076600289921416
251,548,23,0.0566872663462272,0.00711070420386053
252,548,23,0.102708476386664,0.00759899290455482
253,548,23,0.00437933928435187,0.0081025406271458
254,548,23,0.0527656977187762,0.00744640268558785
255,548,23,0.0404058899824521,0.0165102616922255
256,548,23,0.128435187304494,0.00752269779507134
245,549,23,0.0416418707560845,0.0107881284809644
246,549,23,0.154970626382849,0.0134126802471962
247,549,23,0.055741206988632,0.00825513084611276
248,549,23,0.108094911116197,0.0076600289921416
249,549,23,0.0609292744335088,0.00753795681696803
250,549,23,0.0413214312962539,0.00805676356145571
251,549,23,0.0424963759822995,0.00820935378042268
252,549,23,0.108018616006714,0.00779736018921187
253,549,23,0.133272297245747,0.00703440909437705
254,549,23,0.0683909361409934,0.00791943236438544
255,549,23,0.041718165865568,0.00823987182421607
256,549,23,0.0025482566567483,0.007690547035935
244,550,23,0.0793316548409247,0.00840772106507973
245,550,23,0.065140764476997,0.0191805905241474
246,550,23,0.144014648661021,0.0151827267872129
247,550,23,0.074845502403296,0.0165407797360189
248,550,23,0.120683604180972,0.00885023270008392
249,550,23,0.136278324559396,0.0080872816052491
250,550,23,0.0463111314564736,0.00787365529869535
251,550,23,0.278721293965057,0.00749217975127794
252,550,23,0.135881589990082,0.00781261921110857
253,550,23,0.0402838178072786,0.0123598077363241
254,550,23,0.110261692225528,0.0387731746395056
255,550,23,0.108094911116197,0.0155031662470436
256,550,23,0.00155642023346304,0.0080872816052491
244,551,23,0.126817730983444,0.0229495689326314
245,551,23,0.108232242313268,0.0224307621881437
246,551,23,0.167589837491417,0.00817883573662928
247,551,23,0.268925001907378,0.00779736018921187
248,551,23,0.0903639276722362,0.0130312046997787
249,551,23,0.180666819256886,0.00746166170748455
250,551,23,0.16586556801709,0.0081025406271458
251,551,23,0.0662241550316625,0.0158999008163577
252,551,23,0.0543526359960327,0.0119935912108034
253,551,23,0.0161593041886015,0.0166018158236057
254,551,23,0.105928130006867,0.00753795681696803
255,551,23,0.0155489433127337,0.00798046845197223
256,551,23,0.0556191348134585,0.0098115510795758
244,552,23,0.0459754329747463,0.0222323949034867
245,552,23,0.153597314412146,0.0145113298237583
246,552,23,0.0472724498359655,0.0100556954299229
247,552,23,0.0382391088731212,0.0123292896925307
248,552,23,0.119340810254063,0.00973525597009232
249,552,23,0.0951400015259022,0.0231021591515984
250,552,23,0.028549629968719,0.00802624551766232
251,552,23,0.013870450904097,0.010101472495613
252,552,23,0.0428625925078202,0.0120851453421836
253,552,23,0.0409857328145266,0.00801098649576562
254,552,23,0.0798809796292058,0.00798046845197223
255,552,23,0.0312046997787442,0.00859082932784009
256,552,23,0.163698786907759,0.00738536659800107
243,553,23,0.0665751125352865,0.00813305867093919
244,553,23,0.258670939192798,0.00698863202868696
245,553,23,0.137239642938888,0.00708018616006714
246,553,23,0.0360112916762036,0.00834668497749294
247,553,23,0.346669718471046,0.0271763179980163
248,553,23,0.138170443274586,0.00805676356145571
249,553,23,0.113939116502632,0.010406652933547
250,553,23,0.0209353780422675,0.0144655527580682
251,553,23,0.0981002517738613,0.0199893186846723
252,553,23,0.0915693904020752,0.0118715190356298
253,553,23,0.00265506981002518,0.0089417868314641
254,553,23,0.00999465934233616,0.0161745632104982
255,553,23,0.0253147173266194,0.00822461280231937
243,554,23,0.061020828564889,0.00822461280231937
244,554,23,0.132402532997635,0.0105897611963073
245,554,23,0.112046997787442,0.0135500114442664
246,554,23,0.172686350804913,0.00709544518196384
247,554,23,0.136507209887846,0.00770580605783169
248,554,23,0.154985885404746,0.00746166170748455
249,554,23,0.147981994354162,0.00796520943007553
250,554,23,0.185992217898833,0.0131380178530556
251,554,23,0.0537880521858549,0.007690547035935
252,554,23,0.0944838635843442,0.00805676356145571
253,554,23,0.0554360265506981,0.00827038986800946
254,554,23,0.0238651102464332,0.0072327763790341
243,555,23,0.00178530556191348,0.00833142595559625
244,555,23,0.0619821469443809,0.00950637064164187
245,555,23,0.0225070572976272,0.00741588464179446
246,555,23,0.0669108110170138,0.00796520943007553
247,555,23,0.0393377584496834,0.0167086289768826
248,555,23,0.0134584573128862,0.00799572747386892
249,555,23,0.175356679636835,0.00859082932784009
250,555,23,0.152040894178683,0.0085145342183566
251,555,23,0.00590524147402152,0.00740062561989776
252,555,23,0.0673380636301213,0.00738536659800107
253,555,23,0.0192111085679408,0.00787365529869535
254,555,23,0.016937514305333,0.00761425192645151
243,556,23,0.0502174410620279,0.00794995040817884
244,556,23,0.104921034561685,0.00749217975127794
245,556,23,0.0481727321278706,0.0076600289921416
246,556,23,0.0543526359960327,0.00784313725490196
247,556,23,0.167696650644694,0.00776684214541848
248,556,23,0.165972381170367,0.0125734340428779
249,556,23,0.0555123216601816,0.00849927519645991
250,556,23,0.127336537727932,0.0172274357213703
251,556,23,0.165011062790875,0.00799572747386892
252,556,23,0.00866712443732357,0.00823987182421607
253,556,23,0.00151064316777295,0.00775158312352178
246,557,23,0.111726558327611,0.00740062561989776
247,557,23,0.0327458609903105,0.00753795681696803
248,557,23,0.0479591058213169,0.00788891432059205
249,557,23,0.121934843976501,0.00779736018921187
250,557,23,0.136156252384222,0.00743114366369116
251,557,23,0.112382696269169,0.00744640268558785
251,544,24,0.0307011520561532,0.0146181429770352
252,544,24,0.0438544289311055,0.0116426337071794
253,544,24,0.00433356221866178,0.00743114366369116
254,544,24,0.00669871061264973,0.017288471808957
255,544,24,0.0218814373998627,0.00746166170748455
256,544,24,0.00224307621881437,0.00778210116731518
249,545,24,0.0686198214694438,0.00717174029144732
250,545,24,0.123308155947204,0.00770580605783169
251,545,24,0.0717174029144732,0.00756847486076143
252,545,24,0.0305180437933928,0.007690547035935
253,545,24,0.0983749141680018,0.00781261921110857
254,545,24,0.0716868848706798,0.00967421988250553
255,545,24,0.0940718699931334,0.00779736018921187
256,545,24,0.0138094148165103,0.00775158312352178
247,546,24,0.117082475013352,0.00814831769283589
248,546,24,0.17265583276112,0.00700389105058366
249,546,24,0.115251392385748,0.00761425192645151
250,546,24,0.0989852750438697,0.0132753490501259
251,546,24,0.163057907988098,0.00779736018921187
252,546,24,0.0826733806363012,0.00717174029144732
253,546,24,0.0469062333104448,0.0076600289921416
254,546,24,0.109925993743801,0.00848401617456321
255,546,24,0.234607461661707,0.00802624551766232
256,546,24,0.00560006103608759,0.00721751735713741
246,547,24,0.0981765468833448,0.0196231021591516
247,547,24,0.0890821698329137,0.00877393759060044
248,547,24,0.0617074845502403,0.0100862134737163
249,547,24,0.0211032272831312,0.00695811398489357
250,547,24,0.0214541847867552,0.00819409475852598
251,547,24,0.025787747005417,0.00822461280231937
252,547,24,0.120775158312352,0.0125276569771878
253,547,24,0.150240329594873,0.00819409475852598
254,547,24,0.158449683375296,0.00759899290455482
255,547,24,0.0673838406958114,0.00920119020370794
256,547,24,0.0342107270923934,0.00791943236438544
245,548,24,0.10605020218204,0.00799572747386892
246,548,24,0.0326848249027237,0.00714122224765393
247,548,24,0.115877012283513,0.00729381246662089
248,548,24,0.0249942778667887,0.00770580605783169
249,548,24,0.108323796444648,0.0245517662317845
250,548,24,0.128892957961395,0.00770580605783169
251,548,24,0.166552224002441,0.00729381246662089
252,548,24,0.0239108873121233,0.00799572747386892
253,548,24,0.0867933165484092,0.00830090791180285
254,548,24,0.0241092545967803,0.0113679713130388
255,548,24,0.104936293583581,0.00735484855420768
256,548,24,0.0543068589303426,0.00799572747386892
244,549,24,0.136385137712673,0.00907911802853437
245,549,24,0.125963225757229,0.00793469138628214
246,549,24,0.0659342336156252,0.00779736018921187
247,549,24,0.0807965209430076,0.0104676890211337
248,549,24,0.0968184939345388,0.0185244525825895
249,549,24,0.0668955519951171,0.00750743877317464
250,549,24,0.111543450064851,0.0163118944075685
251,549,24,0.0921950102998398,0.00791943236438544
252,549,24,0.0317540245670253,0.00869764248111696
253,549,24,0.12318608377203,0.00750743877317464
254,549,24,0.0608987563897154,0.00785839627679866
255,549,24,0.0910353246356908,0.018097199969482
256,549,24,0.0440680552376593,0.00794995040817884
244,550,24,0.00328068970778973,0.0100251773861295
245,550,24,0.116853589684901,0.0107270923933776
246,550,24,0.251529716945144,0.0085297932402533
247,550,24,0.00691233691920348,0.00782787823300526
248,550,24,0.0636148622873274,0.0103913939116503
249,550,24,0.165972381170367,0.017288471808957
250,550,24,0.0374608987563897,0.0132295719844358
251,550,24,0.0372167544060426,0.00764476997024491
252,550,24,0.0480048828870069,0.0305790798809796
253,550,24,0.0252231631952392,0.00953688868543526
254,550,24,0.0441748683909361,0.0151522087434195
255,550,24,0.102327000839246,0.00732433051041428
256,550,24,0.0467231250476844,0.0108949416342412
243,551,24,0.0409552147707332,0.0138857099259937
244,551,24,0.0595407034409094,0.0102845807583734
245,551,24,0.0854047455558099,0.00813305867093919
246,551,24,0.142442969405661,0.00746166170748455
247,551,24,0.116731517509728,0.00741588464179446
248,551,24,0.197619592584115,0.00720225833524071
249,551,24,0.0657511253528649,0.00770580605783169
250,551,24,0.0552681773098344,0.00793469138628214
251,551,24,0.110734721904326,0.020157167925536
252,551,24,0.0146944380865187,0.00764476997024491
253,551,24,0.0562600137331197,0.00791943236438544
254,551,24,0.0844739452201114,0.00737010757610437
255,551,24,0.138414587624933,0.00747692072938125
256,551,24,0.00845349813076982,0.00889600976577401
243,552,24,0.103974975204089,0.0161745632104982
244,552,24,0.198825055313954,0.031113145647364
245,552,24,0.109864957656214,0.00839246204318303
246,552,24,0.106492713817044,0.00746166170748455
247,552,24,0.0720836194399939,0.00863660639353018
248,552,24,0.134660868238346,0.00886549172198062
249,552,24,0.0300297550926986,0.00744640268558785
250,552,24,0.111863889524681,0.00752269779507134
251,552,24,0.11792172121767,0.007690547035935
252,552,24,0.0975356679636835,0.00717174029144732
253,552,24,0.0683146410315099,0.00759899290455482
254,552,24,0.0664682993820096,0.0111238269626917
255,552,24,0.00177004654001678,0.0111390859845884
256,552,24,0.0104371709773404,0.0104676890211337
243,553,24,0.0566262302586404,0.0253604943923095
244,553,24,0.0886091401541161,0.0118257419699397
245,553,24,0.10609597924773,0.0158236057068742
246,553,24,0.0619821469443809,0.00819409475852598
247,553,24,0.213336385137713,0.0134584573128862
248,553,24,0.238467994201572,0.0202944991226062
249,553,24,0.143587396047913,0.00784313725490196
250,553,24,0.0567788204776074,0.00775158312352178
251,553,24,0.126451514457923,0.00915541313801785
252,553,24,0.0126497291523613,0.00788891432059205
253,553,24,0.0495307850766766,0.010955977721828
254,553,24,0.0375524528877699,0.00837720302128634
255,553,24,0.0105439841306172,0.0231479362172885
243,554,24,0.179644464789807,0.00773632410162509
244,554,24,0.0408331425955596,0.0110933089188983
245,554,24,0.149294270237278,0.00750743877317464
246,554,24,0.0411841000991836,0.00743114366369116
247,554,24,0.111635004196231,0.00732433051041428
248,554,24,0.11805905241474,0.0242160677500572
249,554,24,0.0944838635843442,0.00970473792629892
250,554,24,0.0756542305638209,0.00752269779507134
251,554,24,0.109620813305867,0.00735484855420768
252,554,24,0.114808880750744,0.00773632410162509
253,554,24,0.0528419928282597,0.00791943236438544
254,554,24,0.0081177996490425,0.0133516441596094
243,555,24,0.071625848783093,0.0230106050202182
244,555,24,0.00903334096284428,0.0080872816052491
245,555,24,0.0821087968261234,0.00764476997024491
246,555,24,0.0259403372243839,0.00758373388265812
247,555,24,0.153231097886625,0.00802624551766232
248,555,24,0.0513771267261768,0.0080872816052491
249,555,24,0.116700999465934,0.00801098649576562
250,555,24,0.0206759746700237,0.00788891432059205
251,555,24,0.0585030899519341,0.00787365529869535
252,555,24,0.0935988403143359,0.0098268101014725
253,555,24,0.0204470893415732,0.00772106507972839
244,556,24,0.0187380788891432,0.00929274433508812
245,556,24,0.0398870832379644,0.0149538414587625
246,556,24,0.100892652780957,0.00733958953231098
247,556,24,0.0713664454108492,0.00793469138628214
248,556,24,0.0728465705348287,0.00772106507972839
249,556,24,0.20364690623331,0.00799572747386892
250,556,24,0.0154726482032502,0.00827038986800946
251,556,24,0.0404516670481422,0.013824673838407
252,556,24,0.0804608224612802,0.00920119020370794
247,557,24,0.0168154421301595,0.00770580605783169
248,557,24,0.10424963759823,0.00781261921110857
249,557,24,0.0611581597619593,0.00790417334248875
250,557,24,0.00187685969329366,0.00770580605783169
249,544,25,0.0182497901884489,0.0119478141451133
250,544,25,0.0046692607003891,0.00816357671473259
251,544,25,0.08207827878233,0.00776684214541848
252,544,25,0.211200122072175,0.0141451132982376
253,544,25,0.124605172808423,0.0173495078965438
254,544,25,0.0715953307392996,0.00743114366369116
255,544,25,0.00263981078812848,0.00750743877317464
247,545,25,0.241474021515221,0.00727855344472419
248,545,25,0.0818036163881895,0.00732433051041428
249,545,25,0.0364538033112078,0.00787365529869535
250,545,25,0.130388342107271,0.0100709544518196
251,545,25,0.115617608911269,0.00836194399938964
252,545,25,0.0710307469291218,0.00712596322575723
253,545,25,0.156023498893721,0.00740062561989776
254,545,25,0.0644541084916457,0.00805676356145571
255,545,25,0.0844281681544213,0.00796520943007553
256,545,25,0.0290989547570001,0.00735484855420768
246,546,25,0.108018616006714,0.0165712977798123
247,546,25,0.178454261081865,0.0080872816052491
248,546,25,0.0484931715877012,0.00839246204318303
249,546,25,0.0392919813839933,0.00773632410162509
250,546,25,0.0565804531929503,0.00865186541542687
251,546,25,0.0423285267414359,0.0233920805676356
252,546,25,0.240238040741588,0.0106202792401007
253,546,25,0.0923170824750134,0.00744640268558785
254,546,25,0.073838406958114,0.00727855344472419
255,546,25,0.0408941786831464,0.00903334096284428
256,546,25,0.0221255817502098,0.011612115663386
245,547,25,0.233569848172732,0.00779736018921187
246,547,25,0.0642252231631952,0.00791943236438544
247,547,25,0.0934004730296788,0.0068207827878233
248,547,25,0.115083543144884,0.00762951094834821
249,547,25,0.0351110093842985,0.00794995040817884
250,547,25,0.00166323338673991,0.00996414129854276
251,547,25,0.0278171969176776,0.0085297932402533
252,547,25,0.0611123826962692,0.00715648126955062
253,547,25,0.08378728923476,0.00747692072938125
254,547,25,0.0457465476462959,0.00816357671473259
255,547,25,0.0264286259250782,0.012817578393225
256,547,25,0.0167544060425727,0.00720225833524071
244,548,25,0.00135805294880598,0.00755321583886473
245,548,25,0.0170290684367132,0.0153963530937667
246,548,25,0.0716105897611963,0.0122987716487373
247,548,25,0.137315938048371,0.0148317692835889
248,548,25,0.0600442511635004,0.00794995040817884
249,548,25,0.177309834439612,0.0131380178530556
250,548,25,0.179659723811704,0.0143129625391012
251,548,25,0.134554055085069,0.00775158312352178
252,548,25,0.085145342183566,0.00814831769283589
253,548,25,0.0557106889448386,0.00701915007248035
254,548,25,0.105714503700313,0.0081025406271458
255,548,25,0.157442587930114,0.0103303578240635
256,548,25,0.178576333257038,0.00807202258335241
244,549,25,0.109987029831388,0.0137026016632334
245,549,25,0.0894483863584344,0.00807202258335241
246,549,25,0.0618448157473106,0.00875867856870375
247,549,25,0.0169222552834363,0.00865186541542687
248,549,25,0.0499427786678874,0.00799572747386892
249,549,25,0.0317082475013352,0.0108644235904479
250,549,25,0.0856946669718471,0.0141145952544442
251,549,25,0.0261844815747311,0.00730907148851759
252,549,25,0.106858930342565,0.00778210116731518
253,549,25,0.0147402151522087,0.00834668497749294
254,549,25,0.0389868009460594,0.00830090791180285
255,549,25,0.0727550164034485,0.007690547035935
256,549,25,0.0158693827725643,0.012817578393225
243,550,25,0.019653620202945,0.0153200579842832
244,550,25,0.0131380178530556,0.0148470283054856
245,550,25,0.178500038147555,0.00743114366369116
246,550,25,0.274570840009155,0.00802624551766232
247,550,25,0.126054779888609,0.0157167925535973
248,550,25,0.102388036926833,0.00743114366369116
249,550,25,0.0572060730907149,0.00727855344472419
250,550,25,0.0512855725947967,0.00796520943007553
251,550,25,0.0646524757763027,0.0138094148165103
252,550,25,0.18133821622034,0.00775158312352178
253,550,25,0.089372091248951,0.00862134737163348
254,550,25,0.0588540474555581,0.0072632944228275
255,550,25,0.0399176012817578,0.00784313725490196
256,550,25,0.0270389868009461,0.00775158312352178
243,551,25,0.0368352788586252,0.00903334096284428
244,551,25,0.0359197375448234,0.0261997405966278
245,551,25,0.104036011291676,0.0140993362325475
246,551,25,0.0129396505683986,0.00752269779507134
247,551,25,0.108888380254826,0.00790417334248875
248,551,25,0.112230106050202,0.00906385900663768
249,551,25,0.195208667124437,0.0103456168459602
250,551,25,0.103089951934081,0.0103913939116503
251,551,25,0.100679026474403,0.0164950026703288
252,551,25,0.0895399404898146,0.0157930876630808
253,551,25,0.122316319523919,0.0111696040283818
254,551,25,0.0274357213702602,0.0196383611810483
255,551,25,0.123506523231861,0.00758373388265812
256,551,25,0.034882124055848,0.007690547035935
243,552,25,0.157991912718395,0.021210040436408
244,552,25,0.0733958953231098,0.0357061112382696
245,552,25,0.0318303196765087,0.00881971465629053
246,552,25,0.118562600137331,0.00794995040817884
247,552,25,0.1930724040589,0.00912489509422446
248,552,25,0.0118257419699397,0.00729381246662089
249,552,25,0.0812085145342184,0.00755321583886473
250,552,25,0.14711223010605,0.00825513084611276
251,552,25,0.0607766842145418,0.00772106507972839
252,552,25,0.194903486686503,0.00820935378042268
253,552,25,0.0988021667811093,0.0108339055466545
254,552,25,0.0235599298084993,0.00717174029144732
255,552,25,0.0495155260547799,0.00781261921110857
243,553,25,0.0782940413519493,0.0141603723201343
244,553,25,0.0599374380102235,0.00802624551766232
245,553,25,0.0416723887998779,0.00804150453955901
246,553,25,0.0123445487144274,0.0146486610208286
247,553,25,0.0529640650034333,0.0135500114442664
248,553,25,0.0951705195696956,0.00802624551766232
249,553,25,0.0402227817196918,0.00747692072938125
250,553,25,0.0880598153658351,0.0107118333714809
251,553,25,0.191058213168536,0.0085145342183566
252,553,25,0.038956282902266,0.00793469138628214
253,553,25,0.0703440909437705,0.00756847486076143
254,553,25,0.00205996795605402,0.00784313725490196
255,553,25,0.00773632410162509,0.015533684290837
242,554,25,0.0401464866102083,0.00729381246662089
243,554,25,0.0965133134966049,0.0167696650644694
244,554,25,0.169512474250401,0.00790417334248875
245,554,25,0.0988021667811093,0.0076752880140383
246,554,25,0.00698863202868696,0.00762951094834821
247,554,25,0.127962157625696,0.0243686579690242
248,554,25,0.188311589227131,0.0154726482032502
249,554,25,0.0129091325246052,0.00950637064164187
250,554,25,0.0352788586251621,0.0072327763790341
251,554,25,0.118959334706645,0.00749217975127794
252,554,25,0.0431372549019608,0.00793469138628214
253,554,25,0.0514991989013504,0.0076600289921416
254,554,25,0.0140993362325475,0.00683604180972
244,555,25,0.0681010147249561,0.0217898832684825
245,555,25,0.0749523155565728,0.00764476997024491
246,555,25,0.0501869230182345,0.0159609369039445
247,555,25,0.0773174639505608,0.0217746242465858
248,555,25,0.0646066987106127,0.00741588464179446
249,555,25,0.0664377813382162,0.00753795681696803
250,555,25,0.00857557030594339,0.00747692072938125
251,555,25,0.0722514686808576,0.00756847486076143
252,555,25,0.143846799420157,0.0072480354009308
253,555,25,0.055191882200351,0.00733958953231098
245,556,25,0.00848401617456321,0.00703440909437705
246,556,25,0.0451819638361181,0.00761425192645151
247,556,25,0.0674753948271916,0.00785839627679866
248,556,25,0.0347447928587778,0.00804150453955901
249,556,25,0.0025482566567483,0.00755321583886473
250,556,25,0.0762951094834821,0.00749217975127794
251,556,25,0.0807049668116274,0.00779736018921187
252,556,25,0.0152437628747997,0.00863660639353018
248,557,25,0.00984206912336919,0.0120393682764935
249,557,25,0.00170901045243,0.00828564888990616
250,557,25,0.0666208896009766,0.00840772106507973
247,544,26,0.0982070649271382,0.00823987182421607
248,544,26,0.0486610208285649,0.00776684214541848
249,544,26,0.0762645914396887,0.0155642023346304
250,544,26,0.0563668268863966,0.0144808117799649
251,544,26,0.0433966582742046,0.0180514229037919
252,544,26,0.240054932478828,0.0103913939116503
253,544,26,0.277500572213321,0.00770580605783169
254,544,26,0.0434729533836881,0.00926222629129473
255,544,26,0.00163271534294652,0.0085145342183566
245,545,26,0.0746471351186389,0.00732433051041428
246,545,26,0.0657053482871748,0.00720225833524071
247,545,26,0.0933852140077821,0.00756847486076143
248,545,26,0.185641260395209,0.0102845807583734
249,545,26,0.101853971160449,0.00735484855420768
250,545,26,0.0703440909437705,0.00735484855420768
251,545,26,0.124956130312047,0.0178683146410315
252,545,26,0.0627145799954223,0.00805676356145571
253,545,26,0.223651483939879,0.00785839627679866
254,545,26,0.10411230640116,0.00735484855420768
255,545,26,0.194216830701152,0.00685130083161669
244,546,26,0.0583352407110704,0.00749217975127794
245,546,26,0.0766918440527962,0.00759899290455482
246,546,26,0.0154879072251469,0.00830090791180285
247,546,26,0.0853131914244297,0.0269779507133593
248,546,26,0.162417029068437,0.00703440909437705
249,546,26,0.091630426489662,0.00770580605783169
250,546,26,0.10582131685359,0.0115358205539025
251,546,26,0.115159838254368,0.00791943236438544
252,546,26,0.13865873197528,0.00822461280231937
253,546,26,0.248126955062181,0.00733958953231098
254,546,26,0.199191271839475,0.0128633554589151
255,546,26,0.0757763027389944,0.00773632410162509
256,546,26,0.0402227817196918,0.00738536659800107
243,547,26,0.0481727321278706,0.0120088502327001
244,547,26,0.0139925230792706,0.00772106507972839
245,547,26,0.0849622339208057,0.0140993362325475
246,547,26,0.131761654077974,0.00718699931334401
247,547,26,0.0552224002441443,0.00778210116731518
248,547,26,0.235294117647059,0.00799572747386892
249,547,26,0.067002365148394,0.00773632410162509
250,547,26,0.102250705729763,0.00804150453955901
251,547,26,0.222949568932631,0.0089723048752575
252,547,26,0.0848554207675288,0.00778210116731518
253,547,26,0.218295567254139,0.00761425192645151
254,547,26,0.131471732661936,0.00773632410162509
255,547,26,0.0898756389715419,0.0126497291523613
256,547,26,0.0401770046540017,0.015884641794461
242,548,26,0.00646982528419928,0.0193179217212177
243,548,26,0.0347142748149844,0.0186617837796597
244,548,26,0.0866102082856489,0.00749217975127794
245,548,26,0.118333714808881,0.0163118944075685
246,548,26,0.035233081559472,0.00872816052491035
247,548,26,0.0290379186694133,0.00756847486076143
248,548,26,0.128023193713283,0.00796520943007553
249,548,26,0.103761348897536,0.009399557488365
250,548,26,0.083588921950103,0.00781261921110857
251,548,26,0.0588387884336614,0.00778210116731518
252,548,26,0.052628366521706,0.00741588464179446
253,548,26,0.175875486381323,0.00715648126955062
254,548,26,0.0720073243305104,0.00794995040817884
255,548,26,0.0777752346074617,0.0106507972838941
256,548,26,0.0335393301289387,0.00787365529869535
242,549,26,0.120286869611658,0.0166170748455024
243,549,26,0.0315709163042649,0.00865186541542687
244,549,26,0.361150530251011,0.00799572747386892
245,549,26,0.109315632867933,0.00781261921110857
246,549,26,0.0310673685816739,0.00744640268558785
247,549,26,0.0506446936751354,0.0108796826123445
248,549,26,0.0919661249713893,0.00817883573662928
249,549,26,0.0350804913405051,0.0130006866559854
250,549,26,0.0318608377203021,0.011612115663386
251,549,26,0.092637521934844,0.00686655985351339
252,549,26,0.11616693369955,0.0127565423056382
253,549,26,0.0944533455405508,0.00779736018921187
254,549,26,0.105088883802548,0.00741588464179446
255,549,26,0.0202029449912261,0.00741588464179446
256,549,26,0.115815976195926,0.00756847486076143
242,550,26,0.174746318760967,0.0376134889753567
243,550,26,0.0453040360112917,0.00941481651026169
244,550,26,0.0432135500114443,0.00689707789730678
245,550,26,0.0487678339818418,0.00849927519645991
246,550,26,0.0464332036316472,0.01367208361944
247,550,26,0.0331883726253147,0.012115663385977
248,550,26,0.0862134737163348,0.0119478141451133
249,550,26,0.089570458533608,0.00744640268558785
250,550,26,0.193087663080797,0.0122224765392538
251,550,26,0.0967269398031586,0.00785839627679866
252,550,26,0.0641947051194018,0.00697337300679027
253,550,26,0.0364843213550011,0.00692759594110018
254,550,26,0.117357137407492,0.00805676356145571
255,550,26,0.00233463035019455,0.0109102006561379
256,550,26,0.00151064316777295,0.00903334096284428
242,551,26,0.073838406958114,0.0478675516899367
243,551,26,0.106111238269627,0.0373388265812161
244,551,26,0.100038147554742,0.0142366674296178
245,551,26,0.0559853513389792,0.0123750667582208
246,551,26,0.177126726176852,0.0164644846265354
247,551,26,0.135408560311284,0.0098115510795758
248,551,26,0.127626459143969,0.00964370183871214
249,551,26,0.0691081101701381,0.0165255207141222
250,551,26,0.0663309681849393,0.0076600289921416
251,551,26,0.156054016937514,0.00927748531319142
252,551,26,0.059311818112459,0.00790417334248875
253,551,26,0.104310673685817,0.00764476997024491
254,551,26,0.104005493247883,0.0116884107728695
255,551,26,0.070572976272221,0.00709544518196384
256,551,26,0.0881666285191119,0.00776684214541848
242,552,26,0.259830624856947,0.0512550545510033
243,552,26,0.225223163195239,0.0165712977798123
244,552,26,0.100007629510948,0.0132906080720226
245,552,26,0.285893034256504,0.0102082856488899
246,552,26,0.105363546196689,0.00950637064164187
247,552,26,0.0931715877012284,0.00837720302128634
248,552,26,0.155825131609064,0.0199740596627756
249,552,26,0.0830701152056153,0.0226596475165942
250,552,26,0.107957579919127,0.00926222629129473
251,552,26,0.0249179827573053,0.0145418478675517
252,552,26,0.125642786297398,0.00756847486076143
253,552,26,0.0108033875028611,0.00692759594110018
254,552,26,0.0437323567559319,0.0080872816052491
255,552,26,0.00262455176623178,0.00755321583886473
243,553,26,0.115358205539025,0.0177462424658579
244,553,26,0.175463492790112,0.00791943236438544
245,553,26,0.341496910048066,0.00750743877317464
246,553,26,0.185214007782101,0.00679026474402991
247,553,26,0.11607537956817,0.00735484855420768
248,553,26,0.0746013580529488,0.0122377355611505
249,553,26,0.21219195849546,0.00804150453955901
250,553,26,0.0495460440985733,0.0104371709773404
251,553,26,0.0585336079957275,0.0089570458533608
252,553,26,0.0906691081101701,0.00817883573662928
253,553,26,0.102296482795453,0.0076752880140383
254,553,26,0.0286869611657893,0.00785839627679866
244,554,26,0.0389410238803693,0.0072480354009308
245,554,26,0.101915007248035,0.00740062561989776
246,554,26,0.0812848096437018,0.00782787823300526
247,554,26,0.0971847104600595,0.00756847486076143
248,554,26,0.067002365148394,0.00714122224765393
249,554,26,0.0423895628290227,0.0139009689478904
250,554,26,0.0296482795452811,0.0186770428015564
251,554,26,0.194613565270466,0.0112001220721752
252,554,26,0.120851453421836,0.00743114366369116
253,554,26,0.0441290913252461,0.00691233691920348
254,554,26,0.0345006485084306,0.00756847486076143
245,555,26,0.0341649500267033,0.00799572747386892
246,555,26,0.118135347524224,0.00683604180972
247,555,26,0.166247043564508,0.00807202258335241
248,555,26,0.071274891279469,0.0117952239261463
249,555,26,0.200350957503624,0.0117341878385595
250,555,26,0.00398260471503777,0.0111238269626917
251,555,26,0.039658197909514,0.0072480354009308
252,555,26,0.0085297932402533,0.0080872816052491
253,555,26,0.0115968566414893,0.0080872816052491
246,556,26,0.0368657969024186,0.00718699931334401
247,556,26,0.0942397192339971,0.00825513084611276
248,556,26,0.150072480354009,0.00775158312352178
249,556,26,0.0159151598382544,0.00941481651026169
250,556,26,0.0925612268253605,0.0131532768749523
251,556,26,0.0343022812237736,0.019851987487602
252,556,26,0.0311284046692607,0.0140688181887541
249,543,27,0.0476386663614862,0.0108033875028611
250,543,27,0.00161745632104982,0.0177462424658579
251,543,27,0.0880445563439384,0.013824673838407
252,543,27,0.0712596322575723,0.0173647669184405
245,544,27,0.0221866178377966,0.0297245746547646
246,544,27,0.0146486610208286,0.00833142595559625
247,544,27,0.141237506675822,0.00790417334248875
248,544,27,0.0493018997482261,0.00791943236438544
249,544,27,0.0917372396429389,0.00756847486076143
250,544,27,0.0971541924162661,0.00779736018921187
251,544,27,0.0478065156023499,0.00776684214541848
252,544,27,0.0385137712672618,0.00772106507972839
253,544,27,0.0140383001449607,0.00775158312352178
254,544,27,0.141069657434958,0.00729381246662089
255,544,27,0.00747692072938125,0.0106202792401007
244,545,27,0.0136568245975433,0.00947585259784848
245,545,27,0.0458991378652628,0.00764476997024491
246,545,27,0.0663767452506294,0.00785839627679866
247,545,27,0.092637521934844,0.00985732814526589
248,545,27,0.0142824444953079,0.00994888227664607
249,545,27,0.0879835202563516,0.00784313725490196
250,545,27,0.0614328221560998,0.00744640268558785
251,545,27,0.151720454718853,0.0111696040283818
252,545,27,0.108583199816892,0.0116731517509728
253,545,27,0.169527733272297,0.0104676890211337
254,545,27,0.0548256656748302,0.007690547035935
255,545,27,0.0381780727855345,0.00735484855420768
243,546,27,0.0696574349584192,0.0153047989623865
244,546,27,0.0588845654993515,0.0105134660868238
245,546,27,0.00804150453955901,0.00906385900663768
246,546,27,0.151995117112993,0.0106202792401007
247,546,27,0.0504463263904784,0.007690547035935
248,546,27,0.109086747539483,0.0108186465247578
249,546,27,0.181277180132753,0.0114290074006256
250,546,27,0.0289158464942397,0.00781261921110857
251,546,27,0.151491569390402,0.00784313725490196
252,546,27,0.0469520103761349,0.00740062561989776
253,546,27,0.0572060730907149,0.00743114366369116
254,546,27,0.0766308079652094,0.00782787823300526
255,546,27,0.115800717174029,0.00788891432059205
256,546,27,0.0721446555275807,0.00759899290455482
243,547,27,0.0497444113832303,0.00747692072938125
244,547,27,0.0280155642023346,0.0158236057068742
245,547,27,0.0244907301441978,0.00715648126955062
246,547,27,0.0731670099946593,0.00791943236438544
247,547,27,0.0475928892957961,0.00828564888990616
248,547,27,0.0108644235904479,0.0168307011520562
249,547,27,0.094193942168307,0.00788891432059205
250,547,27,0.017944609750515,0.00747692072938125
251,547,27,0.0258793011367971,0.0205386434729534
252,547,27,0.00202944991226062,0.0184023804074159
253,547,27,0.041519798580911,0.00738536659800107
254,547,27,0.157152666514076,0.00755321583886473
255,547,27,0.0585488670176242,0.0190737773708705
256,547,27,0.0153353170061799,0.0106813153276875
243,548,27,0.0439002059967956,0.0140993362325475
244,548,27,0.121416037232013,0.0199130235751888
245,548,27,0.161837186236362,0.00790417334248875
246,548,27,0.165224689097429,0.0122072175173571
247,548,27,0.237628747997253,0.00740062561989776
248,548,27,0.028351262684062,0.00741588464179446
249,548,27,0.0132448310063325,0.00802624551766232
250,548,27,0.221850919356069,0.00721751735713741
251,548,27,0.120714122224765,0.00735484855420768
252,548,27,0.0693064774547952,0.00997940032043946
253,548,27,0.0742809185931182,0.0204928664072633
254,548,27,0.0557106889448386,0.0106507972838941
255,548,27,0.134187838559548,0.0072632944228275
256,548,27,0.108690012970169,0.00804150453955901
243,549,27,0.0611123826962692,0.00747692072938125
244,549,27,0.134676127260243,0.00749217975127794
245,549,27,0.0526588845654994,0.0101625085831998
246,549,27,0.0802319371328298,0.0116884107728695
247,549,27,0.164660105287251,0.00790417334248875
248,549,27,0.0923170824750134,0.00715648126955062
249,549,27,0.139894712748913,0.0178835736629282
250,549,27,0.0194247348744945,0.00787365529869535
251,549,27,0.0509956511787594,0.00764476997024491
252,549,27,0.0176852063782712,0.0132600900282292
253,549,27,0.0993972686350805,0.00779736018921187
254,549,27,0.0500801098649577,0.007690547035935
255,549,27,0.0324406805523766,0.00778210116731518
256,549,27,0.0221866178377966,0.00706492713817044
243,550,27,0.122377355611505,0.0371709773403525
244,550,27,0.0217898832684825,0.0212405584802014
245,550,27,0.0229037918669413,0.00759899290455482
246,550,27,0.128984512092775,0.00900282291905089
247,550,27,0.143892576485847,0.0146944380865187
248,550,27,0.00503547722590982,0.00776684214541848
249,550,27,0.0455176623178454,0.00793469138628214
250,550,27,0.104280155642023,0.00756847486076143
251,550,27,0.147905699244678,0.00761425192645151
252,550,27,0.0337376974135958,0.00772106507972839
253,550,27,0.117631799801633,0.00727855344472419
254,550,27,0.084946974898909,0.00715648126955062
255,550,27,0.0987869077592126,0.00764476997024491
256,550,27,0.00320439459830625,0.00813305867093919
243,551,27,0.07519645990692,0.0177615014877546
244,551,27,0.0319066147859922,0.0106660563057908
245,551,27,0.124742504005493,0.011810482948043
246,551,27,0.0603952086671244,0.0149080643930724
247,551,27,0.0718852521553368,0.0149996185244526
248,551,27,0.123369192034791,0.00759899290455482
249,551,27,0.0526436255436027,0.00788891432059205
250,551,27,0.065796902418555,0.0076600289921416
251,551,27,0.0784771496147097,0.00749217975127794
252,551,27,0.023773556115053,0.00740062561989776
253,551,27,0.0513923857480735,0.00914015411612116
254,551,27,0.0849622339208057,0.0108186465247578
255,551,27,0.00325017166399634,0.00750743877317464
243,552,27,0.0733501182574197,0.0371557183184558
244,552,27,0.115007248035401,0.0168917372396429
245,552,27,0.0119020370794232,0.00721751735713741
246,552,27,0.0367589837491417,0.0105897611963073
247,552,27,0.0783855954833295,0.007690547035935
248,552,27,0.162340733958953,0.00695811398489357
249,552,27,0.319508659494926,0.00741588464179446
250,552,27,0.0505378805218585,0.007690547035935
251,552,27,0.0115510795757992,0.010101472495613
252,552,27,0.0356908522163729,0.00717174029144732
253,552,27,0.0605630579079881,0.00885023270008392
254,552,27,0.00158693827725643,0.00784313725490196
255,552,27,0.00683604180972,0.0114442664225223
244,553,27,0.173495078965438,0.0187380788891432
245,553,27,0.0402685587853819,0.00730907148851759
246,553,27,0.0173342488746471,0.00750743877317464
247,553,27,0.0252689402609293,0.016586556801709
248,553,27,0.0812390325780118,0.00813305867093919
249,553,27,0.0177004654001678,0.0103303578240635
250,553,27,0.14036774242771,0.007690547035935
251,553,27,0.0479591058213169,0.00730907148851759
252,553,27,0.0199893186846723,0.00747692072938125
253,553,27,0.014724956130312,0.00756847486076143
254,553,27,0.00198367284657053,0.00759899290455482
244,554,27,0.00332646677347982,0.0103761348897536
245,554,27,0.0604257267109178,0.025986114290074
246,554,27,0.0623331044480049,0.0194094758525978
247,554,27,0.0386205844205386,0.00764476997024491
248,554,27,0.136552986953536,0.00747692072938125
249,554,27,0.0347142748149844,0.00984206912336919
250,554,27,0.118776226443885,0.00752269779507134
251,554,27,0.0876630807965209,0.0127565423056382
252,554,27,0.0470588235294118,0.00762951094834821
253,554,27,0.0266575112535286,0.0104829480430304
246,555,27,0.0323338673990997,0.00825513084611276
247,555,27,0.00201419089036393,0.0183260852979324
248,555,27,0.0668345159075303,0.00744640268558785
249,555,27,0.0255588616769665,0.00802624551766232
250,555,27,0.00534065766384375,0.00962844281681544
251,555,27,0.09570458533608,0.00717174029144732
252,555,27,0.070267795834287,0.00727855344472419
249,556,27,0.00584420538643473,0.00721751735713741
245,544,28,0.0122072175173571,0.0233157854581521
246,544,28,0.0773937590600443,0.0121004043640803
247,544,28,0.0754253452353704,0.00738536659800107
248,544,28,0.0149996185244526,0.00788891432059205
249,544,28,0.037247272449836,0.00794995040817884
250,544,28,0.129961089494163,0.00790417334248875
251,544,28,0.113649195086595,0.00738536659800107
252,544,28,0.227496757457847,0.00758373388265812
253,544,28,0.0992294193942168,0.00804150453955901
254,544,28,0.0883344777599756,0.00744640268558785
245,545,28,0.00265506981002518,0.0153200579842832
246,545,28,0.0507209887846189,0.00859082932784009
247,545,28,0.0768139162279698,0.00856031128404669
248,545,28,0.0667277027542535,0.00773632410162509
249,545,28,0.00311284046692607,0.00755321583886473
250,545,28,0.148348210879683,0.0135957885099565
251,545,28,0.122377355611505,0.0114442664225223
252,545,28,0.0906996261539635,0.0109712367437247
253,545,28,0.0964217593652247,0.00729381246662089
254,545,28,0.0641794460975051,0.00776684214541848
255,545,28,0.063080796520943,0.00819409475852598
244,546,28,0.0431067368581674,0.00798046845197223
245,546,28,0.0173800259403372,0.0102693217364767
246,546,28,0.0640726329442283,0.00762951094834821
247,546,28,0.0617685206378271,0.00775158312352178
248,546,28,0.0970321202410925,0.0109407186999313
249,546,28,0.205981536583505,0.00833142595559625
250,546,28,0.114747844663157,0.00816357671473259
251,546,28,0.12660410467689,0.00747692072938125
252,546,28,0.116090638590066,0.0141603723201343
253,546,28,0.123033493553063,0.00923170824750134
254,546,28,0.0901350423437858,0.00914015411612116
255,546,28,0.0672465094987411,0.00781261921110857
244,547,28,0.0211947814145113,0.00834668497749294
245,547,28,0.132753490501259,0.0105134660868238
246,547,28,0.0997634851606012,0.00814831769283589
247,547,28,0.0167849240863661,0.00787365529869535
248,547,28,0.201815823605707,0.00758373388265812
249,547,28,0.272510872053101,0.0111390859845884
250,547,28,0.0356298161287861,0.00892652780956741
251,547,28,0.0867017624170291,0.00804150453955901
252,547,28,0.109437705043107,0.015732051575494
253,547,28,0.0558785381857023,0.0072480354009308
254,547,28,0.0249027237354086,0.00770580605783169
255,547,28,0.144426642252232,0.00804150453955901
256,547,28,0.039856565194171,0.00761425192645151
243,548,28,0.0155489433127337,0.00772106507972839
244,548,28,0.071274891279469,0.00819409475852598
245,548,28,0.0572671091783017,0.012115663385977
246,548,28,0.114915693904021,0.00709544518196384
247,548,28,0.0505683985656519,0.0076752880140383
248,548,28,0.154833295185779,0.00791943236438544
249,548,28,0.141176470588235,0.00796520943007553
250,548,28,0.0688181887541009,0.00924696726939803
251,548,28,0.159014267185473,0.0098268101014725
252,548,28,0.0735637445639735,0.00798046845197223
253,548,28,0.118211642633707,0.0150911726558328
254,548,28,0.00250247959105821,0.0113984893568322
255,548,28,0.00492866407263294,0.00781261921110857
256,548,28,0.0164034485389487,0.00947585259784848
243,549,28,0.0719920653086137,0.0105439841306172
244,549,28,0.0968032349126421,0.0125429159990845
245,549,28,0.101869230182345,0.00830090791180285
246,549,28,0.0857251850156405,0.00787365529869535
247,549,28,0.135805294880598,0.0468604562447547
248,549,28,0.212863355458915,0.0107118333714809
249,549,28,0.0409857328145266,0.00788891432059205
250,549,28,0.116517891203174,0.00813305867093919
251,549,28,0.214602883955138,0.00973525597009232
252,549,28,0.0526131074998093,0.0135347524223697
253,549,28,0.0397192339971008,0.0191805905241474
254,549,28,0.0451209277485313,0.00987258716716258
255,549,28,0.0197909514000153,0.0118257419699397
243,550,28,0.0801098649576562,0.0100404364080262
244,550,28,0.0143587396047913,0.0209506370641642
245,550,28,0.0674906538490883,0.0116426337071794
246,550,28,0.0955672541390097,0.00729381246662089
247,550,28,0.0978408484016175,0.00735484855420768
248,550,28,0.0510719462882429,0.00779736018921187
249,550,28,0.0512855725947967,0.00842298008697642
250,550,28,0.118089570458534,0.00744640268558785
251,550,28,0.121980621042191,0.0108339055466545
252,550,28,0.109163042648966,0.01025406271458
253,550,28,0.0710917830167086,0.00788891432059205
254,550,28,0.0430151827267872,0.00820935378042268
255,550,28,0.0575570305943389,0.0113374532692454
243,551,28,0.0337224383916991,0.0336461432822156
244,551,28,0.0998092622262913,0.0256656748302434
245,551,28,0.152971694514382,0.0214236667429618
246,551,28,0.0456855115587091,0.0111543450064851
247,551,28,0.177264057373922,0.0112153810940719
248,551,28,0.0461738002594034,0.016235599298085
249,551,28,0.0125429159990845,0.00857557030594339
250,551,28,0.036240177004654,0.0143282215609979
251,551,28,0.0556038757915618,0.00781261921110857
252,551,28,0.0293430991073472,0.00756847486076143
253,551,28,0.0212863355458915,0.00764476997024491
254,551,28,0.0945601586938277,0.0080872816052491
255,551,28,0.0123750667582208,0.00827038986800946
243,552,28,0.121004043640803,0.0787212939650568
244,552,28,0.00875867856870375,0.0140840772106508
245,552,28,0.0323643854428931,0.00775158312352178
246,552,28,0.124956130312047,0.00752269779507134
247,552,28,0.11630426489662,0.0127718013275349
248,552,28,0.140978103303578,0.00833142595559625
249,552,28,0.0579690241855497,0.0080872816052491
250,552,28,0.0527962157625696,0.0160677500572213
251,552,28,0.0201419089036393,0.00849927519645991
252,552,28,0.234912642099641,0.00814831769283589
253,552,28,0.033325703822385,0.00764476997024491
254,552,28,0.0667429617761501,0.00732433051041428
244,553,28,0.020859082932784,0.0124361028458076
245,553,28,0.15048447394522,0.00805676356145571
246,553,28,0.042572671091783,0.0124513618677043
247,553,28,0.0846265354390784,0.0159914549477378
248,553,28,0.0838635843442435,0.0120393682764935
249,553,28,0.0135500114442664,0.00749217975127794
250,553,28,0.0946669718471046,0.0100251773861295
251,553,28,0.11815060654612,0.0122682536049439
252,553,28,0.0588540474555581,0.00825513084611276
253,553,28,0.0166781109330892,0.00799572747386892
245,554,28,0.0585488670176242,0.00756847486076143
246,554,28,0.101991302357519,0.00781261921110857
247,554,28,0.0016937514305333,0.0080872816052491
248,554,28,0.12835889219501,0.0080872816052491
249,554,28,0.0219882505531395,0.0178835736629282
250,554,28,0.00395208667124437,0.0139772640573739
251,554,28,0.073136491950866,0.00791943236438544
252,554,28,0.0430151827267872,0.00820935378042268
246,555,28,0.00588998245212482,0.00796520943007553
247,555,28,0.0381322957198444,0.0116426337071794
248,555,28,0.00163271534294652,0.00756847486076143
249,555,28,0.0809643701838712,0.00729381246662089
250,555,28,0.0272220950637064,0.00837720302128634
