x,y,z,fucci_ch00,fucci_ch02
1,428,7,0.0184176394293126,0.00801098649576562
2,428,7,0.0540474555580987,0.00776684214541848
1,429,7,0.0381933318074311,0.0133058670939193
2,429,7,0.0472114137483787,0.00785839627679866
1,430,7,0.063935301747158,0.00924696726939803
2,430,7,0.0838025482566567,0.00732433051041428
3,430,7,0.0494544899671931,0.00990310521095598
1,431,7,0.00152590218966964,0.00759899290455482
2,431,7,0.00997940032043946,0.0166323338673991
3,431,7,0.00285343709468223,0.00984206912336919
1,432,7,0.0217898832684825,0.00943007553215839
2,432,7,0.0370641641870756,0.018448157473106
3,432,7,0.0702067597467002,0.00854505226215
1,433,7,0.0106965743495842,0.0100556954299229
2,433,7,0.00859082932784009,0.00784313725490196
3,433,7,0.0536202029449912,0.00752269779507134
1,434,7,0.0317082475013352,0.0124818799114977
2,434,7,0.018142977035172,0.016586556801709
3,434,7,0.0185549706263828,0.00987258716716258
1,435,7,0.077409018081941,0.0108491645685512
2,435,7,0.0728618295567254,0.00764476997024491
3,435,7,0.0021210040436408,0.0177462424658579
1,436,7,0.0162813763637751,0.00782787823300526
2,436,7,0.0021515220874342,0.00752269779507134
3,436,7,0.00845349813076982,0.00782787823300526
1,437,7,0.0675211718928817,0.00901808194094758
2,437,7,0.00190737773708705,0.00822461280231937
3,437,7,0.00247196154726482,0.0202487220569162
4,437,7,0.0238956282902266,0.0116273746852827
1,438,7,0.0123903257801175,0.0098268101014725
2,438,7,0.067551689936675,0.00828564888990616
3,438,7,0.00193789578088045,0.00801098649576562
1,439,7,0.0681467917906462,0.00794995040817884
2,439,7,0.024933241779202,0.00793469138628214
3,439,7,0.00611886778057527,0.00730907148851759
1,440,7,0.0762798504615854,0.0123292896925307
2,440,7,0.0178683146410315,0.00744640268558785
3,440,7,0.0373235675593194,0.00805676356145571
1,441,7,0.00917067215991455,0.00799572747386892
2,441,7,0.0571297779812314,0.0119783321889067
3,441,7,0.0619363698786908,0.00762951094834821
1,442,7,0.0168459601739528,0.0113984893568322
2,442,7,0.0262607766842145,0.00872816052491035
1,443,7,0.0625162127107652,0.0177767605096513
1,426,8,0.127153429465171,0.0148622873273823
2,426,8,0.00398260471503777,0.00782787823300526
1,427,8,0.014175631342031,0.00749217975127794
2,427,8,0.00195315480277714,0.00733958953231098
1,428,8,0.00205996795605402,0.00822461280231937
2,428,8,0.00180056458381018,0.00701915007248035
3,428,8,0.0870374608987564,0.0169527733272297
1,429,8,0.00614938582436866,0.0076752880140383
2,429,8,0.0313572899977111,0.00778210116731518
3,429,8,0.00999465934233616,0.02050812542916
1,430,8,0.00750743877317464,0.0113832303349355
2,430,8,0.0657206073090715,0.0115510795757992
3,430,8,0.0157778286411841,0.00801098649576562
1,431,8,0.076401922636759,0.00787365529869535
2,431,8,0.0573434042877852,0.00926222629129473
3,431,8,0.0315709163042649,0.00946059357595178
1,432,8,0.0195162890058747,0.0110627908751049
2,432,8,0.0764171816586557,0.00775158312352178
3,432,8,0.00187685969329366,0.00746166170748455
1,433,8,0.00193789578088045,0.00787365529869535
2,433,8,0.00201419089036393,0.00900282291905089
3,433,8,0.00975051499198901,0.00778210116731518
1,434,8,0.0206301976043336,0.00772106507972839
2,434,8,0.0105897611963073,0.0076600289921416
3,434,8,0.00146486610208286,0.00782787823300526
1,435,8,0.00968947890440223,0.00790417334248875
2,435,8,0.0016937514305333,0.00733958953231098
3,435,8,0.0473334859235523,0.00735484855420768
4,435,8,0.00289921416037232,0.00994888227664607
1,436,8,0.00355535210193027,0.0089417868314641
2,436,8,0.0377508201724269,0.0172732127870604
3,436,8,0.0522926680399786,0.0097962920576791
4,436,8,0.00184634164950027,0.00923170824750134
1,437,8,0.00222781719691768,0.00718699931334401
2,437,8,0.0307927061875334,0.0101777676050965
3,437,8,0.044083314259556,0.00823987182421607
4,437,8,0.0133058670939193,0.0248416876478218
0,438,8,0.0162661173418784,0.00791943236438544
1,438,8,0.0596932936598764,0.007690547035935
2,438,8,0.0341191729610132,0.00781261921110857
3,438,8,0.0471351186388952,0.00787365529869535
4,438,8,0.00839246204318303,0.00778210116731518
0,439,8,0.00167849240863661,0.00999465934233616
1,439,8,0.00155642023346304,0.00743114366369116
2,439,8,0.0134584573128862,0.00935378042267491
3,439,8,0.00178530556191348,0.00715648126955062
4,439,8,0.0368505378805219,0.00735484855420768
1,440,8,0.00201419089036393,0.00727855344472419
2,440,8,0.0374151216906996,0.00750743877317464
3,440,8,0.096253910124361,0.00886549172198062
1,441,8,0.0507209887846189,0.0076600289921416
2,441,8,0.0130006866559854,0.0249637598229953
3,441,8,0.0202639810788128,0.00903334096284428
1,442,8,0.0469672693980316,0.00816357671473259
2,442,8,0.00198367284657053,0.00749217975127794
3,442,8,0.00439459830624857,0.0152132448310063
1,443,8,0.011612115663386,0.0139620050354772
2,443,8,0.00180056458381018,0.0132143129625391
1,444,8,0.103364614328222,0.00741588464179446
1,425,9,0.00926222629129473,0.00746166170748455
2,425,9,0.0260776684214542,0.00762951094834821
1,426,9,0.0162050812542916,0.00785839627679866
2,426,9,0.00233463035019455,0.0108949416342412
1,427,9,0.00193789578088045,0.00802624551766232
2,427,9,0.0185244525825895,0.00816357671473259
3,427,9,0.0217288471808957,0.00802624551766232
1,428,9,0.0673685816739147,0.0156404974441138
2,428,9,0.0274662394140536,0.0113221942473487
3,428,9,0.0108339055466545,0.00761425192645151
0,429,9,0.00608834973678187,0.00814831769283589
1,429,9,0.0592050049591821,0.00709544518196384
2,429,9,0.0744335088120851,0.00775158312352178
3,429,9,0.00170901045243,0.0225070572976272
0,430,9,0.0686045624475471,0.0117799649042496
1,430,9,0.00137331197070268,0.0110017547875181
2,430,9,0.00973525597009232,0.00988784618905928
3,430,9,0.00230411230640116,0.00788891432059205
0,431,9,0.0397497520408942,0.0133363851377127
1,431,9,0.00538643472953384,0.00756847486076143
2,431,9,0.00164797436484321,0.00764476997024491
3,431,9,0.00848401617456321,0.00718699931334401
0,432,9,0.0175173571374075,0.00801098649576562
1,432,9,0.0373846036469062,0.00738536659800107
2,432,9,0.0381628137636378,0.00784313725490196
3,432,9,0.0134431982909895,0.00752269779507134
4,432,9,0.00207522697795071,0.0127260242618448
0,433,9,0.0431219958800641,0.01538109407187
1,433,9,0.010605020218204,0.00798046845197223
2,433,9,0.00204470893415732,0.00689707789730678
3,433,9,0.0050965133134966,0.0149843595025559
4,433,9,0.00138857099259937,0.0133669031815061
0,434,9,0.11122301060502,0.00752269779507134
1,434,9,0.0284885938811322,0.00753795681696803
2,434,9,0.0270237277790494,0.0076752880140383
3,434,9,0.0337834744792859,0.00729381246662089
4,434,9,0.0536507209887846,0.00785839627679866
0,435,9,0.00108339055466545,0.00880445563439384
1,435,9,0.0458991378652628,0.00959792477302205
2,435,9,0.0228732738231479,0.0111543450064851
3,435,9,0.0197146562905318,0.007690547035935
4,435,9,0.0345616845960174,0.0116731517509728
0,436,9,0.00418097199969482,0.00781261921110857
1,436,9,0.00848401617456321,0.0076752880140383
2,436,9,0.00218204013122759,0.0187228198672465
3,436,9,0.0021515220874342,0.00775158312352178
4,436,9,0.0169069962615396,0.00732433051041428
0,437,9,0.0542458228427558,0.00744640268558785
1,437,9,0.0537422751201648,0.00921644922560464
2,437,9,0.0255741206988632,0.0150148775463493
3,437,9,0.0378271152819104,0.00761425192645151
4,437,9,0.00642404821850919,0.00762951094834821
0,438,9,0.0490730144197757,0.00881971465629053
1,438,9,0.0327153429465171,0.00791943236438544
2,438,9,0.0307316700999466,0.00813305867093919
3,438,9,0.0188296330205234,0.00773632410162509
4,438,9,0.00161745632104982,0.00791943236438544
0,439,9,0.176516365300984,0.00775158312352178
1,439,9,0.0212558175020981,0.0134431982909895
2,439,9,0.0299229419394217,0.00759899290455482
3,439,9,0.0379339284351873,0.00756847486076143
4,439,9,0.070969710841535,0.00714122224765393
0,440,9,0.0038605325398642,0.0085145342183566
1,440,9,0.131670099946593,0.00764476997024491
2,440,9,0.155123216601816,0.0122987716487373
3,440,9,0.0168917372396429,0.0111848630502785
4,440,9,0.033478294041352,0.00794995040817884
0,441,9,0.00187685969329366,0.00727855344472419
1,441,9,0.00239566643778134,0.00856031128404669
2,441,9,0.00450141145952544,0.00798046845197223
3,441,9,0.0209658960860609,0.00871290150301366
0,442,9,0.016433966582742,0.00756847486076143
1,442,9,0.00196841382467384,0.00761425192645151
2,442,9,0.0240634775310903,0.00791943236438544
3,442,9,0.00192263675898375,0.00770580605783169
1,443,9,0.00187685969329366,0.0283665217059586
2,443,9,0.0113221942473487,0.00744640268558785
1,444,9,0.015579461356527,0.00776684214541848
2,444,9,0.0528877698939498,0.00775158312352178
1,445,9,0.0478065156023499,0.0111696040283818
1,424,10,0.013519493400473,0.00727855344472419
2,424,10,0.0226443884946975,0.00909437705043107
1,425,10,0.0439612420843824,0.00770580605783169
2,425,10,0.0117494468604562,0.00753795681696803
1,426,10,0.0206454566262303,0.00706492713817044
2,426,10,0.0319066147859922,0.0339055466544594
3,426,10,0.00346379797055009,0.0141298542763409
1,427,10,0.0401922636758984,0.0085297932402533
2,427,10,0.0353551537346456,0.0138399328603037
3,427,10,0.0162508583199817,0.00764476997024491
0,428,10,0.0153047989623865,0.00709544518196384
1,428,10,0.0142061493858244,0.00877393759060044
2,428,10,0.00750743877317464,0.010452429999237
3,428,10,0.00154116121156634,0.00823987182421607
0,429,10,0.0233768215457389,0.007690547035935
1,429,10,0.0696726939803159,0.00743114366369116
2,429,10,0.0401922636758984,0.00762951094834821
3,429,10,0.0429999237048905,0.0134431982909895
0,430,10,0.197344930189975,0.00772106507972839
1,430,10,0.0577248798352026,0.00735484855420768
2,430,10,0.0358129243915465,0.00718699931334401
3,430,10,0.0219882505531395,0.00996414129854276
4,430,10,0.0462500953688869,0.00712596322575723
0,431,10,0.0223849851224537,0.007690547035935
1,431,10,0.0230869001297017,0.00787365529869535
2,431,10,0.080018310826276,0.00741588464179446
3,431,10,0.00202944991226062,0.00755321583886473
4,431,10,0.0234531166552224,0.00747692072938125
0,432,10,0.0141298542763409,0.0168307011520562
1,432,10,0.0385290302891585,0.00759899290455482
2,432,10,0.0687876707103075,0.0126344701304646
3,432,10,0.00221255817502098,0.0189364461738003
4,432,10,0.0200656137941558,0.00874341954680705
0,433,10,0.0246890974288548,0.0072480354009308
1,433,10,0.0993362325474937,0.0174868390936141
2,433,10,0.00166323338673991,0.0152437628747997
3,433,10,0.0347905699244678,0.00759899290455482
4,433,10,0.0285801480125124,0.0120241092545968
0,434,10,0.0089723048752575,0.00794995040817884
1,434,10,0.00666819256885634,0.00799572747386892
2,434,10,0.00263981078812848,0.0147402151522087
3,434,10,0.00350957503624018,0.0113832303349355
4,434,10,0.00198367284657053,0.00727855344472419
0,435,10,0.0838635843442435,0.00923170824750134
1,435,10,0.0340581368734264,0.00819409475852598
2,435,10,0.0932326237888151,0.00750743877317464
3,435,10,0.023224231326772,0.00798046845197223
4,435,10,0.00202944991226062,0.00807202258335241
0,436,10,0.0289311055161364,0.00782787823300526
1,436,10,0.0481727321278706,0.0199893186846723
2,436,10,0.00715648126955062,0.00804150453955901
3,436,10,0.0110933089188983,0.00738536659800107
4,436,10,0.0254062714579995,0.0105745021744106
0,437,10,0.0105745021744106,0.0189822232394903
1,437,10,0.177004654001679,0.0122529945830472
2,437,10,0.130373083085374,0.00727855344472419
3,437,10,0.00143434805828946,0.00779736018921187
4,437,10,0.0338902876325628,0.00737010757610437
0,438,10,0.0245212481879911,0.00712596322575723
1,438,10,0.0341802090486,0.00750743877317464
2,438,10,0.00181582360570687,0.00776684214541848
3,438,10,0.0613565270466163,0.00802624551766232
4,438,10,0.0135042343785763,0.007690547035935
0,439,10,0.023422598611429,0.00952162966353857
1,439,10,0.00205996795605402,0.0072480354009308
2,439,10,0.154650186923018,0.0108796826123445
3,439,10,0.00802624551766232,0.00706492713817044
4,439,10,0.00189211871519036,0.00715648126955062
0,440,10,0.00727855344472419,0.0111848630502785
1,440,10,0.0429541466392004,0.00738536659800107
2,440,10,0.00651560234988937,0.0076752880140383
3,440,10,0.011108567940795,0.00733958953231098
4,440,10,0.037445639734493,0.0104219119554437
0,441,10,0.00131227588311589,0.00688181887541009
1,441,10,0.0042420080872816,0.00820935378042268
2,441,10,0.0662851911192493,0.00732433051041428
3,441,10,0.047196154726482,0.0144960708018616
0,442,10,0.104448004882887,0.00663767452506294
1,442,10,0.00114442664225223,0.00814831769283589
2,442,10,0.00180056458381018,0.00758373388265812
3,442,10,0.00227359426260777,0.00703440909437705
0,443,10,0.0119935912108034,0.00743114366369116
1,443,10,0.0188143739986267,0.0173495078965438
2,443,10,0.00575265125505455,0.00782787823300526
1,444,10,0.0127412832837415,0.00770580605783169
2,444,10,0.0389868009460594,0.00738536659800107
1,445,10,0.00167849240863661,0.01196307316701
1,423,11,0.0238040741588464,0.00756847486076143
2,423,11,0.172991531242847,0.00997940032043946
1,424,11,0.0175783932249943,0.00759899290455482
2,424,11,0.00260929274433509,0.00772106507972839
1,425,11,0.00697337300679027,0.00750743877317464
2,425,11,0.0392309452964065,0.00755321583886473
3,425,11,0.0476386663614862,0.014373998626688
1,426,11,0.0085297932402533,0.00859082932784009
2,426,11,0.0666361486228733,0.00695811398489357
3,426,11,0.0173495078965438,0.0213778896772717
0,427,11,0.0864576180666819,0.00749217975127794
1,427,11,0.0333714808880751,0.00775158312352178
2,427,11,0.0147707331960021,0.00975051499198901
3,427,11,0.0191042954146639,0.00730907148851759
0,428,11,0.0189364461738003,0.0156252384222171
1,428,11,0.00186160067139696,0.00746166170748455
2,428,11,0.00228885328450446,0.00737010757610437
3,428,11,0.0201113908598459,0.0117799649042496
4,428,11,0.0211337453269245,0.0072327763790341
0,429,11,0.00503547722590982,0.025787747005417
1,429,11,0.0308537422751202,0.0100709544518196
2,429,11,0.123369192034791,0.00805676356145571
3,429,11,0.0211947814145113,0.0156710154879072
4,429,11,0.0474555580987259,0.00741588464179446
0,430,11,0.0166323338673991,0.00798046845197223
1,430,11,0.00964370183871214,0.0113374532692454
2,430,11,0.125566491187915,0.00756847486076143
3,430,11,0.106797894254978,0.00788891432059205
4,430,11,0.00198367284657053,0.00747692072938125
0,431,11,0.0130312046997787,0.00849927519645991
1,431,11,0.00201419089036393,0.0076752880140383
2,431,11,0.0453345540550851,0.0203860532539864
3,431,11,0.00234988937209125,0.00801098649576562
4,431,11,0.00181582360570687,0.0144808117799649
0,432,11,0.03247119859617,0.00830090791180285
1,432,11,0.0715190356298161,0.00836194399938964
2,432,11,0.0422827496757458,0.00772106507972839
3,432,11,0.00233463035019455,0.0089417868314641
4,432,11,0.124055848020142,0.0225528343633173
0,433,11,0.0286717021438926,0.00794995040817884
1,433,11,0.00843823910887312,0.00918593118181125
2,433,11,0.0417029068436713,0.00759899290455482
3,433,11,0.10424963759823,0.00996414129854276
4,433,11,0.0344090943770504,0.00759899290455482
0,434,11,0.00100709544518196,0.00823987182421607
1,434,11,0.0120393682764935,0.0103150988021668
2,434,11,0.00196841382467384,0.00764476997024491
3,434,11,0.0901350423437858,0.0322423132677195
4,434,11,0.00679026474402991,0.00721751735713741
0,435,11,0.0565651941710536,0.00901808194094758
1,435,11,0.0012817578393225,0.0076752880140383
2,435,11,0.00537117570763714,0.0168154421301595
3,435,11,0.0421454184786755,0.00831616693369955
4,435,11,0.00166323338673991,0.00759899290455482
0,436,11,0.0170748455024033,0.00885023270008392
1,436,11,0.00196841382467384,0.0242160677500572
2,436,11,0.11815060654612,0.00740062561989776
3,436,11,0.0278324559395743,0.00990310521095598
4,436,11,0.0433051041428244,0.00778210116731518
0,437,11,0.00502021820401312,0.00781261921110857
1,437,11,0.00645456626230259,0.00729381246662089
2,437,11,0.0128023193713283,0.0098268101014725
3,437,11,0.131517509727626,0.00762951094834821
4,437,11,0.00250247959105821,0.0136568245975433
0,438,11,0.00210574502174411,0.00764476997024491
1,438,11,0.0172579537651637,0.0136873426413367
2,438,11,0.0671244373235676,0.0109864957656214
3,438,11,0.00253299763485161,0.00782787823300526
4,438,11,0.0530403601129168,0.00753795681696803
0,439,11,0.0492256046387427,0.00785839627679866
1,439,11,0.0218051422903792,0.00753795681696803
2,439,11,0.00247196154726482,0.00704966811627375
3,439,11,0.0209048599984741,0.00935378042267491
4,439,11,0.0021210040436408,0.00782787823300526
0,440,11,0.00149538414587625,0.0142977035172045
1,440,11,0.0643472953383688,0.00772106507972839
2,440,11,0.030060273136492,0.00743114366369116
3,440,11,0.00202944991226062,0.0161593041886015
4,440,11,0.0305180437933928,0.0076752880140383
0,441,11,0.0408331425955596,0.0076752880140383
1,441,11,0.0686198214694438,0.00775158312352178
2,441,11,0.00251773861295491,0.007690547035935
3,441,11,0.00776684214541848,0.00825513084611276
0,442,11,0.0149233234149691,0.00868238345922026
1,442,11,0.0185091935606928,0.00802624551766232
2,442,11,0.00196841382467384,0.0218356603341726
3,442,11,0.00222781719691768,0.0112458991378653
0,443,11,0.00186160067139696,0.00743114366369116
1,443,11,0.0021210040436408,0.00952162966353857
2,443,11,0.0263981078812848,0.0072327763790341
1,444,11,0.0271610589761196,0.0198825055313954
2,444,11,0.0107270923933776,0.00782787823300526
1,445,11,0.00268558785381857,0.00881971465629053
1,423,12,0.00199893186846723,0.0139314869916838
2,423,12,0.0125123979552911,0.0114900434882124
1,424,12,0.0383611810482948,0.0162813763637751
2,424,12,0.00849927519645991,0.00732433051041428
3,424,12,0.0059510185397116,0.00804150453955901
1,425,12,0.122301060502022,0.00775158312352178
2,425,12,0.00173952849622339,0.00738536659800107
3,425,12,0.0140077821011673,0.00738536659800107
1,426,12,0.00155642023346304,0.00698863202868696
2,426,12,0.0448004882887007,0.0273289082169833
3,426,12,0.033173113603418,0.0107881284809644
0,427,12,0.0267948424505989,0.015579461356527
1,427,12,0.0623025864042115,0.0169680323491264
2,427,12,0.00175478751812009,0.00756847486076143
3,427,12,0.0797436484321355,0.0100251773861295
4,427,12,0.00201419089036393,0.00909437705043107
0,428,12,0.0719615472648203,0.0100099183642329
1,428,12,0.0138399328603037,0.00828564888990616
2,428,12,0.0233768215457389,0.00828564888990616
3,428,12,0.00471503776607919,0.00706492713817044
4,428,12,0.0375219348439765,0.0171358815899901
0,429,12,0.0378881513694972,0.00933852140077821
1,429,12,0.0217593652246891,0.00758373388265812
2,429,12,0.0378423743038071,0.0076600289921416
3,429,12,0.016388189517052,0.00762951094834821
4,429,12,0.0756542305638209,0.0103608758678569
0,430,12,0.0985732814526589,0.0068207827878233
1,430,12,0.00325017166399634,0.00758373388265812
2,430,12,0.0106202792401007,0.00733958953231098
3,430,12,0.047196154726482,0.00892652780956741
4,430,12,0.010406652933547,0.0104219119554437
0,431,12,0.0513008316166934,0.0081025406271458
1,431,12,0.0122987716487373,0.0101472495613031
2,431,12,0.057953765163653,0.0142519264515145
3,431,12,0.100221255817502,0.00773632410162509
4,431,12,0.0346379797055009,0.00764476997024491
0,432,12,0.00735484855420768,0.00796520943007553
1,432,12,0.00202944991226062,0.00946059357595178
2,432,12,0.0465705348287175,0.00744640268558785
3,432,12,0.0164950026703288,0.00794995040817884
4,432,12,0.0461280231937133,0.0175326161593042
0,433,12,0.0313420309758144,0.00689707789730678
1,433,12,0.0325627527275502,0.00849927519645991
2,433,12,0.0430151827267872,0.0103456168459602
3,433,12,0.04956130312047,0.00694285496299687
4,433,12,0.0320592050049592,0.00761425192645151
0,434,12,0.0562294956893263,0.0102998397802701
1,434,12,0.0638895246814679,0.0117494468604562
2,434,12,0.0321965362020294,0.00776684214541848
3,434,12,0.0420080872816053,0.00923170824750134
4,434,12,0.00196841382467384,0.00746166170748455
0,435,12,0.00756847486076143,0.00733958953231098
1,435,12,0.0728923476005188,0.00779736018921187
2,435,12,0.00155642023346304,0.0180819409475853
3,435,12,0.00230411230640116,0.00752269779507134
4,435,12,0.00624093995574884,0.00718699931334401
0,436,12,0.00506599526970321,0.0126955062180514
1,436,12,0.0114137483787289,0.00784313725490196
2,436,12,0.00218204013122759,0.00740062561989776
3,436,12,0.00709544518196384,0.00770580605783169
4,436,12,0.00164797436484321,0.00752269779507134
0,437,12,0.00192263675898375,0.0327458609903105
1,437,12,0.0354009308003357,0.00758373388265812
2,437,12,0.0284428168154421,0.00773632410162509
3,437,12,0.0103303578240635,0.00712596322575723
4,437,12,0.0021515220874342,0.00775158312352178
0,438,12,0.06323338673991,0.00794995040817884
1,438,12,0.0021515220874342,0.00733958953231098
2,438,12,0.0616464484626535,0.00762951094834821
3,438,12,0.00151064316777295,0.00805676356145571
4,438,12,0.00181582360570687,0.00718699931334401
0,439,12,0.028397039749752,0.00804150453955901
1,439,12,0.0331578545815213,0.0260318913557641
2,439,12,0.0383459220263981,0.0115510795757992
3,439,12,0.00338750286106661,0.0137941557946136
4,439,12,0.0122987716487373,0.00788891432059205
0,440,12,0.089372091248951,0.0169985503929198
1,440,12,0.00148012512397955,0.0102845807583734
2,440,12,0.00784313725490196,0.00764476997024491
3,440,12,0.0355840390630961,0.00679026474402991
4,440,12,0.00163271534294652,0.00787365529869535
0,441,12,0.0474555580987259,0.00738536659800107
1,441,12,0.0278782330052644,0.0120393682764935
2,441,12,0.120500495918212,0.00755321583886473
3,441,12,0.0149843595025559,0.0072632944228275
0,442,12,0.0346227206836042,0.0217441062027924
1,442,12,0.0131227588311589,0.0081177996490425
2,442,12,0.0935072861829557,0.0076600289921416
3,442,12,0.00119020370794232,0.0124208438239109
1,443,12,0.0725108720531014,0.00788891432059205
2,443,12,0.00219729915312428,0.0101777676050965
1,444,12,0.0177004654001678,0.00720225833524071
2,444,12,0.0016937514305333,0.00743114366369116
1,445,12,0.0153353170061799,0.00875867856870375
1,422,13,0.00636301213092241,0.0093690394445716
1,423,13,0.00233463035019455,0.007690547035935
2,423,13,0.0112306401159686,0.00869764248111696
1,424,13,0.0177462424658579,0.00785839627679866
2,424,13,0.0555275806820783,0.0081025406271458
3,424,13,0.0244602121004044,0.0115053025101091
1,425,13,0.0140535591668574,0.0146944380865187
2,425,13,0.00245670252536812,0.00746166170748455
3,425,13,0.0672312504768444,0.00776684214541848
0,426,13,0.00186160067139696,0.0081177996490425
1,426,13,0.00178530556191348,0.00772106507972839
2,426,13,0.0979324025329976,0.0072327763790341
3,426,13,0.0448462653543908,0.00727855344472419
0,427,13,0.00489814602883955,0.00674448767833982
1,427,13,0.159761959258412,0.0214541847867552
2,427,13,0.0157778286411841,0.0158236057068742
3,427,13,0.00161745632104982,0.0080872816052491
4,427,13,0.0128328374151217,0.00762951094834821
0,428,13,0.0290836957351034,0.00863660639353018
1,428,13,0.00579842832074464,0.00755321583886473
2,428,13,0.0466773479819944,0.00753795681696803
3,428,13,0.0353398947127489,0.0216525520714122
4,428,13,0.0165712977798123,0.0185397116044862
0,429,13,0.0313267719539178,0.00790417334248875
1,429,13,0.00204470893415732,0.0076600289921416
2,429,13,0.0183871213855192,0.0102235446707866
3,429,13,0.0315861753261616,0.0106965743495842
4,429,13,0.00245670252536812,0.010406652933547
0,430,13,0.00672922865644312,0.00698863202868696
1,430,13,0.0372014953841459,0.00920119020370794
2,430,13,0.00479133287556268,0.00785839627679866
3,430,13,0.00183108262760357,0.00775158312352178
4,430,13,0.0187533379110399,0.00782787823300526
0,431,13,0.0208438239108873,0.00762951094834821
1,431,13,0.122346837567712,0.0076752880140383
2,431,13,0.00291447318226902,0.0130464637216754
3,431,13,0.00276188296330205,0.00752269779507134
4,431,13,0.00216678110933089,0.00823987182421607
0,432,13,0.0445410849164569,0.0072480354009308
1,432,13,0.0722514686808576,0.00738536659800107
2,432,13,0.00184634164950027,0.00790417334248875
3,432,13,0.00717174029144732,0.00749217975127794
4,432,13,0.0109407186999313,0.00750743877317464
0,433,13,0.0571297779812314,0.00770580605783169
1,433,13,0.0190432593270771,0.0076752880140383
2,433,13,0.0420080872816053,0.0202029449912261
3,433,13,0.0428168154421302,0.00849927519645991
4,433,13,0.0247959105821317,0.0139620050354772
0,434,13,0.00236514839398795,0.00837720302128634
1,434,13,0.0143129625391012,0.00799572747386892
2,434,13,0.0746166170748455,0.00791943236438544
3,434,13,0.0034332799267567,0.00773632410162509
4,434,13,0.0433966582742046,0.0126344701304646
0,435,13,0.0038605325398642,0.00947585259784848
1,435,13,0.00219729915312428,0.0126344701304646
2,435,13,0.0147402151522087,0.00959792477302205
3,435,13,0.0454413672083619,0.00759899290455482
4,435,13,0.0017242694743267,0.013015945677882
0,436,13,0.0214847028305486,0.00779736018921187
1,436,13,0.0626535439078355,0.00750743877317464
2,436,13,0.00167849240863661,0.00791943236438544
3,436,13,0.00181582360570687,0.0104982070649271
4,436,13,0.00207522697795071,0.00787365529869535
0,437,13,0.0491035324635691,0.00775158312352178
1,437,13,0.0288242923628595,0.00793469138628214
2,437,13,0.00230411230640116,0.0179293507286183
3,437,13,0.0817120622568093,0.00741588464179446
4,437,13,0.00662241550316625,0.00930800335698482
0,438,13,0.0738078889143206,0.0115815976195926
1,438,13,0.0349126420996414,0.0068207827878233
2,438,13,0.00216678110933089,0.00889600976577401
3,438,13,0.00155642023346304,0.00779736018921187
4,438,13,0.00408941786831464,0.00711070420386053
0,439,13,0.0429541466392004,0.00823987182421607
1,439,13,0.00363164721141375,0.00843823910887312
2,439,13,0.0155489433127337,0.00721751735713741
3,439,13,0.0339513237201495,0.007690547035935
4,439,13,0.0163729304951553,0.0102235446707866
0,440,13,0.0184328984512093,0.00721751735713741
1,440,13,0.00146486610208286,0.0153505760280766
2,440,13,0.00161745632104982,0.0076752880140383
3,440,13,0.00199893186846723,0.00762951094834821
0,441,13,0.0130769817654688,0.0098268101014725
1,441,13,0.0393682764934768,0.00970473792629892
2,441,13,0.00158693827725643,0.00756847486076143
3,441,13,0.020355535210193,0.0168917372396429
1,442,13,0.0742961776150149,0.00755321583886473
2,442,13,0.00178530556191348,0.017944609750515
3,442,13,0.0423132677195392,0.0103761348897536
1,443,13,0.00160219729915312,0.00770580605783169
2,443,13,0.0433203631647211,0.00796520943007553
1,444,13,0.00228885328450446,0.00718699931334401
1,422,14,0.00332646677347982,0.00840772106507973
2,422,14,0.0192721446555276,0.00785839627679866
1,423,14,0.0788586251621271,0.00691233691920348
2,423,14,0.00173952849622339,0.0154421301594568
1,424,14,0.0501258869306477,0.0093842984664683
2,424,14,0.00738536659800107,0.0157778286411841
3,424,14,0.00869764248111696,0.00874341954680705
1,425,14,0.033829251544976,0.00752269779507134
2,425,14,0.0250095368886854,0.0184939345387961
3,425,14,0.00953688868543526,0.00907911802853437
0,426,14,0.0251621271076524,0.00827038986800946
1,426,14,0.004272526131075,0.00781261921110857
2,426,14,0.00238040741588464,0.00796520943007553
3,426,14,0.00219729915312428,0.0139925230792706
0,427,14,0.0138399328603037,0.0234988937209125
1,427,14,0.0602273594262608,0.00866712443732357
2,427,14,0.00183108262760357,0.0104371709773404
3,427,14,0.0105287251087205,0.00802624551766232
4,427,14,0.0122987716487373,0.0245212481879911
0,428,14,0.0124513618677043,0.0176241702906844
1,428,14,0.00398260471503777,0.0131074998092622
2,428,14,0.00865186541542687,0.00747692072938125
3,428,14,0.0262455176623178,0.0125276569771878
4,428,14,0.0369115739681086,0.00935378042267491
0,429,14,0.00785839627679866,0.0076600289921416
1,429,14,0.0100556954299229,0.0117952239261463
2,429,14,0.00189211871519036,0.00778210116731518
3,429,14,0.0651712825207904,0.00741588464179446
4,429,14,0.0715342946517128,0.00874341954680705
0,430,14,0.0399633783474479,0.00743114366369116
1,430,14,0.0321049820706493,0.0143434805828946
2,430,14,0.0148470283054856,0.0118867780575265
3,430,14,0.00210574502174411,0.0081025406271458
4,430,14,0.00155642023346304,0.00741588464179446
0,431,14,0.00334172579537652,0.0113679713130388
1,431,14,0.068863965819791,0.00704966811627375
2,431,14,0.0465705348287175,0.00753795681696803
3,431,14,0.00166323338673991,0.00791943236438544
4,431,14,0.00239566643778134,0.0142366674296178
0,432,14,0.00250247959105821,0.0174715800717174
1,432,14,0.0093842984664683,0.0191042954146639
2,432,14,0.0643625543602655,0.007690547035935
3,432,14,0.00192263675898375,0.00712596322575723
0,433,14,0.0287327382314794,0.0168764782177462
1,433,14,0.044937819485771,0.00740062561989776
2,433,14,0.110002288853285,0.0101930266269932
3,433,14,0.00540169375143053,0.0122529945830472
4,433,14,0.0211490043488212,0.011459525444419
0,434,14,0.0352788586251621,0.00660715648126955
1,434,14,0.00181582360570687,0.00761425192645151
2,434,14,0.0176546883344778,0.00773632410162509
3,434,14,0.026489662012665,0.00813305867093919
4,434,14,0.0130922407873655,0.0207370107576104
0,435,14,0.00628671702143893,0.00782787823300526
1,435,14,0.0137026016632334,0.00732433051041428
2,435,14,0.0417639429312581,0.0144350347142748
3,435,14,0.00915541313801785,0.00781261921110857
4,435,14,0.0387273975738155,0.00746166170748455
0,436,14,0.0158541237506676,0.00746166170748455
1,436,14,0.0309910734721904,0.00804150453955901
2,436,14,0.0274357213702602,0.00733958953231098
3,436,14,0.0217288471808957,0.00708018616006714
4,436,14,0.00697337300679027,0.00743114366369116
0,437,14,0.0287174792095827,0.0072632944228275
1,437,14,0.0055237659266041,0.0111848630502785
2,437,14,0.0107270923933776,0.0101930266269932
3,437,14,0.00764476997024491,0.00776684214541848
4,437,14,0.00193789578088045,0.00727855344472419
0,438,14,0.0614175631342031,0.00880445563439384
1,438,14,0.0025482566567483,0.0120546272983902
2,438,14,0.0472877088578622,0.010406652933547
3,438,14,0.0252994583047227,0.00758373388265812
4,438,14,0.00614938582436866,0.00685130083161669
0,439,14,0.062027924010071,0.0137178606851301
1,439,14,0.0384985122453651,0.00758373388265812
2,439,14,0.0501716639963378,0.0139772640573739
3,439,14,0.00163271534294652,0.0150606546120394
0,440,14,0.10965133134966,0.00975051499198901
1,440,14,0.00143434805828946,0.00747692072938125
2,440,14,0.00160219729915312,0.00752269779507134
3,440,14,0.00195315480277714,0.00912489509422446
1,441,14,0.0340428778515297,0.00746166170748455
2,441,14,0.00173952849622339,0.0220035095750362
3,441,14,0.00216678110933089,0.00712596322575723
1,442,14,0.0140383001449607,0.018142977035172
2,442,14,0.00202944991226062,0.0138551918822004
1,443,14,0.0531013962005035,0.00794995040817884
1,422,15,0.00170901045243,0.00753795681696803
2,422,15,0.043579766536965,0.0072480354009308
1,423,15,0.00248722056916152,0.00788891432059205
2,423,15,0.0179751277943084,0.00778210116731518
1,424,15,0.0949568932631418,0.00720225833524071
2,424,15,0.00587472343022812,0.00831616693369955
3,424,15,0.0127870603494316,0.0105745021744106
1,425,15,0.00164797436484321,0.00750743877317464
2,425,15,0.00302128633554589,0.0128633554589151
3,425,15,0.0278782330052644,0.0162508583199817
0,426,15,0.0473182269016556,0.00735484855420768
1,426,15,0.0366369115739681,0.00749217975127794
2,426,15,0.0135042343785763,0.0281071183337148
3,426,15,0.0299992370489052,0.00737010757610437
0,427,15,0.0025482566567483,0.00743114366369116
1,427,15,0.0108186465247578,0.00779736018921187
2,427,15,0.0919050888838026,0.0133669031815061
3,427,15,0.049759670405127,0.00776684214541848
0,428,15,0.00660715648126955,0.00669871061264973
1,428,15,0.127656977187762,0.00785839627679866
2,428,15,0.0021515220874342,0.00798046845197223
3,428,15,0.0016937514305333,0.00926222629129473
4,428,15,0.0290989547570001,0.0106965743495842
0,429,15,0.00228885328450446,0.00839246204318303
1,429,15,0.0347447928587778,0.00798046845197223
2,429,15,0.044083314259556,0.0128023193713283
3,429,15,0.00433356221866178,0.00778210116731518
4,429,15,0.00187685969329366,0.018997482261387
0,430,15,0.0156404974441138,0.00744640268558785
1,430,15,0.0425574120698863,0.00770580605783169
2,430,15,0.0940718699931334,0.0133363851377127
3,430,15,0.0125886930647745,0.0072327763790341
4,430,15,0.0434882124055848,0.00878919661249714
1,431,15,0.0325322346837568,0.00962844281681544
2,431,15,0.00985732814526589,0.0153200579842832
3,431,15,0.039154650186923,0.00820935378042268
4,431,15,0.01025406271458,0.00732433051041428
1,432,15,0.00196841382467384,0.0242008087281605
2,432,15,0.0879072251468681,0.00776684214541848
3,432,15,0.00361638818951705,0.00773632410162509
4,432,15,0.0034027618829633,0.0080872816052491
0,433,15,0.00119020370794232,0.00817883573662928
1,433,15,0.00209048599984741,0.00752269779507134
2,433,15,0.0370183871213855,0.00753795681696803
3,433,15,0.00148012512397955,0.00791943236438544
4,433,15,0.00183108262760357,0.0184786755168994
0,434,15,0.00814831769283589,0.00782787823300526
1,434,15,0.00175478751812009,0.0189059281300069
2,434,15,0.0325474937056535,0.01879911497673
3,434,15,0.00195315480277714,0.0126344701304646
4,434,15,0.0257724879835203,0.0125886930647745
0,435,15,0.0496986343175402,0.00703440909437705
1,435,15,0.0875410086213474,0.010406652933547
2,435,15,0.00987258716716258,0.0134889753566796
3,435,15,0.0260013733119707,0.00700389105058366
4,435,15,0.0372777904936294,0.00784313725490196
0,436,15,0.0826581216144045,0.007690547035935
1,436,15,0.00653086137178607,0.0148165102616922
2,436,15,0.049210345616846,0.00764476997024491
3,436,15,0.00607309071488518,0.00794995040817884
0,437,15,0.0147554741741054,0.00764476997024491
1,437,15,0.00184634164950027,0.0151369497215229
2,437,15,0.0208133058670939,0.00735484855420768
3,437,15,0.0518043793392844,0.0114137483787289
0,438,15,0.0587472343022812,0.00953688868543526
1,438,15,0.00280766002899214,0.00788891432059205
2,438,15,0.0706492713817044,0.00727855344472419
3,438,15,0.00146486610208286,0.00781261921110857
0,439,15,0.0249179827573053,0.00744640268558785
1,439,15,0.00152590218966964,0.0076600289921416
2,439,15,0.00180056458381018,0.00747692072938125
3,439,15,0.00236514839398795,0.0123292896925307
1,440,15,0.0731059739070726,0.0111696040283818
2,440,15,0.00180056458381018,0.00727855344472419
1,441,15,0.0163271534294652,0.00833142595559625
2,441,15,0.00209048599984741,0.00756847486076143
1,442,15,0.00157167925535973,0.00904859998474098
1,422,16,0.00103761348897536,0.0125429159990845
2,422,16,0.0284428168154421,0.00778210116731518
1,423,16,0.00209048599984741,0.0126802471961547
2,423,16,0.030258640421149,0.00735484855420768
1,424,16,0.0276035706111238,0.00756847486076143
2,424,16,0.00193789578088045,0.00729381246662089
3,424,16,0.0246433203631647,0.00848401617456321
1,425,16,0.0021515220874342,0.0225375753414206
2,425,16,0.0286869611657893,0.0118257419699397
3,425,16,0.0168917372396429,0.00714122224765393
1,426,16,0.0465857938506142,0.0068207827878233
2,426,16,0.00181582360570687,0.00817883573662928
3,426,16,0.0378118562600137,0.0187228198672465
0,427,16,0.0453192950331884,0.0138094148165103
1,427,16,0.00141908903639277,0.0185702296482795
2,427,16,0.0427862973983368,0.00735484855420768
3,427,16,0.0392919813839933,0.00813305867093919
1,428,16,0.0683299000534066,0.00964370183871214
2,428,16,0.0205386434729534,0.0171206225680934
3,428,16,0.0638590066376745,0.00962844281681544
1,429,16,0.0336461432822156,0.00730907148851759
2,429,16,0.0746471351186389,0.0076752880140383
3,429,16,0.0143434805828946,0.0133363851377127
1,430,16,0.0141451132982376,0.00776684214541848
2,430,16,0.0325780117494469,0.00741588464179446
3,430,16,0.0322270542458228,0.0184634164950027
1,431,16,0.0174868390936141,0.0135805294880598
2,431,16,0.0473029678797589,0.00733958953231098
3,431,16,0.029205767910277,0.0072327763790341
1,432,16,0.00236514839398795,0.0153505760280766
2,432,16,0.00151064316777295,0.00927748531319142
3,432,16,0.00154116121156634,0.0220340276188296
1,433,16,0.061875333791104,0.0111848630502785
2,433,16,0.0423437857633326,0.00779736018921187
3,433,16,0.0563210498207065,0.00790417334248875
1,434,16,0.0843976501106279,0.00749217975127794
2,434,16,0.0502174410620279,0.00805676356145571
3,434,16,0.00177004654001678,0.0233005264362554
1,435,16,0.0544594491493095,0.00804150453955901
2,435,16,0.0468757152666514,0.0154268711375601
3,435,16,0.036240177004654,0.00714122224765393
1,436,16,0.00550850690470741,0.00758373388265812
2,436,16,0.0143434805828946,0.00715648126955062
3,436,16,0.0245670252536812,0.00764476997024491
1,437,16,0.0483405813687343,0.0072327763790341
2,437,16,0.00144960708018616,0.0110475318532082
3,437,16,0.00404364080262455,0.00756847486076143
1,438,16,0.089768825818265,0.0072327763790341
2,438,16,0.00241092545967803,0.00775158312352178
3,438,16,0.00587472343022812,0.00746166170748455
1,439,16,0.0777294575417716,0.00843823910887312
2,439,16,0.00239566643778134,0.00741588464179446
1,440,16,0.00221255817502098,0.00801098649576562
2,440,16,0.00239566643778134,0.00915541313801785
1,441,16,0.0610818646524758,0.00759899290455482
1,422,17,0.00782787823300526,0.00744640268558785
2,422,17,0.0507515068284123,0.0076600289921416
1,423,17,0.0021362630655375,0.00793469138628214
2,423,17,0.00323491264209964,0.0072327763790341
1,424,17,0.012314030670634,0.00781261921110857
2,424,17,0.0614938582436866,0.0145723659113451
3,424,17,0.0127260242618448,0.0116273746852827
1,425,17,0.00135805294880598,0.00805676356145571
2,425,17,0.00189211871519036,0.0072480354009308
3,425,17,0.085999847409781,0.00860608834973678
1,426,17,0.0338902876325628,0.00914015411612116
2,426,17,0.0271763179980163,0.00741588464179446
3,426,17,0.00434882124055848,0.0205386434729534
1,427,17,0.0212405584802014,0.00701915007248035
2,427,17,0.00749217975127794,0.00946059357595178
3,427,17,0.00189211871519036,0.00761425192645151
1,428,17,0.00727855344472419,0.0273136491950866
2,428,17,0.0461280231937133,0.00689707789730678
3,428,17,0.00141908903639277,0.0120698863202869
1,429,17,0.0226749065384909,0.0154116121156634
2,429,17,0.00782787823300526,0.00790417334248875
3,429,17,0.00286869611657893,0.0112916762035554
1,430,17,0.0957961394674601,0.00747692072938125
2,430,17,0.0623483634699016,0.00840772106507973
3,430,17,0.0754100862134737,0.00737010757610437
1,431,17,0.0685282673380636,0.00946059357595178
2,431,17,0.00231937132829786,0.00773632410162509
3,431,17,0.0231021591515984,0.00703440909437705
1,432,17,0.00950637064164187,0.00782787823300526
2,432,17,0.00134279392690929,0.00743114366369116
3,432,17,0.00193789578088045,0.00764476997024491
1,433,17,0.00143434805828946,0.00787365529869535
2,433,17,0.0997177080949111,0.013824673838407
3,433,17,0.0112764171816587,0.00714122224765393
1,434,17,0.00158693827725643,0.00764476997024491
2,434,17,0.0334630350194553,0.00732433051041428
3,434,17,0.0990920881971466,0.0123750667582208
1,435,17,0.00222781719691768,0.00735484855420768
2,435,17,0.00177004654001678,0.0148165102616922
3,435,17,0.00230411230640116,0.0068055237659266
1,436,17,0.0713664454108492,0.00743114366369116
2,436,17,0.00524910353246357,0.0257572289616236
1,437,17,0.0375677119096666,0.00790417334248875
2,437,17,0.0370336461432822,0.0116426337071794
1,438,17,0.0390020599679561,0.017792019531548
2,438,17,0.0021515220874342,0.00758373388265812
1,439,17,0.030060273136492,0.00802624551766232
2,439,17,0.00160219729915312,0.00746166170748455
1,440,17,0.00326543068589303,0.0109254596780346
