x,y,z,signal,cytoplasm.p
741,449,50,0.0695554343171771,1
741,450,50,0.0728568188274071,1
741,451,50,0.0678983869103569,1
742,441,50,0.0683464700288889,1
742,450,50,0.0728664324169328,1
742,451,50,0.0697072032464008,1
751,457,50,0.0724203918118141,1
752,457,50,0.0944093544766336,1
752,458,50,0.0789710378066957,1
753,457,50,0.0744072901604378,1
757,461,50,0.071145084771135,1
758,461,50,0.103685192546841,1
758,462,50,0.152490493507658,1
759,461,50,0.111984373778086,1
760,461,50,0.0871621395305243,1
739,446,51,0.0708226192224064,1
739,447,51,0.0755943198911912,1
740,447,51,0.0688405067043317,1
740,448,51,0.0720599031688116,1
740,449,51,0.0752179224047118,1
740,450,51,0.0832396452596247,1
740,451,51,0.0825154035460237,1
741,440,51,0.082108422266324,1
741,448,51,0.0692770774745343,1
741,449,51,0.0754168128970502,1
741,450,51,0.0825944086836218,1
741,451,51,0.0797753747970185,1
741,452,51,0.0721241135611582,1
742,439,51,0.0735686317570417,1
742,440,51,0.100559907433532,1
742,441,51,0.0778253015875876,1
742,449,51,0.0683215825120792,1
742,450,51,0.0769433790364378,1
742,451,51,0.0744750884282523,1
742,452,51,0.0680346662803821,1
743,440,51,0.0706813084410407,1
743,450,51,0.0685098531326238,1
743,451,51,0.0699573542366592,1
751,456,51,0.0685145491165417,1
751,457,51,0.0943073306321523,1
751,458,51,0.0803203125838569,1
752,456,51,0.0861793791104235,1
752,457,51,0.127896751222489,1
752,458,51,0.10731480476974,1
753,457,51,0.0921722033115695,1
753,458,51,0.0779911644583403,1
757,461,51,0.0811454520641629,1
757,462,51,0.108620000789692,1
758,461,51,0.120499067128419,1
758,462,51,0.178184270025592,1
758,463,51,0.153870645577035,1
759,460,51,0.0707312092599436,1
759,461,51,0.130522057803154,1
759,462,51,0.193657992257952,1
759,463,51,0.168186616100823,1
760,461,51,0.0969911453389772,1
760,462,51,0.132579090432,1
761,461,51,0.0762611376279799,1
789,430,51,0.0797651981686046,1
790,430,51,0.0919021542874141,1
791,430,51,0.0757246873528911,1
740,447,52,0.0726371737632887,1
740,448,52,0.0742226673131152,1
741,440,52,0.0777516393296512,1
741,441,52,0.0680152354489667,1
741,448,52,0.0713800397011898,1
741,449,52,0.0791389012624338,1
741,450,52,0.0962172663565912,1
741,451,52,0.0987649274786745,1
742,439,52,0.0715136715904857,1
742,440,52,0.0905431940434223,1
742,441,52,0.0770688828005085,1
742,449,52,0.0715461721118357,1
742,450,52,0.0796311410052549,1
742,451,52,0.080589900395306,1
742,452,52,0.0752380720091758,1
742,453,52,0.0711674086640712,1
743,440,52,0.068049467015409,1
743,450,52,0.0729124878000255,1
743,451,52,0.0753848634350375,1
743,452,52,0.0726627021860668,1
743,453,52,0.0688068202074513,1
744,451,52,0.071196123647365,1
744,452,52,0.0710558371175936,1
744,453,52,0.0687861015743238,1
745,453,52,0.0690132817759023,1
745,454,52,0.0679863168133091,1
746,453,52,0.0680743605219941,1
746,454,52,0.071743714904708,1
747,454,52,0.0740778405335864,1
747,455,52,0.0687652092377096,1
748,454,52,0.0726820192117494,1
748,455,52,0.0692964723672972,1
750,457,52,0.0691484829863544,1
751,427,52,0.0737349857893776,1
751,456,52,0.0802499566819443,1
751,457,52,0.10604923710387,1
751,458,52,0.0946909877264231,1
751,459,52,0.0699390434932447,1
752,427,52,0.070371487308193,1
752,456,52,0.102290868668855,1
752,457,52,0.145642838509522,1
752,458,52,0.127588744991589,1
752,459,52,0.0806982374630646,1
753,456,52,0.0753632163867221,1
753,457,52,0.105237059497541,1
753,458,52,0.0944011484843281,1
756,462,52,0.071315368096137,1
757,461,52,0.0864678706530523,1
757,462,52,0.10967665706897,1
758,460,52,0.0795415579242908,1
758,461,52,0.126810158045735,1
758,462,52,0.178293990731469,1
759,460,52,0.0828988270390537,1
759,461,52,0.136585447548351,1
759,462,52,0.19417736568336,1
760,460,52,0.073437677297352,1
760,461,52,0.103754530186935,1
761,461,52,0.0817187574273215,1
762,461,52,0.0691621276947281,1
776,428,52,0.0692797968325684,1
777,427,52,0.071780587962104,1
777,428,52,0.081741410757905,1
778,427,52,0.0679361704136146,1
778,428,52,0.0712247907124555,1
790,430,52,0.0722096116152958,1
741,448,53,0.071527148585148,1
742,440,53,0.0742707652096211,1
742,441,53,0.0706163792756454,1
742,448,53,0.0680738454013092,1
742,449,53,0.0730869999064637,1
742,450,53,0.0818257228365123,1
742,451,53,0.0871211215485477,1
742,452,53,0.0822729374376105,1
743,449,53,0.0693128184643788,1
743,450,53,0.0746166088517572,1
743,451,53,0.0781184531754818,1
743,452,53,0.077007361817319,1
743,453,53,0.0750509574152844,1
743,454,53,0.072889229502126,1
744,450,53,0.0718576404329199,1
744,451,53,0.0745363099226715,1
744,452,53,0.0746504391032472,1
744,453,53,0.0747720375337536,1
744,454,53,0.0742561621371825,1
744,455,53,0.0712973388721665,1
745,449,53,0.0691729512188858,1
745,450,53,0.0711486546772767,1
745,451,53,0.0704753859523762,1
745,452,53,0.0714882749427665,1
745,453,53,0.0757134325649042,1
745,454,53,0.0776799477078232,1
745,455,53,0.0732982473054636,1
745,456,53,0.0702701942163112,1
745,457,53,0.0714637348329303,1
746,449,53,0.0721937806388992,1
746,450,53,0.070856443484121,1
746,452,53,0.0691349640632643,1
746,453,53,0.0796060558258568,1
746,454,53,0.0869126354360096,1
746,455,53,0.0797511820941558,1
746,456,53,0.0718198329705606,1
746,457,53,0.0720688578830428,1
746,458,53,0.0754531708337614,1
747,452,53,0.0683938311830199,1
747,453,53,0.0870210743299502,1
747,454,53,0.0995335953564578,1
747,455,53,0.0894791643506202,1
747,456,53,0.0741067891181211,1
747,457,53,0.0713695815533318,1
747,458,53,0.0723147321736617,1
747,459,53,0.0726196416906769,1
748,453,53,0.0856196885067615,1
748,454,53,0.100048638174247,1
748,455,53,0.0917011973225608,1
748,456,53,0.075328661372408,1
748,457,53,0.0700923697640738,1
748,458,53,0.0683332985127723,1
748,459,53,0.069013647152202,1
749,453,53,0.0682387019897938,1
749,454,53,0.080476519936656,1
749,455,53,0.0803216303344461,1
749,456,53,0.0728072773950285,1
749,457,53,0.0707181275904581,1
749,458,53,0.0698011289145339,1
749,459,53,0.0698774686020765,1
749,460,53,0.0702611736145506,1
750,455,53,0.0716871893942066,1
750,456,53,0.07642622182793,1
750,457,53,0.0817327315733424,1
750,458,53,0.0824882459043353,1
750,459,53,0.0759410739791889,1
750,460,53,0.0707633503947693,1
751,455,53,0.0681865370357876,1
751,456,53,0.0895407152826867,1
751,457,53,0.109452962916678,1
751,458,53,0.107799904700277,1
751,459,53,0.0848410776018051,1
751,460,53,0.0713099653187212,1
752,427,53,0.0800839201077048,1
752,455,53,0.06881086330585,1
752,456,53,0.107247012491701,1
752,457,53,0.139235036678509,1
752,458,53,0.13315449221655,1
752,459,53,0.0931453920705724,1
752,460,53,0.0713709651914505,1
753,456,53,0.0841142003870257,1
753,457,53,0.108402835492591,1
753,458,53,0.106773341052636,1
753,459,53,0.0804334354821645,1
753,460,53,0.0691101244646578,1
753,461,53,0.0686425026987532,1
754,457,53,0.0736033185464147,1
754,458,53,0.0756140142727244,1
754,461,53,0.0692323578113572,1
754,462,53,0.0709588926026561,1
755,461,53,0.0694134766400676,1
755,462,53,0.0720025750284059,1
756,461,53,0.0732936052295244,1
756,462,53,0.0779758785515055,1
757,460,53,0.0763725654198478,1
757,461,53,0.0910274254565263,1
758,460,53,0.0916590592525834,1
758,461,53,0.126309664392405,1
759,460,53,0.0952423106138437,1
759,461,53,0.13547290666454,1
760,460,53,0.0831740392496086,1
760,461,53,0.108073877027323,1
761,460,53,0.0702827068571332,1
761,461,53,0.085053181538688,1
762,461,53,0.071236985895181,1
776,427,53,0.0699064830741406,1
776,428,53,0.0773289049406351,1
777,427,53,0.0798415138970456,1
777,428,53,0.0951224072897771,1
777,429,53,0.0750654826206427,1
778,427,53,0.0712452637647914,1
778,428,53,0.0791128038109922,1
791,433,53,0.0680781340804995,1
792,433,53,0.0693710151222183,1
742,448,54,0.0708506094428761,1
743,442,54,0.068580203044761,1
743,449,54,0.072696460560252,1
743,450,54,0.0788808497584156,1
743,451,54,0.0840190887433624,1
743,452,54,0.0840899058579812,1
744,442,54,0.069643166557541,1
744,449,54,0.0705063051730192,1
744,450,54,0.078023305593166,1
744,451,54,0.08093822380446,1
744,452,54,0.0808307852030122,1
744,453,54,0.0827444884961811,1
744,454,54,0.0840174235857997,1
745,449,54,0.0721031134085866,1
745,450,54,0.0773605010058989,1
745,451,54,0.0774022856791274,1
745,452,54,0.0771465522181911,1
745,453,54,0.0827672855813743,1
745,454,54,0.0862858653375818,1
745,455,54,0.0817839022246313,1
746,449,54,0.0729770216402439,1
746,450,54,0.0753125848152197,1
746,451,54,0.0735190963144385,1
746,452,54,0.0752507284046075,1
746,453,54,0.0894005066199956,1
746,454,54,0.100751160962228,1
746,455,54,0.091304141100708,1
746,456,54,0.0798175967238516,1
746,457,54,0.0800515513614137,1
747,450,54,0.0688995059920755,1
747,451,54,0.0700239066311893,1
747,452,54,0.0770801495680462,1
747,453,54,0.105113586267333,1
747,454,54,0.126255540781841,1
747,455,54,0.110442090468034,1
747,456,54,0.085681874355021,1
747,457,54,0.0806958235835762,1
747,458,54,0.0797578067857543,1
748,452,54,0.0751901897445845,1
748,453,54,0.104269722749109,1
748,454,54,0.12665763440481,1
748,455,54,0.112401921021601,1
748,456,54,0.0876531573591627,1
748,457,54,0.0803438284420987,1
748,458,54,0.0768878358491029,1
748,459,54,0.0767590077596822,1
749,453,54,0.0797345305185286,1
749,454,54,0.0937516651575627,1
749,455,54,0.0910587999001001,1
749,456,54,0.0822921466473358,1
749,457,54,0.0805010540567168,1
749,458,54,0.0791375655425184,1
749,459,54,0.0778135436584666,1
750,454,54,0.0726754424383542,1
750,455,54,0.0793539701381424,1
750,456,54,0.0844462735355047,1
750,457,54,0.0890901763562385,1
750,458,54,0.0909774048421153,1
750,459,54,0.0844468904823715,1
750,460,54,0.0784848297677079,1
751,455,54,0.0756635736744292,1
751,456,54,0.0940776646737805,1
751,457,54,0.108486740266471,1
751,458,54,0.111171225828142,1
751,459,54,0.0946991158516483,1
751,460,54,0.0815462219467671,1
752,455,54,0.0755379860535028,1
752,456,54,0.104475028290907,1
752,457,54,0.124915172800708,1
752,458,54,0.124433786530921,1
752,459,54,0.0984741777907178,1
752,460,54,0.0816132894619821,1
752,461,54,0.0779966810414887,1
753,456,54,0.0889450141492871,1
753,457,54,0.108310017932908,1
753,458,54,0.110060697508867,1
753,459,54,0.0904938442838567,1
753,460,54,0.0794460629350014,1
753,461,54,0.0805238691112362,1
754,456,54,0.0701599883386261,1
754,457,54,0.0804644205903369,1
754,458,54,0.0837951550000537,1
754,459,54,0.0775019974703022,1
754,460,54,0.075962864782114,1
754,461,54,0.080122464312439,1
755,458,54,0.068399210001334,1
755,459,54,0.0704994828188324,1
755,460,54,0.0739680239913027,1
755,461,54,0.0783128992544694,1
756,459,54,0.0693807544970275,1
756,460,54,0.0760985990825773,1
756,461,54,0.0811259613349935,1
757,459,54,0.0722413454453939,1
757,460,54,0.0844912567487997,1
757,461,54,0.094518086869569,1
758,459,54,0.0757071972087072,1
758,460,54,0.0980702512964749,1
758,461,54,0.119315858874375,1
759,459,54,0.0764426278227655,1
759,460,54,0.101745751188755,1
759,461,54,0.127248813257778,1
760,459,54,0.0720146504156233,1
760,460,54,0.0887879203097279,1
760,461,54,0.106197603840663,1
761,459,54,0.0679254307463126,1
761,460,54,0.0751757424063065,1
761,461,54,0.0861587862625795,1
762,461,54,0.0751444817684654,1
763,461,54,0.0678441494940604,1
776,427,54,0.0739817944849598,1
776,428,54,0.0760780301938349,1
777,426,54,0.0684881282172282,1
777,427,54,0.0867180755512893,1
777,428,54,0.0941243849219432,1
777,429,54,0.0716619544704234,1
778,427,54,0.0732135818301074,1
778,428,54,0.0770629828717341,1
791,433,54,0.104046292146935,1
791,434,54,0.0896173724283259,1
792,433,54,0.0962186440049344,1
792,434,54,0.0835914067998614,1
743,443,55,0.0756781048695628,1
743,453,55,0.0930502444882566,1
743,454,55,0.0939805464553563,1
744,441,55,0.0915484340906198,1
744,442,55,0.112503291980563,1
744,443,55,0.0909573031558545,1
744,449,55,0.072392455499323,1
744,450,55,0.0817425847538844,1
744,451,55,0.0863540768998993,1
744,452,55,0.0869543841705857,1
744,453,55,0.092031293845156,1
744,454,55,0.0961747868694156,1
744,455,55,0.0915131902521341,1
745,441,55,0.0946131685643553,1
745,442,55,0.113533892736827,1
745,443,55,0.0899169390656794,1
745,449,55,0.0723343966063178,1
745,450,55,0.0805692656190342,1
745,451,55,0.0844170494213014,1
745,452,55,0.085453238638019,1
745,453,55,0.0920832970752262,1
745,454,55,0.0977332545526127,1
746,441,55,0.0740754026949964,1
746,442,55,0.08058419812912,1
746,449,55,0.0712542424381242,1
746,450,55,0.077367431176043,1
746,451,55,0.0805477743048794,1
746,452,55,0.08421198347052,1
746,453,55,0.0976276548122143,1
746,454,55,0.11281908491949,1
746,455,55,0.101422722601138,1
747,449,55,0.0699468900990258,1
747,450,55,0.0751003670726041,1
747,451,55,0.0798999261867997,1
747,452,55,0.0893497312938835,1
747,453,55,0.117968434937814,1
747,454,55,0.14676967099745,1
747,455,55,0.125893398960827,1
747,456,55,0.0996501803449497,1
747,457,55,0.0900425566354828,1
748,442,55,0.0703341949665186,1
748,448,55,0.0681438179575958,1
748,449,55,0.0682097294461576,1
748,450,55,0.072384123721734,1
748,451,55,0.0771036534467372,1
748,452,55,0.0876507973876529,1
748,453,55,0.114745396689887,1
748,454,55,0.14357125072644,1
748,455,55,0.123875635299539,1
748,456,55,0.0996035439536428,1
748,457,55,0.0891513978506577,1
748,458,55,0.0856009165506407,1
749,442,55,0.0684753340569621,1
749,448,55,0.0714946480637979,1
749,449,55,0.0726552149668099,1
749,450,55,0.0727963400651381,1
749,451,55,0.0714240645504199,1
749,452,55,0.076531018938424,1
749,453,55,0.0884546671754941,1
749,454,55,0.10389524199076,1
749,455,55,0.0974277879864848,1
749,456,55,0.0909379981097227,1
749,457,55,0.0888443739429244,1
749,458,55,0.0882774476905726,1
750,448,55,0.0680239865108341,1
750,449,55,0.0720695826458668,1
750,450,55,0.0698994810266916,1
750,453,55,0.0721591417677293,1
750,454,55,0.080191777993431,1
750,455,55,0.0836185464722235,1
750,456,55,0.0883772672977047,1
750,457,55,0.0940601086420671,1
750,458,55,0.0973384744454139,1
750,459,55,0.0935383512860479,1
751,454,55,0.0702328659359844,1
751,455,55,0.0795499436098584,1
751,456,55,0.0916248875838952,1
751,457,55,0.105981660457745,1
751,458,55,0.110885980743783,1
751,459,55,0.102579947209474,1
752,455,55,0.0780742666023157,1
752,456,55,0.095599798379368,1
752,457,55,0.114174870582517,1
752,458,55,0.117097988796341,1
752,459,55,0.104064321370905,1
752,460,55,0.0906541306737069,1
753,455,55,0.0725699265548115,1
753,456,55,0.0883544642227361,1
753,457,55,0.10637881850578,1
753,458,55,0.109440707836198,1
753,459,55,0.098149478055763,1
753,460,55,0.0888395581634984,1
754,456,55,0.0771122427846686,1
754,457,55,0.0879506994524291,1
754,458,55,0.0922350061066958,1
754,459,55,0.0881857202700133,1
754,460,55,0.0859361582903092,1
755,456,55,0.0719060497977469,1
755,457,55,0.075484084064629,1
755,458,55,0.0792138273629808,1
755,459,55,0.0812403360963608,1
755,460,55,0.0839458876981322,1
756,457,55,0.068309495145311,1
756,458,55,0.0732117609383841,1
756,459,55,0.0797957699822741,1
756,460,55,0.0858484200601699,1
757,458,55,0.068826891944835,1
757,459,55,0.0812557777373561,1
757,460,55,0.091833798970487,1
757,461,55,0.0978719657714524,1
758,459,55,0.0834471071205683,1
758,460,55,0.100903241359773,1
758,461,55,0.11155706320066,1
759,459,55,0.0844658181726527,1
759,460,55,0.104506354816278,1
759,461,55,0.11793750373762,1
760,459,55,0.0800391285672227,1
760,460,55,0.0924041573641461,1
760,461,55,0.10228679562158,1
761,458,55,0.0691477582235304,1
761,459,55,0.0764874313427984,1
761,460,55,0.0800297725380394,1
761,461,55,0.0865630002660419,1
762,458,55,0.0682270578664056,1
762,459,55,0.0735336215197967,1
762,460,55,0.0739795543089582,1
762,461,55,0.0791729291765123,1
763,460,55,0.069012065851495,1
763,461,55,0.0734801088663243,1
776,427,55,0.076309475115502,1
776,428,55,0.0682086992047878,1
777,426,55,0.0758036505620614,1
777,427,55,0.08788024771411,1
777,428,55,0.0798985844771089,1
777,458,55,0.0835162291287474,1
777,459,55,0.0707804212546749,1
778,427,55,0.0730503844094101,1
778,428,55,0.0679928456685011,1
778,458,55,0.0785501662378307,1
783,456,55,0.0755304329467165,1
784,429,55,0.0695604597387423,1
784,456,55,0.0712770275437666,1
742,453,56,0.102707457548305,1
742,454,56,0.0996851007355636,1
743,452,56,0.0975112015987813,1
743,453,56,0.101471778861709,1
743,454,56,0.103856476164336,1
743,455,56,0.0995324692786815,1
744,452,56,0.0943295227500295,1
744,453,56,0.100629520603294,1
744,454,56,0.105776738261574,1
744,455,56,0.10028533013917,1
744,456,56,0.0938939343029933,1
745,440,56,0.0738121400863754,1
745,441,56,0.123467264391945,1
745,442,56,0.166079041747105,1
745,443,56,0.122999702523794,1
745,449,56,0.0743887518055579,1
745,450,56,0.0837982457241629,1
745,451,56,0.0920390985225093,1
745,452,56,0.095485531433958,1
745,453,56,0.101947235253844,1
745,454,56,0.109519820789753,1
745,455,56,0.103451998610755,1
746,441,56,0.0871996415143379,1
746,442,56,0.105973729995109,1
746,443,56,0.0828021340946833,1
746,449,56,0.072055344949728,1
746,450,56,0.0807874851166061,1
746,451,56,0.0903520064022553,1
746,452,56,0.0957192464805038,1
746,453,56,0.107607345400543,1
746,454,56,0.124928254470193,1
746,455,56,0.114161932667641,1
746,456,56,0.101742684423747,1
747,442,56,0.0738757874398339,1
747,448,56,0.070369271091293,1
747,449,56,0.0733056446780893,1
747,450,56,0.0808858911367425,1
747,451,56,0.0917271929478205,1
747,452,56,0.10167225664453,1
747,453,56,0.125550029095933,1
747,454,56,0.154899904623608,1
747,455,56,0.13674806995061,1
747,456,56,0.111877108880125,1
748,441,56,0.0741271184158472,1
748,442,56,0.0871965567800041,1
748,443,56,0.0772114634142601,1
748,448,56,0.0722865862190314,1
748,449,56,0.0752188927483275,1
748,450,56,0.0808904912842539,1
748,451,56,0.0894422433750209,1
748,452,56,0.0993530275870846,1
748,453,56,0.119209121076649,1
748,454,56,0.146340683282911,1
748,455,56,0.129852616544737,1
748,456,56,0.109313508965688,1
749,441,56,0.076419944543305,1
749,442,56,0.0877341690715216,1
749,443,56,0.074438580747156,1
749,447,56,0.0697172840384082,1
749,448,56,0.0776666144677706,1
749,449,56,0.0866193580628319,1
749,450,56,0.0861223564485634,1
749,451,56,0.0833004953879688,1
749,452,56,0.0875444549151043,1
749,453,56,0.0959326921270775,1
749,454,56,0.109224093598435,1
749,455,56,0.103426853533603,1
749,456,56,0.0990009665580776,1
750,448,56,0.0820449126776999,1
750,449,56,0.0999783900882922,1
750,450,56,0.0956246080290975,1
750,451,56,0.0797866775032086,1
750,452,56,0.0784029435481398,1
750,453,56,0.0824297317883994,1
750,454,56,0.0880814861984074,1
750,455,56,0.0893473473632721,1
750,456,56,0.093433392451618,1
750,457,56,0.0993623177287385,1
751,448,56,0.0729993036047523,1
751,449,56,0.0896613433695774,1
751,450,56,0.0860886340130307,1
751,451,56,0.0719378794642515,1
751,452,56,0.0705965231701763,1
751,453,56,0.0753992928039892,1
751,454,56,0.0801477651237516,1
751,455,56,0.0849961409075018,1
751,456,56,0.0926841793643516,1
751,457,56,0.105549965364723,1
751,458,56,0.112533037205226,1
752,449,56,0.0688687365158176,1
752,450,56,0.069932149261753,1
752,453,56,0.0699915858031014,1
752,454,56,0.0759248776264926,1
752,455,56,0.0840161417738629,1
752,456,56,0.0956726040994215,1
752,457,56,0.112927176406457,1
752,458,56,0.121110623197317,1
753,454,56,0.0732638719844116,1
753,455,56,0.0823155307305188,1
753,456,56,0.0932063200659968,1
753,457,56,0.108432592696806,1
753,458,56,0.115331508192863,1
753,459,56,0.10778236663789,1
754,454,56,0.0721049582594115,1
754,455,56,0.0802862247720244,1
754,456,56,0.0885061972133073,1
754,457,56,0.0982204149658899,1
754,458,56,0.103812115887683,1
754,459,56,0.0998121318923627,1
755,454,56,0.0712496542701636,1
755,455,56,0.0789063003141134,1
755,456,56,0.0844258124627196,1
755,457,56,0.0877304614005456,1
755,458,56,0.0918232449862226,1
755,459,56,0.0930829067335426,1
756,454,56,0.0683477757999273,1
756,455,56,0.0746891150830403,1
756,456,56,0.0794758500880928,1
756,457,56,0.0807720434756108,1
756,458,56,0.0863677275980483,1
756,459,56,0.0925017188259503,1
757,457,56,0.0711067921369679,1
757,458,56,0.0807218132190606,1
757,459,56,0.0920501915865602,1
757,460,56,0.0995281266915126,1
758,458,56,0.0777343468480556,1
758,459,56,0.0928658672217256,1
758,460,56,0.104266787759161,1
759,458,56,0.0782827766739553,1
759,459,56,0.0946344562261463,1
759,460,56,0.107148588502238,1
760,458,56,0.0806402384678135,1
760,459,56,0.0922195345168235,1
760,460,56,0.098708252223788,1
761,458,56,0.0802686627505355,1
761,459,56,0.087287894865162,1
761,460,56,0.0878761327384065,1
762,458,56,0.0768471413149982,1
762,459,56,0.0829985388302285,1
762,460,56,0.0823732841449782,1
763,458,56,0.0685803827380231,1
763,459,56,0.0754572259117109,1
763,460,56,0.0775627218133628,1
764,459,56,0.0684144300206393,1
764,460,56,0.073134882171055,1
767,458,56,0.0700694109549446,1
767,459,56,0.067992917545806,1
776,427,56,0.0712749371121501,1
777,427,56,0.0797319010071256,1
777,457,56,0.0703848984153259,1
777,458,56,0.0878407990532896,1
777,459,56,0.0760039366720693,1
778,457,56,0.0678799982998621,1
778,458,56,0.0829235947603553,1
782,456,56,0.0683144486895713,1
783,455,56,0.0740521384073216,1
783,456,56,0.0854543407566936,1
785,437,56,0.0837734899824121,1
785,438,56,0.0937081254801404,1
786,438,56,0.073222410759055,1
788,448,56,0.0836644700802572,1
788,449,56,0.0731050171508833,1
789,448,56,0.0759405828176057,1
742,453,57,0.107125611723783,1
742,454,57,0.106343778319658,1
742,455,57,0.10708406664157,1
743,452,57,0.101806978672949,1
743,453,57,0.106643111355771,1
743,454,57,0.110665928374937,1
743,455,57,0.108248658673655,1
743,456,57,0.104844741188034,1
744,452,57,0.101038035265498,1
744,453,57,0.106900012822911,1
744,454,57,0.111929447537618,1
744,455,57,0.107166270319235,1
744,456,57,0.101998531690416,1
745,453,57,0.108893302261893,1
745,454,57,0.11719060270366,1
745,455,57,0.110875630411882,1
745,456,57,0.1019864802623,1
746,440,57,0.0756551760093107,1
746,441,57,0.099466989053949,1
746,442,57,0.129768651873103,1
746,443,57,0.103844748184092,1
746,444,57,0.0741559531946491,1
746,448,57,0.0711322486824411,1
746,452,57,0.105767705680262,1
746,453,57,0.116203679389652,1
746,454,57,0.131729919972767,1
746,455,57,0.123193579574118,1
746,456,57,0.108539007046659,1
747,439,57,0.0678634245913152,1
747,440,57,0.0707439854508835,1
747,441,57,0.0782976373067363,1
747,442,57,0.0874778546023709,1
747,443,57,0.0820521962445929,1
747,444,57,0.0689426144056686,1
747,447,57,0.0692037865826731,1
747,448,57,0.0736916138256667,1
747,449,57,0.0776460395892528,1
747,450,57,0.0863401087436537,1
747,451,57,0.100901564222659,1
747,452,57,0.110044549074374,1
747,453,57,0.125536132816992,1
747,454,57,0.144850007877753,1
747,455,57,0.13428415187847,1
747,456,57,0.114359822867487,1
748,440,57,0.0705567630410349,1
748,441,57,0.084011254117132,1
748,442,57,0.0974061768768218,1
748,443,57,0.0929786966210383,1
748,444,57,0.0735933635396908,1
748,446,57,0.0678597169203392,1
748,447,57,0.0727002341187574,1
748,448,57,0.0775966359217086,1
748,449,57,0.0828425291400178,1
748,450,57,0.0884420586982656,1
748,451,57,0.0996154815760259,1
748,452,57,0.108196511688975,1
748,453,57,0.119744858568465,1
748,454,57,0.134466576478219,1
748,455,57,0.125917933080887,1
749,440,57,0.0721504685729422,1
749,441,57,0.0883943381576102,1
749,442,57,0.0994011973608954,1
749,443,57,0.090736621860591,1
749,444,57,0.0713631784834234,1
749,446,57,0.0707819726065049,1
749,447,57,0.0756606087356035,1
749,448,57,0.0841217475040366,1
749,449,57,0.0979905753040314,1
749,450,57,0.0967435280237153,1
749,451,57,0.0944640471158608,1
749,452,57,0.0964261837329584,1
749,453,57,0.101750123724801,1
749,454,57,0.108091355191956,1
750,441,57,0.0744941239344908,1
750,442,57,0.078231096891757,1
750,443,57,0.0718608988707405,1
750,446,57,0.071977729440024,1
750,447,57,0.0778023427784584,1
750,448,57,0.0952334876746714,1
750,449,57,0.123793467560526,1
750,450,57,0.119943683173274,1
750,451,57,0.0999651107562183,1
750,452,57,0.0906492909351793,1
750,453,57,0.091508536196644,1
750,454,57,0.0944268026923897,1
750,455,57,0.0944708335313952,1
751,446,57,0.0692248526227741,1
751,447,57,0.0741949765814157,1
751,448,57,0.0899026714206635,1
751,449,57,0.119182490535197,1
751,450,57,0.118464723768809,1
751,451,57,0.0985063967926238,1
751,452,57,0.0867484676716967,1
751,453,57,0.086967226249055,1
751,454,57,0.0897100222742976,1
751,455,57,0.0908373399340339,1
751,456,57,0.0951270373861655,1
752,448,57,0.0742248296220366,1
752,449,57,0.0901968173112751,1
752,450,57,0.0940900395497682,1
752,451,57,0.0873040313201043,1
752,452,57,0.0826598290106003,1
752,453,57,0.084041095178202,1
752,454,57,0.0881694520400121,1
752,455,57,0.0916371246950486,1
752,456,57,0.0990606307108915,1
752,457,57,0.111523268887822,1
753,450,57,0.0723641777696338,1
753,451,57,0.075037109054547,1
753,452,57,0.0775136715425675,1
753,453,57,0.0811118374445874,1
753,454,57,0.086840195092256,1
753,455,57,0.0923672483680977,1
753,456,57,0.099864476539631,1
753,457,57,0.110185740060231,1
754,451,57,0.0699575698685738,1
754,452,57,0.0748167811560324,1
754,453,57,0.0796935904036323,1
754,454,57,0.0867705699429428,1
754,455,57,0.0932805633321475,1
754,456,57,0.0999866559783517,1
754,457,57,0.106628544221985,1
754,458,57,0.111206373830221,1
755,452,57,0.0724588821085696,1
755,453,57,0.0787328843365744,1
755,454,57,0.0859750139633644,1
755,455,57,0.0920981277591301,1
755,456,57,0.0962775234971701,1
755,457,57,0.0994616521640627,1
755,458,57,0.10228547787099,1
756,452,57,0.0720582440010243,1
756,453,57,0.0775986125475924,1
756,454,57,0.0828017088206295,1
756,455,57,0.0881184730615362,1
756,456,57,0.0914382521720363,1
756,457,57,0.09306314646448,1
756,458,57,0.0978151946801594,1
757,433,57,0.0707899749464466,1
757,434,57,0.0768321189582813,1
757,435,57,0.0682735804519798,1
757,452,57,0.0679290066422297,1
757,453,57,0.0707549347603246,1
757,454,57,0.0724255969266415,1
757,455,57,0.0761610424911792,1
757,456,57,0.0801290291062833,1
757,457,57,0.0839785679127444,1
757,458,57,0.092409488264257,1
757,459,57,0.101873285486688,1
758,434,57,0.0710418450022464,1
758,456,57,0.0704762724391362,1
758,457,57,0.078351197878412,1
758,458,57,0.0905891056719052,1
758,459,57,0.101978537820113,1
759,457,57,0.0778542801209992,1
759,458,57,0.0943076181413717,1
759,459,57,0.105353860117948,1
760,457,57,0.0792511556433076,1
760,458,57,0.0977254378957085,1
760,459,57,0.105629389786599,1
761,457,57,0.0751707768824954,1
761,458,57,0.091977595508646,1
761,459,57,0.0983781856500699,1
762,457,57,0.0700180246717411,1
762,458,57,0.0845164497441551,1
762,459,57,0.0913451471031338,1
763,458,57,0.0769999524651424,1
763,459,57,0.0839781845671184,1
764,458,57,0.0704729001955829,1
764,459,57,0.0771965069450727,1
765,458,57,0.0677602686792823,1
765,459,57,0.0735022530659983,1
766,458,57,0.0716130539440131,1
766,459,57,0.0733142459955716,1
767,458,57,0.0768676622855373,1
767,459,57,0.074805813877265,1
768,458,57,0.067914475447096,1
776,458,57,0.0704415257520091,1
777,457,57,0.0720698402062093,1
777,458,57,0.0835902148345557,1
778,457,57,0.0713649933853712,1
784,437,57,0.0935066773537038,1
784,438,57,0.0896114665097761,1
785,436,57,0.0829492729275185,1
785,437,57,0.142425646282391,1
785,438,57,0.14016335602995,1
785,439,57,0.0788580586629978,1
786,437,57,0.108154175956409,1
786,438,57,0.103428099406888,1
787,448,57,0.0730066171205223,1
788,447,57,0.0904474894119938,1
788,448,57,0.102256882683205,1
788,449,57,0.0790436698232623,1
789,447,57,0.0790014718555308,1
789,448,57,0.0874632395503816,1
742,454,58,0.110423462266523,1
742,455,58,0.114094212266907,1
743,453,58,0.108846929420703,1
743,454,58,0.112347006760683,1
743,455,58,0.112982533910754,1
743,456,58,0.112604183757492,1
744,453,58,0.108860813720093,1
744,454,58,0.11174305770655,1
744,455,58,0.109523115166226,1
744,456,58,0.107443860470626,1
745,453,58,0.110202930715645,1
745,454,58,0.117109297492306,1
745,455,58,0.112999341220542,1
745,456,58,0.105098803501632,1
746,443,58,0.119378919229843,1
746,452,58,0.111604346487711,1
746,453,58,0.118622997594123,1
746,454,58,0.132023107499314,1
746,455,58,0.126946054070134,1
746,456,58,0.111697523433918,1
747,440,58,0.0774273708585255,1
747,441,58,0.0889165147979079,1
747,442,58,0.10039886633198,1
747,443,58,0.095330138690614,1
747,444,58,0.0784246984124124,1
747,445,58,0.0722987574426553,1
747,446,58,0.0722426631959831,1
747,447,58,0.074299216642797,1
747,448,58,0.0774609016212453,1
747,449,58,0.0816793926233568,1
747,450,58,0.0905710345195069,1
747,451,58,0.105024542266155,1
747,452,58,0.113748793898824,1
747,453,58,0.120516090070122,1
747,454,58,0.130953621121117,1
747,455,58,0.127024304496031,1
747,456,58,0.112977442601659,1
748,439,58,0.0721416935519732,1
748,440,58,0.0771020541767039,1
748,441,58,0.0919846454742982,1
748,442,58,0.102775321703649,1
748,443,58,0.101175596447459,1
748,444,58,0.0820638463577565,1
748,445,58,0.0751293755548928,1
748,446,58,0.075140294915457,1
748,447,58,0.0778903325791647,1
748,448,58,0.082520578711974,1
748,449,58,0.0884691564421999,1
748,450,58,0.0938332998065638,1
748,451,58,0.104229866783562,1
748,452,58,0.112335051168974,1
748,453,58,0.117582597565295,1
748,454,58,0.122397131118005,1
748,455,58,0.119746966969407,1
749,439,58,0.071468412847522,1
749,440,58,0.0793394209736826,1
749,441,58,0.0964326706597225,1
749,442,58,0.104958762552653,1
749,443,58,0.100828548860467,1
749,444,58,0.0820400609596214,1
749,445,58,0.0777175874564711,1
749,446,58,0.0786441997219211,1
749,447,58,0.0816046222569704,1
749,448,58,0.0897788747425834,1
749,449,58,0.103026688618315,1
749,450,58,0.103523133183471,1
749,451,58,0.101776670409398,1
749,452,58,0.101966127005473,1
749,453,58,0.105239742916923,1
749,454,58,0.1076414272226,1
750,439,58,0.0682713043373258,1
750,440,58,0.0728898704080944,1
750,441,58,0.0850255926331704,1
750,442,58,0.0880496265830258,1
750,443,58,0.0834317193875517,1
750,444,58,0.0751461349464773,1
750,445,58,0.0791057418657892,1
750,446,58,0.0823761891860499,1
750,447,58,0.0874864738891794,1
750,448,58,0.103334012014819,1
750,449,58,0.131577396331842,1
750,450,58,0.135661728344422,1
750,451,58,0.119146731576026,1
750,452,58,0.101725481788783,1
750,453,58,0.0974233016447061,1
750,454,58,0.100349672306575,1
750,455,58,0.100615492549294,1
751,441,58,0.0724324791785823,1
751,442,58,0.0759783303822109,1
751,443,58,0.0741416016927776,1
751,444,58,0.0726611807831138,1
751,445,58,0.0783368523663159,1
751,446,58,0.0817922040533433,1
751,447,58,0.088170943494088,1
751,448,58,0.104806742052862,1
751,449,58,0.138079956409769,1
751,450,58,0.150774758281416,1
751,451,58,0.132988084276236,1
751,452,58,0.105998791215405,1
751,453,58,0.0946287300008587,1
751,454,58,0.0972391999078437,1
751,455,58,0.097687109322889,1
751,456,58,0.099276436328975,1
752,442,58,0.0714393384777039,1
752,443,58,0.071910128834798,1
752,444,58,0.0718172633569116,1
752,445,58,0.0746470429005923,1
752,446,58,0.0773945648586298,1
752,447,58,0.0814855994298884,1
752,448,58,0.0881744535024756,1
752,449,58,0.106416230642963,1
752,450,58,0.119264550458251,1
752,451,58,0.114228059788117,1
752,452,58,0.0998923948827959,1
752,453,58,0.0934001971163209,1
752,454,58,0.0974600189679416,1
752,455,58,0.0998013802455099,1
752,456,58,0.103572896237539,1
752,457,58,0.111840187904525,1
753,443,58,0.0680933001918261,1
753,444,58,0.069424695489402,1
753,445,58,0.071479877277648,1
753,446,58,0.0752741604059937,1
753,447,58,0.0779681936696603,1
753,448,58,0.078286346580097,1
753,449,58,0.0812405816771525,1
753,450,58,0.0869652436333958,1
753,451,58,0.0897230799846815,1
753,452,58,0.0908810473251676,1
753,453,58,0.0925857433953382,1
753,454,58,0.0976593287445584,1
753,455,58,0.102094116526337,1
753,456,58,0.107354588857983,1
753,457,58,0.11488504231369,1
754,445,58,0.0689023691047193,1
754,446,58,0.0737248690587178,1
754,447,58,0.0747882099273483,1
754,448,58,0.0731848967956906,1
754,449,58,0.0725248894335378,1
754,450,58,0.0760671347923723,1
754,451,58,0.0804453012272427,1
754,452,58,0.0865985615626241,1
754,453,58,0.0922348982907385,1
754,454,58,0.0989450759637692,1
754,455,58,0.104404540613936,1
754,456,58,0.110290644986683,1
754,457,58,0.115615938667767,1
754,458,58,0.117822679743097,1
755,446,58,0.0682147368983965,1
755,450,58,0.0706466815494217,1
755,451,58,0.0765623754126716,1
755,452,58,0.0844981869189439,1
755,453,58,0.0925071395726923,1
755,454,58,0.0999745566320327,1
755,455,58,0.104157498317113,1
755,456,58,0.107718467713865,1
755,457,58,0.111875347886156,1
755,458,58,0.113321399464543,1
756,444,58,0.0679178716497509,1
756,451,58,0.0731788231634294,1
756,452,58,0.0828335444769096,1
756,453,58,0.0907416772310332,1
756,454,58,0.0968138899154033,1
756,455,58,0.0997972652698063,1
756,456,58,0.10259421485449,1
756,457,58,0.106428234152875,1
756,458,58,0.110744945492085,1
757,434,58,0.0763172198951013,1
757,435,58,0.0708329755440825,1
757,444,58,0.0699668540204523,1
757,451,58,0.0698553783103811,1
757,452,58,0.0793503103853697,1
757,453,58,0.0843963307881739,1
757,454,58,0.0866132604714691,1
757,455,58,0.0889482246689044,1
757,456,58,0.0935262279806272,1
757,457,58,0.100049686384943,1
757,458,58,0.107772064224193,1
757,459,58,0.112478494310384,1
758,434,58,0.0695479590774711,1
758,452,58,0.0720424549530555,1
758,453,58,0.0740939230805501,1
758,454,58,0.074482869146504,1
758,455,58,0.0770745790769191,1
758,456,58,0.0850281322979424,1
758,457,58,0.0956047339543021,1
758,458,58,0.107302873137132,1
758,459,58,0.112287672045517,1
759,456,58,0.0781430891217245,1
759,457,58,0.0954245135919025,1
759,458,58,0.112531012661139,1
759,459,58,0.11574037026204,1
760,456,58,0.0741223206057474,1
760,457,58,0.0952495462625335,1
760,458,58,0.116430811673028,1
760,459,58,0.118182317837992,1
761,456,58,0.0693024022449487,1
761,457,58,0.086680459761743,1
761,458,58,0.105432062625642,1
761,459,58,0.109857368592953,1
762,456,58,0.0685496312310915,1
762,457,58,0.0809111679889535,1
762,458,58,0.094971458959784,1
762,459,58,0.101162922082701,1
763,457,58,0.0775781814236843,1
763,458,58,0.0874437428314368,1
763,459,58,0.0931144069623999,1
764,457,58,0.072839238836592,1
764,458,58,0.0809640337466821,1
764,459,58,0.0871824388793734,1
765,457,58,0.068420156245927,1
765,458,58,0.0760470810243148,1
765,459,58,0.083142682775361,1
766,457,58,0.068392148056131,1
766,458,58,0.0759891419268178,1
766,459,58,0.0808933903355501,1
767,457,58,0.0719023720756479,1
767,458,58,0.0787053074106076,1
768,457,58,0.0680792182298479,1
768,458,58,0.0721453652842968,1
773,454,58,0.0844497535950153,1
773,455,58,0.0829906622755703,1
774,454,58,0.0777363114943886,1
774,455,58,0.0775789421251608,1
776,457,58,0.0683111842619753,1
780,455,58,0.069020679148528,1
784,436,58,0.0704676651318786,1
784,437,58,0.113489340787361,1
784,438,58,0.0979963973657255,1
785,436,58,0.106526897733354,1
785,437,58,0.187230891370583,1
785,438,58,0.166522944002404,1
785,439,58,0.086390177276268,1
786,436,58,0.0820960833289888,1
786,437,58,0.140363127019273,1
786,438,58,0.123455847880022,1
787,447,58,0.0804539564527036,1
787,448,58,0.0827647459166024,1
787,449,58,0.0709120825078624,1
788,446,58,0.0814528533277467,1
788,447,58,0.111201905457768,1
788,448,58,0.106337441137279,1
743,454,59,0.112122785508155,1
743,455,59,0.115676363522057,1
744,454,59,0.110817170203925,1
744,455,59,0.112376979596812,1
745,453,59,0.111116730851503,1
745,454,59,0.116110622238953,1
745,455,59,0.115993809638996,1
745,456,59,0.109690625225216,1
746,453,59,0.11906022723962,1
746,454,59,0.129629713042798,1
746,455,59,0.128230860894606,1
746,456,59,0.114051636943325,1
747,442,59,0.106251140453237,1
747,443,59,0.101280070110082,1
747,444,59,0.0855570594151219,1
747,445,59,0.0785372283229549,1
747,446,59,0.0774916351588508,1
747,447,59,0.0790583986809844,1
747,448,59,0.081306888490891,1
747,449,59,0.0855629174154685,1
747,450,59,0.0936648134141835,1
747,454,59,0.123094496709361,1
747,455,59,0.122157695835946,1
748,439,59,0.0750899748122757,1
748,440,59,0.0819335328040352,1
748,441,59,0.0950227014883777,1
748,442,59,0.10291523087757,1
748,443,59,0.0993144654130242,1
748,444,59,0.0863383477496845,1
748,445,59,0.081047423399877,1
748,446,59,0.080682376537791,1
748,447,59,0.0825827585704582,1
748,448,59,0.0862289205428021,1
748,449,59,0.0915712371655884,1
748,450,59,0.096832440249834,1
748,451,59,0.105265367176107,1
748,452,59,0.112846637886355,1
749,438,59,0.068168489842491,1
749,439,59,0.074202721361015,1
749,440,59,0.083181652254149,1
749,441,59,0.096764456298982,1
749,442,59,0.102742270122962,1
749,443,59,0.099065410551665,1
749,444,59,0.0881308838761763,1
749,445,59,0.0851219441603427,1
749,446,59,0.0850486712378077,1
749,447,59,0.0867867123876606,1
749,448,59,0.0942620838687394,1
749,449,59,0.103502492417424,1
749,450,59,0.10687429272732,1
749,451,59,0.106770453980891,1
749,452,59,0.105893790452547,1
749,453,59,0.107707925709151,1
750,439,59,0.0722550500515216,1
750,440,59,0.0787612758719963,1
750,441,59,0.0901097619155321,1
750,442,59,0.0935709296744782,1
750,443,59,0.0892052818702053,1
750,444,59,0.0841944274388065,1
750,445,59,0.0873909070225852,1
750,446,59,0.0900669410111584,1
750,447,59,0.093593690821019,1
750,448,59,0.107251948066635,1
750,449,59,0.125491520969772,1
750,450,59,0.137403207625358,1
750,451,59,0.130577055920927,1
750,452,59,0.110096588243096,1
750,453,59,0.103076823038459,1
750,454,59,0.10477052787076,1
751,440,59,0.0708432240498012,1
751,441,59,0.0798650117859613,1
751,442,59,0.0837725855263259,1
751,443,59,0.0814802445706759,1
751,444,59,0.0815986504508911,1
751,445,59,0.0876718035299999,1
751,446,59,0.0918839932883848,1
751,447,59,0.0981109937487829,1
751,448,59,0.11600480686664,1
751,449,59,0.141565742145631,1
751,450,59,0.167354097217217,1
751,451,59,0.161257595993578,1
751,452,59,0.124459434749208,1
751,453,59,0.103898356673971,1
751,454,59,0.10325144895063,1
751,455,59,0.103873391290081,1
752,441,59,0.0736248817378744,1
752,442,59,0.0786033434638804,1
752,443,59,0.0781701389474556,1
752,444,59,0.0804775322086995,1
752,445,59,0.0855446006822786,1
752,446,59,0.0891623890885268,1
752,447,59,0.09311728804437,1
752,448,59,0.102816243849219,1
752,449,59,0.117029393888397,1
752,450,59,0.137852404842115,1
752,451,59,0.140036181118541,1
752,452,59,0.116585874978724,1
752,453,59,0.103286716748217,1
752,454,59,0.104484743706615,1
752,455,59,0.106610419161608,1
752,456,59,0.106892789153772,1
753,441,59,0.0695386090380632,1
753,442,59,0.0749146660657085,1
753,443,59,0.0765272094412661,1
753,444,59,0.0797637965611597,1
753,445,59,0.0841459641660009,1
753,446,59,0.0884745771889419,1
753,447,59,0.0906752506217866,1
753,448,59,0.0929768697395396,1
753,449,59,0.0950226116417466,1
753,450,59,0.101741234898099,1
753,451,59,0.105900139614477,1
753,452,59,0.102817765252172,1
753,453,59,0.102444829855877,1
753,454,59,0.105339209127306,1
753,455,59,0.109592644479133,1
753,456,59,0.112394637454708,1
753,457,59,0.119102299422068,1
754,442,59,0.0695709658048035,1
754,443,59,0.0734548439936641,1
754,444,59,0.0775586068376593,1
754,445,59,0.0826899036729111,1
754,446,59,0.088987248055671,1
754,447,59,0.0895580496927101,1
754,448,59,0.0863081233429885,1
754,449,59,0.0845124066457564,1
754,450,59,0.0865164117929382,1
754,451,59,0.0908620357780306,1
754,452,59,0.0962109890719662,1
754,453,59,0.102250964785104,1
754,454,59,0.107381530867756,1
754,455,59,0.112171554259507,1
754,456,59,0.116595314864763,1
754,457,59,0.121284063133958,1
755,443,59,0.0739026396029766,1
755,444,59,0.0781749547268816,1
755,445,59,0.0800780321584812,1
755,446,59,0.0828942209017669,1
755,447,59,0.0818236623537728,1
755,448,59,0.0782285692065359,1
755,449,59,0.0780285765955228,1
755,450,59,0.0820504232710729,1
755,451,59,0.0876299889078943,1
755,452,59,0.0952492168248862,1
755,453,59,0.104130412552729,1
755,454,59,0.110872982931153,1
755,455,59,0.113545081637285,1
755,456,59,0.116570541153686,1
755,457,59,0.120247316868128,1
755,458,59,0.120973637033794,1
756,443,59,0.0774350437608199,1
756,444,59,0.0829112079048168,1
756,445,59,0.0801136653323683,1
756,446,59,0.0765720548897268,1
756,447,59,0.0740542527980397,1
756,448,59,0.0735675535974687,1
756,449,59,0.0753406409232189,1
756,450,59,0.0793532573548692,1
756,451,59,0.0845411276188256,1
756,452,59,0.0931322624828836,1
756,453,59,0.102291862971573,1
756,454,59,0.108668302338562,1
756,455,59,0.109299840298212,1
756,456,59,0.112610461042117,1
756,457,59,0.118415955017458,1
756,458,59,0.121964537558671,1
757,434,59,0.0690232008439737,1
757,435,59,0.069572642941917,1
757,443,59,0.0754506790871927,1
757,444,59,0.0841044130940132,1
757,445,59,0.0799584642618373,1
757,446,59,0.0719735785256681,1
757,447,59,0.0680846809050177,1
757,448,59,0.0689728927203432,1
757,449,59,0.0710440192907186,1
757,450,59,0.074643832380975,1
757,451,59,0.0809561991204518,1
757,452,59,0.090387220291864,1
757,453,59,0.0969878749216058,1
757,454,59,0.0997643814028303,1
757,455,59,0.100691347065029,1
757,456,59,0.108998638452173,1
757,457,59,0.12290834646931,1
757,458,59,0.130276441072877,1
758,444,59,0.0757249688723352,1
758,445,59,0.0732156243435206,1
758,451,59,0.0745163759501221,1
758,452,59,0.0833647776576202,1
758,453,59,0.085945891675343,1
758,454,59,0.0864502068053816,1
758,455,59,0.0907186944628024,1
758,456,59,0.106722859225519,1
758,457,59,0.12861914209549,1
758,458,59,0.139578694052623,1
758,459,59,0.130717480215532,1
759,452,59,0.0719561662485644,1
759,453,59,0.0730367995987905,1
759,454,59,0.0741781333329755,1
759,455,59,0.0821578738520715,1
759,456,59,0.102087695487102,1
759,457,59,0.128458184850794,1
759,458,59,0.14269597682599,1
759,459,59,0.132063430667343,1
760,454,59,0.0695003763016501,1
760,455,59,0.0765763196098155,1
760,456,59,0.0936544151640796,1
760,457,59,0.118419045741567,1
760,458,59,0.136656689937024,1
760,459,59,0.130277423396044,1
761,455,59,0.0723746059686147,1
761,456,59,0.0831019822514809,1
761,457,59,0.100720744882719,1
761,458,59,0.117650258068275,1
761,459,59,0.120258613584542,1
762,455,59,0.0715468190075795,1
762,456,59,0.0807775540689838,1
762,457,59,0.0926821368509384,1
762,458,59,0.104458137124264,1
762,459,59,0.110562688606048,1
763,455,59,0.0697718628719028,1
763,456,59,0.0794495070558596,1
763,457,59,0.0893046462544066,1
763,458,59,0.0958610783723298,1
763,459,59,0.100712874317836,1
764,456,59,0.0736838151380888,1
764,457,59,0.082396045291519,1
764,458,59,0.0888113762702157,1
764,459,59,0.0949004381928014,1
765,456,59,0.0684666848212766,1
765,457,59,0.075821446184791,1
765,458,59,0.0828113104306045,1
765,459,59,0.0912645966034811,1
766,450,59,0.0678451797354302,1
766,451,59,0.0683938192034691,1
766,457,59,0.0733028833916274,1
766,458,59,0.0796322011955017,1
767,457,59,0.0745973457340532,1
767,458,59,0.0791233158668288,1
768,447,59,0.0721000646129053,1
768,457,59,0.0732648423280273,1
768,458,59,0.0755631550897565,1
769,457,59,0.0677937874624513,1
769,458,59,0.0696619025750092,1
772,454,59,0.0762431383528865,1
772,455,59,0.0746562132467381,1
773,453,59,0.0717928250732573,1
773,454,59,0.0989025186095134,1
773,455,59,0.0956025057578513,1
773,456,59,0.0736247499628155,1
774,453,59,0.0689576427521609,1
774,454,59,0.0932078055302973,1
774,455,59,0.0916024379056755,1
774,456,59,0.0744819227619899,1
775,454,59,0.0740285386922241,1
775,455,59,0.0759540178838401,1
775,456,59,0.0716560725109752,1
775,457,59,0.0697000215056896,1
776,455,59,0.0686546140246231,1
776,456,59,0.0704747270770816,1
778,453,59,0.0686960273317764,1
779,451,59,0.0689098203853237,1
780,451,59,0.0713895754236352,1
784,436,59,0.0742016551809928,1
784,437,59,0.111491678812334,1
784,438,59,0.0943642574576058,1
784,451,59,0.0720599750461165,1
785,436,59,0.110381414043177,1
785,437,59,0.183699810953105,1
785,438,59,0.156958818041932,1
785,439,59,0.0817975529227804,1
785,450,59,0.0742032963794539,1
786,436,59,0.0864409825512572,1
786,437,59,0.142637253067915,1
786,438,59,0.122949508205896,1
787,437,59,0.0736127943711062,1
787,438,59,0.068024501631519,1
787,446,59,0.070569898618499,1
787,447,59,0.0864857621121884,1
787,448,59,0.0841418671596236,1
744,455,60,0.116280192780682,1
745,454,60,0.115647672497865,1
745,455,60,0.121409357255889,1
745,456,60,0.120380337800332,1
746,454,60,0.124771286415918,1
746,455,60,0.128250531317038,1
746,456,60,0.119843965392324,1
747,455,60,0.119591831786406,1
748,442,60,0.106179706391752,1
748,443,60,0.0997185176925507,1
748,444,60,0.0919549541576133,1
748,445,60,0.0882812811468321,1
748,446,60,0.0875945174579432,1
748,447,60,0.088886470084474,1
748,448,60,0.0916077388569093,1
748,449,60,0.0959407363954471,1
748,450,60,0.100591952731951,1
749,439,60,0.0782101506471641,1
749,440,60,0.0878578579336444,1
749,441,60,0.0998305444619591,1
749,442,60,0.103987532450207,1
749,443,60,0.0986577584171199,1
749,444,60,0.095271786298614,1
749,445,60,0.0938863871859824,1
749,446,60,0.0926899355385163,1
749,447,60,0.0933411858490262,1
749,448,60,0.0980140312645192,1
749,449,60,0.103730199719238,1
749,450,60,0.108807001577851,1
749,451,60,0.111690108091966,1
749,452,60,0.109510836126645,1
750,438,60,0.0719307696008452,1
750,439,60,0.0770603833092081,1
750,440,60,0.0849314513331227,1
750,441,60,0.0950905297050692,1
750,442,60,0.0988035196016119,1
750,443,60,0.0947677826368966,1
750,444,60,0.0945659092364062,1
750,445,60,0.0962656757214181,1
750,446,60,0.0969622386828704,1
750,447,60,0.0988824348925789,1
750,448,60,0.107763786354582,1
750,449,60,0.117326462789407,1
750,450,60,0.13089707764129,1
750,451,60,0.136022528455746,1
750,452,60,0.117113801803411,1
750,453,60,0.108107024444417,1
751,437,60,0.0685631381746308,1
751,438,60,0.0702607064120689,1
751,439,60,0.0745676544173683,1
751,440,60,0.079730607215638,1
751,441,60,0.0871367428828051,1
751,442,60,0.0910240172743206,1
751,443,60,0.0895141506287635,1
751,444,60,0.0917255277902578,1
751,445,60,0.0963855730557093,1
751,446,60,0.0996152479747851,1
751,447,60,0.104506223041219,1
751,448,60,0.119062407517868,1
751,449,60,0.13611447150822,1
751,450,60,0.163109466835237,1
751,451,60,0.173007678508724,1
751,452,60,0.13689771849934,1
751,453,60,0.113125282238217,1
751,454,60,0.106876413107814,1
752,436,60,0.0684071764026233,1
752,438,60,0.069712671911346,1
752,439,60,0.0734734362565226,1
752,440,60,0.0767244587351434,1
752,441,60,0.0820591383942878,1
752,442,60,0.0860921440214183,1
752,443,60,0.0857740689780619,1
752,444,60,0.0892256590861347,1
752,445,60,0.0949231154824865,1
752,446,60,0.0984681940050878,1
752,447,60,0.101816753986411,1
752,448,60,0.112187750612203,1
752,449,60,0.123607952236668,1
752,450,60,0.143822330131886,1
752,451,60,0.155964515324625,1
752,452,60,0.129155203035177,1
752,453,60,0.112863900419073,1
752,454,60,0.108903724471098,1
752,455,60,0.109910234350682,1
753,438,60,0.0687029575019206,1
753,439,60,0.0711497687755021,1
753,440,60,0.0740271310950038,1
753,441,60,0.0791588352349832,1
753,442,60,0.0836347368351445,1
753,443,60,0.0846084646739339,1
753,444,60,0.0885771041745572,1
753,445,60,0.0948550297054526,1
753,446,60,0.0989045850820283,1
753,447,60,0.100201994393954,1
753,448,60,0.103384877187562,1
753,449,60,0.106252326428767,1
753,450,60,0.11199315478883,1
753,451,60,0.119207204348519,1
753,452,60,0.112149571783769,1
753,453,60,0.110281708241778,1
753,454,60,0.110783196197825,1
753,455,60,0.11375877286465,1
753,456,60,0.114276193623276,1
754,435,60,0.0681070107877293,1
754,436,60,0.0691784258736063,1
754,440,60,0.069412374521393,1
754,441,60,0.0751395581730821,1
754,442,60,0.0805963453936423,1
754,443,60,0.0841213461890845,1
754,444,60,0.0885016389942238,1
754,445,60,0.0950176101792831,1
754,446,60,0.100745147227721,1
754,447,60,0.100645249753509,1
754,448,60,0.0966781795740417,1
754,449,60,0.0952816155200543,1
754,450,60,0.0961781471334181,1
754,451,60,0.100771705891869,1
754,452,60,0.104484036913117,1
754,453,60,0.11009235946166,1
754,454,60,0.113765205883435,1
754,455,60,0.116735056324973,1
754,456,60,0.118519218745448,1
755,435,60,0.0716399061071558,1
755,436,60,0.0714645853810379,1
755,441,60,0.0695702530215302,1
755,442,60,0.077287096308305,1
755,443,60,0.0863757059788884,1
755,444,60,0.0904386485034953,1
755,445,60,0.0928996076265846,1
755,446,60,0.0958464693101159,1
755,447,60,0.0945475984929917,1
755,448,60,0.0906136158328644,1
755,449,60,0.090912164208399,1
755,450,60,0.0933868518967175,1
755,451,60,0.0974462185254074,1
755,452,60,0.104635710005934,1
755,453,60,0.113854788964399,1
755,454,60,0.119984653237047,1
755,455,60,0.120990935505165,1
755,456,60,0.122545929118627,1
755,457,60,0.12407832929926,1
756,435,60,0.0713060599851569,1
756,436,60,0.070583711040584,1
756,442,60,0.0780933919551854,1
756,443,60,0.0925502539760608,1
756,444,60,0.0966437383654603,1
756,445,60,0.0930080225614235,1
756,446,60,0.0896503581214838,1
756,447,60,0.0870927000642487,1
756,448,60,0.0880947475611551,1
756,449,60,0.0922298069816439,1
756,450,60,0.0939721487902379,1
756,451,60,0.0954522222929282,1
756,452,60,0.102940627525289,1
756,453,60,0.113339069301989,1
756,454,60,0.120695567700371,1
756,455,60,0.11945185073518,1
756,456,60,0.122718195059288,1
756,457,60,0.129642626998572,1
757,435,60,0.0707378998390715,1
757,436,60,0.0696581649551562,1
757,442,60,0.0750393312612224,1
757,443,60,0.0895399426016594,1
757,444,60,0.0965745564595271,1
757,445,60,0.0921711431213228,1
757,446,60,0.0849643172307725,1
757,447,60,0.0810599001020466,1
757,448,60,0.0842488625176914,1
757,449,60,0.089193074707929,1
757,450,60,0.0898381196111189,1
757,451,60,0.0918123435949846,1
757,452,60,0.10103408201373,1
757,453,60,0.110001410711903,1
757,454,60,0.115167328448999,1
757,455,60,0.113870002993929,1
757,456,60,0.127185657065903,1
757,457,60,0.153743147217754,1
757,458,60,0.161634137234667,1
758,442,60,0.0689788824957487,1
758,443,60,0.0805224734935667,1
758,444,60,0.0904940958544237,1
758,445,60,0.0887515563832414,1
758,446,60,0.0808729532218666,1
758,447,60,0.0752752565348929,1
758,448,60,0.0761368258292149,1
758,449,60,0.0790072519887971,1
758,450,60,0.0807195430941819,1
758,451,60,0.0853568152335418,1
758,452,60,0.0956075790976197,1
758,453,60,0.100478434508467,1
758,454,60,0.10270294125765,1
758,455,60,0.105825878379,1
758,456,60,0.135267385490828,1
758,457,60,0.183792604553686,1
758,458,60,0.197691542954644,1
759,444,60,0.0757759598303619,1
759,445,60,0.0777303816167372,1
759,446,60,0.0737825865345249,1
759,447,60,0.068878565737258,1
759,449,60,0.0687765239234505,1
759,450,60,0.0713595786284047,1
759,451,60,0.0766017941246149,1
759,452,60,0.0852240398821289,1
759,453,60,0.0887801575608024,1
759,454,60,0.0917204544504894,1
759,455,60,0.100262491125549,1
759,456,60,0.134707892549754,1
759,457,60,0.185224448384812,1
759,458,60,0.199014504648449,1
760,451,60,0.0696742415123445,1
760,452,60,0.077231020030959,1
760,453,60,0.0813898408904812,1
760,454,60,0.0861516704093978,1
760,455,60,0.0945325042589699,1
760,456,60,0.11882032475508,1
760,457,60,0.153108770104561,1
760,458,60,0.166993644512867,1
761,452,60,0.0712987285000606,1
761,453,60,0.0754157287477018,1
761,454,60,0.0805968245756747,1
761,455,60,0.0877234413837704,1
761,456,60,0.101471167904617,1
761,457,60,0.120002838195178,1
761,458,60,0.133219014077218,1
762,452,60,0.0680846809050177,1
762,453,60,0.0708468298945953,1
762,454,60,0.0761786284717697,1
762,455,60,0.0845257458755844,1
762,456,60,0.0968762614467004,1
762,457,60,0.108417857849308,1
762,458,60,0.117273836622694,1
763,453,60,0.0683083391186577,1
763,454,60,0.0729222810828134,1
763,455,60,0.0818401162668116,1
763,456,60,0.0938295981253632,1
763,457,60,0.102425099535692,1
763,458,60,0.105996527080302,1
764,454,60,0.0694209219308966,1
764,455,60,0.0749741445354848,1
764,456,60,0.083841162464943,1
764,457,60,0.0914414866507553,1
764,458,60,0.0965864940819102,1
765,451,60,0.0682751258140344,1
765,452,60,0.0685875524991835,1
765,455,60,0.06968222588296,1
765,456,60,0.0760923637263802,1
765,457,60,0.0834457055131235,1
765,458,60,0.0905026073252749,1
766,450,60,0.0703597772972753,1
766,451,60,0.0729327212613451,1
766,452,60,0.0706685382398762,1
766,453,60,0.0680418420313178,1
766,455,60,0.0681691367382347,1
766,456,60,0.0731381226395493,1
766,457,60,0.0794996774146558,1
766,458,60,0.0857942125927505,1
767,431,60,0.0849868028476446,1
767,432,60,0.0693194611253034,1
767,447,60,0.073385973556052,1
767,448,60,0.0694590768002294,1
767,451,60,0.0687378479436574,1
767,452,60,0.0683558859558263,1
767,453,60,0.0689712036036789,1
767,454,60,0.0692562749845512,1
767,455,60,0.0696102647212387,1
767,456,60,0.0732796670221558,1
767,457,60,0.0787514586301067,1
767,458,60,0.0829960950018631,1
768,431,60,0.0717633074600592,1
768,446,60,0.0711106315830028,1
768,447,60,0.0902273052680889,1
768,448,60,0.0808227349448672,1
768,453,60,0.0683936155511053,1
768,454,60,0.0695897377609242,1
768,455,60,0.0697239865970869,1
768,456,60,0.0731291918844198,1
768,457,60,0.077616156599755,1
769,447,60,0.0769313635469744,1
769,448,60,0.07055469656852,1
769,456,60,0.0703414725436362,1
769,457,60,0.0735545797439405,1
770,457,60,0.0692850318962728,1
771,455,60,0.0678846164166998,1
772,453,60,0.0697810152487223,1
772,454,60,0.0799058500746757,1
772,455,60,0.0779621499862762,1
772,456,60,0.0688787514202956,1
773,453,60,0.0798549789121571,1
773,454,60,0.100190464076298,1
773,455,60,0.096248167607908,1
773,456,60,0.0770546510941451,1
774,453,60,0.0774053165054826,1
774,454,60,0.0987378297347402,1
774,455,60,0.0969448623444192,1
774,456,60,0.0794544366410183,1
775,453,60,0.0684919976121401,1
775,454,60,0.0816692699029216,1
775,455,60,0.0833772184211374,1
775,456,60,0.0762630363867835,1
776,453,60,0.0708588334045078,1
776,454,60,0.0717046016713103,1
776,455,60,0.0718051220821648,1
777,452,60,0.0737792023114208,1
777,453,60,0.0811515316861994,1
777,454,60,0.0741543599143913,1
777,455,60,0.0698451597535394,1
778,451,60,0.0732396433428965,1
778,452,60,0.0785028769610046,1
778,453,60,0.0812237983264663,1
778,454,60,0.0750501248365031,1
779,450,60,0.083267821163132,1
779,451,60,0.0916958604326745,1
779,452,60,0.0786714771591176,1
779,453,60,0.0708113404753179,1
780,450,60,0.0856191194780979,1
780,451,60,0.0928617462562466,1
780,452,60,0.0758663455412304,1
781,450,60,0.0706290536404034,1
781,451,60,0.0755845625470557,1
781,452,60,0.0680032019901771,1
784,436,60,0.0679116123344522,1
784,437,60,0.0881354480850353,1
784,438,60,0.0798978716938357,1
784,450,60,0.0682370128731295,1
785,436,60,0.092788700945177,1
785,437,60,0.133956307511428,1
785,438,60,0.118701020408554,1
785,439,60,0.0709696322699581,1
786,436,60,0.08151147525964,1
786,437,60,0.116111975928195,1
786,438,60,0.103381882299859,1
745,455,61,0.120653687190736,1
746,455,61,0.122626563475135,1
749,442,61,0.104071089817113,1
749,443,61,0.0985503377849983,1
749,444,61,0.0987880360321888,1
749,445,61,0.0981068068957745,1
749,446,61,0.0963042558648047,1
749,447,61,0.0972805593070184,1
750,439,61,0.0797085768216968,1
750,440,61,0.0882257080106202,1
750,441,61,0.0975079072223083,1
750,442,61,0.100027829694489,1
750,443,61,0.0984968730497291,1
750,444,61,0.102497503940793,1
750,445,61,0.102508860554962,1
750,446,61,0.100283083973393,1
750,447,61,0.101561960920214,1
750,448,61,0.106834927923355,1
750,449,61,0.114327418182543,1
750,450,61,0.128155593376861,1
750,451,61,0.138666858563098,1
751,438,61,0.0739318038194258,1
751,439,61,0.0795838157897763,1
751,440,61,0.0860490715464776,1
751,441,61,0.0921026200906842,1
751,442,61,0.0948865958218394,1
751,443,61,0.0962612313080673,1
751,444,61,0.10079166382352,1
751,445,61,0.102823359702401,1
751,446,61,0.103236690144031,1
751,447,61,0.106884511284162,1
751,448,61,0.116135503765987,1
751,449,61,0.129777289129238,1
751,450,61,0.152707982252631,1
751,451,61,0.168311215408807,1
751,452,61,0.14164017109482,1
752,438,61,0.0752093091076787,1
752,439,61,0.0808666639576909,1
752,440,61,0.0842298389910036,1
752,441,61,0.087832443316599,1
752,442,61,0.0907709672327659,1
752,443,61,0.0923223130730059,1
752,444,61,0.0962305576682159,1
752,445,61,0.101563254711701,1
752,446,61,0.105675738668687,1
752,447,61,0.109601844774156,1
752,448,61,0.116947861065578,1
752,449,61,0.127625606069435,1
752,450,61,0.145250975422945,1
752,451,61,0.158881979190466,1
752,452,61,0.136972746426069,1
753,437,61,0.0719523088332032,1
753,438,61,0.0768412533657746,1
753,439,61,0.0813557590684241,1
753,440,61,0.0831332908075252,1
753,441,61,0.0862802109895991,1
753,442,61,0.0894687481311901,1
753,443,61,0.090680958877748,1
753,444,61,0.0941718479022561,1
753,445,61,0.101963036281363,1
753,446,61,0.107956585245334,1
753,447,61,0.109731667166294,1
753,448,61,0.110455435687638,1
753,449,61,0.112862043588698,1
753,450,61,0.119169241152,1
753,451,61,0.126752871833757,1
753,452,61,0.119376547278783,1
753,453,61,0.114681893091038,1
754,435,61,0.0709037866689259,1
754,436,61,0.0734299025688757,1
754,437,61,0.0719308294985993,1
754,438,61,0.0727143520193881,1
754,439,61,0.0760657691235799,1
754,440,61,0.0793621821202233,1
754,441,61,0.084135787537587,1
754,442,61,0.0886875496432586,1
754,443,61,0.0916577774406466,1
754,444,61,0.0953749362208715,1
754,445,61,0.103069216023694,1
754,446,61,0.108806019254684,1
754,447,61,0.108372048047007,1
754,448,61,0.103426673840341,1
754,449,61,0.101507406045821,1
754,450,61,0.103105286451186,1
754,451,61,0.108188665083194,1
754,452,61,0.111260701093148,1
754,453,61,0.114981154249846,1
754,454,61,0.116900422044367,1
755,435,61,0.0758838356854143,1
755,436,61,0.0779271876672345,1
755,437,61,0.0714276943543156,1
755,439,61,0.0696676407798477,1
755,440,61,0.074874846038813,1
755,441,61,0.0804681282613129,1
755,442,61,0.086734601341633,1
755,443,61,0.0941278889405554,1
755,444,61,0.0980194100828333,1
755,445,61,0.102158710264309,1
755,446,61,0.104805292527214,1
755,447,61,0.103211101823498,1
755,448,61,0.0998259443144477,1
755,449,61,0.100748860888472,1
755,450,61,0.101663679286149,1
755,451,61,0.104568947969265,1
755,452,61,0.111277652157546,1
755,453,61,0.119640995862934,1
755,454,61,0.123645244578343,1
755,455,61,0.123586736452182,1
756,435,61,0.0753827071158915,1
756,436,61,0.0773649753681268,1
756,437,61,0.0702934824630877,1
756,439,61,0.0679035201478794,1
756,440,61,0.0730264253077882,1
756,441,61,0.0781006216140998,1
756,442,61,0.086198103148341,1
756,443,61,0.0981870459271061,1
756,444,61,0.10212769520726,1
756,445,61,0.101155973943231,1
756,446,61,0.0990213857024349,1
756,447,61,0.0974368385371224,1
756,448,61,0.100362592252125,1
756,449,61,0.106995945065805,1
756,450,61,0.106099072035243,1
756,451,61,0.104392441267617,1
756,452,61,0.110733528980163,1
756,453,61,0.121201919354047,1
756,454,61,0.127218732605692,1
756,455,61,0.126199500443148,1
756,456,61,0.128110849754582,1
757,435,61,0.0719657438994377,1
757,436,61,0.0749246270622078,1
757,437,61,0.0706366307062913,1
757,438,61,0.0682194029334374,1
757,439,61,0.0705567091330562,1
757,440,61,0.0729435687446044,1
757,441,61,0.0756252451016096,1
757,442,61,0.0830265829586769,1
757,443,61,0.0958108061873517,1
757,444,61,0.101491018020311,1
757,445,61,0.0994499721020221,1
757,446,61,0.0941237140670978,1
757,447,61,0.0914732923581583,1
757,448,61,0.0968701578655622,1
757,449,61,0.104906855158989,1
757,450,61,0.102763330173288,1
757,451,61,0.100852915266816,1
757,452,61,0.108828385076048,1
757,453,61,0.119493994794933,1
757,454,61,0.124907649642799,1
757,455,61,0.122679704762533,1
757,456,61,0.139188328409898,1
757,457,61,0.180034631443848,1
758,436,61,0.0703533083398374,1
758,437,61,0.0687587762189241,1
758,438,61,0.0689220215578246,1
758,439,61,0.0701273201035646,1
758,440,61,0.0695216459941149,1
758,441,61,0.0704781412490627,1
758,442,61,0.0769845527525749,1
758,443,61,0.0881162448650853,1
758,444,61,0.0964099694109358,1
758,445,61,0.0969980695193459,1
758,446,61,0.091214264520749,1
758,447,61,0.085362667244113,1
758,448,61,0.0865088227474994,1
758,449,61,0.0913016074257114,1
758,450,61,0.0915261221772345,1
758,451,61,0.0937115995498756,1
758,452,61,0.104024681037272,1
758,453,61,0.11319387714616,1
758,454,61,0.117366474489115,1
758,455,61,0.118474894407447,1
758,456,61,0.163602461289759,1
758,457,61,0.258070934849644,1
759,442,61,0.0684741900098596,1
759,443,61,0.0757369663924723,1
759,444,61,0.0840173576982702,1
759,445,61,0.0880011573204447,1
759,446,61,0.0859867898618116,1
759,447,61,0.079757123951358,1
759,448,61,0.0772015862746165,1
759,449,61,0.0797571718695613,1
759,450,61,0.0825642561542307,1
759,451,61,0.0867975419015936,1
759,452,61,0.0963721439792503,1
759,453,61,0.106137861820769,1
759,454,61,0.112894076907566,1
759,455,61,0.118546651916805,1
759,456,61,0.170061523618691,1
759,457,61,0.270117115922184,1
760,444,61,0.0728837728167317,1
760,445,61,0.0773398003420976,1
760,446,61,0.0775313833084414,1
760,447,61,0.0724810502673452,1
760,448,61,0.06990521923153,1
760,449,61,0.0726238405232361,1
760,450,61,0.077461842015984,1
760,451,61,0.0813156874709616,1
760,452,61,0.088589658743807,1
760,453,61,0.0976924641821014,1
760,454,61,0.106994447621954,1
760,455,61,0.114374294164866,1
760,456,61,0.144811337887735,1
760,457,61,0.200657559939922,1
761,450,61,0.0729893845366808,1
761,451,61,0.077296122899841,1
761,452,61,0.0820092615344865,1
761,453,61,0.0878529343382611,1
761,454,61,0.0961740740861424,1
761,455,61,0.104959649039413,1
761,456,61,0.11963015436945,1
761,457,61,0.138809319381342,1
762,450,61,0.0695893903539507,1
762,451,61,0.0736567533328069,1
762,452,61,0.0773898389258349,1
762,453,61,0.08065998076755,1
762,454,61,0.087897102942101,1
762,455,61,0.0991644095595665,1
762,456,61,0.113482883809474,1
762,457,61,0.123365629882865,1
763,451,61,0.0710286075986003,1
763,452,61,0.0745321230696631,1
763,453,61,0.0771990885382725,1
763,454,61,0.0831959857866942,1
763,455,61,0.0940638941801234,1
763,456,61,0.106541956028723,1
763,457,61,0.112661254337556,1
764,450,61,0.0677857012656539,1
764,451,61,0.070815108044048,1
764,452,61,0.0742770484840214,1
764,453,61,0.0749163312232712,1
764,454,61,0.0774876639377569,1
764,455,61,0.0841250358907342,1
764,456,61,0.0924901226207654,1
764,457,61,0.0978444367636889,1
765,448,61,0.0677904032393472,1
765,449,61,0.0701899791440812,1
765,450,61,0.0714364394264076,1
765,451,61,0.07388747349165,1
765,452,61,0.0764038739758922,1
765,453,61,0.0746838500704589,1
765,454,61,0.0736363880964283,1
765,455,61,0.076862768639031,1
765,456,61,0.0831380406994218,1
765,457,61,0.0897361376950654,1
766,431,61,0.0762511347030528,1
766,447,61,0.0695660122605432,1
766,448,61,0.0720679654065074,1
766,449,61,0.0733905856831142,1
766,450,61,0.0737900557844555,1
766,451,61,0.0757295989687236,1
766,452,61,0.0773015017181551,1
766,453,61,0.0746245932223727,1
766,454,61,0.0729923135368541,1
766,455,61,0.0740340912140249,1
766,456,61,0.0787897931927017,1
766,457,61,0.0850250954818118,1
767,430,61,0.0766670766867591,1
767,431,61,0.112421878953252,1
767,432,61,0.0891303378003321,1
767,446,61,0.0712737810854968,1
767,447,61,0.0817193863537391,1
767,448,61,0.07828919771319,1
767,449,61,0.0723644353299762,1
767,450,61,0.0711836649145216,1
767,451,61,0.0737742966853637,1
767,452,61,0.0752501833350456,1
767,453,61,0.0747498394261009,1
767,454,61,0.075531918411017,1
767,455,61,0.0756995542552898,1
767,456,61,0.0782391531396773,1
767,457,61,0.0825740134983662,1
768,431,61,0.0919939895239307,1
768,432,61,0.0729398371145268,1
768,445,61,0.0687441072589561,1
768,446,61,0.0793695914723999,1
768,447,61,0.0951753628941368,1
768,448,61,0.0871014451363407,1
768,449,61,0.0727202040299592,1
768,450,61,0.0684410785314182,1
768,451,61,0.0710486433973316,1
768,452,61,0.0731589970068374,1
768,453,61,0.0745804665469606,1
768,454,61,0.0770505660673186,1
768,455,61,0.0766515092604803,1
768,456,61,0.0779635036755179,1
769,444,61,0.0695139850713713,1
769,445,61,0.0691827984096523,1
769,446,61,0.0718059666404969,1
769,447,61,0.0820770717818518,1
769,448,61,0.0779993824301966,1
769,449,61,0.0693342319114533,1
769,451,61,0.0696156195804512,1
769,452,61,0.0715348873749718,1
769,453,61,0.0728852043730536,1
769,454,61,0.0746711637261502,1
769,455,61,0.0746188190788818,1
769,456,61,0.0759629845776221,1
770,443,61,0.06818413513585,1
770,444,61,0.0822619581792923,1
770,445,61,0.0815731040587868,1
770,446,61,0.0692268651873103,1
770,448,61,0.068123818097517,1
770,452,61,0.0692059788404715,1
770,453,61,0.0698989599162313,1
770,454,61,0.0717824328129289,1
770,455,61,0.0726107408844244,1
770,456,61,0.0734396659027866,1
771,444,61,0.0893147090770877,1
771,445,61,0.0884131819910358,1
771,452,61,0.0695080671732707,1
771,453,61,0.0710299193594141,1
771,454,61,0.0739599377945053,1
771,455,61,0.074508307722651,1
772,444,61,0.0701679846887924,1
772,445,61,0.0685682115143992,1
772,452,61,0.0714887481350235,1
772,453,61,0.0772872999606687,1
772,454,61,0.0825127380959683,1
772,455,61,0.0805124705686396,1
772,456,61,0.0740610092646971,1
773,452,61,0.0728877979458041,1
773,453,61,0.0858280608135668,1
773,454,61,0.09577495738155,1
773,455,61,0.0918456647155652,1
773,456,61,0.0781911391000271,1
774,452,61,0.0695477254762303,1
774,453,61,0.0848973814906165,1
774,454,61,0.0984088473103704,1
774,455,61,0.0969329127424853,1
775,453,61,0.0769487099365486,1
775,454,61,0.0870143298428436,1
775,455,61,0.0884142302017318,1
776,452,61,0.0720333025762359,1
776,453,61,0.0803747776116188,1
776,454,61,0.0774635730610762,1
777,451,61,0.0686415203755867,1
777,452,61,0.0862158328835411,1
777,453,61,0.09683814251602,1
777,454,61,0.0845510347073463,1
778,450,61,0.0741616494710597,1
778,451,61,0.0847694039493033,1
778,452,61,0.0892888392371115,1
778,453,61,0.0954318151281218,1
778,454,61,0.086567360822537,1
778,455,61,0.0795989160135735,1
779,449,61,0.0712505886751268,1
779,450,61,0.102158494632395,1
779,451,61,0.111966572165581,1
779,452,61,0.0906064101330516,1
779,453,61,0.0808883050162309,1
779,454,61,0.0789521580346176,1
779,455,61,0.0784056808755001,1
780,449,61,0.0727383051312345,1
780,450,61,0.10343152555842,1
780,451,61,0.112101402009958,1
781,450,61,0.079136098047544,1
750,443,62,0.104057960229425,1
750,444,62,0.109636992776235,1
751,440,62,0.0940004804279057,1
751,441,62,0.0989080052437848,1
751,442,62,0.100977526554352,1
751,443,62,0.104502114055291,1
751,444,62,0.110010335477258,1
751,450,62,0.140005896814091,1
752,439,62,0.0914385037426033,1
752,440,62,0.095751010259479,1
752,441,62,0.0964029493941606,1
752,446,62,0.111283414321486,1
752,447,62,0.115237121312023,1
752,451,62,0.149870901172731,1
753,445,62,0.105779589394667,1
753,446,62,0.115836709809661,1
753,447,62,0.118929590238027,1
753,448,62,0.113222508272599,1
754,445,62,0.106069614319799,1
754,446,62,0.112866907286327,1
754,447,62,0.112434864786331,1
754,448,62,0.10544873816037,1
755,444,62,0.101730692893385,1
755,445,62,0.106301837912269,1
755,446,62,0.108305741233269,1
755,447,62,0.105983912613298,1
755,448,62,0.103674518767068,1
756,444,62,0.103455975821625,1
756,445,62,0.104950820110465,1
756,446,62,0.103832229553494,1
756,447,62,0.10239434802876,1
756,448,62,0.107362878707144,1
756,449,62,0.115936415611061,1
756,450,62,0.113545776451232,1
757,444,62,0.104070838246546,1
757,445,62,0.103973288764293,1
757,446,62,0.100026338240413,1
757,448,62,0.104378892395649,1
757,449,62,0.114812817601851,1
757,450,62,0.111523843906261,1
758,444,62,0.0998132939087913,1
758,445,62,0.101639372777554,1
758,446,62,0.0977707565364263,1
758,449,62,0.100065301729425,1
758,456,62,0.183977664654613,1
759,445,62,0.095643865157026,1
759,446,62,0.0946065977807355,1
759,456,62,0.200037282758034,1
760,456,62,0.164486564119156,1
765,448,62,0.0778966877308699,1
765,449,62,0.079810954062927,1
765,450,62,0.0798755478008995,1
765,451,62,0.0810769470028506,1
766,447,62,0.0804952978825521,1
766,448,62,0.0828512502530081,1
766,449,62,0.0832587825920451,1
766,450,62,0.0812050742885489,1
767,430,62,0.0777227446530952,1
767,431,62,0.116888694064123,1
767,432,62,0.09531264854643,1
767,446,62,0.0809891668442835,1
767,447,62,0.0880508664665347,1
767,448,62,0.0863937172335326,1
767,449,62,0.0820700996832798,1
768,431,62,0.0967132197601636,1
768,447,62,0.0933656301224559,1
768,448,62,0.0894491076576356,1
768,454,62,0.0835861477770554,1
770,444,62,0.0935774944683226,1
770,445,62,0.094592467900554,1
771,444,62,0.105279682739327,1
771,445,62,0.106696971416217,1
772,452,62,0.0778887812273347,1
772,453,62,0.082184708045888,1
772,454,62,0.0834172061617443,1
772,455,62,0.0808524921490816,1
773,452,62,0.0795589761911699,1
773,453,62,0.0874505532060728,1
773,454,62,0.0891085529871825,1
773,455,62,0.0847529081078367,1
774,452,62,0.075409601207462,1
774,453,62,0.0864714405591939,1
774,454,62,0.0920481550629224,1
775,452,62,0.0710324710037369,1
775,453,62,0.081073053648837,1
775,454,62,0.0864363464650933,1
776,452,62,0.0761502728750002,1
776,453,62,0.084987575528672,1
776,454,62,0.0796559446652089,1
777,452,62,0.0910362603752494,1
777,453,62,0.103494669770744,1
777,454,62,0.0904344376913853,1
777,455,62,0.0810160489563032,1
778,451,62,0.0916008745742947,1
778,452,62,0.0941102670213125,1
778,453,62,0.103534968979672,1
778,454,62,0.0954286225778307,1
778,455,62,0.087851928055993,1
778,456,62,0.07894731829609,1
779,450,62,0.111059444639525,1
779,451,62,0.121976301477567,1
779,452,62,0.0991179169228693,1
779,453,62,0.0912065796389038,1
779,454,62,0.086959116093156,1
779,455,62,0.0844131081490846,1
779,456,62,0.0846577725050717,1
780,450,62,0.112216848941123,1
780,453,62,0.0812163889742898,1
780,454,62,0.0777173478654549,1
780,455,62,0.0779741534961888,1
776,453,63,0.086407002555382,1
776,454,63,0.0824344936598467,1
777,452,63,0.088269283626695,1
777,453,63,0.0994055159889627,1
777,454,63,0.0930382469681195,1
777,455,63,0.0852072265825657,1
778,452,63,0.0947812057235802,1
778,453,63,0.103670888963173,1
778,454,63,0.101112775683007,1
778,455,63,0.0946278435140987,1
778,456,63,0.081517650718083,1
779,451,63,0.117036042539097,1
779,452,63,0.10281847204567,1
779,453,63,0.0973844819103033,1
779,454,63,0.0927421424209503,1
779,455,63,0.0902736601399518,1
779,456,63,0.0881657683281377,1
780,452,63,0.100539170831078,1
780,453,63,0.0885804764181105,1
780,454,63,0.0819142577067805,1
780,455,63,0.0837786831176886,1
776,454,64,0.088131381027535,1
777,453,64,0.0942548961382528,1
777,454,64,0.0957720583302538,1
777,455,64,0.0898771609672117,1
778,452,64,0.0957222653273082,1
778,453,64,0.100427371673135,1
778,454,64,0.103431777128987,1
778,455,64,0.0972269627966904,1
778,456,64,0.0848033599860769,1
779,451,64,0.106571042378092,1
779,452,64,0.104118109554046,1
779,453,64,0.0992021691037226,1
779,454,64,0.095718629533637,1
779,455,64,0.0916396224313926,1
779,456,64,0.0898846302171423,1
780,452,64,0.102349316897262,1
780,453,64,0.0925078343866393,1
780,454,64,0.0853669738926295,1
780,455,64,0.086831641692977,1
777,454,65,0.0957123821978891,1
778,453,65,0.0969421549659359,1
778,454,65,0.0998704423559349,1
778,455,65,0.0950402096018879,1
779,452,65,0.103544217192898,1
779,453,65,0.0994385016821206,1
779,454,65,0.0954811229592596,1
779,455,65,0.0903946835520192,1
780,453,65,0.0943624305761071,1
780,454,65,0.087619968013641,1
778,454,66,0.0917540630802894,1
779,453,66,0.0959581307032246,1
779,454,66,0.0910884672576834,1
