x,y,z,signal,cytoplasm.p
714,652,1,0.0680226208420417,1
717,653,1,0.0687750863773532,1
717,668,1,0.0792144143609705,1
717,669,1,0.0862131734232611,1
717,670,1,0.0735118426964225,1
718,654,1,0.0741542700677602,1
718,655,1,0.0771593224193556,1
718,656,1,0.0706383497718327,1
718,668,1,0.0744666428449306,1
718,669,1,0.0825136245827283,1
718,670,1,0.0729766922025966,1
723,668,1,0.0788952731375919,1
723,669,1,0.0874763152300917,1
723,670,1,0.0803430916997238,1
723,676,1,0.0740203626487956,1
723,677,1,0.078542828762959,1
723,678,1,0.07642932453159,1
723,679,1,0.0737620895230874,1
723,680,1,0.067782556633566,1
724,667,1,0.0782083417349916,1
724,668,1,0.110541365005605,1
724,669,1,0.121142800270795,1
724,670,1,0.0993835754416525,1
724,671,1,0.0724343300191826,1
724,675,1,0.0788376215493144,1
724,676,1,0.100417153116293,1
724,677,1,0.115498035928685,1
724,678,1,0.10806038805311,1
724,679,1,0.10289351195195,1
724,680,1,0.0952880724979414,1
724,681,1,0.0766833868451882,1
725,667,1,0.10304537671758,1
725,668,1,0.149591022927135,1
725,669,1,0.156322332527796,1
725,670,1,0.11660560529891,1
725,671,1,0.0763673303561434,1
725,674,1,0.0732771273573839,1
725,675,1,0.101667848169831,1
725,676,1,0.153391259892234,1
725,677,1,0.188834066737407,1
725,678,1,0.171386689549845,1
725,679,1,0.15742545748467,1
725,680,1,0.146833126678095,1
725,681,1,0.110795786705727,1
725,682,1,0.080280133170437,1
725,683,1,0.0812700573619227,1
726,666,1,0.0751828882083652,1
726,667,1,0.116005274069122,1
726,668,1,0.161671788962866,1
726,669,1,0.16346523553522,1
726,670,1,0.119989888300752,1
726,671,1,0.0782835134163302,1
726,674,1,0.0816640947369712,1
726,675,1,0.121450123667299,1
726,676,1,0.191907612170764,1
726,677,1,0.240348267584447,1
726,678,1,0.221175284020774,1
726,679,1,0.205063506953123,1
726,680,1,0.190506711519383,1
726,681,1,0.142028332500196,1
726,682,1,0.102207131608687,1
726,683,1,0.109067484930683,1
726,684,1,0.148621973102938,1
726,685,1,0.164117174669901,1
727,666,1,0.0718295124476158,1
727,667,1,0.0986708880048087,1
727,668,1,0.126477054655886,1
727,669,1,0.128062823735381,1
727,670,1,0.102323812433585,1
727,671,1,0.0748621656842796,1
727,673,1,0.0699062135342473,1
727,674,1,0.0847722131539685,1
727,675,1,0.116356849926321,1
727,676,1,0.167945851088625,1
727,677,1,0.203135398250104,1
727,678,1,0.198218343701555,1
727,679,1,0.197960328136189,1
727,680,1,0.188769125592461,1
727,681,1,0.148778186445512,1
727,682,1,0.118384616512536,1
727,683,1,0.127300648774137,1
727,684,1,0.166939652677363,1
727,685,1,0.182104362396554,1
727,686,1,0.139352556071965,1
728,667,1,0.0768060754148183,1
728,668,1,0.0875236464353457,1
728,669,1,0.089643757388987,1
728,670,1,0.080817811349484,1
728,673,1,0.0687528703003743,1
728,674,1,0.081889609780987,1
728,675,1,0.110161984610973,1
728,676,1,0.14125460925197,1
728,677,1,0.149491281187083,1
728,678,1,0.144590339134375,1
728,679,1,0.150941226119484,1
728,680,1,0.149796064918815,1
728,681,1,0.13616042506513,1
728,682,1,0.125917178369186,1
728,683,1,0.132562738345143,1
728,684,1,0.158174251287658,1
728,685,1,0.165208931033055,1
728,686,1,0.133462869813525,1
728,688,1,0.0844397686394144,1
728,689,1,0.0720103078284544,1
729,674,1,0.0796964355469499,1
729,675,1,0.114634262397014,1
729,676,1,0.14292628369033,1
729,677,1,0.13063102379733,1
729,678,1,0.111922128032072,1
729,679,1,0.113651484007587,1
729,680,1,0.121971306004879,1
729,681,1,0.129504478818621,1
729,682,1,0.132521432853947,1
729,683,1,0.148177963031681,1
729,684,1,0.17662897692336,1
729,685,1,0.168285279681302,1
729,686,1,0.12964037484302,1
729,687,1,0.106675492081613,1
729,688,1,0.0916304700545731,1
729,689,1,0.076482609573597,1
730,674,1,0.0700315555743821,1
730,675,1,0.0981096340697658,1
730,676,1,0.119625650058345,1
730,677,1,0.105590635939726,1
730,678,1,0.086903614834249,1
730,679,1,0.087837510666592,1
730,680,1,0.0983259488187588,1
730,681,1,0.110186530710585,1
730,682,1,0.124134860799536,1
730,683,1,0.170632397133035,1
730,684,1,0.222042771213197,1
730,685,1,0.20004535697528,1
730,686,1,0.138456449732655,1
730,687,1,0.107190373175466,1
730,688,1,0.0925022219670844,1
731,661,1,0.0692192402032192,1
731,662,1,0.0721280368640488,1
731,663,1,0.0726740048922569,1
731,675,1,0.0694157827035987,1
731,676,1,0.0791094315674389,1
731,677,1,0.0734197858382159,1
731,680,1,0.073132342506283,1
731,681,1,0.0816357511197526,1
731,682,1,0.102268586704347,1
731,683,1,0.15966484283596,1
731,684,1,0.213279034981055,1
731,685,1,0.199862632886761,1
731,686,1,0.154079425188568,1
731,687,1,0.119150061891151,1
731,688,1,0.0926277916186846,1
732,661,1,0.0870256624979108,1
732,662,1,0.11287300487769,1
732,663,1,0.116302534642944,1
732,664,1,0.0866786927779984,1
732,682,1,0.0813510331356292,1
732,683,1,0.114044533069694,1
732,684,1,0.142610634506013,1
732,685,1,0.157673026881729,1
732,686,1,0.163670493158814,1
732,687,1,0.137904168481169,1
733,638,1,0.080508607163503,1
733,660,1,0.0712370697520367,1
733,661,1,0.112845871195103,1
733,662,1,0.161561133852026,1
733,663,1,0.166612586981123,1
733,664,1,0.113568274047654,1
733,682,1,0.068325553733173,1
733,683,1,0.0803195219335033,1
733,684,1,0.0912075499825194,1
733,685,1,0.117723980223966,1
733,686,1,0.144894308256651,1
733,687,1,0.127260145912846,1
734,638,1,0.0798804114985287,1
734,639,1,0.0792753183972933,1
734,640,1,0.078120657412831,1
734,641,1,0.0762435216985125,1
734,661,1,0.108977710176906,1
734,662,1,0.156004107740055,1
734,663,1,0.158946692723947,1
734,664,1,0.107875735256911,1
734,683,1,0.0685314822116129,1
734,684,1,0.0810469621871708,1
734,685,1,0.100097149365256,1
734,686,1,0.113273577097706,1
734,687,1,0.101590879555871,1
734,688,1,0.0818248483293031,1
734,689,1,0.0726415283300084,1
734,690,1,0.0695721517803338,1
735,639,1,0.0788311525918765,1
735,640,1,0.0781692524606956,1
735,641,1,0.0774788769372371,1
735,661,1,0.0819924961531266,1
735,662,1,0.109401199277623,1
735,663,1,0.107421506628813,1
735,664,1,0.0770439773143725,1
735,684,1,0.0707238657952965,1
735,685,1,0.0833026097786869,1
735,686,1,0.0920081673223155,1
735,687,1,0.0929259626383686,1
735,688,1,0.0853115924292306,1
735,689,1,0.0740250286838365,1
735,690,1,0.0681696338895934,1
736,639,1,0.0781229874354638,1
736,640,1,0.0780161837502089,1
736,641,1,0.0771749796922655,1
736,662,1,0.0731067302266493,1
736,663,1,0.0698596789691223,1
736,685,1,0.0679759904405101,1
736,686,1,0.0819410679414953,1
736,687,1,0.0923073745731446,1
736,688,1,0.0874263664929855,1
736,689,1,0.0734645833684733,1
737,640,1,0.0806487140000123,1
737,641,1,0.07987636840013,1
737,650,1,0.070451702380423,1
737,686,1,0.0688691078818928,1
737,687,1,0.0777332087907286,1
737,688,1,0.0749942881501734,1
738,640,1,0.0874182263882095,1
738,641,1,0.0867079468410787,1
738,642,1,0.0837534302245792,1
738,649,1,0.0942886125840102,1
738,650,1,0.108568752271323,1
738,651,1,0.0835258307387224,1
739,641,1,0.0942860130214842,1
739,642,1,0.0891971477552047,1
739,648,1,0.0733005713383209,1
739,649,1,0.107019748433266,1
739,650,1,0.123152010532804,1
739,651,1,0.0920580022536889,1
739,673,1,0.0693830605605586,1
740,641,1,0.0981644465045012,1
740,648,1,0.0690584985904381,1
740,649,1,0.0877152773198927,1
740,650,1,0.0955271124548227,1
740,651,1,0.0741544377814715,1
740,659,1,0.0684974782566361,1
740,673,1,0.0702431024621523,1
741,642,1,0.101712460017051,1
741,658,1,0.0700421215381973,1
741,659,1,0.0909294866388716,1
741,660,1,0.0790780870727421,1
741,668,1,0.0756485273586106,1
741,669,1,0.0751271174095649,1
742,659,1,0.0812861998066405,1
742,660,1,0.072325136413541,1
742,667,1,0.0725285491863106,1
742,668,1,0.0937049029809723,1
742,669,1,0.0900294929353235,1
743,667,1,0.0722263889762065,1
743,668,1,0.0836773720564806,1
743,669,1,0.0775282626354552,1
745,652,1,0.0737414667263664,1
745,653,1,0.0873308295752684,1
745,654,1,0.0768041347275869,1
746,651,1,0.0681622245374168,1
746,652,1,0.107198890636093,1
746,653,1,0.14297930518222,1
746,654,1,0.12465077213476,1
746,655,1,0.0792380200658434,1
747,651,1,0.0750047702571329,1
747,652,1,0.117478303595935,1
747,653,1,0.159715971558821,1
747,654,1,0.142253284505323,1
747,655,1,0.0899912901477874,1
747,674,1,0.076052711413196,1
747,675,1,0.0936487128978936,1
747,676,1,0.0765073054175937,1
748,650,1,0.0679463410522531,1
748,651,1,0.0742794144453065,1
748,652,1,0.095506184179556,1
748,653,1,0.119027019924772,1
748,654,1,0.110444654091908,1
748,655,1,0.079975181724994,1
748,674,1,0.0843631354528769,1
748,675,1,0.107195248852647,1
748,676,1,0.0857435690416973,1
749,651,1,0.0702216171377729,1
749,652,1,0.0735601322657413,1
749,653,1,0.077269767888057,1
749,654,1,0.0740189251026983,1
749,674,1,0.0722689103918099,1
749,675,1,0.0886538272077258,1
749,676,1,0.0727937644617137,1
751,667,1,0.0711232161011296,1
757,664,1,0.0690268605967465,1
757,665,1,0.0881728422528916,1
757,666,1,0.0718946871938027,1
758,665,1,0.0756795244463339,1
759,672,1,0.0719857437595166,1
717,654,2,0.0679107438170184,1
717,669,2,0.0722785419506619,1
723,669,2,0.0739057363168612,1
723,677,2,0.0690691004929058,1
723,678,2,0.0681791216938357,1
724,668,2,0.093344845601799,1
724,669,2,0.104502892726093,1
724,670,2,0.0843439981204564,1
724,675,2,0.0681517963384359,1
724,676,2,0.0803347539323594,1
724,677,2,0.0923623427420406,1
724,678,2,0.0886198651811768,1
724,679,2,0.0919195665645178,1
724,680,2,0.0886053339860432,1
724,681,2,0.0689693527630786,1
725,667,2,0.079970114375001,1
725,668,2,0.119259159660386,1
725,669,2,0.128176006531443,1
725,670,2,0.0965736040852377,1
725,675,2,0.0826336417125276,1
725,676,2,0.116747766628383,1
725,677,2,0.146926483317565,1
725,678,2,0.140049945622423,1
725,679,2,0.147690658863794,1
725,680,2,0.145924034505706,1
725,681,2,0.103196690423873,1
725,682,2,0.0695367941361153,1
725,683,2,0.07034522214304,1
725,685,2,0.116856181563222,1
726,667,2,0.0933167475653719,1
726,668,2,0.128383684024301,1
726,669,2,0.131841329795309,1
726,670,2,0.09902441652879,1
726,674,2,0.0689770975426779,1
726,675,2,0.0993305838986404,1
726,676,2,0.150781490788971,1
726,677,2,0.194590947695556,1
726,678,2,0.188033712947729,1
726,679,2,0.197542373587946,1
726,680,2,0.19090050331364,1
726,681,2,0.13237374895155,1
726,682,2,0.0878229674919076,1
726,683,2,0.0987844182078439,1
726,684,2,0.161824432399299,1
726,685,2,0.205363187396209,1
726,686,2,0.143214559601045,1
727,667,2,0.0800004465976542,1
727,668,2,0.0978901806784604,1
727,669,2,0.100532138834752,1
727,670,2,0.0844233326957018,1
727,674,2,0.0697569303618169,1
727,675,2,0.0913669738447113,1
727,676,2,0.126682635727352,1
727,677,2,0.157221793141333,1
727,678,2,0.161549561605942,1
727,679,2,0.179135182809862,1
727,680,2,0.176002662047863,1
727,681,2,0.133773763116171,1
727,682,2,0.104419994234482,1
727,683,2,0.118016904200395,1
727,684,2,0.18162065209391,1
727,685,2,0.226857328725008,1
727,686,2,0.162540234519354,1
727,687,2,0.0923260686621851,1
727,688,2,0.0696943431986052,1
728,667,2,0.067853493543693,1
728,668,2,0.0727461457472403,1
728,669,2,0.0743977065197891,1
728,670,2,0.070453918597323,1
728,675,2,0.084022688598381,1
728,676,2,0.105624274518403,1
728,677,2,0.112234422942162,1
728,678,2,0.11295381892746,1
728,679,2,0.127372945363281,1
728,680,2,0.129770161296506,1
728,681,2,0.122275514718172,1
728,682,2,0.116656602246712,1
728,683,2,0.121759531505644,1
728,684,2,0.153745842616687,1
728,685,2,0.174781191108528,1
728,686,2,0.135462532373538,1
728,687,2,0.0981652790832826,1
728,688,2,0.079933714509862,1
728,689,2,0.0721236164097995,1
729,675,2,0.0899372264349777,1
729,676,2,0.115102087815283,1
729,677,2,0.102221674783371,1
729,678,2,0.0893054668536371,1
729,679,2,0.0977248808465958,1
729,680,2,0.111115892282946,1
729,681,2,0.125340842179673,1
729,682,2,0.129040103510986,1
729,683,2,0.139789234658125,1
729,684,2,0.168288574057775,1
729,685,2,0.159722129047938,1
729,686,2,0.122822824456071,1
729,687,2,0.105600207600824,1
729,688,2,0.0897944601381884,1
729,689,2,0.0758489931618807,1
730,660,2,0.0698642371882058,1
730,675,2,0.0791874124534427,1
730,676,2,0.10069047255782,1
730,677,2,0.0864899549549722,1
730,678,2,0.0723398413121614,1
730,679,2,0.0786225946020336,1
730,680,2,0.0924251694962685,1
730,681,2,0.106295716361805,1
730,682,2,0.118918341439816,1
730,683,2,0.170096767457176,1
730,684,2,0.236160528089267,1
730,685,2,0.209717442647661,1
730,686,2,0.146116270357569,1
730,687,2,0.116830329692572,1
730,688,2,0.0948169107747722,1
730,689,2,0.0767680223716674,1
731,676,2,0.0691869014058051,1
731,680,2,0.0678817712733822,1
731,681,2,0.0764481563854648,1
731,682,2,0.097891444521071,1
731,683,2,0.168758352142825,1
731,684,2,0.246771966279385,1
731,685,2,0.227845402075893,1
731,686,2,0.174925736368613,1
731,687,2,0.132916039257659,1
731,688,2,0.0954945160970662,1
731,689,2,0.0743504172429629,1
732,661,2,0.0737449827245294,1
732,662,2,0.10070908877978,1
732,663,2,0.107095471173942,1
732,664,2,0.0746890252364092,1
732,682,2,0.0777523281538228,1
732,683,2,0.117190734478719,1
732,684,2,0.16013578293744,1
732,685,2,0.170412716130264,1
732,686,2,0.174729702999143,1
732,687,2,0.143256020826401,1
732,688,2,0.0956670156389682,1
733,661,2,0.101708674478995,1
733,662,2,0.15839778970579,1
733,663,2,0.167346046959072,1
733,664,2,0.105425953054728,1
733,683,2,0.0810134733528789,1
733,684,2,0.0945830100451888,1
733,685,2,0.115643707266546,1
733,686,2,0.142982024540254,1
733,687,2,0.122689396219139,1
733,688,2,0.0869095327323496,1
733,689,2,0.0725470096741102,1
733,690,2,0.0688615427955556,1
734,638,2,0.0752840674945143,1
734,640,2,0.0745039771150328,1
734,661,2,0.0976989690781918,1
734,662,2,0.150804934769908,1
734,663,2,0.15552200269722,1
734,664,2,0.097725755353805,1
734,683,2,0.0696821599954305,1
734,684,2,0.0820136340705325,1
734,685,2,0.097839740779771,1
734,686,2,0.109394993870303,1
734,687,2,0.0958599463047782,1
734,688,2,0.078411928211248,1
734,689,2,0.071156046060127,1
734,690,2,0.0681384990370358,1
735,639,2,0.0745974595397859,1
735,640,2,0.0750898490269921,1
735,641,2,0.0739577934549101,1
735,661,2,0.0697717730252717,1
735,662,2,0.0972349890957337,1
735,663,2,0.0947471059321969,1
735,684,2,0.072561409094185,1
735,685,2,0.0853587918594256,1
735,686,2,0.0921734851235063,1
735,687,2,0.0896861170806544,1
735,688,2,0.0804609764694788,1
735,689,2,0.0711363157399414,1
735,690,2,0.0677922960083753,1
736,639,2,0.0733513945826363,1
736,640,2,0.0743844751059184,1
736,641,2,0.073399917753196,1
736,685,2,0.0714394522834366,1
736,686,2,0.0850470539984482,1
736,687,2,0.0926789083619948,1
736,688,2,0.0841079770103795,1
736,689,2,0.0712555601887134,1
737,639,2,0.0735116210747325,1
737,640,2,0.0748758223722041,1
737,641,2,0.0748386318567115,1
737,650,2,0.070574079481732,1
737,686,2,0.070660158544084,1
737,687,2,0.0778172513294426,1
737,688,2,0.0724736708640457,1
738,640,2,0.0795784609305638,1
738,641,2,0.0801265433494901,1
738,649,2,0.102668655783229,1
738,650,2,0.128773007446105,1
738,651,2,0.0861793072331186,1
739,641,2,0.0873941235319779,1
739,648,2,0.0718892305084083,1
739,649,2,0.124484867335579,1
739,650,2,0.156291473204907,1
739,651,2,0.100923642534804,1
740,649,2,0.0913430746408435,1
740,650,2,0.108341739783456,1
740,651,2,0.0729315352858148,1
741,659,2,0.0824776799405201,1
741,660,2,0.0702414492841404,1
742,659,2,0.0709386172129086,1
742,668,2,0.0783336178875969,1
742,669,2,0.0754006764421079,1
745,652,2,0.0924303746110959,1
745,653,2,0.118204024784061,1
745,654,2,0.0919669936061783,1
746,651,2,0.0774019502517047,1
746,652,2,0.15223244200364,1
746,653,2,0.215221351431336,1
746,654,2,0.165502142518703,1
746,655,2,0.0805251269640713,1
746,675,2,0.0681148633832858,1
747,651,2,0.084820646477897,1
747,652,2,0.1604668378241,1
747,653,2,0.228702059754383,1
747,654,2,0.180897758079776,1
747,655,2,0.0909171956197395,1
747,674,2,0.0866643472659023,1
747,675,2,0.127106639948754,1
747,676,2,0.0972938506186432,1
748,650,2,0.0703082831981146,1
748,651,2,0.0805588613791549,1
748,652,2,0.111319017546496,1
748,653,2,0.14200698494065,1
748,654,2,0.119151391621291,1
748,655,2,0.0764805970090608,1
748,674,2,0.10012689458992,1
748,675,2,0.151390758763664,1
748,676,2,0.11465044677016,1
749,650,2,0.0713350624776701,1
749,651,2,0.0774333965725834,1
749,652,2,0.0800229142452001,1
749,653,2,0.080032899200801,1
749,654,2,0.0734576531983292,1
749,674,2,0.0738651136600614,1
749,675,2,0.104396562233096,1
749,676,2,0.0810850152303217,1
750,651,2,0.0709930642713443,1
750,652,2,0.0708723463378226,1
750,667,2,0.0797832333823505,1
751,666,2,0.069820853244944,1
751,667,2,0.0879708969750963,1
751,668,2,0.0701176945344881,1
757,665,2,0.0793821160927727,1
759,672,2,0.078625954866036,1
759,673,2,0.0717423013177123,1
760,672,2,0.111099252686869,1
724,668,3,0.079056457993753,1
724,669,3,0.0883567702862672,1
724,670,3,0.0711373759301882,1
724,676,3,0.0733861292902126,1
724,677,3,0.080647144678856,1
724,678,3,0.0832563806921075,1
724,679,3,0.088563465455959,1
724,680,3,0.0845957903091759,1
725,668,3,0.0902957264725456,1
725,669,3,0.098677392900899,1
725,670,3,0.0787174127467021,1
725,675,3,0.0754983217607678,1
725,676,3,0.0940630196729142,1
725,677,3,0.110337808478225,1
725,678,3,0.11752107059233,1
725,679,3,0.137190414864303,1
725,680,3,0.135580123644298,1
725,681,3,0.0959161843060601,1
725,685,3,0.110459628530422,1
726,667,3,0.0748868435589501,1
726,668,3,0.0938523652616794,1
726,669,3,0.0968798133835158,1
726,670,3,0.0790653767693317,1
726,675,3,0.0861679266598482,1
726,676,3,0.115328453407406,1
726,677,3,0.140294747743244,1
726,678,3,0.149189001181471,1
726,679,3,0.173656251389628,1
726,680,3,0.169137001784857,1
726,681,3,0.11899935914195,1
726,682,3,0.0827334972583121,1
726,683,3,0.0907072599815534,1
726,684,3,0.15928474366828,1
726,685,3,0.223926292028098,1
726,686,3,0.155462931532171,1
727,667,3,0.0683577607555282,1
727,668,3,0.076059581685586,1
727,669,3,0.078520684563285,1
727,670,3,0.0714293295630013,1
727,675,3,0.0784415296813018,1
727,676,3,0.0989889630481651,1
727,677,3,0.115982021760998,1
727,678,3,0.124350983875716,1
727,679,3,0.144714567076284,1
727,680,3,0.143679821395439,1
727,681,3,0.115863076800996,1
727,682,3,0.0972177325527905,1
727,683,3,0.11054632453964,1
727,684,3,0.184493108787355,1
727,685,3,0.257260494278183,1
727,686,3,0.184649489843641,1
727,687,3,0.094001444781746,1
728,675,3,0.0710988377152294,1
728,676,3,0.0853183249367863,1
728,677,3,0.0893729237042535,1
728,678,3,0.0912053217860686,1
728,679,3,0.102591914780734,1
728,680,3,0.108702491976576,1
728,681,3,0.113461164883854,1
728,682,3,0.114411334935974,1
728,683,3,0.115985172382861,1
728,684,3,0.144231707321748,1
728,685,3,0.177761355943314,1
728,686,3,0.138542582702985,1
728,687,3,0.093522945583705,1
728,688,3,0.0758048005989392,1
728,689,3,0.0716939099222115,1
729,675,3,0.0729421910962612,1
729,676,3,0.0910662751398062,1
729,677,3,0.0825962715037729,1
729,678,3,0.0757018483392701,1
729,679,3,0.0841581593487264,1
729,680,3,0.10125479325787,1
729,681,3,0.121438491523462,1
729,682,3,0.126847941548992,1
729,683,3,0.130147996329082,1
729,684,3,0.143530412437725,1
729,685,3,0.136994225760673,1
729,686,3,0.114291695162025,1
729,687,3,0.101911308580962,1
729,688,3,0.0849445090435067,1
729,689,3,0.073485230124296,1
730,660,3,0.0681159355530834,1
730,675,3,0.0680656993067578,1
730,676,3,0.0862048057070197,1
730,677,3,0.075708820437842,1
730,679,3,0.0703125958364065,1
730,680,3,0.0856836293592148,1
730,681,3,0.10147829573735,1
730,682,3,0.111772623237952,1
730,683,3,0.150264058050795,1
730,684,3,0.203269090037154,1
730,685,3,0.186062262229876,1
730,686,3,0.149862156100639,1
730,687,3,0.129118006529909,1
730,688,3,0.0951081755834137,1
730,689,3,0.0732321141952119,1
731,681,3,0.0734379767861223,1
731,682,3,0.0912027881110721,1
731,683,3,0.154085307148016,1
731,684,3,0.234380654347983,1
731,685,3,0.226379584238668,1
731,686,3,0.188057144949115,1
731,687,3,0.14905322495258,1
731,688,3,0.099938354429482,1
731,689,3,0.0723707904816814,1
732,662,3,0.0842129478243602,1
732,663,3,0.090396660177903,1
732,682,3,0.0728845634670852,1
732,683,3,0.113728141153226,1
732,684,3,0.175532967819668,1
732,685,3,0.187926316274709,1
732,686,3,0.176562083111632,1
732,687,3,0.13833185042467,1
732,688,3,0.0939853083268037,1
733,640,3,0.0690019251617335,1
733,661,3,0.085179841329412,1
733,662,3,0.136401813013971,1
733,663,3,0.144687541209655,1
733,664,3,0.090945581165386,1
733,683,3,0.08460183399256,1
733,684,3,0.11790115778046,1
733,685,3,0.135946134860225,1
733,686,3,0.138109246411502,1
733,687,3,0.109336605539651,1
734,638,3,0.069672815945798,1
734,639,3,0.0702947522954736,1
734,640,3,0.0708126043179285,1
734,641,3,0.0687750085102729,1
734,661,3,0.0831609575801231,1
734,662,3,0.130747201481094,1
734,663,3,0.133521833162617,1
734,664,3,0.0830488409640836,1
734,683,3,0.0702381968360952,1
734,684,3,0.0907564180683061,1
734,685,3,0.106318944710827,1
734,686,3,0.107547543482894,1
734,687,3,0.0905974374494942,1
734,688,3,0.0778804374701949,1
734,689,3,0.0706647946302478,1
735,639,3,0.0692998446108505,1
735,640,3,0.0715459205412687,1
735,641,3,0.0707621524396882,1
735,662,3,0.0829906802448965,1
735,663,3,0.0795799943130676,1
735,684,3,0.0716515861691965,1
735,685,3,0.0868699702657965,1
735,686,3,0.0930149946599954,1
735,687,3,0.0874620356055251,1
735,688,3,0.0760617799331599,1
735,689,3,0.0688133370830925,1
736,639,3,0.0681506642708843,1
736,640,3,0.070759978151216,1
736,641,3,0.0710873014077985,1
736,685,3,0.0753717158780225,1
736,686,3,0.0887738383477497,1
736,687,3,0.0909283545713199,1
736,688,3,0.0781541881755508,1
736,689,3,0.0689999066074219,1
736,691,3,0.0685503080757123,1
736,692,3,0.0708248653881834,1
737,640,3,0.0700839002216504,1
737,641,3,0.0720019820406408,1
737,642,3,0.0704819447564452,1
737,686,3,0.0724759290093736,1
737,687,3,0.0765414471374049,1
737,688,3,0.0687539843985997,1
737,691,3,0.0703471209018436,1
737,692,3,0.0730532355425031,1
738,640,3,0.0738715766277239,1
738,641,3,0.0765206925656249,1
738,642,3,0.075241665874419,1
738,649,3,0.1020817536299,1
738,650,3,0.136160652676596,1
738,651,3,0.0860313837397053,1
738,691,3,0.0691783839451785,1
739,641,3,0.0843376070300988,1
739,642,3,0.0793143178249582,1
739,648,3,0.0696064552240808,1
739,649,3,0.131901838506455,1
739,650,3,0.174525906880747,1
739,651,3,0.106451330726839,1
740,649,3,0.0884477609644516,1
740,650,3,0.111113532311436,1
740,651,3,0.0698825179827433,1
740,688,3,0.0700228105022901,1
741,659,3,0.0681867406881514,1
741,688,3,0.0731494433150656,1
742,688,3,0.0732845906175391,1
745,652,3,0.105333842288543,1
745,653,3,0.13889631487933,1
745,654,3,0.098957319064698,1
746,651,3,0.0892613940862037,1
746,652,3,0.186422032099829,1
746,653,3,0.263329286800797,1
746,654,3,0.18372987962564,1
746,655,3,0.0801428115794913,1
747,651,3,0.0962946243059527,1
747,652,3,0.188496279343191,1
747,653,3,0.266188757661162,1
747,654,3,0.190202143419566,1
747,655,3,0.0869335697010517,1
747,674,3,0.0846162693512872,1
747,675,3,0.13984426871455,1
747,676,3,0.103255090734076,1
748,649,3,0.0683078958752777,1
748,650,3,0.0717717290842793,1
748,651,3,0.0863517049488387,1
748,652,3,0.116596177392422,1
748,653,3,0.146398065331295,1
748,654,3,0.110767574863567,1
748,655,3,0.0700089801108789,1
748,674,3,0.101401854223625,1
748,675,3,0.172331241192634,1
748,676,3,0.127978799165993,1
749,650,3,0.0745347286219645,1
749,651,3,0.0835420330811941,1
749,652,3,0.0821252056170101,1
749,653,3,0.0783953305435994,1
749,654,3,0.0694338658355478,1
749,675,3,0.101653077383681,1
749,676,3,0.0764754757510891,1
750,651,3,0.0745088827410899,1
750,652,3,0.0714581044440492,1
750,667,3,0.0853422361202049,1
751,666,3,0.0720027667012189,1
751,667,3,0.0985878397688119,1
751,668,3,0.0762528298094926,1
752,667,3,0.0700681590918849,1
759,672,3,0.0763500199052216,1
759,673,3,0.0778419591529902,1
760,672,3,0.12795940427323,1
760,673,3,0.130883552728424,1
724,669,4,0.0698149413366189,1
724,678,4,0.0710720274805145,1
724,679,4,0.0788643299578473,1
724,680,4,0.075021272088375,1
725,669,4,0.0717871707252746,1
725,677,4,0.0722383086292634,1
725,678,4,0.0871040387090913,1
725,679,4,0.110127052240809,1
725,680,4,0.107622415675463,1
725,681,4,0.0821322735519886,1
725,685,4,0.0954191826917917,1
726,676,4,0.0753834618275926,1
726,677,4,0.0828524781569662,1
726,678,4,0.0980438962846909,1
726,679,4,0.124559871303206,1
726,680,4,0.122685790374345,1
726,681,4,0.0959403171111687,1
726,682,4,0.0771428325676643,1
726,683,4,0.0815836999714791,1
726,684,4,0.138996487883211,1
726,685,4,0.206813359940075,1
726,686,4,0.151779555085233,1
727,677,4,0.071404921228224,1
727,678,4,0.0794248291811891,1
727,679,4,0.0961747090023353,1
727,680,4,0.100316872296455,1
727,681,4,0.0953436576137041,1
727,682,4,0.0917741108585715,1
727,683,4,0.101756748416399,1
727,684,4,0.169027364935836,1
727,685,4,0.252662383290424,1
727,686,4,0.193009095929176,1
727,687,4,0.0991391746357833,1
728,679,4,0.0719722787444051,1
728,680,4,0.084283483419535,1
728,681,4,0.101037052942331,1
728,682,4,0.108972499072304,1
728,683,4,0.108846749727441,1
728,684,4,0.129150890396885,1
728,685,4,0.168408249770376,1
728,686,4,0.137515132568584,1
728,687,4,0.0905110409290458,1
728,688,4,0.0719393589387766,1
728,689,4,0.0694663723466732,1
729,680,4,0.0835492268014561,1
729,681,4,0.106112513091253,1
729,682,4,0.115552674659934,1
729,683,4,0.117681524695892,1
729,684,4,0.117808340220776,1
729,685,4,0.116308620254756,1
729,686,4,0.109951455985022,1
729,687,4,0.100311577334997,1
729,688,4,0.0808391469294782,1
729,689,4,0.0699757668062556,1
730,680,4,0.072621726132518,1
730,681,4,0.0888367669281595,1
730,682,4,0.0992340766373075,1
730,683,4,0.12341548877334,1
730,684,4,0.151804855896546,1
730,685,4,0.151619160879426,1
730,686,4,0.154897796222666,1
730,687,4,0.147991860709833,1
730,688,4,0.100305665426671,1
730,689,4,0.0699288608750554,1
731,681,4,0.069790760613307,1
731,682,4,0.0838419830641736,1
731,683,4,0.126511999005601,1
731,684,4,0.189792622475094,1
731,685,4,0.20560783378287,1
731,686,4,0.199732067762473,1
731,687,4,0.175301594775306,1
731,688,4,0.11240220853082,1
731,689,4,0.0710633303266258,1
732,682,4,0.069633756620379,1
732,683,4,0.106745931840381,1
732,684,4,0.184596420433549,1
732,685,4,0.212595242220767,1
732,686,4,0.181765556740519,1
732,687,4,0.137679515964812,1
732,688,4,0.0941160471545788,1
732,689,4,0.0694218563358598,1
733,662,4,0.096588219137227,1
733,663,4,0.102567572333486,1
733,683,4,0.0882903975849992,1
733,684,4,0.153642686704654,1
733,685,4,0.182067213809489,1
733,686,4,0.143612819767754,1
733,687,4,0.0961747269716616,1
733,688,4,0.0787656543978177,1
734,662,4,0.0921831586107861,1
734,663,4,0.0927078150181016,1
734,683,4,0.0682200438394058,1
734,684,4,0.104057516986045,1
734,685,4,0.12555145466248,1
734,686,4,0.106675695733977,1
734,687,4,0.0809369599618495,1
735,640,4,0.0678937867628455,1
735,684,4,0.0678760690071962,1
735,685,4,0.0849090435833309,1
735,686,4,0.0885465623097647,1
735,687,4,0.0793900166065325,1
735,688,4,0.0693274694550205,1
736,685,4,0.0725094298232163,1
736,686,4,0.0846021574404319,1
736,687,4,0.0818581275214559,1
736,688,4,0.0701782391842865,1
736,691,4,0.0690806188310105,1
737,686,4,0.0699467463444161,1
737,687,4,0.0712709299524038,1
737,691,4,0.0733726822444273,1
738,640,4,0.0681357976483279,1
738,641,4,0.0706512098196282,1
738,642,4,0.0698770133791457,1
738,649,4,0.0914692372802088,1
738,650,4,0.125825726478296,1
738,651,4,0.0810948085131097,1
739,641,4,0.0785583602505854,1
739,642,4,0.0732387568561365,1
739,643,4,0.0678940323436372,1
739,649,4,0.123866590738676,1
739,650,4,0.167801521460455,1
739,651,4,0.104646395765258,1
740,642,4,0.0777514476568382,1
740,649,4,0.0797614904976286,1
740,650,4,0.102052487587269,1
740,687,4,0.0678792375983857,1
740,688,4,0.0808668735998301,1
741,687,4,0.0717508726863175,1
742,687,4,0.0693626833446293,1
745,651,4,0.0685156272761147,1
745,652,4,0.109623695474835,1
745,653,4,0.137836448080435,1
745,654,4,0.0903022313686359,1
746,651,4,0.100694042463962,1
746,652,4,0.199732714658217,1
746,653,4,0.263273246462103,1
746,654,4,0.167761042558265,1
746,655,4,0.0729151173114285,1
747,650,4,0.0686888396012899,1
747,651,4,0.106971315109338,1
747,652,4,0.198164819068531,1
747,653,4,0.258518826295363,1
747,654,4,0.167021233418385,1
747,655,4,0.0758572710314911,1
747,674,4,0.0681521197863078,1
747,675,4,0.121241008628343,1
747,676,4,0.0871966526164106,1
748,649,4,0.0684814975358543,1
748,650,4,0.0723868191206665,1
748,651,4,0.0910733670338862,1
748,652,4,0.12084387453941,1
748,653,4,0.140545719332733,1
748,654,4,0.0962699763801593,1
748,674,4,0.0866747515057816,1
748,675,4,0.157127957319831,1
748,676,4,0.116444492320054,1
749,650,4,0.0749077179262382,1
749,651,4,0.0855533936725738,1
749,652,4,0.0843078618054352,1
749,653,4,0.0774764750372995,1
749,675,4,0.0839814669640406,1
750,651,4,0.0748398238220172,1
750,652,4,0.0706720422584884,1
750,667,4,0.078242561321883,1
751,667,4,0.0940853315862995,1
751,668,4,0.0731627525960166,1
759,673,4,0.0716513944963835,1
760,672,4,0.123676942469789,1
760,673,4,0.139141608161735,1
724,679,5,0.0690487951542813,1
725,679,5,0.0841962603100806,1
725,680,5,0.0817468674432993,1
725,681,5,0.0708241166662578,1
725,685,5,0.0800019680006072,1
726,679,5,0.083477475281874,1
726,680,5,0.0850805308531894,1
726,681,5,0.0806794535273931,1
726,682,5,0.076575810478906,1
726,683,5,0.0766628538950982,1
726,684,5,0.113300447230175,1
726,685,5,0.16257178865619,1
726,686,5,0.13039452350522,1
727,680,5,0.0744361488983413,1
727,681,5,0.0877459988779474,1
727,682,5,0.0935956075491487,1
727,683,5,0.096194439322521,1
727,684,5,0.143161214661283,1
727,685,5,0.210354371405176,1
727,686,5,0.174500306580664,1
727,687,5,0.0973037936458162,1
728,680,5,0.0694998551911898,1
728,681,5,0.0924052894316978,1
728,682,5,0.103728259032006,1
728,683,5,0.101217093611468,1
728,684,5,0.11288083950392,1
728,685,5,0.145179014261224,1
728,686,5,0.126484469997838,1
728,687,5,0.0861802895562851,1
729,680,5,0.0679768649477193,1
729,681,5,0.088390169273928,1
729,682,5,0.100234914199582,1
729,683,5,0.103595633424978,1
729,684,5,0.0994442997847131,1
729,685,5,0.102142070668233,1
729,686,5,0.105206847070396,1
729,687,5,0.0972821945157041,1
729,688,5,0.0778086799608374,1
730,681,5,0.075835480228566,1
730,682,5,0.0870009906130157,1
730,683,5,0.100336985962267,1
730,684,5,0.108451448509782,1
730,685,5,0.11861585778184,1
730,686,5,0.143689225342826,1
730,687,5,0.148510383587134,1
730,688,5,0.0996390992604496,1
730,689,5,0.0702949858967144,1
731,682,5,0.0772163570607664,1
731,683,5,0.0992274160070566,1
731,684,5,0.134829712601951,1
731,685,5,0.164137587824483,1
731,686,5,0.180139895756824,1
731,687,5,0.17620367891047,1
731,688,5,0.115312065381897,1
731,689,5,0.0727811440049344,1
732,683,5,0.0928101862695564,1
732,684,5,0.163236809460357,1
732,685,5,0.203474275783443,1
732,686,5,0.162977943346883,1
732,687,5,0.128556177576428,1
732,688,5,0.0910677186756789,1
732,689,5,0.0685716616250328,1
733,683,5,0.0836541736563352,1
733,684,5,0.160041024690525,1
733,685,5,0.201273368749358,1
733,686,5,0.139540623040146,1
733,687,5,0.0891317993055311,1
733,688,5,0.0749931740519479,1
734,684,5,0.100521632768691,1
734,685,5,0.127864526230808,1
734,686,5,0.0976045043302722,1
734,687,5,0.0744079610152832,1
734,688,5,0.0680232078400314,1
735,685,5,0.0765878020092678,1
735,686,5,0.0783138516287589,1
735,687,5,0.0712256292810123,1
736,686,5,0.0751475545232484,1
736,687,5,0.0710341241817488,1
738,649,5,0.0789501275007552,1
738,650,5,0.105069142133824,1
738,651,5,0.0722700724082386,1
739,640,5,0.078236799157943,1
739,641,5,0.0719701224252591,1
739,649,5,0.106932657098871,1
739,650,5,0.140942230485024,1
739,651,5,0.0938406552507617,1
740,641,5,0.0841441013458498,1
740,642,5,0.071111506090212,1
740,643,5,0.0679895453022527,1
740,649,5,0.0724557494560326,1
740,650,5,0.0876030409083451,1
741,637,5,0.0795096264316042,1
741,643,5,0.0731295812198211,1
743,638,5,0.12228109718885,1
744,637,5,0.130849590701875,1
744,638,5,0.134415100348384,1
745,652,5,0.0964132697771842,1
745,653,5,0.110606030620882,1
745,654,5,0.0727483859232419,1
746,651,5,0.0976406406452934,1
746,652,5,0.172983168347765,1
746,653,5,0.205690109337839,1
746,654,5,0.126146083626082,1
747,650,5,0.068201906799478,1
747,651,5,0.105536979531644,1
747,652,5,0.178337919744293,1
747,653,5,0.207413559394805,1
747,654,5,0.127053079377079,1
747,675,5,0.0900597413011211,1
748,650,5,0.0698469147577332,1
748,651,5,0.0889742682123673,1
748,652,5,0.117044835529393,1
748,653,5,0.123828903071825,1
748,654,5,0.0813890023219245,1
748,674,5,0.0682811215792153,1
748,675,5,0.120414503479245,1
748,676,5,0.0929167323944688,1
749,651,5,0.0796771424803689,1
749,652,5,0.080667929199513,1
749,653,5,0.0726950349937055,1
751,667,5,0.0734275605666922,1
760,672,5,0.105076377782514,1
760,673,5,0.123467551901164,1
720,636,6,0.071330600094993,1
721,635,6,0.0797664560214398,1
721,636,6,0.0776449973683323,1
726,681,6,0.0719362143066888,1
726,682,6,0.0761024744672646,1
726,683,6,0.0727286196644039,1
726,684,6,0.0874155489586033,1
726,685,6,0.111673216925323,1
727,681,6,0.0854040925308172,1
727,682,6,0.095691669554537,1
727,683,6,0.0907773223844711,1
727,684,6,0.111326049542822,1
727,685,6,0.148289025447249,1
727,686,6,0.134839487915412,1
728,681,6,0.0835832547155345,1
728,682,6,0.096810487722973,1
728,683,6,0.0921973603682725,1
728,684,6,0.0956686508476538,1
728,685,6,0.112695024691292,1
728,686,6,0.105293842568385,1
729,681,6,0.0696947744624344,1
729,682,6,0.0831438986997683,1
729,683,6,0.0881315786901233,1
729,684,6,0.0870188341539485,1
729,685,6,0.0892888512166623,1
729,686,6,0.0961821602829397,1
729,687,6,0.0940596594089117,1
729,688,6,0.0794776350411636,1
730,682,6,0.0747304864617659,1
730,683,6,0.0833733011080222,1
730,684,6,0.0850190218495506,1
730,685,6,0.0949728126490256,1
730,686,6,0.124637786301681,1
730,687,6,0.139367662285537,1
730,688,6,0.103728199134252,1
730,689,6,0.0775513232707662,1
731,682,6,0.0702170349595877,1
731,683,6,0.0790515044494927,1
731,684,6,0.0960135600848267,1
731,685,6,0.123414877816249,1
731,686,6,0.148918431046856,1
731,687,6,0.16205356526766,1
731,688,6,0.119753196335829,1
731,689,6,0.0814827363172446,1
732,683,6,0.0754802326390433,1
732,684,6,0.129049447560618,1
732,685,6,0.172607070350056,1
732,686,6,0.142184030722085,1
732,687,6,0.122091353083556,1
732,688,6,0.0952569196760576,1
733,683,6,0.0700895186309808,1
733,684,6,0.140267482285599,1
733,685,6,0.188503958235261,1
733,686,6,0.133871803760007,1
733,687,6,0.0899695173141885,1
734,684,6,0.0857322004479777,1
734,685,6,0.11590789230058,1
734,686,6,0.0882529674784905,1
734,687,6,0.0705036996207178,1
735,686,6,0.0688990028509414,1
736,686,6,0.0687109298929852,1
738,650,6,0.0749922396469847,1
739,640,6,0.0756263711793858,1
739,641,6,0.0679647596116249,1
739,649,6,0.0804903263689656,1
739,650,6,0.100036886234902,1
739,651,6,0.0724932813887232,1
740,636,6,0.0726078058944757,1
740,637,6,0.0704419869647153,1
740,640,6,0.0923782156468651,1
740,641,6,0.077868074573758,1
740,650,6,0.0679866462509564,1
741,636,6,0.0779080982530173,1
741,637,6,0.0784783668000454,1
741,638,6,0.0829798926593913,1
741,641,6,0.093361790676421,1
741,642,6,0.0819512445699092,1
742,637,6,0.0989590800586672,1
742,638,6,0.102614999375147,1
743,637,6,0.136995411736203,1
743,638,6,0.144963945385515,1
743,639,6,0.115185034225097,1
744,636,6,0.108659437470962,1
744,637,6,0.16087915000391,1
744,638,6,0.169565186869492,1
744,639,6,0.12194486713624,1
745,637,6,0.142803145887545,1
745,638,6,0.146958181209011,1
745,652,6,0.0729306428092794,1
745,653,6,0.0760675840255278,1
746,651,6,0.0806378425576513,1
746,652,6,0.126718155095507,1
746,653,6,0.134702909056617,1
746,654,6,0.0833755173249222,1
747,651,6,0.0930642366036038,1
747,652,6,0.147025506284568,1
747,653,6,0.153327924007096,1
747,654,6,0.092006106839576,1
748,651,6,0.0807083002857458,1
748,652,6,0.109796212986063,1
748,653,6,0.108493257142112,1
748,654,6,0.0687185848259534,1
748,675,6,0.0788687803609736,1
749,651,6,0.0701571911135117,1
749,652,6,0.0750142520715998,1
749,653,6,0.0677491037379265,1
760,672,6,0.0808091441444722,1
760,673,6,0.0960646588588107,1
761,673,6,0.0774666997238378,1
720,636,7,0.0709437744095327,1
721,635,7,0.078442595861324,1
721,636,7,0.0756678144354162,1
722,635,7,0.0793498491726635,1
726,682,7,0.071282100883535,1
726,683,7,0.0679903599117078,1
726,684,7,0.0706868909117186,1
726,685,7,0.0792067594280023,1
727,681,7,0.0753294999409648,1
727,682,7,0.0871106634006897,1
727,683,7,0.0826464418625691,1
727,684,7,0.0882646475405311,1
727,685,7,0.103020471231444,1
727,686,7,0.101193386080414,1
728,681,7,0.0714914615032822,1
728,682,7,0.0858190402118061,1
728,683,7,0.0835945634115001,1
728,684,7,0.0842748222042987,1
728,685,7,0.0905107354505001,1
728,686,7,0.0893980867507318,1
729,682,7,0.0758096762761193,1
729,683,7,0.0801226380159257,1
729,684,7,0.0808008722646373,1
729,685,7,0.0816689883834775,1
729,686,7,0.0898648100503256,1
729,687,7,0.0954804341350879,1
729,688,7,0.0876626271940787,1
730,682,7,0.0723533003374975,1
730,683,7,0.0778761068625767,1
730,684,7,0.0781343440496325,1
730,685,7,0.0853852906258194,1
730,686,7,0.111505934477799,1
730,687,7,0.133821381830644,1
730,688,7,0.117048896597118,1
730,689,7,0.0900727211444247,1
731,683,7,0.0720903072687697,1
731,684,7,0.0820656971983568,1
731,685,7,0.102507554783923,1
731,686,7,0.127090000352678,1
731,687,7,0.148610472734159,1
731,688,7,0.128304427316136,1
731,689,7,0.0934226467945405,1
732,684,7,0.107604530206102,1
732,685,7,0.149253343348877,1
732,686,7,0.136956538093822,1
732,687,7,0.12585178200131,1
732,688,7,0.106596522882667,1
733,684,7,0.123331823590476,1
733,685,7,0.174861106691988,1
733,686,7,0.141963894496384,1
733,687,7,0.101907714715719,1
734,684,7,0.0820388390454387,1
734,685,7,0.116314070950375,1
734,686,7,0.0978180098746,1
734,687,7,0.0765567809624429,1
734,688,7,0.0680323242781985,1
735,685,7,0.0703619935141754,1
735,686,7,0.072888283117612,1
736,686,7,0.0678081150052212,1
738,638,7,0.0678223107729321,1
739,636,7,0.0702834975074867,1
739,639,7,0.0740842196443933,1
739,640,7,0.0713824116522503,1
740,635,7,0.0851719468054276,1
740,636,7,0.0760436488830075,1
740,637,7,0.0710987538583737,1
740,638,7,0.0740275803281592,1
740,639,7,0.0804070984397066,1
740,640,7,0.0807015797577409,1
740,641,7,0.071098670001518,1
741,635,7,0.0817833092368662,1
741,636,7,0.0791646153682495,1
741,637,7,0.0780449406619306,1
741,638,7,0.0795316628153209,1
741,639,7,0.0820590425578814,1
741,640,7,0.0855427258825766,1
741,641,7,0.0857450065877946,1
741,642,7,0.0781905401224866,1
742,636,7,0.0881188444276113,1
742,637,7,0.107992547856868,1
742,638,7,0.113139142578505,1
743,636,7,0.104860003135767,1
743,637,7,0.166381645200589,1
743,638,7,0.181039943368351,1
743,639,7,0.124356314775827,1
744,636,7,0.115845323106694,1
744,637,7,0.194830047550191,1
744,638,7,0.211607456379101,1
744,639,7,0.134835151318019,1
745,637,7,0.144894487949914,1
745,638,7,0.152728119877544,1
746,652,7,0.0863925372477777,1
746,653,7,0.0840600887560128,1
747,651,7,0.0813680201386791,1
747,652,7,0.114600539961481,1
747,653,7,0.11149472161824,1
747,654,7,0.0700420257017908,1
748,651,7,0.0753146812366117,1
748,652,7,0.0992548491784137,1
748,653,7,0.0944207709885564,1
749,652,7,0.0721478750001917,1
760,673,7,0.071836502515514,1
721,635,8,0.0726323400145365,1
721,636,8,0.0685221681108574,1
722,635,8,0.0715645128041272,1
722,636,8,0.068459023898533,1
723,635,8,0.0700408696751376,1
727,682,8,0.0742825470978436,1
727,683,8,0.0753407187902992,1
727,684,8,0.0778232770435005,1
727,685,8,0.0798968833808937,1
728,682,8,0.0735223307931574,1
728,683,8,0.0759288248884848,1
728,684,8,0.0789878151676064,1
728,685,8,0.079782251059184,1
729,682,8,0.0721245807636398,1
729,683,8,0.0756979070670533,1
729,684,8,0.0777767245090493,1
729,685,8,0.0790140144452299,1
729,686,8,0.0846348196857179,1
730,682,8,0.0727402518082413,1
730,683,8,0.07583531850463,1
730,684,8,0.075011287132774,1
730,685,8,0.0812419832845973,1
730,686,8,0.102488770848252,1
730,687,8,0.126867588012322,1
730,688,8,0.122025166065325,1
731,683,8,0.0683362993902504,1
731,684,8,0.0752040860235252,1
731,685,8,0.0941106204180614,1
731,686,8,0.119584344567149,1
731,687,8,0.146228135403042,1
731,688,8,0.135578386609431,1
732,684,8,0.0921516703614796,1
732,685,8,0.137169953791518,1
732,686,8,0.146328440181982,1
732,687,8,0.144680006072195,1
733,684,8,0.106706195670341,1
733,685,8,0.166321747446535,1
733,686,8,0.156059848589978,1
733,687,8,0.119208342405846,1
734,684,8,0.0786559756203682,1
734,685,8,0.123587455225231,1
734,686,8,0.115075193723712,1
734,687,8,0.0847586223535735,1
735,685,8,0.0789992616284062,1
735,686,8,0.084327610094947,1
735,687,8,0.0709755920964866,1
736,686,8,0.0722364398193369,1
738,638,8,0.0690776059739816,1
739,636,8,0.0698448482852183,1
739,638,8,0.068357461266758,1
739,639,8,0.068708504033946,1
740,635,8,0.0839917753675135,1
740,636,8,0.0755277195784578,1
740,637,8,0.0695130566561834,1
740,638,8,0.0693303445472152,1
740,639,8,0.0701002702778336,1
741,635,8,0.0790108937722436,1
741,636,8,0.0759006190361004,1
741,637,8,0.0741137073087144,1
741,638,8,0.0731984875960856,1
741,639,8,0.0708237692592842,1
741,640,8,0.0726784852442602,1
741,641,8,0.0765169729150981,1
741,642,8,0.0723891671126254,1
742,636,8,0.0829392520332652,1
742,637,8,0.108208862605861,1
742,638,8,0.116262211474915,1
742,639,8,0.0879938258353485,1
742,640,8,0.0885546964247654,1
742,641,8,0.117756600540824,1
743,636,8,0.101947678497224,1
743,637,8,0.179716179044641,1
743,638,8,0.203785528472613,1
743,639,8,0.125938729581095,1
744,637,8,0.204213438027579,1
744,638,8,0.231303203581061,1
744,639,8,0.136520590260261,1
745,638,8,0.142590065617271,1
747,651,8,0.0686628020476023,1
747,652,8,0.086873612049243,1
747,653,8,0.0823171839085307,1
748,651,8,0.0680401888533059,1
748,652,8,0.0853863687853924,1
748,653,8,0.0803551011994118,1
721,635,9,0.0684704164513542,1
727,683,9,0.0680034715300704,1
727,684,9,0.0740904969290182,1
727,685,9,0.0731418902082793,1
728,683,9,0.0683369522757696,1
728,684,9,0.0772409750376829,1
728,685,9,0.0792444530846289,1
729,682,9,0.067898063462485,1
729,683,9,0.0716354736733558,1
729,684,9,0.0786552448677688,1
729,685,9,0.0834602247287063,1
730,682,9,0.0717080637614946,1
730,683,9,0.0739168233911367,1
730,684,9,0.0747885753036481,1
730,685,9,0.0815723792959628,1
730,686,9,0.0960578365046239,1
731,684,9,0.0707886571958574,1
731,685,9,0.0864884395417946,1
731,686,9,0.111538506876454,1
732,684,9,0.0768732148073381,1
732,685,9,0.117177760625191,1
732,686,9,0.140994137878688,1
732,687,9,0.15222416413403,1
733,684,9,0.0897683986253993,1
733,685,9,0.154058592749708,1
733,686,9,0.165557811491322,1
733,687,9,0.133437005963325,1
734,684,9,0.0784909573079477,1
734,685,9,0.145637543548063,1
734,686,9,0.158304732555091,1
734,687,9,0.113518534952687,1
735,685,9,0.108725253123117,1
735,686,9,0.127483289005801,1
735,687,9,0.0963450941535192,1
736,685,9,0.0761679187533447,1
736,686,9,0.0898911770416605,1
736,687,9,0.0759643322770883,1
737,686,9,0.0682479022848166,1
737,688,9,0.0682201217064861,1
738,638,9,0.0680742826549138,1
739,635,9,0.0774385477794321,1
739,636,9,0.069070831537998,1
740,635,9,0.0789753983631908,1
740,636,9,0.0732909457692443,1
741,636,9,0.0720362794946125,1
741,637,9,0.0701442531986359,1
741,641,9,0.0717701837222247,1
741,642,9,0.0686613405424034,1
742,637,9,0.0995691626428154,1
742,638,9,0.10864094104451,1
742,639,9,0.0812932018540895,1
742,640,9,0.0823257612669113,1
742,641,9,0.105697122166884,1
743,637,9,0.170376861334687,1
743,638,9,0.197235948657754,1
743,639,9,0.118683039102787,1
743,640,9,0.0904268127072941,1
744,637,9,0.187979325787047,1
744,638,9,0.216802652138379,1
744,639,9,0.126136116639807,1
745,638,9,0.125019215199501,1
748,652,9,0.0698667648734269,1
705,654,10,0.0683498422724422,1
706,654,10,0.0697383201296322,1
717,631,10,0.0680931324781148,1
727,684,10,0.0686934756874537,1
728,684,10,0.0709303513228491,1
729,684,10,0.0743747716697615,1
730,683,10,0.068558975280724,1
730,684,10,0.071810429023174,1
730,685,10,0.0806794175887407,1
731,684,10,0.0682849011274962,1
731,685,10,0.078903059845619,1
732,684,10,0.0692442295462108,1
732,685,10,0.0945149841659089,1
732,686,10,0.118308726058149,1
733,684,10,0.0749628777679471,1
733,685,10,0.124532713661518,1
733,686,10,0.146805501833925,1
734,684,10,0.074769443961003,1
734,685,10,0.14993589023588,1
734,686,10,0.184190577211176,1
734,687,10,0.131346250898945,1
735,685,10,0.129087458675342,1
735,686,10,0.164829993881804,1
735,687,10,0.118910554731788,1
736,685,10,0.0864685235385715,1
736,686,10,0.10548773159826,1
736,687,10,0.0842597818782556,1
738,688,10,0.0685412814841763,1
739,635,10,0.0723516291901594,1
740,635,10,0.0715939585400205,1
740,636,10,0.0688075569498262,1
742,638,10,0.0934696066337194,1
742,639,10,0.0739398301184691,1
742,640,10,0.0731877658981098,1
742,641,10,0.0874529311469088,1
742,642,10,0.0855581974724489,1
743,638,10,0.161752135810155,1
743,639,10,0.103836853660107,1
743,640,10,0.0783022973520018,1
743,641,10,0.0932213723715907,1
744,638,10,0.175356065792843,1
744,640,10,0.0697206143535336,1
706,654,11,0.0690190559193932,1
712,641,11,0.0761397608191636,1
712,643,11,0.0701328666355901,1
717,631,11,0.068435801539286,1
717,633,11,0.0689988524069505,1
718,634,11,0.086843106123103,1
719,635,11,0.0712007417642026,1
721,634,11,0.06963428971039,1
731,685,11,0.0719983282776434,1
732,685,11,0.0753365558963924,1
733,685,11,0.0936517497140242,1
733,686,11,0.114513460606637,1
734,684,11,0.0723856271553608,1
734,685,11,0.135827609184501,1
734,686,11,0.175575519184149,1
734,687,11,0.130325605149405,1
735,684,11,0.06976598690223,1
735,685,11,0.139246920392914,1
735,686,11,0.181369452892956,1
735,687,11,0.133237941767499,1
736,685,11,0.0967747886615564,1
736,686,11,0.117782584186533,1
736,687,11,0.0937627282727366,1
737,686,11,0.0713427773083923,1
737,687,11,0.0704389860872372,1
742,637,11,0.0707052435835609,1
742,638,11,0.0774631358074716,1
742,641,11,0.0688846453592945,1
742,642,11,0.068168992983625,1
743,638,11,0.112657169310729,1
743,639,11,0.0834996554202005,1
743,640,11,0.0679725043912241,1
743,641,11,0.0734803125186881,1
743,642,11,0.0786054518648231,1
743,643,11,0.0682181690397039,1
744,639,11,0.0858400403643777,1
744,641,11,0.0688193268584979,1
745,642,11,0.0699327302699673,1
748,644,11,0.0714876340367981,1
706,654,12,0.0681522875000192,1
711,643,12,0.0795096623702567,1
712,641,12,0.080109376653178,1
712,642,12,0.0930775818232071,1
712,643,12,0.0815067912552729,1
715,629,12,0.071217411309156,1
718,631,12,0.0884615015092317,1
718,632,12,0.0888315618133321,1
718,633,12,0.0947950421047668,1
718,634,12,0.0749742283923404,1
719,631,12,0.0962025854170724,1
719,634,12,0.0989596790362078,1
720,634,12,0.0861601339620457,1
721,632,12,0.083933800331364,1
721,633,12,0.0747207351074058,1
733,685,12,0.0714479577645123,1
734,684,12,0.0689319705747731,1
734,685,12,0.106028464562764,1
734,686,12,0.130260484311197,1
735,684,12,0.0735168201997844,1
735,685,12,0.12826859647966,1
735,686,12,0.158701147870975,1
735,687,12,0.120856752556532,1
736,685,12,0.0985930987916179,1
736,686,12,0.117380562440869,1
736,687,12,0.0970330797565909,1
737,686,12,0.0780025330520599,1
737,687,12,0.0793593369769057,1
738,687,12,0.0709351551227243,1
743,637,12,0.0687575423251906,1
743,638,12,0.0753024800641107,1
744,638,12,0.0795678350689945,1
744,642,12,0.0683245833895574,1
705,653,13,0.0734287705013241,1
706,653,13,0.0732259147776672,1
706,654,13,0.0677944822763983,1
707,652,13,0.0721526009329866,1
708,649,13,0.0679792189294537,1
711,641,13,0.0744675113623643,1
711,642,13,0.0872898056035163,1
711,643,13,0.0861393913698166,1
711,644,13,0.0680599611019193,1
712,641,13,0.0737053543704468,1
712,642,13,0.0900335420234976,1
712,643,13,0.087521406259344,1
714,628,13,0.0830071641068124,1
715,628,13,0.0815576324689145,1
716,627,13,0.0901671858923443,1
716,628,13,0.086531404200778,1
716,629,13,0.076803943054774,1
717,627,13,0.0870465787936266,1
717,630,13,0.0803992638134763,1
718,626,13,0.0725286510124925,1
718,627,13,0.0897990542959244,1
718,630,13,0.109559173614167,1
718,631,13,0.0761133459096255,1
718,632,13,0.0697710003442444,1
718,633,13,0.0682618464819605,1
719,631,13,0.0835450938564263,1
719,632,13,0.0823314874921989,1
719,633,13,0.0854658351356967,1
719,634,13,0.0720854735200175,1
720,632,13,0.0768719928931554,1
720,633,13,0.0772198251407262,1
720,634,13,0.0683607616330064,1
721,632,13,0.0691515856900145,1
734,685,13,0.0803596354593937,1
735,684,13,0.0757019561552274,1
735,685,13,0.104128016642567,1
735,686,13,0.112637798377068,1
736,685,13,0.0922531730955006,1
736,686,13,0.103002453987025,1
736,687,13,0.0912438899499044,1
737,685,13,0.0679731393074171,1
737,686,13,0.0852451238915561,1
737,687,13,0.0916459596137716,1
738,686,13,0.0739492280760803,1
738,687,13,0.0856551240180602,1
743,688,13,0.0690628471673825,1
752,644,13,0.0754696487059018,1
753,645,13,0.0711576034017324,1
705,654,14,0.0724842907358396,1
706,654,14,0.0699794565079054,1
707,653,14,0.071444112328702,1
711,642,14,0.0741139588792814,1
711,643,14,0.0810698251598935,1
711,644,14,0.0688180330670103,1
712,642,14,0.0738230534571642,1
712,643,14,0.0804024683433182,1
714,627,14,0.0792256871182836,1
714,628,14,0.0690524189684016,1
715,627,14,0.0769451520099578,1
715,628,14,0.0695802858953344,1
716,626,14,0.0832848860332621,1
716,627,14,0.078449879428217,1
716,628,14,0.0761204857219088,1
716,629,14,0.0705045861074778,1
717,626,14,0.074331848939206,1
717,627,14,0.0776871174689835,1
717,628,14,0.082946930925335,1
717,629,14,0.0809648902845651,1
718,626,14,0.0696835136846722,1
718,627,14,0.07747530104132,1
718,628,14,0.0909969135406109,1
718,629,14,0.0949549990569698,1
718,630,14,0.0782688204972606,1
719,630,14,0.0870157613991655,1
719,631,14,0.0689049566876944,1
720,631,14,0.0723886280328389,1
721,631,14,0.0717840320829621,1
735,684,14,0.0690120598617196,1
735,685,14,0.0743704410621434,1
736,685,14,0.0743155687296539,1
736,686,14,0.0770816889403254,1
737,686,14,0.0803631394780059,1
738,686,14,0.0807136371756321,1
738,687,14,0.0992564724075485,1
743,686,14,0.0684958610172766,1
743,688,14,0.0725299507937555,1
749,631,14,0.110029946001935,1
750,631,14,0.108846605972832,1
751,631,14,0.112005242155598,1
751,632,14,0.0924814554157537,1
752,643,14,0.0740437946501818,1
752,644,14,0.0711849826651108,1
753,644,14,0.0871764970221712,1
753,645,14,0.0683561734650458,1
754,645,14,0.0766385833251553,1
716,626,15,0.070331511547137,1
717,627,15,0.0688120732404819,1
717,628,15,0.0722163321433007,1
717,629,15,0.0698837878151293,1
718,627,15,0.0685966629475752,1
718,628,15,0.0725822355432698,1
718,629,15,0.0707760547084043,1
719,627,15,0.0681329584947857,1
719,628,15,0.0736181013121154,1
719,629,15,0.0774837825632942,1
719,630,15,0.0723926831107884,1
720,630,15,0.0819083877268831,1
721,630,15,0.0786404441327419,1
738,686,15,0.0730428852106024,1
739,686,15,0.0812302253554764,1
743,686,15,0.0724328505446575,1
744,687,15,0.0721720018155249,1
748,631,15,0.09897116143566,1
749,630,15,0.119755053166205,1
749,631,15,0.109448638298835,1
749,632,15,0.0937393861179815,1
750,630,15,0.11570979844837,1
750,631,15,0.108616550679058,1
750,632,15,0.0936589194751845,1
750,633,15,0.0783207278909244,1
751,630,15,0.119436025748559,1
751,631,15,0.107763630620422,1
751,632,15,0.0910231188080098,1
751,633,15,0.081118893400015,1
752,631,15,0.108107815094771,1
752,632,15,0.0910643943503288,1
752,633,15,0.0851771698895811,1
752,643,15,0.0698361451415542,1
752,644,15,0.0686181602515054,1
753,644,15,0.0745559324268998,1
754,645,15,0.0705357209600355,1
707,654,16,0.073924094978479,1
708,653,16,0.0710058764009366,1
720,629,16,0.0739153139677346,1
720,630,16,0.0704235983542206,1
721,630,16,0.0697728032666414,1
749,631,16,0.103482905851848,1
749,632,16,0.0918429992655098,1
749,633,16,0.0768829601719229,1
750,630,16,0.107932913652931,1
750,631,16,0.104179265160936,1
750,632,16,0.0934697803372061,1
750,633,16,0.0812650079812559,1
750,634,16,0.0738414121187819,1
751,630,16,0.109232455324901,1
751,631,16,0.101284394727924,1
751,632,16,0.0903187811180812,1
751,633,16,0.0837435710542618,1
751,634,16,0.0794106453930289,1
752,631,16,0.102461601227013,1
752,632,16,0.0897634870095668,1
752,633,16,0.085763167586824,1
752,634,16,0.0825354213754288,1
753,631,16,0.0976092602119441,1
753,632,16,0.0875079292646818,1
753,633,16,0.086027658099403,1
755,633,16,0.0888098608570382,1
756,633,16,0.0896885848681214,1
757,648,16,0.0678468508827683,1
721,629,17,0.0683392283904237,1
748,632,17,0.0829013547242748,1
749,631,17,0.0958118484082723,1
749,632,17,0.0901729240971827,1
749,633,17,0.0790657181865299,1
750,630,17,0.100926553565651,1
750,631,17,0.0989808708615923,1
750,632,17,0.0956693576411517,1
750,633,17,0.0872576584789152,1
750,634,17,0.0772515529810489,1
751,631,17,0.0952474079127137,1
751,632,17,0.0927075155293313,1
751,633,17,0.089318554512898,1
751,634,17,0.0820358621270622,1
751,635,17,0.0749619253936576,1
752,630,17,0.105471834734334,1
752,631,17,0.0951896125698264,1
752,632,17,0.0897809891333015,1
752,633,17,0.0883023292176069,1
752,634,17,0.0837121726515864,1
752,635,17,0.08033801237018,1
752,636,17,0.0915400484050522,1
753,631,17,0.0920279395709289,1
753,632,17,0.0861754617973083,1
753,633,17,0.0858111396980463,1
753,634,17,0.082950255250685,1
753,635,17,0.0837565568873408,1
753,636,17,0.106459572657797,1
754,632,17,0.0870291185983197,1
754,633,17,0.086209729302403,1
754,634,17,0.0830846957596607,1
754,635,17,0.0799613213847057,1
754,636,17,0.0860222673015381,1
755,632,17,0.0913107657923064,1
755,633,17,0.0879967907741742,1
755,634,17,0.083141101474654,1
755,636,17,0.0751853140674044,1
756,632,17,0.0926191663421007,1
756,633,17,0.0881894159614385,1
756,634,17,0.0830886190625513,1
757,633,17,0.0851151697243592,1
757,634,17,0.0813900026144172,1
758,634,17,0.0788304937165819,1
758,635,17,0.0707075915755199,1
748,632,18,0.0796088410714204,1
749,631,18,0.0913825652300917,1
749,632,18,0.0880137837669995,1
749,633,18,0.0797222934073753,1
749,634,18,0.0700761254931741,1
750,630,18,0.0976407664305769,1
750,631,18,0.095760198574951,1
750,632,18,0.0961672098035277,1
750,633,18,0.0901873594559099,1
750,634,18,0.0771656596017346,1
751,631,18,0.0916038994108744,1
751,632,18,0.0940216902226165,1
751,633,18,0.0925041147361125,1
751,634,18,0.0809908200222954,1
751,635,18,0.0731363975842325,1
751,636,18,0.0724775222896314,1
752,631,18,0.0890134054048666,1
752,632,18,0.088821367215592,1
752,633,18,0.0887802354278827,1
752,634,18,0.0812720459673573,1
752,635,18,0.0789372075552056,1
752,636,18,0.0851629082343407,1
752,637,18,0.0895394514400762,1
753,631,18,0.0871224692480139,1
753,632,18,0.0844057527048867,1
753,633,18,0.0841216756267318,1
753,634,18,0.0798606033112629,1
753,635,18,0.0813191735202475,1
753,636,18,0.0901595788775793,1
753,637,18,0.0962449870371677,1
754,632,18,0.0848883848479575,1
754,633,18,0.0839830961829509,1
754,634,18,0.0801289572289785,1
754,635,18,0.0792524973529985,1
754,636,18,0.0810628470715461,1
754,637,18,0.0804386765356442,1
755,631,18,0.0868892094243989,1
755,632,18,0.0878745514376994,1
755,633,18,0.0858175846963826,1
755,634,18,0.0802062433010352,1
755,635,18,0.0764541461608702,1
755,636,18,0.0739678502878159,1
755,637,18,0.0701528844649952,1
756,632,18,0.087816606350427,1
756,633,18,0.0852224346223202,1
756,634,18,0.0796422999568353,1
756,635,18,0.0738137094075317,1
756,636,18,0.069885452972692,1
757,632,18,0.083079322931122,1
757,633,18,0.0812399048325316,1
757,634,18,0.077543195145541,1
757,635,18,0.0716595765295874,1
758,633,18,0.0791793142770945,1
758,634,18,0.0757633932815612,1
758,635,18,0.0692898776245758,1
759,634,18,0.070528239730554,1
748,632,19,0.0773663470266947,1
748,633,19,0.070954975289541,1
749,631,19,0.0874977885749203,1
749,632,19,0.0849995550794829,1
749,633,19,0.078629440915322,1
749,634,19,0.0698753003033797,1
750,630,19,0.0938319401275468,1
750,631,19,0.09090826486461,1
750,632,19,0.0923476019047677,1
750,633,19,0.0886410989349892,1
750,634,19,0.0757410274601972,1
751,630,19,0.0914695667178561,1
751,631,19,0.0863884582107266,1
751,632,19,0.0907447499858162,1
751,633,19,0.0917575072011476,1
751,634,19,0.0795907579394713,1
751,635,19,0.0715434946822295,1
751,636,19,0.0720303556067365,1
752,631,19,0.0812111359412592,1
752,632,19,0.0846138914104512,1
752,633,19,0.0870809421351278,1
752,634,19,0.0791026331723537,1
752,635,19,0.076699044118098,1
752,636,19,0.0816537444050706,1
752,637,19,0.0808712880643039,1
753,632,19,0.0813443665156029,1
753,633,19,0.0824085938709935,1
753,634,19,0.0774151037984951,1
753,635,19,0.0787951540416896,1
753,636,19,0.0842346248215526,1
753,637,19,0.082478284907836,1
754,632,19,0.0816763977356541,1
754,633,19,0.081825615020555,1
754,634,19,0.0773637714232703,1
754,635,19,0.0776390375418038,1
754,636,19,0.0794294233389251,1
754,637,19,0.075138330269124,1
755,632,19,0.08290261257711,1
755,633,19,0.0831842578064503,1
755,634,19,0.0776958984797279,1
755,635,19,0.0749365946334679,1
755,636,19,0.0737537337863968,1
755,637,19,0.0699003974623286,1
756,632,19,0.0819780847535011,1
756,633,19,0.0821747171005117,1
756,634,19,0.0772290613744014,1
756,635,19,0.073016494260166,1
756,636,19,0.0709901592302726,1
756,637,19,0.0686237307426325,1
757,632,19,0.078198596370407,1
757,633,19,0.0783759116917349,1
757,634,19,0.0754565969852933,1
757,635,19,0.0724568096462793,1
757,636,19,0.0717552572019143,1
757,637,19,0.0700486803422663,1
758,633,19,0.0765359006053794,1
758,634,19,0.0737316494844768,1
758,635,19,0.0698906940261718,1
758,636,19,0.069424887162215,1
759,634,19,0.0682116401845119,1
748,632,20,0.0767025241776086,1
748,633,20,0.0715148815251176,1
749,631,20,0.0845173961286692,1
749,632,20,0.0823776207423718,1
749,633,20,0.077570346797454,1
749,634,20,0.0687732535060791,1
750,631,20,0.086406619209756,1
750,632,20,0.086649923886726,1
750,633,20,0.0844167439427558,1
750,634,20,0.0730629809070878,1
751,631,20,0.0819231944516854,1
751,632,20,0.0850562063752678,1
751,633,20,0.0871006604757626,1
751,634,20,0.0767709334025144,1
751,635,20,0.069280839053489,1
751,636,20,0.0697085090174392,1
752,631,20,0.0756468322521709,1
752,632,20,0.0795002224842177,1
752,633,20,0.0829885418950768,1
752,634,20,0.0763983214540913,1
752,635,20,0.0743931003825023,1
752,636,20,0.0774278081121301,1
752,637,20,0.0740271670336562,1
753,632,20,0.0783255855987782,1
753,633,20,0.0796480321718983,1
753,634,20,0.0746821549640192,1
753,635,20,0.0764036823030792,1
753,636,20,0.0797403166415703,1
753,637,20,0.0744211744598277,1
754,632,20,0.0792967857523465,1
754,633,20,0.0794667456294765,1
754,634,20,0.0745020963255555,1
754,635,20,0.0748950136126032,1
754,636,20,0.0764736309002642,1
754,637,20,0.0709073865239445,1
755,632,20,0.0782776554159837,1
755,633,20,0.079461139199697,1
755,634,20,0.0747070364910535,1
755,635,20,0.0717846550196043,1
755,636,20,0.0713982126797699,1
755,637,20,0.0679821179807499,1
756,632,20,0.0757917488783307,1
756,633,20,0.0778404137909356,1
756,634,20,0.0747892761073705,1
756,635,20,0.0706650581803657,1
756,636,20,0.0700523999927931,1
757,632,20,0.0735313633744689,1
757,633,20,0.0755104810048409,1
757,634,20,0.0744297218693313,1
757,635,20,0.0725710646121386,1
757,636,20,0.0744365801621705,1
757,637,20,0.0715531561899585,1
758,632,20,0.0731396440425023,1
758,633,20,0.0742962996221745,1
758,634,20,0.0728787354156157,1
758,635,20,0.0707179538869713,1
758,636,20,0.0732637701582297,1
758,637,20,0.0704877847874655,1
759,633,20,0.0711763334294253,1
746,629,21,0.0763641857240556,1
747,630,21,0.0762449951832622,1
747,632,21,0.0689741625527292,1
748,631,21,0.0797365430830649,1
748,632,21,0.0773186923735688,1
748,633,21,0.0719432103643624,1
749,631,21,0.0819049376162496,1
749,632,21,0.0803707644620971,1
749,633,21,0.0759257341643755,1
750,630,21,0.0845048894776226,1
750,631,21,0.0826238604092905,1
750,632,21,0.0814460010246829,1
750,633,21,0.0790801355759308,1
750,634,21,0.0699663269202166,1
751,630,21,0.0810916698707972,1
751,631,21,0.0783618476990829,1
751,632,21,0.0792486579069635,1
751,633,21,0.0800932521777865,1
751,634,21,0.0726292433006518,1
752,631,21,0.0725324724892012,1
752,632,21,0.0750985761297579,1
752,633,21,0.077311648397692,1
752,634,21,0.0725626729367955,1
752,635,21,0.070691299386417,1
752,636,21,0.0723863219693078,1
753,632,21,0.0752536034968021,1
753,633,21,0.0756062335544726,1
753,634,21,0.0710683138197632,1
753,635,21,0.0721098039877145,1
753,636,21,0.0741882860022878,1
753,637,21,0.0684900149964809,1
754,632,21,0.0767981749010585,1
754,633,21,0.0757673465333288,1
754,634,21,0.0707294482659744,1
754,635,21,0.0702477085994391,1
754,636,21,0.071750082035964,1
755,632,21,0.0747088573827767,1
755,633,21,0.0744860676865705,1
755,634,21,0.0705816805067216,1
756,632,21,0.0713339723385463,1
756,633,21,0.0728979865537688,1
756,634,21,0.0715617874563178,1
757,632,21,0.070079653470888,1
757,633,21,0.0726633071533827,1
757,634,21,0.073166939449025,1
757,635,21,0.0715308921947764,1
757,636,21,0.0739561582462244,1
757,637,21,0.0700542388538426,1
758,632,21,0.0698840154265947,1
758,633,21,0.0714342471686092,1
758,634,21,0.0719476308186116,1
758,635,21,0.0715941681821597,1
758,636,21,0.0748536302543268,1
758,637,21,0.0705068562323565,1
759,633,21,0.0678383573812434,1
745,629,22,0.0718995868300843,1
746,628,22,0.075930807504144,1
746,629,22,0.0760098845190469,1
746,630,22,0.0717591565457032,1
747,629,22,0.0772245630530719,1
747,630,22,0.0754058875467107,1
747,631,22,0.0717573176846538,1
748,630,22,0.0779916256710465,1
748,631,22,0.0773990691697347,1
748,632,22,0.0763321583949625,1
748,633,22,0.0711618621320457,1
749,631,22,0.0796341299031822,1
749,632,22,0.0779364298906852,1
749,633,22,0.0735855648521129,1
750,630,22,0.0828367969249547,1
750,631,22,0.0824172670657806,1
750,632,22,0.0791288264602018,1
750,633,22,0.0751629302767142,1
751,629,22,0.0765237293817555,1
751,630,22,0.0797894627487721,1
751,631,22,0.0812056552967632,1
751,632,22,0.0795144961190089,1
751,633,22,0.0763818974899295,1
751,634,22,0.0693918535508539,1
752,630,22,0.0740954444835031,1
752,631,22,0.0762985916935903,1
752,632,22,0.0770083501302608,1
752,633,22,0.0753665586813984,1
752,634,22,0.0703302237454248,1
753,631,22,0.0744131182119073,1
753,632,22,0.0754267199855709,1
753,633,22,0.0744533994515091,1
753,635,22,0.069439394398247,1
753,636,22,0.070038276102387,1
754,633,22,0.074422833627615,1
754,636,22,0.0679733609291071,1
755,633,22,0.0720701337052042,1
756,633,22,0.0702501164891521,1
756,634,22,0.0696300729085046,1
757,632,22,0.0679831062936918,1
757,633,22,0.0710972624042978,1
757,634,22,0.0717139876493706,1
757,635,22,0.069523155417517,1
757,636,22,0.0698428057718051,1
758,633,22,0.0698914427480975,1
758,634,22,0.0708789350907686,1
758,635,22,0.0720450065973782,1
758,636,22,0.0732959232726063,1
758,637,22,0.0684203718778415,1
759,635,22,0.070958712909394,1
759,636,22,0.0698422966408956,1
745,629,23,0.070190626039825,1
746,628,23,0.0748516476386676,1
746,629,23,0.0751111606478848,1
746,630,23,0.0724600680840999,1
747,628,23,0.0759229549085874,1
747,629,23,0.0765832917083874,1
747,630,23,0.0762289725340526,1
747,631,23,0.0715518384393693,1
748,629,23,0.0765256640792115,1
748,630,23,0.0776716698382128,1
748,631,23,0.07557960301302,1
748,632,23,0.0736611977461577,1
748,633,23,0.069047447454815,1
749,631,23,0.0783459448453814,1
749,632,23,0.0753829227478061,1
749,633,23,0.0712894742970591,1
750,630,23,0.0831539315735725,1
750,631,23,0.0849703249755042,1
750,632,23,0.0797540931250029,1
750,633,23,0.0736613594700937,1
751,629,23,0.0728687564497902,1
751,630,23,0.0819099630378147,1
751,631,23,0.0883607954153397,1
751,632,23,0.084778101103192,1
751,633,23,0.0763839400033428,1
752,630,23,0.0777761015724071,1
752,631,23,0.0844192177199982,1
752,632,23,0.08303563949909,1
752,633,23,0.0756913842016367,1
753,631,23,0.0798221609327106,1
753,632,23,0.0787016955760381,1
757,633,23,0.0698655369694688,1
757,634,23,0.0692496562827281,1
758,633,23,0.0690991092676872,1
758,634,23,0.0697496168460469,1
758,635,23,0.0723051006148097,1
758,636,23,0.0722607343483814,1
759,634,23,0.0682214634161769,1
759,635,23,0.0755640655356182,1
759,636,23,0.0751766049339649,1
760,635,23,0.0681559951709951,1
746,628,24,0.0708991146441096,1
746,629,24,0.0709572454144196,1
746,630,24,0.0705145650733034,1
747,629,24,0.0726533641262097,1
747,630,24,0.0746631494066576,1
747,631,24,0.0696109176067579,1
748,630,24,0.0756771405157225,1
748,631,24,0.0730052574415053,1
748,632,24,0.0696832920629822,1
749,631,24,0.0779224916833166,1
749,632,24,0.0739568051419682,1
749,633,24,0.0696433702099047,1
750,630,24,0.0824993928763649,1
750,631,24,0.0897735977504512,1
750,632,24,0.0845177375458673,1
750,633,24,0.0743171081019331,1
751,629,24,0.0707734431663275,1
751,630,24,0.0861111555685552,1
751,631,24,0.101014399611748,1
751,632,24,0.0966450022080708,1
751,633,24,0.0796287510848681,1
752,630,24,0.0865674027509649,1
752,631,24,0.101389455388536,1
752,632,24,0.096709679802899,1
752,633,24,0.0793613255823403,1
753,631,24,0.097931108813806,1
753,632,24,0.0910431186680886,1
758,634,24,0.0680022436261123,1
758,635,24,0.0701405694867615,1
758,636,24,0.0702405987360328,1
759,635,24,0.074317209928115,1
759,636,24,0.0759687108029097,1
760,636,24,0.068151221319997,1
747,629,25,0.0684509736403881,1
747,630,25,0.0707644525134439,1
748,630,25,0.0714596258470022,1
748,631,25,0.0677754767190368,1
749,631,25,0.0738224185409712,1
749,632,25,0.0707848177498225,1
750,630,25,0.0775014643802911,1
750,631,25,0.0899821796993957,1
750,632,25,0.0874575911921742,1
750,633,25,0.0736108297247732,1
751,630,25,0.0909980216490609,1
751,631,25,0.113834184137005,1
751,632,25,0.109373466617496,1
751,633,25,0.0838967236216041,1
752,630,25,0.103311598275251,1
752,631,25,0.129949447253942,1
752,632,25,0.120096482343867,1
752,633,25,0.0890478825521005,1
753,630,25,0.110841416814766,1
753,631,25,0.136160652676596,1
753,632,25,0.121973845669651,1
753,633,25,0.091381283418155,1
754,631,25,0.121149125473624,1
754,632,25,0.107771788694524,1
759,635,25,0.0695455571775335,1
759,636,25,0.0719268762468317,1
749,635,26,0.0680155169684108,1
750,631,26,0.0893794645389962,1
750,632,26,0.090949288836362,1
750,635,26,0.0699760004074964,1
751,630,26,0.100624513151055,1
751,631,26,0.13205258917386,1
751,632,26,0.125691783120679,1
751,633,26,0.0877203147210087,1
752,629,26,0.0871635471277446,1
752,630,26,0.14019924676418,1
752,631,26,0.190680558760751,1
752,632,26,0.171756725894844,1
752,633,26,0.108412994151679,1
753,629,26,0.0898195333380357,1
753,630,26,0.156126023628658,1
753,631,26,0.220942784898636,1
753,632,26,0.200787454209365,1
753,633,26,0.125219657043669,1
754,630,26,0.130167702690166,1
754,631,26,0.183047620247856,1
754,632,26,0.171813449067933,1
754,633,26,0.11434480051077,1
755,631,26,0.121885208973201,1
755,632,26,0.119978184279609,1
756,632,26,0.0881394732141077,1
757,632,26,0.0767843744585243,1
748,635,27,0.0745893493838869,1
748,636,27,0.0697359002603684,1
749,634,27,0.0755719900084796,1
749,635,27,0.104234167442303,1
749,636,27,0.0988386496343649,1
750,631,27,0.0863479553494349,1
750,632,27,0.0886490174180752,1
750,634,27,0.0768109091635705,1
750,635,27,0.101237051543119,1
750,636,27,0.0962577692178829,1
751,630,27,0.112079443493321,1
751,631,27,0.147271745951487,1
751,632,27,0.135014784682429,1
751,633,27,0.0866830832833706,1
751,635,27,0.0740162836117445,1
751,636,27,0.0711814007794183,1
752,629,27,0.0980743962210555,1
752,630,27,0.1828340727751,1
752,631,27,0.258383433412098,1
752,632,27,0.229509241888023,1
752,633,27,0.126568051323846,1
753,629,27,0.10008154001055,1
753,630,27,0.204237037742677,1
753,631,27,0.309705290591318,2
753,632,27,0.288762591945448,2
753,633,27,0.158591582899258,1
753,634,27,0.071309725727705,1
754,630,27,0.154082659667287,1
754,631,27,0.237047853417833,1
754,632,27,0.235096025204208,1
754,633,27,0.139169233005905,1
755,631,27,0.136471438163284,1
755,632,27,0.142073423529448,1
755,633,27,0.0978455209130373,1
756,631,27,0.0840727211923429,1
756,632,27,0.0935941819826022,1
756,633,27,0.0778224145158421,1
757,631,27,0.0708578690506676,1
757,632,27,0.0828878897091633,1
757,633,27,0.0741961445876198,1
748,635,28,0.0844357614796681,1
748,636,28,0.0756634299198194,1
749,634,28,0.082289535105259,1
749,635,28,0.135226894609087,1
749,636,28,0.127690223766509,1
750,634,28,0.0808185900202867,1
750,635,28,0.128373908710839,1
750,636,28,0.123758726863175,1
750,637,28,0.0701358615232928,1
751,630,28,0.115387859999877,1
751,631,28,0.152892670987483,1
751,632,28,0.138196577336913,1
751,635,28,0.0801389481743548,1
751,636,28,0.078167958669208,1
752,629,28,0.0993994902749048,1
752,630,28,0.204989018106181,1
752,631,28,0.301083200567965,2
752,632,28,0.270953504200701,2
752,633,28,0.138142777174221,1
753,629,28,0.102411934009351,1
753,630,28,0.229914821560278,2
753,631,28,0.3635512151673,2
753,632,28,0.347186525822928,2
753,633,28,0.177085637400273,2
753,634,28,0.0708319812413651,1
754,629,28,0.083164353782778,1
754,630,28,0.166017838222012,1
754,631,28,0.265890802273393,2
754,632,28,0.270603773194327,2
754,633,28,0.148088535684878,1
755,630,28,0.0962167212870293,1
755,631,28,0.138037536820347,1
755,632,28,0.146885645028851,1
755,633,28,0.0941214679013207,1
756,631,28,0.0821918718172729,1
756,632,28,0.0930222842166639,1
756,633,28,0.073709684978065,1
757,632,28,0.0828161801180091,1
748,635,29,0.0825531151719765,1
748,636,29,0.0738388664642346,1
749,634,29,0.0808782661526513,1
749,635,29,0.141165481393937,1
749,636,29,0.136243323556742,1
749,637,29,0.0701889429129361,1
750,634,29,0.0797830536890883,1
750,635,29,0.135838534534841,1
750,636,29,0.134841248909382,1
750,637,29,0.0748275507722114,1
751,630,29,0.109854505480309,1
751,631,29,0.144186616292496,1
751,632,29,0.132901795571745,1
751,635,29,0.080202739282423,1
751,636,29,0.0791356128757362,1
752,629,29,0.0950637793681084,1
752,630,29,0.190343130753059,1
752,631,29,0.286778586658345,2
752,632,29,0.267438128974336,2
752,633,29,0.141585005263335,1
753,629,29,0.100064055856141,1
753,630,29,0.214503560705847,2
753,631,29,0.346305381942581,2
753,632,29,0.33912455167729,2
753,633,29,0.178139059200832,2
754,629,29,0.0823162854422198,1
754,630,29,0.154785356158754,1
754,631,29,0.249045205841267,2
754,632,29,0.255663644114188,2
754,633,29,0.143142873968992,1
755,630,29,0.0895063040229823,1
755,631,29,0.12645864208629,1
755,632,29,0.133341792493479,1
755,633,29,0.0874437428314368,1
756,631,29,0.07706048513539,1
756,632,29,0.0845035178190547,1
748,635,30,0.0678135537212893,1
749,634,30,0.0688547803391229,1
749,635,30,0.114804324100326,1
749,636,30,0.113672376344201,1
750,634,30,0.0700156347513544,1
750,635,30,0.114260524370815,1
750,636,30,0.116207584723217,1
751,630,30,0.0935122897732587,1
751,631,30,0.120260721985485,1
751,632,30,0.114699023848698,1
751,635,30,0.0699538142793946,1
751,636,30,0.0693990712302174,1
752,629,30,0.0848259773780079,1
752,630,30,0.14837352919867,1
752,631,30,0.223672421387312,1
752,632,30,0.217819308697499,1
752,633,30,0.126350023499087,1
753,629,30,0.0908034797336668,1
753,630,30,0.170457196202425,1
753,631,30,0.273304610842854,2
753,632,30,0.273877449003531,2
753,633,30,0.154681277821309,1
754,630,30,0.126456665460406,1
754,631,30,0.198815320657116,1
754,632,30,0.203731069434627,1
754,633,30,0.120593885273088,1
755,630,30,0.0795210609128533,1
755,631,30,0.1096438690384,1
755,632,30,0.112000198764707,1
755,633,30,0.0760229721783078,1
756,631,30,0.0713100731346785,1
756,632,30,0.0736541657498317,1
749,635,31,0.0788850605705256,1
749,636,31,0.0776065609795554,1
750,635,31,0.081664046818768,1
750,636,31,0.0828188874964924,1
751,630,31,0.0732915926649881,1
752,629,31,0.0717583838646759,1
752,630,31,0.100634731707897,1
752,631,31,0.141202234655825,1
752,632,31,0.143262921047668,1
753,629,31,0.0756445860863938,1
753,630,31,0.115754865518521,1
753,631,31,0.172823313221744,1
753,632,31,0.177926961253724,1
753,633,31,0.112553390462054,1
754,630,31,0.0921286097261686,1
754,631,31,0.132134912647032,1
754,632,31,0.136164462173754,1
754,633,31,0.0897371020489057,1
755,631,31,0.0860379844722021,1
755,632,31,0.0865031983483937,1
752,630,32,0.0724613199471596,1
753,630,32,0.0773793987473032,1
753,631,32,0.0995148533492141,1
753,632,32,0.103849072801935,1
754,631,32,0.0855879606664387,1
754,632,32,0.0887383129898199,1
743,668,33,0.0747720015951012,1
742,667,34,0.0687101512221825,1
742,668,34,0.0929397031831487,1
742,669,34,0.0764300133557616,1
743,667,34,0.101515791731388,1
743,668,34,0.130902564275561,1
743,669,34,0.0995025802994083,1
744,667,34,0.0771451745698479,1
744,668,34,0.0964758389710697,1
744,669,34,0.0719836593176754,1
742,667,35,0.0771771420011868,1
742,668,35,0.104673062245363,1
742,669,35,0.0870091666564441,1
743,667,35,0.117830131023701,1
743,668,35,0.151149382794375,1
743,669,35,0.114448399666183,1
744,667,35,0.0901223584132098,1
744,668,35,0.112337435099586,1
744,669,35,0.0829444990765204,1
742,668,36,0.0912609488302592,1
742,669,36,0.0756137686919327,1
743,667,36,0.0988155770195031,1
743,668,36,0.132344303215656,1
743,669,36,0.0997396556099566,1
744,667,36,0.0749540488389994,1
744,668,36,0.0978754638002892,1
744,669,36,0.0715935692046192,1
743,668,37,0.0873975017653066,1
764,654,38,0.0743143348359204,1
764,655,38,0.0697858190485975,1
764,662,38,0.0689956299077824,1
765,662,38,0.0738523614282231,1
767,659,38,0.0720802444460886,1
767,660,38,0.070178275122939,1
719,627,39,0.0812945076251278,1
719,629,39,0.071344604189891,1
720,629,39,0.0723344864529489,1
763,654,39,0.0716426973424948,1
764,654,39,0.0773228013594969,1
764,655,39,0.0730083301962883,1
765,662,39,0.0761639714913525,1
765,663,39,0.0728216648355524,1
766,659,39,0.0689856209930798,1
766,662,39,0.0717258833433259,1
766,663,39,0.075082445664591,1
766,664,39,0.0678205318096367,1
767,659,39,0.0726302915113478,1
767,663,39,0.068494034135778,1
763,653,40,0.0679319476219537,1
763,654,40,0.0752513872799021,1
764,654,40,0.074798146964746,1
764,655,40,0.0681668905724577,1
765,662,40,0.069104823513424,1
765,663,40,0.0842936720274997,1
765,664,40,0.0960480492116114,1
765,665,40,0.0881414139013391,1
766,659,40,0.0703780700713636,1
766,660,40,0.0677967164626246,1
766,662,40,0.0747895456472638,1
766,663,40,0.104113701079348,1
766,664,40,0.119843629964901,1
766,665,40,0.107084833332822,1
767,659,40,0.0688115161913692,1
767,662,40,0.0678953800431034,1
767,663,40,0.0947446022060774,1
767,664,40,0.107006343315909,1
767,665,40,0.0946034411690968,1
768,663,40,0.069316322482991,1
768,664,40,0.0744654508796249,1
768,665,40,0.0686219996975403,1
762,653,41,0.0726697880903714,1
763,653,41,0.0737765787897932,1
763,654,41,0.0728001076338681,1
764,664,41,0.0710283260791563,1
764,665,41,0.0711842459227359,1
764,666,41,0.0728047317404811,1
764,667,41,0.0695191602373216,1
765,660,41,0.0685108833739935,1
765,663,41,0.0946624284772898,1
765,664,41,0.130619619264958,1
765,665,41,0.121068826544538,1
765,666,41,0.0904149230031143,1
765,667,41,0.0720507028737888,1
766,659,41,0.0688732228575963,1
766,660,41,0.071428113638594,1
766,661,41,0.0680728930270197,1
766,662,41,0.0762241507648512,1
766,663,41,0.131369670920781,1
766,664,41,0.187615195360598,1
766,665,41,0.16242997473369,1
766,666,41,0.0997844770993156,1
766,667,41,0.0695958593113886,1
767,662,41,0.0726007439492726,1
767,663,41,0.118206205062309,1
767,664,41,0.162957841660623,1
767,665,41,0.138463601524489,1
767,666,41,0.0879689023798863,1
767,667,41,0.0692912313138175,1
767,668,41,0.0685618383933678,1
768,663,41,0.0791659750472665,1
768,664,41,0.0979069221007187,1
768,665,41,0.0859079943663527,1
769,657,41,0.0715891128117175,1
719,629,42,0.068328315019635,1
761,652,42,0.0703270012462566,1
762,652,42,0.0825090124556661,1
762,653,42,0.0822018927115263,1
763,652,42,0.0684297338968003,1
763,653,42,0.0749127792864558,1
763,654,42,0.0683148979227267,1
763,666,42,0.0678976262088804,1
763,667,42,0.0729120685157471,1
764,663,42,0.0710385685950996,1
764,664,42,0.0769090875722415,1
764,665,42,0.078227772566407,1
764,666,42,0.0927820942229047,1
764,667,42,0.0963478853888581,1
764,668,42,0.0749239442278116,1
765,660,42,0.0692271287374282,1
765,662,42,0.0713516900941957,1
765,663,42,0.108702120610501,1
765,664,42,0.150955721375965,1
765,665,42,0.132091798243664,1
765,666,42,0.102288892042972,1
765,667,42,0.0900889714050997,1
765,668,42,0.0761783948705289,1
766,659,42,0.067960285249397,1
766,660,42,0.0747222984387866,1
766,661,42,0.07378184979215,1
766,662,42,0.0876819681788629,1
766,663,42,0.154880342017134,1
766,664,42,0.231911213702919,1
766,665,42,0.192021681453585,1
766,666,42,0.11302102420751,1
766,667,42,0.0808731329151288,1
766,668,42,0.0732671843302109,1
766,669,42,0.0680644893721259,1
767,661,42,0.0688364216775051,1
767,662,42,0.0810372168225861,1
767,663,42,0.132767373032095,1
767,664,42,0.195339921191806,1
767,665,42,0.16197838160677,1
767,666,42,0.100791675803071,1
767,667,42,0.0802625412000711,1
767,668,42,0.0749059808913706,1
768,657,42,0.0757101681373083,1
768,658,42,0.070011346072164,1
768,663,42,0.0843927968206847,1
768,664,42,0.109783394866695,1
768,665,42,0.0949935133128269,1
768,666,42,0.0759201876323501,1
768,667,42,0.0726840018274086,1
768,668,42,0.071126043275121,1
769,656,42,0.0684669184225174,1
769,657,42,0.0794405104132006,1
769,658,42,0.0719438812192078,1
769,664,42,0.0689219856191722,1
770,657,42,0.0681152287595856,1
713,640,43,0.0717862063714343,1
714,640,43,0.0742454943471854,1
715,654,43,0.0682847693524372,1
761,651,43,0.0689367324462204,1
761,652,43,0.0860540909782674,1
761,653,43,0.0711612451851789,1
762,651,43,0.0694408978318738,1
762,652,43,0.0889522857366293,1
762,653,43,0.0795643669890348,1
763,653,43,0.0683146343726089,1
763,663,43,0.0709666493618062,1
763,666,43,0.0793347369693155,1
763,667,43,0.0863576947242442,1
763,668,43,0.0706699937552998,1
764,658,43,0.0686733440523159,1
764,662,43,0.0786842353807312,1
764,663,43,0.0951891094286924,1
764,664,43,0.0913353059021426,1
764,665,43,0.0852259266613816,1
764,666,43,0.104812084932524,1
764,667,43,0.113487304263723,1
764,668,43,0.0912914307972976,1
764,669,43,0.0708689381556169,1
765,658,43,0.0706755462771006,1
765,659,43,0.0680988347443008,1
765,661,43,0.0718681644683073,1
765,662,43,0.0996431004304205,1
765,663,43,0.139426781368789,1
765,664,43,0.158378766179102,1
765,665,43,0.124731190859354,1
765,666,43,0.104273939550995,1
765,667,43,0.103725120389694,1
765,668,43,0.0924001262452983,1
765,669,43,0.0794230502178937,1
766,657,43,0.069187093078618,1
766,658,43,0.0698825898600482,1
766,660,43,0.0716750720785613,1
766,661,43,0.0796867560698946,1
766,662,43,0.110606330109652,1
766,663,43,0.175177642363065,1
766,664,43,0.225931309447323,1
766,665,43,0.176210866640957,1
766,666,43,0.109202518427424,1
766,667,43,0.0906036308772635,1
766,668,43,0.0853746887233517,1
766,669,43,0.0781878447235541,1
767,657,43,0.0787513208652724,1
767,658,43,0.0747266230566293,1
767,661,43,0.0727942676028478,1
767,662,43,0.090391311308466,1
767,663,43,0.136002546564993,1
767,664,43,0.181522623429625,1
767,665,43,0.14939491768036,1
767,666,43,0.09932784657128,1
767,667,43,0.0868402130615822,1
767,668,43,0.0794704712697787,1
767,669,43,0.069173693951036,1
768,656,43,0.0704450177910705,1
768,657,43,0.0829153408498466,1
768,658,43,0.0764241373860888,1
768,662,43,0.0678166564249494,1
768,663,43,0.0851192667307365,1
768,664,43,0.102691920070904,1
768,665,43,0.0911000934117454,1
768,667,43,0.0740163494992739,1
768,668,43,0.0683222114384968,1
769,656,43,0.0693362145271125,1
769,657,43,0.0784047165216598,1
769,658,43,0.0707375883707504,1
713,639,44,0.0700903811586392,1
713,640,44,0.0844812358545464,1
713,641,44,0.0776798339020905,1
714,640,44,0.0821026361432823,1
714,641,44,0.0812317467584294,1
742,631,44,0.0759980247637441,1
742,632,44,0.0861586664670714,1
743,632,44,0.0719159808453691,1
761,651,44,0.0718273681080207,1
761,652,44,0.086036181549805,1
761,653,44,0.0677432637069062,1
762,652,44,0.0811300643311462,1
762,653,44,0.0689529827068955,1
762,667,44,0.0712816456606042,1
763,662,44,0.0724170435273624,1
763,663,44,0.0860840817837225,1
763,664,44,0.0827916639672746,1
763,665,44,0.0771092478969659,1
763,666,44,0.086612415913137,1
763,667,44,0.0953144814177041,1
763,668,44,0.0847183231446455,1
764,657,44,0.0737100084259369,1
764,658,44,0.075281581737721,1
764,662,44,0.100514852342932,1
764,663,44,0.12686962453596,1
764,664,44,0.112177747687276,1
764,665,44,0.092468637296386,1
764,666,44,0.106990051126806,1
764,667,44,0.127221991043513,1
764,668,44,0.114189892939234,1
764,669,44,0.0835307363647794,1
765,657,44,0.0735328188898924,1
765,658,44,0.0737563453284735,1
765,661,44,0.083068331693253,1
765,662,44,0.133247213939827,1
765,663,44,0.179563547587759,1
765,664,44,0.162837543011379,1
765,665,44,0.113806882740707,1
765,666,44,0.104229663131198,1
765,667,44,0.125371797338968,1
765,668,44,0.120940202107481,1
765,669,44,0.0934023953638947,1
765,670,44,0.0681404277447163,1
766,657,44,0.0744832884307823,1
766,658,44,0.0714936058428774,1
766,661,44,0.0871853618897713,1
766,662,44,0.13444502526631,1
766,663,44,0.191965437462528,1
766,664,44,0.19446114926252,1
766,665,44,0.1397201725477,1
766,666,44,0.100172848146831,1
766,667,44,0.105131471736694,1
766,668,44,0.104895079260542,1
766,669,44,0.0883801124410223,1
766,670,44,0.0688062871174402,1
767,657,44,0.0859087011598505,1
767,658,44,0.0800257474089669,1
767,661,44,0.0755214722427099,1
767,662,44,0.0990887527064201,1
767,663,44,0.135481412145616,1
767,664,44,0.14799225603501,1
767,665,44,0.118995286094674,1
767,667,44,0.0862771382348161,1
767,668,44,0.0814179688757853,1
767,669,44,0.0719267504615481,1
768,656,44,0.0683352032613512,1
768,657,44,0.085378252639718,1
768,658,44,0.0790357034219731,1
768,662,44,0.069477094044649,1
768,663,44,0.0836038176145015,1
768,664,44,0.0898298657006101,1
769,657,44,0.0735395334281219,1
713,639,45,0.0705793864227413,1
713,640,45,0.079426895653704,1
713,641,45,0.0760365569889274,1
714,640,45,0.0765776852786079,1
714,641,45,0.0878983068869575,1
714,642,45,0.0896232064695708,1
714,643,45,0.0698582234536987,1
715,641,45,0.0766290176538328,1
715,642,45,0.0882856716522043,1
715,643,45,0.0698402840763594,1
727,630,45,0.0723467415334285,1
728,630,45,0.0949238102964335,1
728,631,45,0.0938655247982452,1
729,630,45,0.084694118462232,1
729,631,45,0.0852291371809989,1
741,631,45,0.0814913855529301,1
741,632,45,0.102258895247741,1
742,631,45,0.117914263409047,1
742,632,45,0.147211249219892,1
742,633,45,0.0842270297863385,1
743,631,45,0.0836047460296894,1
743,632,45,0.102454461414729,1
759,666,45,0.0848085710906796,1
759,667,45,0.100387216218817,1
759,668,45,0.075203211516316,1
760,666,45,0.103633297132728,1
760,667,45,0.126622522341383,1
760,668,45,0.0953817465955075,1
761,652,45,0.0698158697518067,1
761,666,45,0.0898038221571472,1
761,667,45,0.104984506607345,1
761,668,45,0.0843725693491405,1
762,663,45,0.0693061518443525,1
762,664,45,0.0718846004120199,1
762,665,45,0.0747177881379063,1
762,666,45,0.0795557477022263,1
762,667,45,0.0818031174241321,1
762,668,45,0.0738524572646296,1
763,663,45,0.0935330084063862,1
763,664,45,0.0955594153135844,1
763,665,45,0.0923884162343806,1
763,666,45,0.0929657047981839,1
763,667,45,0.0998226858766271,1
763,668,45,0.0951364353437767,1
763,669,45,0.0746628678872136,1
764,657,45,0.0743470270300834,1
764,658,45,0.0737054741659549,1
764,662,45,0.10727152265266,1
764,663,45,0.139241349901787,1
764,664,45,0.123150668823114,1
764,665,45,0.10087173514114,1
764,666,45,0.10817590686158,1
764,667,45,0.135619859814338,1
764,668,45,0.133302870932895,1
764,669,45,0.0959366094401927,1
764,670,45,0.0687345595569598,1
765,657,45,0.0808133309974807,1
765,658,45,0.0775116589780312,1
765,661,45,0.0893188060834651,1
765,662,45,0.145239918297547,1
765,663,45,0.194819661279638,1
765,664,45,0.162821394576886,1
765,665,45,0.110500718389703,1
765,666,45,0.106061013002317,1
765,667,45,0.140108573544092,1
765,668,45,0.142039593277958,1
765,669,45,0.10290991195701,1
765,670,45,0.0687907196911614,1
766,657,45,0.0804753040122487,1
766,658,45,0.07599375405388,1
766,661,45,0.089839599085644,1
766,662,45,0.142087978683683,1
766,663,45,0.191554407094654,1
766,664,45,0.166565363591826,1
766,665,45,0.112139952204467,1
766,667,45,0.107737694892916,1
766,668,45,0.111532361366888,1
766,669,45,0.089936226142485,1
766,670,45,0.0678523674659167,1
767,657,45,0.0859506235979134,1
767,658,45,0.081397963025931,1
767,661,45,0.0758355041876676,1
767,662,45,0.10176592475232,1
767,663,45,0.128770347985825,1
767,664,45,0.119684194123158,1
767,668,45,0.0764903004452176,1
767,669,45,0.0701992333470827,1
768,657,45,0.0800246153414153,1
768,658,45,0.0762407424427243,1
768,662,45,0.069240066652304,1
768,663,45,0.0778175088897851,1
714,638,46,0.0687155599893737,1
714,641,46,0.0825601591478533,1
714,642,46,0.103226914830569,1
714,643,46,0.0794377790756157,1
715,641,46,0.0871561198062418,1
715,642,46,0.119284256819335,1
715,643,46,0.0917747337952137,1
716,642,46,0.0833043947317577,1
721,654,46,0.0886460644588003,1
721,655,46,0.0697939232147211,1
722,654,46,0.0764323433783943,1
727,630,46,0.0700871167310432,1
727,631,46,0.069446839689076,1
728,627,46,0.072539738086768,1
728,629,46,0.0707339885157317,1
728,630,46,0.110304948570351,1
728,631,46,0.118122468002141,1
728,632,46,0.0694205984830247,1
729,629,46,0.0706479453920322,1
729,630,46,0.127507439780236,1
729,631,46,0.144305273743278,1
729,632,46,0.0842229028310841,1
730,630,46,0.112305665330835,1
730,631,46,0.131552814293578,1
730,632,46,0.0816940675731002,1
731,630,46,0.0803444393991901,1
731,631,46,0.0932741602622391,1
741,631,46,0.092095510227278,1
741,632,46,0.130310343201672,1
741,633,46,0.0710386225030783,1
742,631,46,0.146791006577444,1
742,632,46,0.202678689854988,1
742,633,46,0.114350898102132,1
743,632,46,0.130152177192315,1
743,633,46,0.0707294542557498,1
752,643,46,0.0760813125907571,1
753,643,46,0.0825701560830051,1
758,667,46,0.075330464294805,1
759,666,46,0.117108063598573,1
759,667,46,0.164018439212117,1
759,668,46,0.127300576896832,1
760,666,46,0.15143073452472,1
760,667,46,0.220236542460128,1
760,668,46,0.174171084565278,1
761,666,46,0.115330214401375,1
761,667,46,0.158429020394754,1
762,665,46,0.082628670198941,1
762,666,46,0.0927127805419127,1
762,667,46,0.0965248952316404,1
762,668,46,0.0820279975519548,1
763,663,46,0.0958898113249498,1
763,664,46,0.0986401305081016,1
763,665,46,0.106534780277788,1
763,666,46,0.110195934657971,1
763,667,46,0.109900878321498,1
763,668,46,0.0972049623516261,1
763,669,46,0.0759167195523903,1
764,662,46,0.106469791214638,1
764,663,46,0.133210520575693,1
764,664,46,0.122343941912404,1
764,665,46,0.110480796396704,1
764,666,46,0.119587938432392,1
764,667,46,0.141924170305894,1
764,668,46,0.134856930141393,1
764,669,46,0.0959653064541603,1
764,670,46,0.070654294553962,1
765,657,46,0.0806962907860579,1
765,658,46,0.0774812009700944,1
765,661,46,0.0893499349462473,1
765,662,46,0.13544808503526,1
765,663,46,0.177178239328041,1
765,664,46,0.152174053672988,1
765,665,46,0.109961698500965,1
765,666,46,0.108072475419878,1
765,667,46,0.138356420483384,1
765,668,46,0.137675981997323,1
765,669,46,0.0981668004862356,1
766,657,46,0.0830316143700175,1
766,658,46,0.081450050112857,1
766,661,46,0.0877797572521326,1
766,662,46,0.133920632409113,1
766,663,46,0.174010330972947,1
766,664,46,0.149104713061966,1
766,665,46,0.0994898640062225,1
766,667,46,0.096638431424451,1
766,668,46,0.0985391488845409,1
766,669,46,0.0801941379649407,1
767,657,46,0.0818237042822006,1
767,658,46,0.0831447133092234,1
767,659,46,0.0706673283052443,1
767,662,46,0.0991713457194861,1
767,663,46,0.120491076768028,1
767,664,46,0.106667106396045,1
768,657,46,0.0726011991722035,1
768,658,46,0.0743346042358925,1
714,641,47,0.0740695387048745,1
714,642,47,0.102600528077767,1
714,643,47,0.0838801439232818,1
715,641,47,0.0914370841658323,1
715,642,47,0.133425948837926,1
715,643,47,0.108438750185923,1
716,641,47,0.069146925644749,1
716,642,47,0.095984551602538,1
716,643,47,0.0800435310521457,1
720,653,47,0.0797155489202687,1
720,654,47,0.0926879708921833,1
721,653,47,0.120251797220131,1
721,654,47,0.143982868092303,1
721,655,47,0.0950542795843153,1
722,653,47,0.0953805246813248,1
722,654,47,0.119446352121358,1
722,655,47,0.0822075650288353,1
728,628,47,0.0711750755765902,1
728,629,47,0.0723060050708959,1
728,630,47,0.102362123037079,1
728,631,47,0.113515935390162,1
728,632,47,0.0696725284365785,1
729,629,47,0.0788099487869411,1
729,630,47,0.148201311176212,1
729,631,47,0.180962220042689,1
729,632,47,0.105974604502318,1
730,629,47,0.0793621940997741,1
730,630,47,0.175446750992482,1
730,631,47,0.222901896679153,1
730,632,47,0.134285361813102,1
731,630,47,0.139676974287475,1
731,631,47,0.176463862774533,1
731,632,47,0.109690661163868,1
732,630,47,0.0781505224330027,1
732,631,47,0.0917473126034075,1
741,631,47,0.0970650711470314,1
741,632,47,0.14295892796629,1
741,633,47,0.0833216932031287,1
742,632,47,0.225324161853123,1
742,633,47,0.136572485674374,1
743,633,47,0.0866172975800924,1
752,642,47,0.0721996446290211,1
752,643,47,0.0933529976861258,1
753,643,47,0.104055013259925,1
753,644,47,0.0718570234860531,1
758,666,47,0.0680141393200675,1
758,667,47,0.0927728519994541,1
758,668,47,0.0831467498328613,1
759,666,47,0.129198041908877,1
759,667,47,0.201839162934158,1
759,668,47,0.171844775593304,1
760,666,47,0.164741980121996,1
760,667,47,0.268202615988886,1
760,668,47,0.23366089897616,1
760,669,47,0.125304627997571,1
761,666,47,0.1174659646586,1
761,667,47,0.178384723849311,1
761,668,47,0.158740249124822,1
762,665,47,0.0836574800123591,1
762,666,47,0.0998399064809178,1
762,667,47,0.105363994817934,1
762,668,47,0.0885778948249107,1
763,663,47,0.098517064582621,1
763,664,47,0.0953828067857543,1
763,665,47,0.110299797363502,1
763,666,47,0.126111858049415,1
763,667,47,0.119727188731019,1
763,668,47,0.0954539413584696,1
763,669,47,0.07506913638364,1
764,662,47,0.113999705590559,1
764,663,47,0.123792125850836,1
764,664,47,0.11255953597162,1
764,665,47,0.111169991934408,1
764,666,47,0.126680287735393,1
764,667,47,0.136304383327225,1
764,668,47,0.119859167442303,1
764,669,47,0.0888985155228144,1
764,670,47,0.0701962803878078,1
765,662,47,0.120969408252358,1
765,663,47,0.142448910570066,1
765,664,47,0.127599646382827,1
765,666,47,0.103892702325988,1
765,667,47,0.118818431986052,1
765,668,47,0.113673250851411,1
765,669,47,0.0869177626837567,1
766,657,47,0.0781819088561273,1
766,658,47,0.0837416782852337,1
766,662,47,0.113720929463638,1
766,663,47,0.137711633140536,1
766,664,47,0.12348610822537,1
766,668,47,0.0809017820108932,1
767,657,47,0.0744132739460679,1
767,658,47,0.083598271082476,1
767,659,47,0.0765441724852144,1
768,658,47,0.0723886939203684,1
714,642,48,0.0901389081626551,1
715,640,48,0.0679469520093444,1
715,641,48,0.0857716251496965,1
715,642,48,0.11759729647414,1
715,643,48,0.105843404461836,1
715,644,48,0.0742973059044427,1
716,641,48,0.0682940175656633,1
716,642,48,0.0865289543826372,1
716,643,48,0.0796324527660687,1
720,653,48,0.0984352801892347,1
720,654,48,0.105593534991022,1
720,655,48,0.0697992241659549,1
721,652,48,0.0751481355314627,1
721,653,48,0.154170445815629,1
721,654,48,0.167847187508146,1
721,655,48,0.0995445506556744,1
722,653,48,0.114830930682677,1
722,654,48,0.131512311432287,1
722,655,48,0.0826984450926393,1
728,628,48,0.0680503295430673,1
728,630,48,0.0802929273307031,1
728,631,48,0.0897136640577441,1
729,629,48,0.0720779204132312,1
729,630,48,0.130464951284438,1
729,631,48,0.166343741901824,1
729,632,48,0.0977299422068134,1
730,629,48,0.082368672017916,1
730,630,48,0.192821076879199,1
730,631,48,0.257450394117638,1
730,632,48,0.152227961651637,1
731,629,48,0.0726912554454246,1
731,630,48,0.173330443546223,1
731,631,48,0.23250020029809,1
731,632,48,0.139149562583474,1
732,630,48,0.102203358050181,1
732,631,48,0.129991064213459,1
732,632,48,0.0823277019541427,1
741,632,48,0.129523214836089,1
741,633,48,0.0824222505589179,1
742,633,48,0.133461599981139,1
751,649,48,0.0711179570783236,1
751,650,48,0.0727756034626844,1
752,643,48,0.0856014735997534,1
752,649,48,0.0895978038320762,1
752,650,48,0.101657114492305,1
753,649,48,0.07392196860821,1
753,650,48,0.0884107561319966,1
758,666,48,0.0725699325445869,1
758,667,48,0.102700952652215,1
758,668,48,0.0970905995698095,1
759,667,48,0.2066689584346,1
759,668,48,0.193727425734452,1
760,666,48,0.149167833315188,1
760,667,48,0.258877541964846,1
760,668,48,0.251007001041167,1
760,669,48,0.144168886557296,1
761,667,48,0.166926187662251,1
761,668,48,0.163332657846395,1
762,666,48,0.100545795522676,1
762,667,48,0.106009848340803,1
763,665,48,0.105938617931682,1
763,666,48,0.129879953879688,1
763,667,48,0.121688516728436,1
763,668,48,0.0893290306300822,1
764,663,48,0.115188244744715,1
764,665,48,0.10210141207278,1
764,666,48,0.118153686711554,1
764,667,48,0.117463460932481,1
764,668,48,0.0957545681860698,1
764,669,48,0.0766422550574788,1
765,663,48,0.110864094104451,1
765,666,48,0.0896407325524072,1
765,667,48,0.0924925065513768,1
765,668,48,0.085911144988216,1
767,658,48,0.0814072351982587,1
715,642,49,0.0898877149514761,1
715,643,49,0.0875012566548801,1
715,644,49,0.073267304125719,1
716,642,49,0.0709721000574252,1
716,643,49,0.070772682464851,1
720,653,49,0.100412966263285,1
720,654,49,0.100585447835861,1
720,655,49,0.0693007310976105,1
721,652,49,0.0796880438716068,1
721,653,49,0.147148979514776,1
721,654,49,0.147261934699373,1
721,655,49,0.0889132503703119,1
722,653,49,0.105902655320147,1
722,654,49,0.111025973774559,1
722,655,49,0.0734270753948843,1
729,630,49,0.101307802770209,1
729,631,49,0.126246496220979,1
729,632,49,0.0818876990426326,1
730,629,49,0.0763171180689194,1
730,630,49,0.168745773614474,1
730,631,49,0.228224914245583,1
730,632,49,0.142363987534367,1
731,629,49,0.0749494127528356,1
731,630,49,0.178902156587488,1
731,631,49,0.247541316991565,1
731,632,49,0.155489514155421,1
732,630,49,0.121023591760676,1
732,631,49,0.162155115919884,1
732,632,49,0.106072621187053,1
733,631,49,0.0746623108381009,1
743,638,49,0.067887737089686,1
750,648,49,0.0773704679921736,1
750,649,49,0.0780269893050404,1
751,648,49,0.0888595640133527,1
751,649,49,0.105702500985198,1
751,650,49,0.0866625203844037,1
752,648,49,0.0680395659166637,1
752,649,49,0.103451411612766,1
752,650,49,0.107104120409628,1
753,649,49,0.0724885794150299,1
753,650,49,0.0882257619185988,1
759,667,49,0.179808900767918,1
759,668,49,0.178264724688838,1
760,666,49,0.122735409673804,1
760,667,49,0.20805477683151,1
760,668,49,0.215870475371577,1
760,669,49,0.134776655171409,1
761,667,49,0.139244931787479,1
761,668,49,0.143451670850245,1
762,666,49,0.0962507312317815,1
762,667,49,0.100685465105581,1
763,665,49,0.0955213682602089,1
763,666,49,0.11680105167039,1
763,667,49,0.109735512602104,1
763,668,49,0.0817651422480614,1
764,666,49,0.0979924021855301,1
764,667,49,0.092042063461335,1
720,653,50,0.0854843315621488,1
720,654,50,0.0861263695980851,1
721,653,50,0.105946955699046,1
721,654,50,0.102014931695476,1
721,655,50,0.0705871192227897,1
722,653,50,0.0765861668005821,1
722,654,50,0.0759155814950633,1
729,630,50,0.0761199406523469,1
729,631,50,0.0881135434763775,1
730,630,50,0.122237779133118,1
730,631,50,0.163723358916543,1
730,632,50,0.111052700152418,1
731,630,50,0.151050299929618,1
731,631,50,0.213834886138682,1
731,632,50,0.14445597649248,1
732,630,50,0.115441660162569,1
732,631,50,0.161875249653839,1
732,632,50,0.112593234448051,1
733,631,50,0.0805320092160122,1
743,638,50,0.0831667796418172,1
743,639,50,0.085385919552237,1
744,638,50,0.0758633087250998,1
744,639,50,0.0793650991408458,1
750,647,50,0.0754067740334707,1
750,648,50,0.113247904920318,1
750,649,50,0.113389071947074,1
751,647,50,0.0794572817843359,1
751,648,50,0.125446370042766,1
751,649,50,0.140945812370717,1
751,650,50,0.0958376583504944,1
752,648,50,0.0823814242497543,1
752,649,50,0.111399016986811,1
752,650,50,0.0983524595647034,1
753,650,50,0.0729364409118719,1
760,667,50,0.144657005334638,1
760,668,50,0.150675220193728,1
763,666,50,0.098076265030982,1
763,667,50,0.0940295248488468,1
719,654,51,0.0714277662316205,1
720,654,51,0.0705472273185894,1
730,631,51,0.0979421659392044,1
730,632,51,0.0751971498636056,1
731,631,51,0.145735188866723,1
731,632,51,0.109473352112158,1
732,631,51,0.124687094132819,1
732,632,51,0.0960101938310488,1
733,631,51,0.0717737057101631,1
743,638,51,0.0796718055904826,1
743,639,51,0.0845500883228322,1
744,638,51,0.0732895321822486,1
744,639,51,0.0789776445289679,1
749,648,51,0.0701024805049582,1
749,649,51,0.069414117546036,1
750,647,51,0.0764098517717468,1
750,648,51,0.123701656283111,1
750,649,51,0.128087405773645,1
750,650,51,0.0788893073212881,1
751,647,51,0.0817498683207775,1
751,648,51,0.139167807439359,1
751,649,51,0.156507500444681,1
751,650,51,0.10453002640868,1
752,648,51,0.0875167581936294,1
752,649,51,0.111307960421098,1
752,650,51,0.0905953410281023,1
731,632,52,0.0762274032128964,1
732,632,52,0.0727896375064594,1
743,639,52,0.0697022317328142,1
750,648,52,0.108816106036467,1
750,649,52,0.117994250869811,1
750,650,52,0.0816075632366944,1
751,647,52,0.0725088248559004,1
751,648,52,0.126221602714394,1
751,649,52,0.147593456788514,1
751,650,52,0.107699887430557,1
750,649,53,0.0910675210130905,1
