x,y,z,signal,cytoplasm.p
650,312,1,0.0705242026219307,1
651,312,1,0.0694817900285669,1
652,312,1,0.0686530207443652,1
652,325,1,0.141357046390954,1
653,312,1,0.0716682676937007,1
654,311,1,0.0895182715942425,1
654,312,1,0.0805420780284688,1
655,310,1,0.10698730780967,1
655,311,1,0.10253055552148,1
655,312,1,0.0889351070607664,1
655,313,1,0.0816092044351556,1
655,314,1,0.0795602999315345,1
655,315,1,0.0762262052578153,1
655,316,1,0.070955196911231,1
655,317,1,0.0693015636763919,1
655,318,1,0.0708749219412469,1
655,319,1,0.0720255577966367,1
655,320,1,0.06834101933327,1
656,309,1,0.109169730396855,1
656,310,1,0.114711338826932,1
656,311,1,0.107485501389245,1
656,312,1,0.0934818137959957,1
656,313,1,0.0894530249707507,1
656,314,1,0.0897244157045969,1
656,315,1,0.0853054708787662,1
656,316,1,0.078119549304381,1
656,317,1,0.0754785555019298,1
656,318,1,0.075530367059187,1
656,319,1,0.0743651880291128,1
656,320,1,0.0684585147676235,1
657,305,1,0.111979486121355,1
657,306,1,0.123352763845294,1
657,307,1,0.111801913239685,1
657,308,1,0.101268066600169,1
657,309,1,0.105893922227606,1
657,310,1,0.107289503958427,1
657,311,1,0.10200611474608,1
657,312,1,0.0925071275931415,1
657,313,1,0.0919091922735156,1
657,314,1,0.0932698236648455,1
657,315,1,0.0887146294178667,1
657,316,1,0.0816324986717074,1
657,317,1,0.0793233983244729,1
657,318,1,0.077991499885763,1
657,319,1,0.0744953398588981,1
658,304,1,0.0835688852443368,1
658,305,1,0.108039519675598,1
658,306,1,0.120414347745084,1
658,307,1,0.110041086984189,1
658,308,1,0.0973281301032886,1
658,309,1,0.0958164904842115,1
658,310,1,0.0953050175725635,1
658,311,1,0.094098545030844,1
658,312,1,0.0899761539853378,1
658,313,1,0.0891168608056698,1
658,314,1,0.0891557284582759,1
658,315,1,0.0858516904775413,1
658,316,1,0.0823199571745434,1
658,317,1,0.0817756303447964,1
658,318,1,0.0797211194113958,1
658,319,1,0.0746591003184836,1
659,304,1,0.0733131199177954,1
659,305,1,0.0881636778965212,1
659,306,1,0.0949116211034834,1
659,307,1,0.08845460727774,1
659,308,1,0.0813705777727772,1
659,309,1,0.0811441522828999,1
659,310,1,0.0829592459035686,1
659,311,1,0.0859918152833768,1
659,312,1,0.0847690625321052,1
659,313,1,0.0813686191162197,1
659,314,1,0.0792855249745842,1
659,315,1,0.0790095820114298,1
659,316,1,0.0801886932590972,1
659,317,1,0.0811189173591167,1
659,318,1,0.0780050247986285,1
659,319,1,0.0725218526174073,1
660,305,1,0.0694481274907882,1
660,306,1,0.071396337880068,1
660,307,1,0.0686533322126863,1
660,309,1,0.0692362990835739,1
660,310,1,0.0732336835163681,1
660,311,1,0.0780702893914465,1
660,312,1,0.0794582641075024,1
660,313,1,0.0764729300965418,1
660,314,1,0.0746786329760808,1
660,315,1,0.0762702061479438,1
660,316,1,0.0792835962669036,1
660,317,1,0.0792983371041765,1
660,318,1,0.074985848556627,1
660,319,1,0.0698421409067351,1
661,312,1,0.0707320358489496,1
661,313,1,0.0708242544310921,1
661,314,1,0.0704362128212245,1
661,315,1,0.0723139115744312,1
661,316,1,0.0749445011370031,1
661,317,1,0.0742264109227436,1
661,318,1,0.0707157077211943,1
662,316,1,0.0687694440089212,1
662,317,1,0.0689298442045042,1
667,323,1,0.070643524937783,1
669,317,1,0.0692425464193218,1
670,317,1,0.0775808528635152,1
670,318,1,0.0738567878722478,1
650,312,2,0.0710935786924234,1
651,311,2,0.0681003321881522,1
651,312,2,0.0713559068960811,1
651,313,2,0.0692770355461065,1
651,325,2,0.117905997518987,1
652,311,2,0.0719900204591561,1
652,312,2,0.0722567751068384,1
652,313,2,0.0703115536154859,1
652,314,2,0.0680989964682367,1
652,324,2,0.126781371185136,1
652,325,2,0.164584928210865,1
652,326,2,0.108268856196322,1
653,311,2,0.0820830974959097,1
653,312,2,0.0778165565154956,1
653,313,2,0.0725269559060527,1
653,314,2,0.0701373589671442,1
653,325,2,0.120891828681306,1
654,310,2,0.0971497066735107,1
654,311,2,0.101413941590394,1
654,312,2,0.0905400014931312,1
654,313,2,0.0797244557162966,1
654,314,2,0.0752414322731782,1
654,315,2,0.0720947816309976,1
654,319,2,0.0715933655522554,1
654,320,2,0.0698448662545446,1
655,309,2,0.10392878473303,1
655,310,2,0.120278571516193,1
655,311,2,0.122213388767666,1
655,312,2,0.103498383431495,1
655,313,2,0.0892437062794314,1
655,314,2,0.0838728304075117,1
655,315,2,0.0801885974226907,1
655,316,2,0.0752564845787722,1
655,317,2,0.0723221415258383,1
655,318,2,0.0732052560422938,1
655,319,2,0.0747844543381691,1
655,320,2,0.0715512813902566,1
656,305,2,0.107242400364638,1
656,306,2,0.115987424538414,1
656,307,2,0.102070420974833,1
656,308,2,0.0956498369631053,1
656,309,2,0.116828245250731,1
656,310,2,0.132668433921948,1
656,311,2,0.131564278723704,1
656,312,2,0.109830402624077,1
656,313,2,0.0972580257719431,1
656,314,2,0.0944646880218292,1
656,315,2,0.0900701814796528,1
656,316,2,0.0831892772382401,1
656,317,2,0.0793264590997051,1
656,318,2,0.0777463683272944,1
656,319,2,0.0761374667351833,1
656,320,2,0.071425070832688,1
657,304,2,0.0943580221014087,1
657,305,2,0.134738440404322,1
657,306,2,0.149644511621506,1
657,307,2,0.124986343312076,1
657,308,2,0.103085172785374,1
657,309,2,0.114765498376148,1
657,310,2,0.125850775719041,1
657,311,2,0.125579462852275,1
657,312,2,0.108888857848542,1
657,313,2,0.100763224369895,1
657,314,2,0.0993229768838754,1
657,315,2,0.0937726712999097,1
657,316,2,0.085884406630806,1
657,317,2,0.0829867329829043,1
657,318,2,0.0809240639754015,1
657,319,2,0.0772475817599551,1
657,320,2,0.070670323192947,1
658,304,2,0.0946205479676548,1
658,305,2,0.136047529778288,1
658,306,2,0.150970384346158,1
658,307,2,0.124531827174758,1
658,308,2,0.0990438593397562,1
658,309,2,0.101222747959451,1
658,310,2,0.107264514615435,1
658,311,2,0.109955948316576,1
658,312,2,0.102967042434827,1
658,313,2,0.0974536997548888,1
658,314,2,0.0952111997203877,1
658,315,2,0.0897380184845427,1
658,316,2,0.085663497724077,1
658,317,2,0.0856889303104486,1
658,318,2,0.0842878200169285,1
658,319,2,0.0784654768033728,1
658,320,2,0.0703517629777828,1
659,304,2,0.0787928958963617,1
659,305,2,0.1053154896167,1
659,306,2,0.11271168824647,1
659,307,2,0.0952110200271255,1
659,308,2,0.0803928008458138,1
659,309,2,0.0814437249100288,1
659,310,2,0.0860420694990286,1
659,311,2,0.0926830712559016,1
659,312,2,0.0937727192181129,1
659,313,2,0.0890490505583046,1
659,314,2,0.0850535708740894,1
659,315,2,0.082560464626399,1
659,316,2,0.0830627851612275,1
659,317,2,0.084288742442341,1
659,318,2,0.082375644116488,1
659,319,2,0.0762787415778966,1
659,320,2,0.0689788525468717,1
660,305,2,0.072654196704991,1
660,306,2,0.0747704083148433,1
660,307,2,0.068465552753725,1
660,310,2,0.071399218962038,1
660,311,2,0.0797949733421452,1
660,312,2,0.0868095753603832,1
660,313,2,0.0845241645748774,1
660,314,2,0.0807238976609017,1
660,315,2,0.0802353895481582,1
660,316,2,0.0822389993701631,1
660,317,2,0.0811126999722458,1
660,318,2,0.0780783456393668,1
660,319,2,0.073382840903515,1
660,320,2,0.0681053995381452,1
661,312,2,0.0749167145688972,1
661,313,2,0.076015706580741,1
661,314,2,0.0731517134399443,1
661,315,2,0.0737407599328685,1
661,316,2,0.0766533780704068,1
661,317,2,0.0754740571806003,1
661,318,2,0.0729160936448195,1
661,319,2,0.0706452200442227,1
662,316,2,0.0693621682239444,1
662,317,2,0.0707216196295194,1
662,318,2,0.0694969022319149,1
665,322,2,0.0678568238588184,1
666,323,2,0.0789224966668098,1
667,323,2,0.0708756347245202,1
667,324,2,0.0771111885841973,1
650,312,3,0.0683657810647961,1
651,312,3,0.0701294943920368,1
651,313,3,0.0703326136658115,1
651,325,3,0.131779060090194,1
652,311,3,0.0710889845346874,1
652,312,3,0.0730433284539824,1
652,313,3,0.0727681701514062,1
652,314,3,0.0699174623324588,1
652,324,3,0.121492291686153,1
652,325,3,0.1568298222388,1
652,326,3,0.100113321758851,1
653,310,3,0.0808955286853698,1
653,311,3,0.0863452180220746,1
653,312,3,0.0825778589341765,1
653,313,3,0.0765264487397896,1
653,314,3,0.0724033029825823,1
653,315,3,0.0684992871688085,1
653,319,3,0.0690910051015636,1
653,320,3,0.0677911699305991,1
653,325,3,0.106975412115715,1
654,309,3,0.0871156948120303,1
654,310,3,0.106253895749924,1
654,311,3,0.115782741933258,1
654,312,3,0.104993934513833,1
654,313,3,0.0885471073793266,1
654,314,3,0.0792347855871245,1
654,315,3,0.0738916363855568,1
654,316,3,0.0692057093005782,1
654,318,3,0.0684020371753254,1
654,319,3,0.0745812212586617,1
654,320,3,0.0738297859647199,1
654,321,3,0.0686173576216011,1
655,306,3,0.0862532989287023,1
655,307,3,0.082063217431339,1
655,308,3,0.0843592301193125,1
655,309,3,0.107785074016373,1
655,310,3,0.139580203476025,1
655,311,3,0.154802438998211,1
655,312,3,0.135387600283216,1
655,313,3,0.105904152763999,1
655,314,3,0.0893681318839291,1
655,315,3,0.0826596433275627,1
655,316,3,0.0777920164056594,1
655,317,3,0.0738485519310653,1
655,318,3,0.0731636211134504,1
655,319,3,0.0748993861486492,1
655,320,3,0.0742330416041174,1
655,321,3,0.0699342936013481,1
656,305,3,0.108346950888058,1
656,306,3,0.120113768835687,1
656,307,3,0.104742220192194,1
656,308,3,0.0974003188764753,1
656,309,3,0.124600278328092,1
656,310,3,0.161325376292066,1
656,311,3,0.177915424946293,1
656,312,3,0.154039820793587,1
656,313,3,0.120877573015841,1
656,314,3,0.104312190256734,1
656,315,3,0.0955431950017864,1
656,316,3,0.086750540133987,1
656,317,3,0.0810456025081538,1
656,318,3,0.0776923345633617,1
656,319,3,0.0758354383001382,1
656,320,3,0.0746339851902084,1
656,321,3,0.0701547412953709,1
657,304,3,0.0988667716298936,1
657,305,3,0.150257589093357,1
657,306,3,0.169272909788807,1
657,307,3,0.13505454481157,1
657,308,3,0.10745780466777,1
657,309,3,0.126900843245373,1
657,310,3,0.158938606527149,1
657,311,3,0.17170866393699,1
657,312,3,0.150170342024801,1
657,313,3,0.124262131547352,1
657,314,3,0.112075082936826,1
657,315,3,0.100868440764667,1
657,316,3,0.088763649739785,1
657,317,3,0.0837338017305755,1
657,318,3,0.0812076858306256,1
657,319,3,0.0781023227103149,1
657,320,3,0.0752618334482092,1
657,321,3,0.0693746868545418,1
658,304,3,0.103886772448337,1
658,305,3,0.161690728632698,1
658,306,3,0.178693880117089,1
658,307,3,0.136713556864723,1
658,308,3,0.100763763449681,1
658,309,3,0.108825917288581,1
658,310,3,0.129939983408801,1
658,311,3,0.138817022232513,1
658,312,3,0.128131406663774,1
658,313,3,0.113688764369711,1
658,314,3,0.106056388895704,1
658,315,3,0.0954291856167188,1
658,316,3,0.0879242066758107,1
658,317,3,0.0871862423867559,1
658,318,3,0.086243529605016,1
658,319,3,0.0796376878297731,1
658,320,3,0.0735712792377709,1
659,304,3,0.0831352614436336,1
659,305,3,0.122091772367834,1
659,306,3,0.130093980534476,1
659,307,3,0.102116638081861,1
659,308,3,0.0803217022117509,1
659,309,3,0.0839681457035389,1
659,310,3,0.095891925715668,1
659,311,3,0.104598225991447,1
659,312,3,0.106816742965224,1
659,313,3,0.101354043836339,1
659,314,3,0.0955037044125382,1
659,315,3,0.0887369473210274,1
659,316,3,0.0856188559279801,1
659,317,3,0.085261889272916,1
659,318,3,0.0846360236305744,1
659,319,3,0.0779569628407751,1
659,320,3,0.0720613886331122,1
659,321,3,0.0680354509409602,1
660,305,3,0.0735932197850811,1
660,306,3,0.0753464090769344,1
660,310,3,0.0718471762952865,1
660,311,3,0.0806506966156715,1
660,312,3,0.092382558234034,1
660,313,3,0.0929862976460279,1
660,314,3,0.0889111958773478,1
660,315,3,0.0853946286856765,1
660,316,3,0.0836699147861008,1
660,317,3,0.0796670137701582,1
660,318,3,0.0790126907048653,1
660,319,3,0.0765564455350202,1
660,320,3,0.0727061939452859,1
661,312,3,0.0778132801083488,1
661,313,3,0.0810109576472086,1
661,314,3,0.077354505240718,1
661,315,3,0.0757556544917374,1
661,316,3,0.076718307235802,1
661,317,3,0.0739283297496906,1
661,318,3,0.0734574675152917,1
661,319,3,0.0737748956629043,1
661,320,3,0.0704484798812549,1
662,316,3,0.0684129745052158,1
662,317,3,0.0697623031903556,1
662,318,3,0.0698752104567486,1
662,319,3,0.0696849931591973,1
665,322,3,0.0700762991966609,1
666,322,3,0.068946711412046,1
666,323,3,0.0790139904861283,1
667,323,3,0.0696002198678838,1
667,324,3,0.0763281632147671,1
650,313,4,0.06935626829517,1
650,324,4,0.10097278265223,1
650,325,4,0.103011798036657,1
651,312,4,0.068818086974989,1
651,313,4,0.0717590367501951,1
651,324,4,0.109650733321015,1
651,325,4,0.123837432512003,1
651,326,4,0.074384085770517,1
652,311,4,0.069664514117086,1
652,312,4,0.0731198358552364,1
652,313,4,0.0743990242703783,1
652,314,4,0.071533958959784,1
652,324,4,0.0966456011856114,1
652,325,4,0.116934695539237,1
652,326,4,0.0799218367852329,1
653,309,4,0.0705984818267339,1
653,310,4,0.0819894892858731,1
653,311,4,0.0893303843193238,1
653,312,4,0.0866001728122082,1
653,313,4,0.0796526383091851,1
653,314,4,0.0737106732910069,1
653,315,4,0.0680793799537839,1
653,324,4,0.0735327949307908,1
653,325,4,0.0842898146121386,1
654,305,4,0.0734751193834116,1
654,309,4,0.0871010558009394,1
654,310,4,0.115465954691614,1
654,311,4,0.133277066980448,1
654,312,4,0.123328433377597,1
654,313,4,0.0984523270900387,1
654,314,4,0.0827224341431382,1
654,315,4,0.0743951189368139,1
654,316,4,0.0690024402824184,1
654,319,4,0.0734191928504507,1
654,320,4,0.0748519650967641,1
654,321,4,0.0699674889366452,1
654,322,4,0.0677943325320132,1
655,306,4,0.0845185341859962,1
655,307,4,0.0816652807125015,1
655,308,4,0.0835257049534388,1
655,309,4,0.111275483858849,1
655,310,4,0.164246553818659,1
655,311,4,0.199271106626819,1
655,312,4,0.178857736413081,1
655,313,4,0.125456720374667,1
655,314,4,0.0941050559167097,1
655,315,4,0.083193781549345,1
655,316,4,0.0785932147536698,1
655,317,4,0.0740993857557199,1
655,318,4,0.071766302347762,1
655,319,4,0.0730024542266155,1
655,320,4,0.0750383968562592,1
655,321,4,0.0713134693373334,1
656,305,4,0.103379055125868,1
656,306,4,0.117548958986618,1
656,307,4,0.105023344311074,1
656,308,4,0.0975794490997511,1
656,309,4,0.134767143408065,1
656,310,4,0.203240938092748,1
656,311,4,0.248311841699724,2
656,312,4,0.220940532743083,1
656,313,4,0.152245116368398,1
656,314,4,0.112909039366529,1
656,315,4,0.0964931434322161,1
656,316,4,0.0877993737665854,1
656,317,4,0.0812160176082146,1
656,318,4,0.0765936120914111,1
656,319,4,0.0739757747606773,1
656,320,4,0.0757338277501599,1
656,321,4,0.0707222725150387,1
657,304,4,0.0960748175178984,1
657,305,4,0.154154081749221,1
657,306,4,0.177965727080148,1
657,307,4,0.141963834598629,1
657,308,4,0.110404786146809,1
657,309,4,0.140397424473245,1
657,310,4,0.201512576419951,1
657,311,4,0.235882961896978,1
657,312,4,0.208852878465636,1
657,313,4,0.15454686726121,1
657,314,4,0.123610899206168,1
657,315,4,0.103256348586911,1
657,316,4,0.0900833829446464,1
657,317,4,0.0838405275487501,1
657,318,4,0.0808002732870967,1
657,319,4,0.077298057597297,1
657,320,4,0.0774301441245383,1
657,321,4,0.0703480852556839,1
658,304,4,0.105121564648173,1
658,305,4,0.176490900620713,1
658,306,4,0.198505265923027,1
658,307,4,0.148875963539231,1
658,308,4,0.103202236955898,1
658,309,4,0.117949974450014,1
658,310,4,0.158359179613526,1
658,311,4,0.179175733589357,1
658,312,4,0.166808752125651,1
658,313,4,0.141693036852548,1
658,314,4,0.121163381139089,1
658,315,4,0.0992538309165947,1
658,316,4,0.0894660108038298,1
658,317,4,0.088534510881649,1
658,318,4,0.0873938659716355,1
658,319,4,0.0792529705452555,1
658,320,4,0.0743336878002555,1
659,304,4,0.0811199655698126,1
659,305,4,0.129219018102347,1
659,306,4,0.140521137294469,1
659,307,4,0.10788029946577,1
659,308,4,0.079999512192691,1
659,309,4,0.0860648006966923,1
659,310,4,0.106318333753736,1
659,311,4,0.120557491397724,1
659,312,4,0.129990597010977,1
659,313,4,0.129928962222055,1
659,314,4,0.116116252627834,1
659,315,4,0.0960297923761755,1
659,316,4,0.0877208478110198,1
659,317,4,0.0858113313708593,1
659,318,4,0.0853823196972183,1
659,319,4,0.0788158487157155,1
659,320,4,0.0739467722681641,1
659,321,4,0.0698554262285844,1
660,305,4,0.0710312850282066,1
660,306,4,0.0737560997476819,1
660,310,4,0.0703568063686742,1
660,311,4,0.0811458354097888,1
660,312,4,0.102747529145768,1
660,313,4,0.113498241593614,1
660,314,4,0.105094862229415,1
660,315,4,0.0911087546269817,1
660,316,4,0.0841863352522337,1
660,317,4,0.077792202088697,1
660,318,4,0.0776615411280022,1
660,319,4,0.0773299831002081,1
660,320,4,0.0745760161438343,1
661,312,4,0.0800672625423022,1
661,313,4,0.0892754820379573,1
661,314,4,0.0840932721117591,1
661,315,4,0.0772618134663185,1
661,316,4,0.0753198024945833,1
661,317,4,0.0714931326506203,1
661,318,4,0.0720008200242121,1
661,319,4,0.0745619821000593,1
661,320,4,0.0718646484701443,1
662,319,4,0.0688710785180011,1
665,322,4,0.0715695262461416,1
666,322,4,0.0681516406042754,1
666,323,4,0.0740709223429931,1
667,324,4,0.0697005246468237,1
649,313,5,0.0681232071404256,1
649,324,5,0.0780442099093311,1
649,325,5,0.0733374563752678,1
650,313,5,0.07216528128752,1
650,323,5,0.0752118487724506,1
650,324,5,0.106231865355982,1
650,325,5,0.103163674781838,1
650,326,5,0.0692975085984424,1
651,313,5,0.0717767904444969,1
651,314,5,0.0690432546120312,1
651,323,5,0.0712437243925122,1
651,324,5,0.102902604431015,1
651,325,5,0.106604321570245,1
651,326,5,0.0717602826234795,1
652,311,5,0.0681565222712308,1
652,312,5,0.0718558015718704,1
652,313,5,0.0742555511800912,1
652,314,5,0.0722019686618784,1
652,324,5,0.0810719814790394,1
652,325,5,0.08782167370042,1
652,326,5,0.0698574867113239,1
653,309,5,0.0679271078834261,1
653,310,5,0.0819077348413639,1
653,311,5,0.0920681489332258,1
653,312,5,0.090636065511084,1
653,313,5,0.0834359541587634,1
653,314,5,0.0761298477408676,1
653,315,5,0.0688749778617901,1
653,324,5,0.0718268649668866,1
653,325,5,0.0748133849533775,1
654,304,5,0.0718300455376269,1
654,305,5,0.0685335007659246,1
654,308,5,0.0691924119991781,1
654,309,5,0.0878084243172231,1
654,310,5,0.126529608945294,1
654,311,5,0.154890273064756,1
654,312,5,0.144400666906385,1
654,313,5,0.110649720042689,1
654,314,5,0.0876327981125595,1
654,315,5,0.0757744863456122,1
654,316,5,0.0696048080358443,1
654,319,5,0.0694938174975811,1
654,320,5,0.0720866714750986,1
654,321,5,0.0688292758754464,1
654,322,5,0.0681403858162885,1
654,324,5,0.0700168866144141,1
654,325,5,0.0696864606541716,1
655,305,5,0.0745315839898766,1
655,306,5,0.0786632771565875,1
655,307,5,0.078858106581201,1
655,308,5,0.0823606876473006,1
655,309,5,0.117628970406484,1
655,310,5,0.193935929816316,1
655,311,5,0.250093560291833,2
655,312,5,0.226124180215379,1
655,313,5,0.149545404797647,1
655,314,5,0.102261183341946,1
655,315,5,0.0842598837044375,1
655,316,5,0.0784990015763172,1
655,317,5,0.0731967146225656,1
655,318,5,0.0700219659439579,1
655,319,5,0.0704720676168016,1
655,320,5,0.0732397870975063,1
655,321,5,0.0707110716350304,1
655,322,5,0.0682873329763108,1
656,304,5,0.0711725119527166,1
656,305,5,0.0929318386080414,1
656,306,5,0.107476983928618,1
656,307,5,0.101899436846108,1
656,308,5,0.0985842638728949,1
656,309,5,0.147957874724183,1
656,310,5,0.249663686090534,2
656,311,5,0.322593777840476,2
656,312,5,0.289631612520375,2
656,313,5,0.187660777551433,1
656,314,5,0.123184570951909,1
656,315,5,0.0957648047122378,1
656,316,5,0.0862716396209939,1
656,317,5,0.0796749502225705,1
656,318,5,0.0746724694971885,1
656,319,5,0.0721077015765472,1
656,320,5,0.0746394119267258,1
656,321,5,0.0702921527329476,1
657,304,5,0.0862225294524444,1
657,305,5,0.136267773819947,1
657,306,5,0.162318720645309,1
657,307,5,0.13669918140375,1
657,308,5,0.111032322936489,1
657,309,5,0.149122610510877,1
657,310,5,0.234295288068904,1
657,311,5,0.287174486853545,2
657,312,5,0.256867588970686,2
657,313,5,0.179893404519338,1
657,314,5,0.130574288644689,1
657,315,5,0.101668902370303,1
657,316,5,0.0889536394258709,1
657,317,5,0.0827540841163807,1
657,318,5,0.0787954056122566,1
657,319,5,0.0751749397764022,1
657,320,5,0.0765046279879875,1
657,321,5,0.0699773001887594,1
658,304,5,0.0954277181217444,1
658,305,5,0.161732812794697,1
658,306,5,0.188289224786975,1
658,307,5,0.14784998688958,1
658,308,5,0.105104218258599,1
658,309,5,0.122430661880724,1
658,310,5,0.174729918631057,1
658,311,5,0.203746714727986,1
658,312,5,0.191185640582041,1
658,313,5,0.160174704498024,1
658,314,5,0.128295430673477,1
658,315,5,0.0993247019391922,1
658,316,5,0.0886936352550705,1
658,317,5,0.0874581542310623,1
658,318,5,0.0850498991417658,1
658,319,5,0.0771825627479288,1
658,320,5,0.0736366815954232,1
659,304,5,0.0715772590461901,1
659,305,5,0.114202159999264,1
659,306,5,0.129247361719566,1
659,307,5,0.104488002144435,1
659,308,5,0.0793457641458369,1
659,309,5,0.0849283067010349,1
659,310,5,0.108036488849242,1
659,311,5,0.12433331403827,1
659,312,5,0.140106728693267,1
659,313,5,0.149866672391295,1
659,314,5,0.129965511831579,1
659,315,5,0.0997502335533226,1
659,316,5,0.0871020381241058,1
659,317,5,0.0835250161292672,1
659,318,5,0.0822723145009683,1
659,319,5,0.0776453148264288,1
659,320,5,0.074713056215336,1
659,321,5,0.0704939842050102,1
660,306,5,0.0685169150778268,1
660,310,5,0.0678139490464661,1
660,311,5,0.079491555279206,1
660,312,5,0.107897765650852,1
660,313,5,0.131564386539662,1
660,314,5,0.11834301153257,1
660,315,5,0.0942012097812936,1
660,316,5,0.0827492683369547,1
660,317,5,0.075718805393443,1
660,318,5,0.0746216522426486,1
660,319,5,0.0752826179688662,1
660,320,5,0.0738206036390234,1
661,312,5,0.0778810424375108,1
661,313,5,0.0948671410313224,1
661,314,5,0.0888755327545837,1
661,315,5,0.077616599843135,1
661,316,5,0.0734138978889923,1
661,317,5,0.069916372193335,1
661,318,5,0.0698617394518618,1
661,319,5,0.0717478238906361,1
661,320,5,0.0696763379337364,1
649,313,6,0.0692055475766423,1
649,324,6,0.0849287739035165,1
649,325,6,0.0868373918773662,1
649,326,6,0.0701471702192584,1
650,313,6,0.0733238176566695,1
650,314,6,0.0716641527179972,1
650,323,6,0.0702939856042217,1
650,324,6,0.101654850357201,1
650,325,6,0.101815759683694,1
650,326,6,0.0761297159658086,1
651,313,6,0.0744781851421369,1
651,314,6,0.0743078658784825,1
651,324,6,0.0857868870974296,1
651,325,6,0.0864113870709787,1
651,326,6,0.0693091647013814,1
652,311,6,0.0694525659143636,1
652,312,6,0.0759291123977042,1
652,313,6,0.0808325342174306,1
652,314,6,0.0780348179414953,1
652,315,6,0.0678788362834335,1
652,324,6,0.0694898882049151,1
652,325,6,0.0706852377337067,1
653,310,6,0.0819270398874957,1
653,311,6,0.0972447644091954,1
653,312,6,0.10126926455525,1
653,313,6,0.0951750574155911,1
653,314,6,0.0834575832377525,1
653,315,6,0.0710188921828927,1
653,324,6,0.0693728599730431,1
653,325,6,0.0696629148470528,1
654,309,6,0.0889343164104129,1
654,310,6,0.139246177660764,1
654,311,6,0.184228133102968,2
654,312,6,0.176575679901802,1
654,313,6,0.132994445417716,1
654,314,6,0.0963853753931209,1
654,315,6,0.0782397401376671,1
654,316,6,0.0705924441331252,1
654,324,6,0.0703310383548799,1
654,325,6,0.0706641357549532,1
655,306,6,0.0721103490572764,1
655,307,6,0.0754147763734124,1
655,308,6,0.0816287969905068,1
655,309,6,0.125133560011991,1
655,310,6,0.22897826027788,2
655,311,6,0.315932764243973,2
655,312,6,0.291926702782936,2
655,313,6,0.19116965986126,1
655,314,6,0.116877672877377,1
655,315,6,0.0874435032404206,1
655,316,6,0.0791446334774968,1
655,317,6,0.0722408482940353,1
655,320,6,0.0684065115375533,1
655,321,6,0.0678191302021918,1
656,305,6,0.0805638987802709,1
656,306,6,0.0944779433948015,1
656,307,6,0.0961427775096488,1
656,308,6,0.0989628476273973,1
656,309,6,0.158742249709807,1
656,310,6,0.294255623296987,2
656,311,6,0.400266933142989,2
656,312,6,0.365783963847441,2
656,313,6,0.235154533330369,2
656,314,6,0.137958435846343,1
656,315,6,0.0974303695796845,1
656,316,6,0.0864132199422528,1
656,317,6,0.0788585618041319,1
656,318,6,0.0724557254969309,1
656,319,6,0.0696450713061199,1
656,320,6,0.0704664971256745,1
656,321,6,0.0682091664072695,1
657,304,6,0.0743875179118244,1
657,305,6,0.11020965124365,1
657,306,6,0.136436110467942,1
657,307,6,0.125122838314015,1
657,308,6,0.109456820332039,1
657,309,6,0.152192430303932,1
657,310,6,0.259740237336944,2
657,311,6,0.334215954691614,2
657,312,6,0.304032853486835,2
657,313,6,0.207205282924406,2
657,314,6,0.134752995558558,1
657,315,6,0.0990956888663397,1
657,316,6,0.0888959878375933,1
657,317,6,0.082814892316297,1
657,318,6,0.0765827346592747,1
657,319,6,0.0720692352388933,1
657,320,6,0.0719806344810957,1
658,304,6,0.0795785567669703,1
658,305,6,0.130115819255604,1
658,306,6,0.159372649612131,1
658,307,6,0.1365699220505,1
658,308,6,0.104325787046905,1
658,309,6,0.121312730199048,1
658,310,6,0.181769474053635,1
658,311,6,0.219525460283093,2
658,312,6,0.208516636433475,2
658,313,6,0.171739894625954,1
658,314,6,0.12925274053788,1
658,315,6,0.0977181303697139,1
658,316,6,0.0884906178074777,1
658,317,6,0.0862236435506699,1
658,318,6,0.0812037385686334,1
658,319,6,0.0738836580047167,1
658,320,6,0.0707203557869089,1
659,305,6,0.0918761047541758,1
659,306,6,0.109638406363231,1
659,307,6,0.0971606679625027,1
659,308,6,0.0782987633845125,1
659,309,6,0.0817597274910949,1
659,310,6,0.105509678135346,1
659,311,6,0.124167996237079,1
659,312,6,0.144725025224142,1
659,313,6,0.16222523223078,1
659,314,6,0.138388980902488,1
659,315,6,0.1016112567718,1
659,316,6,0.0865795560052626,1
659,317,6,0.0821864450807556,1
659,318,6,0.0783174694531038,1
659,319,6,0.0741059505495643,1
659,320,6,0.0722563618123355,1
660,311,6,0.0778970231582926,1
660,312,6,0.109248783452656,1
660,313,6,0.144502792577049,1
660,314,6,0.129662584930223,1
660,315,6,0.0971723120858909,1
660,316,6,0.0818974803458698,1
660,317,6,0.076287109294138,1
660,318,6,0.0727799520396287,1
660,319,6,0.0710476251355127,1
660,320,6,0.0699353597813703,1
661,312,6,0.0721148952968092,1
661,313,6,0.0963487179676395,1
661,314,6,0.0925086909245223,1
661,315,6,0.0785001875518475,1
661,316,6,0.0724554080388344,1
661,317,6,0.0710785024277279,1
661,318,6,0.0694673786289414,1
661,319,6,0.0677563513661671,1
648,325,7,0.0798870421799026,1
649,324,7,0.0906992696211625,1
649,325,7,0.108735423761755,1
649,326,7,0.0869004402532841,1
650,313,7,0.0702510808429924,1
650,314,7,0.0741020392262245,1
650,324,7,0.0919775595699935,1
650,325,7,0.105119731776899,1
650,326,7,0.086434244053926,1
651,313,7,0.0769163112413805,1
651,314,7,0.0803214925696117,1
651,315,7,0.0685184724194322,1
651,324,7,0.071309695778828,1
651,325,7,0.0764539664676081,1
651,326,7,0.0715119345556181,1
652,311,7,0.0693965495347717,1
652,312,7,0.0811157727270288,1
652,313,7,0.0902436693344967,1
652,314,7,0.0859189197166922,1
652,315,7,0.0696092105207674,1
653,310,7,0.0814574594650335,1
653,311,7,0.102282890288015,1
653,312,7,0.114374509796781,1
653,313,7,0.110855193298198,1
653,314,7,0.0929370437228687,1
653,315,7,0.0728656717154563,1
653,325,7,0.0683367186745288,1
654,309,7,0.0879112687609349,1
654,310,7,0.149755609975727,1
654,311,7,0.215012547860701,2
654,312,7,0.21622447109804,2
654,313,7,0.162184393942066,1
654,314,7,0.106884643059221,1
654,315,7,0.0798862395499982,1
654,316,7,0.0713650592729007,1
654,324,7,0.0683237568005514,1
654,325,7,0.0710540641440736,1
654,326,7,0.0693999756863037,1
655,307,7,0.0722550979697249,1
655,308,7,0.0809449563120157,1
655,309,7,0.128517759156977,1
655,310,7,0.259525659622819,2
655,311,7,0.388618041893543,2
655,312,7,0.377938991118649,2
655,313,7,0.250999046619428,2
655,314,7,0.137447531963358,1
655,315,7,0.0914644634292106,1
655,316,7,0.0812187609253503,1
655,317,7,0.0720425268303604,1
656,305,7,0.0722698447967731,1
656,306,7,0.0839460673913943,1
656,307,7,0.0904627154210745,1
656,308,7,0.0973704838051807,1
656,309,7,0.157925711546984,2
656,310,7,0.319610462383827,2
656,311,7,0.470750297476206,2
656,312,7,0.453918022304582,2
656,313,7,0.298743809926505,2
656,314,7,0.15948017806021,1
656,315,7,0.101245509105992,1
656,316,7,0.0889642053896862,1
656,317,7,0.0793337786052506,1
656,318,7,0.0710225938640932,1
656,319,7,0.0683347660077466,1
657,305,7,0.0889596711297042,1
657,306,7,0.112076161096399,1
657,307,7,0.112503675326189,1
657,308,7,0.10554356828459,1
657,309,7,0.146867292357008,1
657,310,7,0.269302889812667,2
657,311,7,0.376076913699699,2
657,312,7,0.358082574181212,2
657,313,7,0.244241693475304,2
657,314,7,0.142645650733034,1
657,315,7,0.0980706945398549,1
657,316,7,0.0897607796310835,1
657,317,7,0.0833921090027954,1
657,318,7,0.0749635785716695,1
657,319,7,0.0701464873848621,1
657,320,7,0.0680792122400725,1
657,327,7,0.0709815339536888,1
657,328,7,0.0695002145777141,1
658,305,7,0.0991601508292533,1
658,306,7,0.1268931164351,1
658,307,7,0.120789786867499,1
658,308,7,0.100214027852743,1
658,309,7,0.113117962732672,1
658,310,7,0.173821078029235,1
658,311,7,0.225386719067458,2
658,312,7,0.221012314211542,2
658,313,7,0.180949449841525,1
658,314,7,0.1319785914885,1
658,315,7,0.0989266274555204,1
658,316,7,0.0887612538296228,1
658,317,7,0.0845678839455618,1
658,318,7,0.0774981939629198,1
658,319,7,0.0718046848285602,1
658,320,7,0.0686425685862827,1
658,327,7,0.0739400517401591,1
658,328,7,0.0715034590234194,1
659,305,7,0.0731876401128263,1
659,306,7,0.0917477977752153,1
659,307,7,0.0900047551628989,1
659,308,7,0.0771705951766687,1
659,309,7,0.0769362571934807,1
659,310,7,0.0966784670832611,1
659,311,7,0.119557306720969,1
659,312,7,0.141645681688193,1
659,313,7,0.164555829881945,1
659,314,7,0.146659243498075,1
659,315,7,0.107928373403174,1
659,316,7,0.0882377953773884,1
659,317,7,0.0827193374292536,1
659,318,7,0.0769869067343093,1
659,319,7,0.0727338607178837,1
659,320,7,0.0705049754428792,1
660,311,7,0.0756079466302386,1
660,312,7,0.105054766672851,1
660,313,7,0.147156694345499,1
660,314,7,0.141938425971359,1
660,315,7,0.105732593616835,1
660,316,7,0.0842883890455921,1
660,317,7,0.0793705258773631,1
660,318,7,0.074713972650973,1
660,319,7,0.070217142775545,1
660,320,7,0.0680504732976771,1
661,313,7,0.0946098322594544,1
661,314,7,0.0983007138949756,1
661,315,7,0.0833076172309259,1
661,316,7,0.0746323320121965,1
661,317,7,0.0753506737970231,1
661,318,7,0.0731051369463914,1
662,317,7,0.0688683172315392,1
662,318,7,0.0695950746508105,1
648,325,8,0.0871581144014518,1
648,326,8,0.0686712596104748,1
649,324,8,0.091276132910912,1
649,325,8,0.124286605769658,1
649,326,8,0.0995510795108663,1
649,327,8,0.0691009361491858,1
650,314,8,0.0706004225139653,1
650,324,8,0.0810965515377527,1
650,325,8,0.106525975307942,1
650,326,8,0.0989053996914834,1
650,327,8,0.0881347772301899,1
650,328,8,0.068503695643507,1
651,313,8,0.0744992991004412,1
651,314,8,0.0806169442312617,1
651,315,8,0.0677942426853821,1
651,325,8,0.0718160654018306,1
651,326,8,0.0815953201357657,1
651,327,8,0.0874976448203106,1
651,328,8,0.0704729001955829,1
652,312,8,0.0799561641880816,1
652,313,8,0.0931668115074223,1
652,314,8,0.0872072964473061,1
652,326,8,0.0687880662206568,1
652,327,8,0.0707269026114271,1
653,310,8,0.074811042951194,1
653,311,8,0.0966736513038351,1
653,312,8,0.115295916947403,1
653,313,8,0.115811361080145,1
653,314,8,0.0936622258312083,1
653,315,8,0.069002655914333,1
654,309,8,0.0796345312181344,1
654,310,8,0.138998668161459,1
654,311,8,0.21307509510805,2
654,312,8,0.224092831743471,2
654,313,8,0.168850786356882,1
654,314,8,0.10414209261477,1
654,315,8,0.0744381135446743,1
654,325,8,0.0714387275206125,1
654,326,8,0.0715844707357783,1
655,308,8,0.0769835105316544,1
655,309,8,0.118871417539289,1
655,310,8,0.253501359151917,2
655,311,8,0.414224786974836,2
655,312,8,0.425847826353632,2
655,313,8,0.287232419961267,2
655,314,8,0.144957823835051,1
655,315,8,0.0889029599361653,1
655,316,8,0.0777327296086961,1
655,317,8,0.0681239319032497,1
655,326,8,0.0682850269127797,1
655,327,8,0.0698307783027909,1
656,306,8,0.0735229716991258,1
656,307,8,0.0825603867593187,1
656,308,8,0.0907160709411748,1
656,309,8,0.139512662768553,2
656,310,8,0.301241091047653,2
656,311,8,0.492001781023778,2
656,312,8,0.505743427922589,2
656,313,8,0.339948577059371,2
656,314,8,0.168445170745975,2
656,315,8,0.100068368494433,1
656,316,8,0.088349558596679,1
656,317,8,0.0780548178015742,1
656,318,8,0.0679348227141484,1
656,326,8,0.0707909153411853,1
656,327,8,0.0871170065728441,1
656,328,8,0.0876738520331885,1
656,329,8,0.0730120797956921,1
657,305,8,0.0733177919426116,1
657,306,8,0.090342296976323,1
657,307,8,0.0981868302951915,1
657,308,8,0.0971007821879988,1
657,309,8,0.130410348491842,1
657,310,8,0.251633363834867,2
657,311,8,0.390123559962156,2
657,312,8,0.392703979165932,2
657,313,8,0.268034878318431,2
657,314,8,0.143069487240724,1
657,315,8,0.0947498193004556,1
657,316,8,0.0897825285055807,1
657,317,8,0.0834168647445461,1
657,318,8,0.0727224382161855,1
657,319,8,0.0678097801627839,1
657,326,8,0.0764015140043824,1
657,327,8,0.101289042793639,1
657,328,8,0.0996398599619261,1
657,329,8,0.0778700631791926,1
658,305,8,0.0771797415637128,1
658,306,8,0.10000295415723,1
658,307,8,0.104426642885182,1
658,308,8,0.0925550338168344,1
658,309,8,0.09954241829563,1
658,310,8,0.152115701280988,1
658,311,8,0.215405980268434,2
658,312,8,0.219748854946615,2
658,313,8,0.17656147215454,1
658,314,8,0.126866437975444,1
658,315,8,0.0971316175517862,1
658,316,8,0.088071345508646,1
658,317,8,0.082521021955354,1
658,318,8,0.074124087589492,1
658,319,8,0.0699150843916228,1
658,326,8,0.0737776449698154,1
658,327,8,0.0951355847956691,1
658,328,8,0.0922031644606404,1
658,329,8,0.0755075999228709,1
659,306,8,0.0794135684034268,1
659,307,8,0.0836274832171285,1
659,308,8,0.0746062525300811,1
659,309,8,0.0708824630684824,1
659,310,8,0.08386504968926,1
659,311,8,0.10913687048898,1
659,312,8,0.130972740484212,1
659,313,8,0.151234916787165,1
659,314,8,0.144313288062771,1
659,315,8,0.110075600070076,1
659,316,8,0.0888949036882449,1
659,317,8,0.0831733025072337,1
659,318,8,0.0771491158420647,1
659,319,8,0.0720868631479116,1
659,327,8,0.0718928782816302,1
659,328,8,0.0713529120083784,1
660,311,8,0.0692411627812032,1
660,312,8,0.0939485550649157,1
660,313,8,0.132567206717595,1
660,314,8,0.142101012434965,1
660,315,8,0.110591355671139,1
660,316,8,0.0872035767967793,1
660,317,8,0.0841087017732035,1
660,318,8,0.0797650783730965,1
660,319,8,0.0716292383171587,1
661,313,8,0.0846543164046627,1
661,314,8,0.0976534887135381,1
661,315,8,0.0858380817078201,1
661,316,8,0.0779036358703402,1
661,317,8,0.0825727137171032,1
661,318,8,0.0804407669672608,1
661,319,8,0.0704039339215644,1
662,317,8,0.0750346173079783,1
662,318,8,0.0750789476357542,1
668,326,8,0.069292273534738,1
672,329,8,0.0876266466132181,1
672,330,8,0.125269132588518,1
648,325,9,0.0853797860222218,1
649,324,9,0.0847128904183528,1
649,325,9,0.121888431472369,1
649,326,9,0.101002228388124,1
649,327,9,0.0771624670514434,1
650,324,9,0.070456326487036,1
650,325,9,0.0996445020378653,1
650,326,9,0.106103001327909,1
650,327,9,0.113605554409778,1
650,328,9,0.0834659389744431,1
651,313,9,0.0688049454077494,1
651,314,9,0.0745808199437095,1
651,325,9,0.0701817671620003,1
651,326,9,0.0946142287546021,1
651,327,9,0.117569563814013,1
651,328,9,0.0884336550433717,1
652,312,9,0.0745318056115666,1
652,313,9,0.0886123959312462,1
652,314,9,0.0813389936870642,1
652,326,9,0.0714795478400007,1
652,327,9,0.0811359822292468,1
653,310,9,0.0677540992106147,1
653,311,9,0.0877404703152481,1
653,312,9,0.107530820029962,1
653,313,9,0.111363749189224,1
653,314,9,0.0886920898930159,1
654,309,9,0.0725642841863796,1
654,310,9,0.11907352454102,1
654,311,9,0.186737082306606,2
654,312,9,0.204102579264375,2
654,313,9,0.159449534369235,1
654,314,9,0.0986720919496652,1
654,315,9,0.0701338968769599,1
654,324,9,0.0681267231385886,1
654,325,9,0.0698094786614491,1
654,326,9,0.07061238409545,1
655,308,9,0.0727024862743099,1
655,309,9,0.105866153628826,1
655,310,9,0.220178273924984,2
655,311,9,0.383261673257656,2
655,312,9,0.413719585358037,2
655,313,9,0.287833481943654,2
655,314,9,0.14380303107553,1
655,315,9,0.0846258769510376,1
655,316,9,0.0733522391409685,1
655,326,9,0.0687488811099543,1
655,327,9,0.0733804390035774,1
655,328,9,0.0702338003409476,1
656,307,9,0.0778566281129582,1
656,308,9,0.0854625946672023,1
656,309,9,0.1205157786018,1
656,310,9,0.260812862357453,2
656,311,9,0.46474322359937,2
656,312,9,0.503399652765532,2
656,313,9,0.345693370650752,2
656,314,9,0.166881012776143,2
656,315,9,0.0952746554010332,1
656,316,9,0.0854423312570056,1
656,317,9,0.0763989863191613,1
656,326,9,0.0735617734642024,1
656,327,9,0.103108089666075,1
656,328,9,0.105224397112334,1
656,329,9,0.0798714507945221,1
657,306,9,0.0775288855720973,1
657,307,9,0.0900951049351149,1
657,308,9,0.0933572683959899,1
657,309,9,0.116718141199228,1
657,310,9,0.221353443900434,2
657,311,9,0.372323001657586,2
657,312,9,0.391633151078045,2
657,313,9,0.268768122664467,2
657,314,9,0.137855064302395,1
657,315,9,0.090004018420524,1
657,316,9,0.087977599533775,1
657,317,9,0.0823167226958244,1
657,318,9,0.0697338577469551,1
657,326,9,0.0830269782838536,1
657,327,9,0.133313245223897,1
657,328,9,0.137449292957327,1
657,329,9,0.0972297121036015,1
658,306,9,0.084974871215037,1
658,307,9,0.0956784201713402,1
658,308,9,0.0918995786839898,1
658,309,9,0.0935687973144339,1
658,310,9,0.131863036741378,1
658,311,9,0.19602173732621,2
658,312,9,0.206074509164261,2
658,313,9,0.163711415304384,1
658,314,9,0.117927656546853,1
658,315,9,0.094034801840979,1
658,316,9,0.0858103310783666,1
658,317,9,0.0805456838732629,1
658,318,9,0.071830991922141,1
658,326,9,0.073379606424796,1
658,327,9,0.113123832712569,1
658,328,9,0.116805160656318,1
658,329,9,0.0896268183041403,1
658,330,9,0.0690961802675139,1
659,306,9,0.0751937177222983,1
659,307,9,0.0821995806582198,1
659,308,9,0.0772053179046941,1
659,309,9,0.0702804846504578,1
659,310,9,0.0750100173003881,1
659,311,9,0.0975820905907049,1
659,312,9,0.117975263281776,1
659,313,9,0.132933313769928,1
659,314,9,0.13294560478906,1
659,315,9,0.109057470026206,1
659,316,9,0.088021828035369,1
659,317,9,0.0865897925314305,1
659,318,9,0.083430970665626,1
659,319,9,0.0756272277172688,1
659,327,9,0.0752841633309208,1
659,328,9,0.0775868366491452,1
659,329,9,0.0717313639878219,1
660,312,9,0.0868043702455559,1
660,313,9,0.116301252831007,1
660,314,9,0.131367394806127,1
660,315,9,0.111615906754243,1
660,316,9,0.0902928394008001,1
660,317,9,0.0963852016896342,1
660,318,9,0.0968782560419104,1
660,319,9,0.0832940503896325,1
661,313,9,0.0776712984721377,1
661,314,9,0.0925011438075114,1
661,315,9,0.0876281740059465,1
661,316,9,0.082052567610668,1
661,317,9,0.0946415241611248,1
661,318,9,0.0956723345595282,1
661,319,9,0.0825627287615023,1
662,316,9,0.0691242842937164,1
662,317,9,0.0814539614361967,1
662,318,9,0.0816634718003291,1
662,319,9,0.0742817384781639,1
671,330,9,0.115475957616541,1
672,329,9,0.103051055024664,1
672,330,9,0.166003151292718,1
672,331,9,0.129060157279043,1
673,330,9,0.139958481751982,1
649,325,10,0.102881819910358,1
649,326,10,0.0909949429045025,1
649,327,10,0.0804205035570641,1
650,325,10,0.0870016734474119,1
650,326,10,0.105293890486588,1
650,327,10,0.130245437995378,1
650,328,10,0.0937179666811316,1
651,325,10,0.0682846555467045,1
651,326,10,0.101659342688756,1
651,327,10,0.138238889110377,1
651,328,10,0.100713329540767,1
652,313,10,0.0749981575450853,1
652,326,10,0.0701072004479777,1
652,327,10,0.0856250433659739,1
653,312,10,0.0919061075391818,1
653,313,10,0.0952735053641553,1
654,310,10,0.0955625719252231,1
654,311,10,0.146351620612801,1
654,312,10,0.166242418861065,2
654,313,10,0.137235110568379,1
654,314,10,0.0893209084946324,1
655,309,10,0.0889904765446145,1
655,310,10,0.168846749248259,1
655,311,10,0.303388497407817,2
655,312,10,0.34334094625801,2
655,313,10,0.249806841722725,2
655,314,10,0.130684536450802,1
655,315,10,0.0776587978108665,1
655,327,10,0.0709362812005005,1
655,328,10,0.0678566082269038,1
656,307,10,0.0711491458388599,1
656,308,10,0.0773160628621658,1
656,309,10,0.100996669876547,1
656,310,10,0.207577247977085,2
656,311,10,0.390050245111193,2
656,312,10,0.440044360755835,2
656,313,10,0.30980517608598,2
656,314,10,0.152200276909713,1
656,315,10,0.087121894229575,1
656,316,10,0.0780116734493286,1
656,317,10,0.0711914755816503,1
656,326,10,0.0680029144809577,1
656,327,10,0.102647655630657,1
656,328,10,0.10826069812222,1
656,329,10,0.0792602541121485,1
657,306,10,0.0703320865655759,1
657,307,10,0.0830775020393987,1
657,308,10,0.0881104287931666,1
657,309,10,0.101551035569874,1
657,310,10,0.180518988642236,2
657,311,10,0.317424937092983,2
657,312,10,0.345153955436838,2
657,313,10,0.241368877395335,2
657,314,10,0.12618682607839,1
657,315,10,0.0843931382378828,1
657,316,10,0.0824540023583423,1
657,317,10,0.0778036964677001,1
657,326,10,0.079283410583866,1
657,327,10,0.143900065437098,1
657,328,10,0.160459242788885,1
657,329,10,0.10996161464411,1
657,330,10,0.0718972088892484,1
657,335,10,0.0691619180525889,1
658,306,10,0.0772300796362203,1
658,307,10,0.0900041561853583,1
658,308,10,0.0918194893970433,1
658,309,10,0.0892626279799372,1
658,310,10,0.113524380973483,1
658,311,10,0.168344458662308,2
658,312,10,0.18025831361659,2
658,313,10,0.145109472968767,1
658,314,10,0.106770334185383,1
658,315,10,0.0890388320014628,1
658,316,10,0.08132053918904,1
658,317,10,0.0773315644009151,1
658,318,10,0.0704048024389982,1
658,326,10,0.0686289777858877,1
658,327,10,0.121302331948944,1
658,328,10,0.140050676375022,1
658,329,10,0.105022290110603,1
658,330,10,0.0749035550323314,1
658,334,10,0.0677660907409764,1
658,335,10,0.0715775285860833,1
659,306,10,0.0738300075864099,1
659,307,10,0.0816633879434734,1
659,308,10,0.0799440229133348,1
659,309,10,0.0714947798388568,1
659,310,10,0.0704587882847277,1
659,311,10,0.0876443463995412,1
659,312,10,0.104418101465454,1
659,313,10,0.113843228697867,1
659,314,10,0.113991823046126,1
659,315,10,0.101958675724868,1
659,316,10,0.0884074797248498,1
659,317,10,0.0935440894908863,1
659,318,10,0.0959884329770008,1
659,319,10,0.0811761676324421,1
659,327,10,0.0788448751673304,1
659,328,10,0.0882423356271458,1
659,329,10,0.0789921457752245,1
659,335,10,0.068596261632623,1
660,312,10,0.082737115082657,1
660,313,10,0.101412096739569,1
660,314,10,0.110988513719173,1
660,315,10,0.107413624084379,1
660,316,10,0.103801430128359,1
660,317,10,0.122489265843291,1
660,318,10,0.127533746873816,1
660,319,10,0.100216244069643,1
660,320,10,0.0691767008182896,1
661,313,10,0.072776262337979,1
661,314,10,0.0823759316257075,1
661,315,10,0.0915929620809841,1
661,316,10,0.103934738569783,1
661,317,10,0.124637103467285,1
661,318,10,0.123366168962651,1
661,319,10,0.0986568060428304,1
661,320,10,0.0746444253687402,1
662,316,10,0.0840801245547441,1
662,317,10,0.0975660978903723,1
662,318,10,0.0931567426949658,1
662,319,10,0.0822518294690816,1
662,320,10,0.0729554165203564,1
663,319,10,0.0682651228891073,1
663,320,10,0.0694123685316176,1
665,330,10,0.0685445818504247,1
665,331,10,0.0693641927680314,1
665,332,10,0.0679499828356996,1
666,331,10,0.068858224459981,1
671,329,10,0.07575000613353,1
671,330,10,0.118761852567572,1
672,329,10,0.106005907068587,1
672,330,10,0.178545800889515,1
672,331,10,0.14096226029398,1
673,330,10,0.140243091920148,1
648,337,11,0.0689383197367029,1
648,338,11,0.0697163855720973,1
649,326,11,0.0762702420865962,1
649,327,11,0.0791201652449655,1
650,325,11,0.0724786663367339,1
650,326,11,0.099020840632873,1
650,327,11,0.131292666368168,1
650,328,11,0.100517655557822,1
651,326,11,0.102408028675786,1
651,327,11,0.141319778008381,1
651,328,11,0.10801207452469,1
652,326,11,0.0714906468938271,1
652,327,11,0.0875880125618528,1
652,328,11,0.0704475334967408,1
654,311,11,0.106644213474445,1
654,312,11,0.124016958060455,1
655,309,11,0.0728240906945916,1
655,310,11,0.121401846077531,1
655,311,11,0.210401043735136,1
655,312,11,0.247467834426891,2
655,313,11,0.188335513771308,1
655,314,11,0.106518895393412,1
655,327,11,0.0683407318240505,1
656,308,11,0.0693405990427093,1
656,309,11,0.0845146048933303,1
656,310,11,0.156344374901288,1
656,311,11,0.287779166660278,2
656,312,11,0.333377529889458,2
656,313,11,0.240050408033084,2
656,314,11,0.124533983493904,1
656,327,11,0.0943814301436933,1
656,328,11,0.10328527920212,1
656,329,11,0.0772720919209143,1
656,335,11,0.069690336038859,1
657,307,11,0.0749908500190906,1
657,308,11,0.0812768737263342,1
657,309,11,0.0878615955534974,1
657,310,11,0.139192437395826,1
657,311,11,0.237524495785498,2
657,312,11,0.263572711273275,2
657,313,11,0.189334704145346,1
657,314,11,0.106762415702297,1
657,315,11,0.0748310488010482,1
657,316,11,0.0727722491884573,1
657,317,11,0.0694333267557613,1
657,326,11,0.0720100921965398,1
657,327,11,0.128189483526105,1
657,328,11,0.153252201266421,1
657,329,11,0.107627590841413,1
657,330,11,0.0739097494663829,1
657,334,11,0.0689311919039704,1
657,335,11,0.07673031673549,1
657,336,11,0.071711999043936,1
658,306,11,0.0707257945029771,1
658,307,11,0.0832864134259905,1
658,308,11,0.0889603899027529,1
658,309,11,0.0846692069863207,1
658,310,11,0.096909642465035,1
658,311,11,0.133715961783508,1
658,312,11,0.144291581116701,1
658,313,11,0.120094397902026,1
658,314,11,0.0927514026137271,1
658,315,11,0.0793818824915319,1
658,316,11,0.0742564736055036,1
658,317,11,0.0733078788643156,1
658,318,11,0.0697935578384214,1
658,327,11,0.111749095400159,1
658,328,11,0.140940780959376,1
658,329,11,0.107445777198756,1
658,330,11,0.0774273708585255,1
658,334,11,0.0700732623805303,1
658,335,11,0.080058691173697,1
658,336,11,0.0763125897987129,1
659,306,11,0.0706887058136664,1
659,307,11,0.079153779864541,1
659,308,11,0.0807851910326258,1
659,309,11,0.0731086110161266,1
659,310,11,0.0684084462350093,1
659,311,11,0.0783434770579143,1
659,312,11,0.090865114522589,1
659,313,11,0.0961341761921666,1
659,314,11,0.0932902128603257,1
659,315,11,0.0878690707932034,1
659,316,11,0.0859191293588314,1
659,317,11,0.0965077884330824,1
659,318,11,0.103200775450699,1
659,319,11,0.0833159190596379,1
659,327,11,0.0770161128791863,1
659,328,11,0.0914067339738528,1
659,329,11,0.0810956650509926,1
659,334,11,0.0678146139115361,1
659,335,11,0.0738113015178187,1
659,336,11,0.0716347489105317,1
660,312,11,0.0795807669940949,1
660,313,11,0.0896597620688703,1
660,314,11,0.0901182015090784,1
660,315,11,0.096683989656185,1
660,316,11,0.115827952758018,1
660,317,11,0.141294812624491,1
660,318,11,0.146586455747348,1
660,319,11,0.109298115242895,1
660,320,11,0.0714942467488457,1
661,313,11,0.0692941603139907,1
661,314,11,0.0724640752438462,1
661,315,11,0.0927745411161185,1
661,316,11,0.12679827433133,1
661,317,11,0.147743117316795,1
661,318,11,0.139080656207209,1
661,319,11,0.104616315113171,1
661,320,11,0.0772369678779366,1
662,315,11,0.0728078104850396,1
662,316,11,0.0999124187019764,1
662,317,11,0.109968083601547,1
662,318,11,0.0994356146103752,1
662,319,11,0.0849086542479296,1
662,320,11,0.0755719720391534,1
663,319,11,0.0704243890045741,1
663,320,11,0.0710411801371764,1
664,330,11,0.0688539717194431,1
665,330,11,0.0692479731558392,1
665,331,11,0.0691126461601035,1
670,329,11,0.0684134896259007,1
670,330,11,0.0700011874130764,1
671,329,11,0.0762287928407904,1
671,330,11,0.106456721524704,1
671,331,11,0.0911347262931398,1
672,329,11,0.097769540612019,1
672,330,11,0.154133752451495,1
672,331,11,0.130549934217891,1
673,330,11,0.118781930294731,1
647,336,12,0.0712025446865996,1
647,337,12,0.0711348961631703,1
648,335,12,0.0694996395592752,1
648,336,12,0.0764488152607594,1
648,337,12,0.0786448526074403,1
648,338,12,0.0764025921639554,1
649,327,12,0.0720069954826551,1
649,335,12,0.0691290641344899,1
649,336,12,0.0723172299100058,1
649,337,12,0.0696674191581577,1
649,338,12,0.0713705099685197,1
650,326,12,0.0857659827812645,1
650,327,12,0.112661062664743,1
650,328,12,0.09440058544544,1
650,335,12,0.0693271879355765,1
650,336,12,0.0707455248231627,1
651,326,12,0.0909841792780988,1
651,327,12,0.120148413696633,1
651,328,12,0.0997446750417463,1
652,326,12,0.0687704443014139,1
652,327,12,0.0809409192033925,1
652,328,12,0.0703657910317824,1
652,341,12,0.100541482884384,1
655,311,12,0.126737238519949,1
655,312,12,0.153080785873867,1
655,334,12,0.0683428402249932,1
656,310,12,0.10591038213042,1
656,311,12,0.180242440711765,1
656,312,12,0.213360256335553,2
656,313,12,0.160010105469882,1
656,327,12,0.0842540257040909,1
656,328,12,0.093087255310487,1
656,329,12,0.073693272993454,1
656,334,12,0.0696388060010458,1
656,335,12,0.0718109441438589,1
657,308,12,0.0701861217287201,1
657,309,12,0.0726740528104601,1
657,310,12,0.098051048076525,1
657,311,12,0.152311399223035,1
657,312,12,0.171809831243589,1
657,313,12,0.13024604895247,1
657,327,12,0.102730050981135,1
657,328,12,0.125607255410157,1
657,329,12,0.0950448157391747,1
657,330,12,0.0727925066088786,1
657,334,12,0.0730482161107133,1
657,335,12,0.0838110279048782,1
657,336,12,0.0796091585295168,1
657,337,12,0.0696884971778095,1
658,307,12,0.0725072615245196,1
658,308,12,0.0794469733808631,1
658,309,12,0.0753968250165222,1
658,310,12,0.0780540930387501,1
658,311,12,0.0957550952863055,1
658,312,12,0.103322595502896,1
658,313,12,0.0909372853264495,1
658,314,12,0.0764452213955161,1
658,317,12,0.0683924415551259,1
658,318,12,0.0679915818258905,1
658,327,12,0.0936686229113414,1
658,328,12,0.11951743877587,1
658,329,12,0.0966472304045216,1
658,330,12,0.075488648273488,1
658,334,12,0.0763398372870323,1
658,335,12,0.0917695765985896,1
658,336,12,0.0890022404635109,1
658,337,12,0.0741336173221621,1
659,307,12,0.0720181963626634,1
659,308,12,0.0761101833082114,1
659,309,12,0.0705923542864941,1
659,312,12,0.0744080209130373,1
659,313,12,0.0768989588620308,1
659,314,12,0.0738213942893769,1
659,315,12,0.0716864227029547,1
659,316,12,0.0805647613079293,1
659,317,12,0.0957619116507169,1
659,318,12,0.102694268062863,1
659,319,12,0.0823718585784318,1
659,327,12,0.0728546445389349,1
659,328,12,0.0851701139341535,1
659,329,12,0.0777900996775297,1
659,330,12,0.0711527876223064,1
659,334,12,0.0732224646670337,1
659,335,12,0.0828353354197558,1
659,336,12,0.0813098354603904,1
659,337,12,0.0702290744081527,1
660,312,12,0.070674222536736,1
660,313,12,0.0748441125012075,1
660,314,12,0.0711992503101266,1
660,315,12,0.0819748323054559,1
660,316,12,0.120533400521043,1
660,317,12,0.150387507321901,1
660,318,12,0.149489508213563,1
660,319,12,0.108854728108281,1
660,320,12,0.070781649158633,1
660,326,12,0.0686702173895543,1
660,327,12,0.0687347931582006,1
660,328,12,0.0698744138166197,1
660,329,12,0.0704852391329182,1
660,330,12,0.0703806516645634,1
660,331,12,0.0681925028520915,1
660,335,12,0.0698362529575115,1
660,336,12,0.0678700792317907,1
661,315,12,0.0868443340270611,1
661,316,12,0.140584137752184,1
661,317,12,0.16357426142715,1
661,318,12,0.144403709712291,1
661,319,12,0.103642581284607,1
661,320,12,0.0758108382925479,1
661,325,12,0.0702427071369755,1
661,326,12,0.0757627643551437,1
661,327,12,0.0701874574486355,1
662,315,12,0.0699401695710209,1
662,316,12,0.106076873927591,1
662,317,12,0.116231963109117,1
662,318,12,0.101504015832941,1
662,319,12,0.084776741424175,1
662,320,12,0.0761178861593828,1
662,325,12,0.0745743809351486,1
662,326,12,0.0779461932245961,1
662,327,12,0.0703913613829883,1
663,307,12,0.0811594920977133,1
663,308,12,0.0908931346919358,1
663,309,12,0.0833311091300661,1
663,318,12,0.0688804585062861,1
663,319,12,0.0721743318381576,1
663,320,12,0.0729302594636535,1
663,325,12,0.072259650199033,1
663,326,12,0.0738254853059788,1
664,306,12,0.0702862528041732,1
664,307,12,0.100197430185095,1
664,308,12,0.121092294484576,1
664,309,12,0.10861893460967,1
664,310,12,0.0731373978767252,1
664,330,12,0.0696976974728323,1
664,331,12,0.0680591105538118,1
664,336,12,0.0905794441641762,1
665,307,12,0.096426237640937,1
665,308,12,0.118519086970389,1
665,309,12,0.106682488139286,1
665,310,12,0.0706263163130431,1
665,330,12,0.0684286138087995,1
665,331,12,0.0682629845392876,1
666,307,12,0.0706856210793326,1
666,308,12,0.0823367644843311,1
666,309,12,0.0751964131212308,1
669,328,12,0.0693501467447056,1
669,329,12,0.0742704297821983,1
669,330,12,0.0678196752717537,1
670,328,12,0.0721854668306364,1
670,329,12,0.0802973058565245,1
670,330,12,0.0743389348435106,1
670,331,12,0.0683444454848019,1
671,329,12,0.0794205405019988,1
671,330,12,0.0897035233679827,1
671,331,12,0.0826794215659516,1
672,329,12,0.0845718072484524,1
672,330,12,0.114089612119395,1
675,329,12,0.071735443024873,1
676,330,12,0.100468844878042,1
647,335,13,0.0702835034972621,1
647,336,13,0.074683909968213,1
647,337,13,0.0719872891215712,1
648,335,13,0.0743799168868348,1
648,336,13,0.0809388766899792,1
648,337,13,0.0817413029419477,1
648,338,13,0.0784491366960667,1
649,334,13,0.0683842535321466,1
649,335,13,0.0732218956383701,1
649,336,13,0.0762900502738621,1
649,337,13,0.0748099228631931,1
649,338,13,0.0753372027921362,1
650,327,13,0.0816034841996433,1
650,328,13,0.0736019349082961,1
650,335,13,0.071189978137799,1
650,336,13,0.0728437850761248,1
651,326,13,0.0718770892336614,1
651,327,13,0.0862016970135842,1
651,328,13,0.0772082229457658,1
651,341,13,0.082248289511817,1
652,327,13,0.0690360608917693,1
652,331,13,0.0686030360686066,1
652,332,13,0.0693507397324708,1
652,340,13,0.0737093974688455,1
652,341,13,0.120355025009469,1
652,342,13,0.123495104868029,1
653,331,13,0.0701617193837182,1
653,332,13,0.0713535229654698,1
653,333,13,0.068757991558346,1
653,341,13,0.100958526986765,1
654,332,13,0.0694654798701378,1
654,333,13,0.0703343027824759,1
654,334,13,0.0687005735713092,1
655,332,13,0.06976753825406,1
655,333,13,0.0719035820102798,1
655,334,13,0.070846943700328,1
656,327,13,0.0739553975447479,1
656,328,13,0.0808128398358974,1
656,329,13,0.0698640215562912,1
656,331,13,0.0685525183028369,1
656,332,13,0.0685643361297119,1
656,333,13,0.0689922456846783,1
656,334,13,0.0701909375081461,1
656,335,13,0.0693129023212344,1
657,327,13,0.0812864753363091,1
657,328,13,0.0959102903670611,1
657,329,13,0.0816181591493867,1
657,330,13,0.0706799667313499,1
657,331,13,0.0681116828125455,1
657,334,13,0.0736109195714043,1
657,335,13,0.0841629871077033,1
657,336,13,0.0810857340033704,1
658,308,13,0.0684306922608652,1
658,327,13,0.076273901839369,1
658,328,13,0.0915787603234977,1
658,329,13,0.0819910466274785,1
658,330,13,0.0719266905637941,1
658,334,13,0.0807438196539002,1
658,335,13,0.0989567140973821,1
658,336,13,0.0953037237810759,1
658,337,13,0.0760157005909656,1
659,308,13,0.0700223672589101,1
659,316,13,0.0762100148948943,1
659,317,13,0.0913875008050258,1
659,318,13,0.0939205888035476,1
659,319,13,0.0781220350611743,1
659,327,13,0.0684359752427728,1
659,328,13,0.0759622957534505,1
659,329,13,0.0736249116867514,1
659,330,13,0.0704705881422764,1
659,334,13,0.0786264040991914,1
659,335,13,0.0909656529027697,1
659,336,13,0.0871835170389464,1
659,337,13,0.0722830163128898,1
660,315,13,0.0756334570836905,1
660,316,13,0.116650576532654,1
660,317,13,0.145132473706324,1
660,318,13,0.134627342050102,1
660,319,13,0.0991167668859915,1
660,326,13,0.0684256548597492,1
660,327,13,0.0695251799616041,1
660,328,13,0.0691923461116487,1
660,329,13,0.070297136226085,1
660,330,13,0.070341041279807,1
660,331,13,0.0689373553828626,1
660,332,13,0.0680603684066469,1
660,335,13,0.0724428235207076,1
660,336,13,0.0683619176596596,1
661,315,13,0.0832429695849747,1
661,316,13,0.138651153371985,1
661,317,13,0.163463714132267,1
661,318,13,0.136275440732466,1
661,319,13,0.0955473519059178,1
661,320,13,0.0698900650997542,1
661,325,13,0.0722996199703137,1
661,326,13,0.0815344160994429,1
661,327,13,0.074226476810273,1
661,330,13,0.0682462191579277,1
661,331,13,0.0679723426672882,1
662,306,13,0.0705932647323557,1
662,307,13,0.085342930934152,1
662,308,13,0.0964732693574207,1
662,309,13,0.0915703386992776,1
662,310,13,0.0720681331202187,1
662,315,13,0.068051210040052,1
662,316,13,0.101381884312424,1
662,317,13,0.112688998977234,1
662,318,13,0.096276768785469,1
662,319,13,0.0788252526631021,1
662,320,13,0.0705324924710919,1
662,325,13,0.0794293993798234,1
662,326,13,0.0862159287199476,1
662,327,13,0.0751143292390743,1
663,306,13,0.0893959783497891,1
663,307,13,0.137584769697448,1
663,308,13,0.169758764431046,1
663,309,13,0.153070986601304,1
663,310,13,0.102973163985292,1
663,318,13,0.0689581938114982,1
663,319,13,0.0693796943067808,1
663,320,13,0.0698131863324251,1
663,325,13,0.0755997346481577,1
663,326,13,0.0793774141190794,1
663,327,13,0.0704986981582543,1
663,330,13,0.0683096628590223,1
663,336,13,0.082262353504469,1
664,306,13,0.109163177582561,1
664,307,13,0.186860878984686,1
664,308,13,0.236218748706209,3
664,309,13,0.208373648514996,3
664,310,13,0.130618900491909,1
664,311,13,0.0678873597338355,1
664,325,13,0.0696016634037565,1
664,326,13,0.0716909389936104,1
664,330,13,0.070177951675067,1
664,331,13,0.0690677048752363,1
664,336,13,0.0816690003630283,1
664,337,13,0.1027864147677,1
665,306,13,0.101914399305071,1
665,307,13,0.174052103666624,1
665,308,13,0.218550708192709,3
665,309,13,0.192331424719353,1
665,310,13,0.120209617221726,1
665,335,13,0.0687641011292595,1
665,336,13,0.0677450067315492,1
665,337,13,0.0737293134720687,1
666,306,13,0.0721781113864385,1
666,307,13,0.112411684355512,1
666,308,13,0.136349737906596,1
666,309,13,0.122104350896185,1
666,310,13,0.0822901460623504,1
666,334,13,0.0680296887770201,1
668,329,13,0.0677431738602751,1
669,328,13,0.0727127048311516,1
669,329,13,0.0799805425739819,1
669,330,13,0.0730614115859315,1
670,328,13,0.081765297982222,1
670,329,13,0.0904436379864081,1
670,330,13,0.0784017875214865,1
670,331,13,0.0691657515088484,1
671,328,13,0.0775144262542685,1
671,329,13,0.0850542656880364,1
671,330,13,0.0786858586098661,1
671,331,13,0.0745770523749795,1
672,329,13,0.0759009844124002,1
672,330,13,0.0835647103708792,1
673,330,13,0.0783591103717226,1
674,330,13,0.0870005833082881,1
675,329,13,0.0742031226759671,1
675,330,13,0.113708051446516,1
676,330,13,0.098705179469005,1
676,331,13,0.0971965766660584,1
647,335,14,0.0727889247231861,1
647,336,14,0.0756005492576129,1
647,337,14,0.070656642545921,1
648,334,14,0.0689071010272896,1
648,335,14,0.0801213801630906,1
648,336,14,0.0828908845968661,1
648,337,14,0.080275700736637,1
648,338,14,0.0749565166264665,1
649,334,14,0.0701720577360681,1
649,335,14,0.0787481642536337,1
649,336,14,0.0798815076274279,1
649,337,14,0.0783287961183955,1
649,338,14,0.0757733422985097,1
650,335,14,0.0737221257415821,1
650,336,14,0.0742255963132884,1
650,337,14,0.0709224807579663,1
651,331,14,0.0777583059496774,1
651,332,14,0.0791303478631548,1
651,333,14,0.0687157396826358,1
651,335,14,0.0700410912968276,1
651,336,14,0.0681155282483558,1
651,341,14,0.0811144190377871,1
652,331,14,0.0836492021427487,1
652,332,14,0.0845180789630654,1
652,333,14,0.0741958271295233,1
652,334,14,0.0714953848061728,1
652,335,14,0.0700547120460996,1
652,340,14,0.0769749631221508,1
652,341,14,0.117518866354981,1
652,342,14,0.12234890144644,1
653,331,14,0.0770235102518121,1
653,332,14,0.0796050974617919,1
653,333,14,0.0759252849312201,1
653,334,14,0.0745965790428013,1
653,335,14,0.0688771102218344,1
653,340,14,0.070085002340325,1
653,341,14,0.0996456999929464,1
653,342,14,0.104393219938419,1
654,331,14,0.07249389833559,1
654,332,14,0.0783385654420818,1
654,333,14,0.0791256039610337,1
654,334,14,0.0765280240507212,1
654,335,14,0.0680641539447032,1
655,331,14,0.0716646139307034,1
655,332,14,0.0774515336125112,1
655,333,14,0.0782661790063068,1
655,334,14,0.0742524724355328,1
656,328,14,0.0697990564522436,1
656,331,14,0.0703874141209962,1
656,332,14,0.0726892309013376,1
656,333,14,0.0730606448946796,1
656,334,14,0.0716890222654806,1
657,328,14,0.0755359135912125,1
657,329,14,0.0710256666188762,1
657,330,14,0.0680612249445299,1
657,331,14,0.0687930676831204,1
657,334,14,0.0736195568275389,1
657,335,14,0.0807833342022501,1
657,336,14,0.0776368932022087,1
658,328,14,0.0732443752654668,1
658,329,14,0.0712372793941759,1
658,330,14,0.0689297483680977,1
658,331,14,0.068341270903837,1
658,334,14,0.081456033898487,1
658,335,14,0.098776074450704,1
658,336,14,0.0932065836161146,1
658,337,14,0.0733147431469302,1
659,317,14,0.0814774772944386,1
659,318,14,0.0799397162648182,1
659,319,14,0.0699186542977645,1
659,328,14,0.0689727130270811,1
659,329,14,0.0694114640755314,1
659,330,14,0.0688318275197691,1
659,331,14,0.0681568636884289,1
659,334,14,0.0785761798324166,1
659,335,14,0.0916615749582537,1
659,336,14,0.0850185486572936,1
660,316,14,0.10057584023611,1
660,317,14,0.126181351423669,1
660,318,14,0.110875199148053,1
660,319,14,0.0845124246150827,1
660,327,14,0.0683711778524365,1
660,329,14,0.0686127454945389,1
660,330,14,0.0689278555990695,1
660,331,14,0.0687577160286773,1
660,332,14,0.0681372891024039,1
660,335,14,0.0699817625714365,1
661,315,14,0.0743172578463183,1
661,316,14,0.118098664634679,1
661,317,14,0.144113541032549,1
661,318,14,0.118106810729231,1
661,319,14,0.0846331485383798,1
661,325,14,0.0698217277521533,1
661,326,14,0.0821053614910918,1
661,327,14,0.0749922815754125,1
662,307,14,0.114237236124038,1
662,308,14,0.138654615462169,1
662,309,14,0.131992607562949,1
662,310,14,0.0947280584464075,1
662,316,14,0.0860273526208574,1
662,317,14,0.0984655704834602,1
662,318,14,0.0851555048719396,1
662,319,14,0.0718133700028981,1
662,325,14,0.0780397654959802,1
662,326,14,0.0886374212128902,1
662,327,14,0.0767536049822664,1
663,305,14,0.069263600479872,1
663,306,14,0.117073215085264,1
663,307,14,0.208929859059147,1
663,308,14,0.271149250060952,3
663,309,14,0.245061549973702,3
663,310,14,0.156594843349643,1
663,311,14,0.0819943829323794,1
663,325,14,0.0740372478256636,1
663,326,14,0.0804858100783098,1
663,327,14,0.071107001779107,1
663,330,14,0.0684686015494064,1
663,336,14,0.0711205566408496,1
664,305,14,0.0699331196053687,1
664,306,14,0.154662661599349,1
664,307,14,0.296691617036186,3
664,308,14,0.378964009404235,3
664,309,14,0.331184936663636,3
664,310,14,0.203554323141962,3
664,311,14,0.0968636290103703,1
664,325,14,0.0707330960391963,1
664,326,14,0.0749284724980181,1
664,327,14,0.0687356137574312,1
664,330,14,0.0694272411439494,1
664,331,14,0.0688268739755088,1
664,335,14,0.0678281208550754,1
664,336,14,0.0720755604417215,1
664,337,14,0.0776917355858211,1
665,306,14,0.140862482615276,1
665,307,14,0.26739830894744,3
665,308,14,0.335365129041805,3
665,309,14,0.290329229682298,3
665,310,14,0.179020897895126,1
665,311,14,0.0876866701525562,1
665,326,14,0.068886735790911,1
665,334,14,0.0686425805658335,1
665,335,14,0.0726875477744486,1
665,336,14,0.0677895227423626,1
666,306,14,0.088758199044166,1
666,307,14,0.156950791742889,1
666,308,14,0.19454136433475,3
666,309,14,0.172894807180984,1
666,310,14,0.113627261355847,1
666,334,14,0.0712817055583582,1
666,335,14,0.0726980298814082,1
667,307,14,0.069182660644818,1
667,308,14,0.0826105271692379,1
667,309,14,0.0790234064130656,1
667,327,14,0.0681518382668638,1
669,328,14,0.0742247277958547,1
669,329,14,0.081311955840884,1
669,330,14,0.0758207932992718,1
670,328,14,0.0862775036111158,1
670,329,14,0.0936464068343625,1
670,330,14,0.0808544807545162,1
670,331,14,0.0679445860480593,1
671,328,14,0.0859738818958128,1
671,329,14,0.0883886838096275,1
671,330,14,0.0751695549683127,1
671,331,14,0.0685567051558453,1
672,328,14,0.0679481799133026,1
672,329,14,0.0710636238256207,1
672,330,14,0.0688929651573327,1
674,329,14,0.0691080280432659,1
675,329,14,0.0707804092751241,1
675,330,14,0.09724985571829,1
676,330,14,0.0854827322921155,1
647,335,15,0.0703391245516773,1
647,336,15,0.0722540317897027,1
648,334,15,0.0689569838768663,1
648,335,15,0.0852094967074444,1
648,336,15,0.0865196043432293,1
648,337,15,0.0760658170417831,1
649,334,15,0.0719500087594476,1
649,335,15,0.0875414360682999,1
649,336,15,0.0891696367167674,1
649,337,15,0.0798295882542134,1
649,338,15,0.0680262087175095,1
650,331,15,0.0753274514377761,1
650,332,15,0.0805748241306105,1
650,333,15,0.0696573383661503,1
650,334,15,0.0697298266281072,1
650,335,15,0.0780294451129566,1
650,336,15,0.0784180677310386,1
650,337,15,0.0720699659914928,1
651,331,15,0.0962165895119703,1
651,332,15,0.101242454320535,1
651,333,15,0.0792829134325074,1
651,334,15,0.0712914449331675,1
651,335,15,0.0737550994551892,1
651,336,15,0.0690107001827025,1
651,341,15,0.0683437686401811,1
652,330,15,0.0682425114869517,1
652,331,15,0.0937821531143765,1
652,332,15,0.0972433927506275,1
652,333,15,0.0822017010387133,1
652,334,15,0.0806071449586983,1
652,335,15,0.0801265912676933,1
652,336,15,0.0681108682030904,1
652,340,15,0.0715529645171455,1
652,341,15,0.0928946540823242,1
652,342,15,0.0942459114751446,1
653,331,15,0.0786506566998082,1
653,332,15,0.0833485753151484,1
653,333,15,0.0814534642848381,1
653,334,15,0.0851696826703243,1
653,335,15,0.0807501149078514,1
653,340,15,0.0685908888040843,1
653,341,15,0.0840959435515899,1
653,342,15,0.084641881630921,1
654,331,15,0.0778642051788461,1
654,332,15,0.085812774906732,1
654,333,15,0.0857396577183575,1
654,334,15,0.0840547937945543,1
654,335,15,0.0750355217640646,1
655,331,15,0.0751529453211133,1
655,332,15,0.0825983978740418,1
655,333,15,0.0809608352066156,1
655,334,15,0.075689084127881,1
656,331,15,0.0698529165126895,1
656,332,15,0.0753253310572826,1
656,333,15,0.0762142137274535,1
656,334,15,0.0730937803322226,1
657,332,15,0.0689022193603342,1
657,333,15,0.071204988514965,1
657,334,15,0.0742549761616522,1
657,335,15,0.0741479688240336,1
657,336,15,0.0703398433247259,1
658,333,15,0.0689043157817261,1
658,334,15,0.0797562554339242,1
658,335,15,0.0893477786271013,1
658,336,15,0.0826216681514921,1
659,334,15,0.0763403823565942,1
659,335,15,0.085682155874465,1
660,317,15,0.0989573130749226,1
660,318,15,0.0877780561559174,1
660,319,15,0.0707793850235297,1
660,332,15,0.0680007701413625,1
661,316,15,0.0903318567977913,1
661,317,15,0.111673971637024,1
661,318,15,0.0956441227173685,1
661,319,15,0.0728660191224299,1
661,326,15,0.0763950749958215,1
661,327,15,0.0720898760049406,1
662,308,15,0.165792035668777,3
662,309,15,0.161425070113915,3
662,310,15,0.114098189477776,1
662,317,15,0.0813420424827456,1
662,318,15,0.0742039732240747,1
662,325,15,0.0716859974289009,1
662,326,15,0.084242962588917,1
662,327,15,0.0757071552802793,1
663,307,15,0.256553988289558,3
663,308,15,0.341450980444773,3
663,309,15,0.314775156290012,3
663,310,15,0.201782667372534,3
663,311,15,0.100121976984312,1
663,325,15,0.0698008713541914,1
663,326,15,0.0790068207249679,1
663,327,15,0.0718363527711289,1
664,305,15,0.0814131830452363,1
664,306,15,0.183906434245491,3
664,307,15,0.368989476012531,3
664,308,15,0.47229335945706,3
664,309,15,0.415480243899821,3
664,310,15,0.258126352251696,3
664,311,15,0.120538216300469,1
664,325,15,0.0703783815396847,1
664,326,15,0.0782272574457221,1
664,327,15,0.0721849576997269,1
664,336,15,0.0689761271990622,1
665,305,15,0.0705841902226165,1
665,306,15,0.164549540617769,3
665,307,15,0.325986314752826,3
665,308,15,0.408083494210714,3
665,309,15,0.353954804317392,3
665,310,15,0.22231271841117,3
665,311,15,0.108485745963754,1
665,326,15,0.0728215929582475,1
665,327,15,0.0697759359191785,1
665,335,15,0.0742172465663732,1
665,336,15,0.0710503504833222,1
666,306,15,0.0976962197712807,1
666,307,15,0.180443253922009,3
666,308,15,0.22607190145564,3
666,309,15,0.202938598189382,3
666,310,15,0.136652688767053,1
666,311,15,0.0787681102057339,1
666,334,15,0.0713561764359744,1
666,335,15,0.0749929045120547,1
667,307,15,0.0748876881172823,1
667,308,15,0.0924569392650191,1
667,309,15,0.0906051642597673,1
667,310,15,0.0724965817549716,1
667,327,15,0.0682512086408404,1
669,328,15,0.0757097189041529,1
669,329,15,0.0822856118023685,1
669,330,15,0.0765753432764244,1
670,328,15,0.0874873064679607,1
670,329,15,0.0948519270017925,1
670,330,15,0.0828811991300354,1
671,328,15,0.0870966712853426,1
671,329,15,0.088926266152268,1
671,330,15,0.0754919606192872,1
672,328,15,0.0684598864261914,1
672,329,15,0.0697624888733932,1
674,330,15,0.0784041534827717,1
648,335,16,0.0876105760458052,1
648,336,16,0.0905150600683429,1
648,337,16,0.0729208974446947,1
649,334,16,0.0712556021171412,1
649,335,16,0.0949676075341983,1
649,336,16,0.0991578088270697,1
649,337,16,0.0805916973279276,1
650,331,16,0.0781084502505547,1
650,332,16,0.0844514546912304,1
650,333,16,0.0682422599163846,1
650,334,16,0.0680124801522802,1
650,335,16,0.080444492607563,1
650,336,16,0.082193201547413,1
650,337,16,0.0717277162146,1
651,331,16,0.102382440355254,1
651,332,16,0.109617478087964,1
651,333,16,0.0814973094408061,1
651,334,16,0.0707037161908325,1
651,335,16,0.0746783215077597,1
651,336,16,0.0688403210212941,1
652,331,16,0.0902995539390297,1
652,332,16,0.0960751170066687,1
652,333,16,0.0814791604213275,1
652,334,16,0.0841381774579738,1
652,335,16,0.0878508858350724,1
652,336,16,0.071607806900758,1
652,341,16,0.0698294066442231,1
653,331,16,0.0744457864469687,1
653,332,16,0.0814737336848102,1
653,333,16,0.0824217114791314,1
653,334,16,0.0921509575782063,1
653,335,16,0.0928116477747553,1
653,336,16,0.0715295984032888,1
653,341,16,0.0689114855428864,1
654,331,16,0.0793965155128474,1
654,332,16,0.0893970864582391,1
654,333,16,0.0894966724641303,1
654,334,16,0.0897972933019552,1
654,335,16,0.0834404285209912,1
655,331,16,0.0759761800528404,1
655,332,16,0.0847483558785285,1
655,333,16,0.083031075290231,1
655,334,16,0.0767554318637651,1
655,335,16,0.067976948804575,1
656,331,16,0.0683030681163009,1
656,332,16,0.0760368624674731,1
656,333,16,0.0796861870412311,1
656,334,16,0.0748528276244225,1
657,332,16,0.0704136972554753,1
657,333,16,0.076873005165199,1
657,334,16,0.0761730100624393,1
657,335,16,0.0687459101813531,1
658,333,16,0.0719995022736229,1
658,334,16,0.0778356818683652,1
658,335,16,0.0780338356183288,1
658,336,16,0.0696537205418054,1
659,334,16,0.0735389823687846,1
659,335,16,0.0768488184521117,1
661,317,16,0.0808259933826878,1
661,318,16,0.0761886254069214,1
662,308,16,0.168063406420733,3
662,309,16,0.165200030226803,3
662,326,16,0.0731506831985746,1
662,327,16,0.0710997601406418,1
663,307,16,0.260698433688107,3
663,308,16,0.353176133514681,3
663,309,16,0.330633254389691,3
663,310,16,0.213088703877771,3
663,326,16,0.0717314777935546,1
663,327,16,0.0701833304933812,1
664,306,16,0.181261804649369,3
664,307,16,0.373006674622366,3
664,308,16,0.483475359693201,3
664,309,16,0.429569154017539,3
664,310,16,0.267922869518349,3
664,311,16,0.125736946027236,1
664,326,16,0.0758084423823857,1
664,327,16,0.0735432590684241,1
665,306,16,0.160348683514451,3
665,307,16,0.326164810059909,3
665,308,16,0.413768941107378,3
665,309,16,0.36247887765601,3
665,310,16,0.230872251220189,3
665,326,16,0.0758956475225139,1
665,327,16,0.0741078133697154,1
665,335,16,0.0704162429100226,1
666,307,16,0.174430058494709,3
666,308,16,0.221701665483407,3
666,309,16,0.202783079660754,3
666,326,16,0.0702641205840501,1
666,327,16,0.0705887604212508,1
666,335,16,0.0714729351279531,1
669,328,16,0.0745172983755346,1
669,329,16,0.0803841695794545,1
669,330,16,0.073181800081806,1
670,328,16,0.0834279039006184,1
670,329,16,0.0917503254604364,1
670,330,16,0.0800797033058193,1
671,328,16,0.0796349744615144,1
671,329,16,0.0833560864935069,1
671,330,16,0.0717022117509235,1
672,329,16,0.0681459742767418,1
673,330,16,0.0680159662015662,1
674,329,16,0.0685965072134146,1
674,330,16,0.0746329729181649,1
675,330,16,0.0711216048515456,1
648,335,17,0.0839652766011197,1
648,336,17,0.0892148295722016,1
648,337,17,0.0716063513853344,1
649,335,17,0.0920158402246099,1
649,336,17,0.0983160357404627,1
649,337,17,0.0788557466096913,1
650,331,17,0.0743139395107437,1
650,332,17,0.0802149943629026,1
650,335,17,0.0767901665713414,1
650,336,17,0.0799615070677433,1
650,337,17,0.0698538748767544,1
651,331,17,0.0962940313181876,1
651,332,17,0.104512560223598,1
651,333,17,0.0805461870143969,1
651,334,17,0.0697764031216601,1
651,335,17,0.0729321522326816,1
651,336,17,0.0678176806765437,1
652,331,17,0.0802008884418227,1
652,332,17,0.0881597366243044,1
652,333,17,0.0788325781584229,1
652,334,17,0.083849655966468,1
652,335,17,0.0892747992035611,1
652,336,17,0.073205142236561,1
653,331,17,0.0704334695040888,1
653,332,17,0.0804882479168999,1
653,333,17,0.0833917136776186,1
653,334,17,0.0942705234622857,1
653,335,17,0.0983623846225502,1
653,336,17,0.0760776109095565,1
654,331,17,0.0779046181935067,1
654,332,17,0.0906952265227638,1
654,333,17,0.0911299404625908,1
654,334,17,0.091318899907307,1
654,335,17,0.0878247524449784,1
654,336,17,0.0694328655430551,1
655,331,17,0.0742699985183692,1
655,332,17,0.085074187681035,1
655,333,17,0.0849487557942691,1
655,334,17,0.077989726912243,1
655,335,17,0.0702151541701104,1
656,332,17,0.0757652680812631,1
656,333,17,0.0810926402144129,1
656,334,17,0.0759058061816016,1
657,332,17,0.0727013781658599,1
657,333,17,0.0808019564139857,1
657,334,17,0.0780826283287817,1
658,332,17,0.0687747689192567,1
658,333,17,0.0748476284993705,1
658,334,17,0.0765584161711286,1
658,335,17,0.0696462932203026,1
659,333,17,0.0697846869810459,1
659,334,17,0.0727730877570141,1
659,335,17,0.0698468548599792,1
660,333,17,0.0682239431831947,1
660,334,17,0.0685387298398535,1
662,308,17,0.151769743833119,3
662,309,17,0.146854426319437,1
663,307,17,0.232655886540428,3
663,308,17,0.315239220129325,3
663,309,17,0.29497746311065,3
663,310,17,0.193612973106004,1
663,327,17,0.0679638910941911,1
664,306,17,0.164013084352905,3
664,307,17,0.326141378058523,3
664,308,17,0.431079631620187,3
664,309,17,0.386038916481255,3
664,310,17,0.244011853813446,3
664,311,17,0.118237303976214,1
664,326,17,0.0715760371320074,1
664,327,17,0.0726740767695617,1
665,307,17,0.284729364696628,3
665,308,17,0.369343759248213,3
665,309,17,0.327915861001943,3
665,310,17,0.213091483133559,3
665,326,17,0.0761373708987768,1
665,327,17,0.0755449461725239,1
666,308,17,0.199088095029081,3
666,309,17,0.184925199205555,3
666,326,17,0.0707930357216788,1
666,327,17,0.0699651409446863,1
669,328,17,0.0719612755269852,1
669,329,17,0.0764555238092135,1
669,330,17,0.0685331713282773,1
670,328,17,0.0759798577749393,1
670,329,17,0.0838450797780582,1
670,330,17,0.0740951809333853,1
671,328,17,0.0689096406920615,1
671,329,17,0.0747719057586947,1
673,330,17,0.0681447643421099,1
674,330,17,0.0723302756408389,1
675,330,17,0.0694646892197843,1
647,342,18,0.0825326001912128,1
647,343,18,0.076743524190259,1
648,335,18,0.0747823459372264,1
648,336,18,0.0805125304663936,1
648,341,18,0.0736622818955061,1
648,342,18,0.0950069363995105,1
648,343,18,0.087233693387518,1
649,335,18,0.0792972289957265,1
649,336,18,0.0851624530114099,1
649,337,18,0.0713272877491938,1
649,342,18,0.0805704575843399,1
649,343,18,0.0732905923724954,1
650,335,18,0.0679324867017402,1
650,336,18,0.0711774415378753,1
651,331,18,0.0782896948645487,1
651,332,18,0.0863027205655728,1
651,333,18,0.071725308324887,1
652,332,18,0.0757381104395748,1
652,333,18,0.0711917271522173,1
652,334,18,0.0770698591338996,1
652,335,18,0.0816811955457538,1
652,336,18,0.069991298293882,1
653,332,18,0.0763701036221562,1
653,333,18,0.0782624413864538,1
653,334,18,0.0866055336611961,1
653,335,18,0.090895722274911,1
653,336,18,0.0739700006171865,1
654,331,18,0.072643930229946,1
654,332,18,0.0880222173707704,1
654,333,18,0.0869786128121008,1
654,334,18,0.0841111875299968,1
654,335,18,0.0812776883357893,1
654,336,18,0.0681886574162811,1
655,331,18,0.0690931434513833,1
655,332,18,0.081873611090879,1
655,333,18,0.0823005982204329,1
655,334,18,0.0750215116793912,1
655,335,18,0.0679200040097953,1
656,332,18,0.0739329119278758,1
656,333,18,0.0792166545369722,1
656,334,18,0.0755129308229817,1
657,332,18,0.0733366717146896,1
657,333,18,0.0809146420586887,1
657,334,18,0.0789737152363019,1
658,332,18,0.0695720619337027,1
658,333,18,0.0757474425096565,1
658,334,18,0.0760454937338324,1
659,333,18,0.0708845055818957,1
659,334,18,0.0726505908601969,1
660,333,18,0.0687926064704142,1
660,334,18,0.0709438343072868,1
663,308,18,0.245013272383934,3
663,309,18,0.228038823903287,1
664,307,18,0.250225646819075,3
664,308,18,0.340560157087371,3
664,309,18,0.308908554625985,3
664,310,18,0.19935650884455,1
664,327,18,0.0691468238185671,1
665,307,18,0.219989332449594,1
665,308,18,0.294607199154186,3
665,309,18,0.266934029476212,3
665,310,18,0.177748322192032,1
665,326,18,0.0757051247464169,1
665,327,18,0.0745270676992209,1
666,308,18,0.166511168103957,1
666,309,18,0.157315868553852,1
666,326,18,0.071298159471397,1
666,327,18,0.0683197975590084,1
669,328,18,0.0709043137691615,1
669,329,18,0.072303938598381,1
670,328,18,0.071794622005879,1
670,329,18,0.0758043513657838,1
670,330,18,0.0685277086531075,1
671,329,18,0.0707214878544605,1
672,329,18,0.0683310403674444,1
673,329,18,0.0692700394884329,1
673,330,18,0.0724413500359578,1
673,331,18,0.0677995975445946,1
674,330,18,0.0747520496532255,1
674,331,18,0.0718374848386805,1
675,330,18,0.0722801771593476,1
675,331,18,0.0702110092455298,1
676,330,18,0.0714159723638471,1
647,341,19,0.07375555467812,1
647,342,19,0.101018927881954,1
647,343,19,0.0955959948719856,1
648,341,19,0.08484890623826,1
648,342,19,0.117777385061481,1
648,343,19,0.108276031947258,1
649,336,19,0.0694114940244084,1
649,341,19,0.0740825125584027,1
649,342,19,0.0950321833028446,1
649,343,19,0.0854153113801516,1
652,335,19,0.0695869944437885,1
653,332,19,0.0684339746577874,1
653,333,19,0.069668856704255,1
653,334,19,0.0741454351490371,1
653,335,19,0.0766306229136414,1
654,332,19,0.080661621966011,1
654,333,19,0.079466338324749,1
654,334,19,0.0744002401947856,1
654,335,19,0.0711147405689309,1
655,332,19,0.0756148348719549,1
655,333,19,0.0768982460787576,1
655,334,19,0.0712018678419788,1
656,332,19,0.07146387858754,1
656,333,19,0.07599242432374,1
656,334,19,0.0740786132146137,1
657,332,19,0.0739209503463911,1
657,333,19,0.0795947411401159,1
657,334,19,0.077457217909371,1
657,335,19,0.068105219844883,1
658,332,19,0.0724697295918289,1
658,333,19,0.0777110166728513,1
658,334,19,0.0757576970051506,1
659,332,19,0.0686031139356869,1
659,333,19,0.0728572740503379,1
659,334,19,0.0741966896571817,1
660,333,19,0.0703026408296826,1
660,334,19,0.0757767085522876,1
660,335,19,0.0725258537873781,1
661,334,19,0.0702289066944413,1
661,335,19,0.0691798694094791,1
664,308,19,0.243378447043869,3
664,309,19,0.22641521142278,1
665,308,19,0.216073624594229,1
665,309,19,0.201431714451977,1
665,326,19,0.0720272529030764,1
665,327,19,0.0707270104273844,1
666,326,19,0.0697835788725958,1
669,328,19,0.0696819084248635,1
669,329,19,0.0692490573051876,1
670,328,19,0.069289835696148,1
670,329,19,0.0704357216596412,1
671,329,19,0.0686667073811667,1
672,329,19,0.0687232808098713,1
672,330,19,0.0690655785049674,1
673,329,19,0.0694536440739366,1
673,330,19,0.0733171270775416,1
673,331,19,0.0701409408528367,1
674,329,19,0.0686722778722938,1
674,330,19,0.0751214630615822,1
674,331,19,0.0745005270043993,1
675,330,19,0.0727903922181605,1
675,331,19,0.0721573208760061,1
676,329,19,0.0692668888665696,1
676,330,19,0.0741283702789069,1
676,331,19,0.069702627057991,1
677,330,19,0.0712682645023484,1
646,342,20,0.0679378176018511,1
647,341,20,0.0756837232788931,1
647,342,20,0.107096142028788,1
647,343,20,0.101676437507763,1
648,341,20,0.0878610145452831,1
648,342,20,0.124978101381118,1
648,343,20,0.11387519013943,1
649,341,20,0.07590954979123,1
649,342,20,0.0979208483285364,1
649,343,20,0.086628091155373,1
654,332,20,0.0692927527167704,1
654,333,20,0.0697008421049202,1
655,333,20,0.0700848106675121,1
656,332,20,0.0679659755360322,1
656,333,20,0.0724982109738819,1
656,334,20,0.0722934205527691,1
656,335,20,0.0680645612494307,1
657,332,20,0.0737974950855091,1
657,333,20,0.0782700484012187,1
657,334,20,0.0749420632984131,1
658,332,20,0.0740525157631721,1
658,333,20,0.0783497842914163,1
658,334,20,0.0739330317233839,1
659,332,20,0.0685284633648086,1
659,333,20,0.0728062231945571,1
659,334,20,0.0744198267603614,1
659,335,20,0.0698233270221865,1
660,333,20,0.0694962074179679,1
660,334,20,0.0783613984659275,1
660,335,20,0.0786744181388417,1
660,336,20,0.0696590274828146,1
661,334,20,0.070782445798762,1
661,335,20,0.0722034780852806,1
669,328,20,0.0693763160734521,1
670,328,20,0.0685742132693555,1
671,329,20,0.0693144956014923,1
671,330,20,0.0700706268793519,1
672,329,20,0.0708398398266971,1
672,330,20,0.0726184197764942,1
673,329,20,0.0710646540669904,1
673,330,20,0.0753036181214378,1
673,331,20,0.0713903121660101,1
674,329,20,0.071391935395145,1
674,330,20,0.0766001589159292,1
674,331,20,0.0760155987647837,1
675,329,20,0.0719863307575063,1
675,330,20,0.074383582629383,1
675,331,20,0.0744133877518006,1
676,329,20,0.0745990588098192,1
676,330,20,0.0760125319997761,1
676,331,20,0.0730714085210832,1
677,329,20,0.0726691711435047,1
677,330,20,0.0733292683522885,1
677,331,20,0.0679509591690907,1
647,341,21,0.0723465139219631,1
647,342,21,0.100337057839571,1
647,343,21,0.0951209218254765,1
648,341,21,0.082175519730416,1
648,342,21,0.113480547797066,1
648,343,21,0.103180673764439,1
649,341,21,0.0716765815019635,1
649,342,21,0.0881823959446633,1
649,343,21,0.0779313206122643,1
656,334,21,0.0682408044009611,1
657,332,21,0.0711540694342432,1
657,333,21,0.074588391019822,1
657,334,21,0.071287994822534,1
658,332,21,0.0740026508829216,1
658,333,21,0.0773738701846039,1
658,334,21,0.0726639660286773,1
659,332,21,0.067947832506329,1
659,333,21,0.0722933846141166,1
659,334,21,0.0740867892580422,1
659,335,21,0.0713611719086625,1
660,333,21,0.0683350595067415,1
660,334,21,0.0766571995471155,1
660,335,21,0.0801954077973267,1
660,336,21,0.0736059121191653,1
661,334,21,0.0688499585699215,1
661,335,21,0.073429345519763,1
661,336,21,0.0686091156906432,1
671,329,21,0.0680729649043246,1
671,330,21,0.0699945866805796,1
672,329,21,0.0703644313527654,1
672,330,21,0.0718745914973173,1
673,329,21,0.0710263494532725,1
673,330,21,0.0738856406203759,1
673,331,21,0.0692500935363327,1
674,329,21,0.0729202445591755,1
674,330,21,0.0757412670512134,1
674,331,21,0.0734784377189862,1
675,328,21,0.0701038581533014,1
675,329,21,0.0749496343745256,1
675,330,21,0.075191896830575,1
675,331,21,0.0738481206672361,1
675,332,21,0.0681403139389836,1
676,328,21,0.0703239105221474,1
676,329,21,0.076471618335728,1
676,330,21,0.0755395493848836,1
676,331,21,0.0730464850656211,1
676,332,21,0.0690512090337697,1
677,329,21,0.0739260536350366,1
677,330,21,0.0730876527919829,1
677,331,21,0.0684953399068163,1
647,342,22,0.0845340536940718,1
647,343,22,0.0797123683495284,1
648,341,22,0.0705292400230467,1
648,342,22,0.0912367441478457,1
648,343,22,0.0827198525499384,1
649,342,22,0.0723164093107752,1
657,333,22,0.0683483987365695,1
658,332,22,0.069199072629429,1
658,333,22,0.0727923269156164,1
658,334,22,0.0696124809381388,1
659,333,22,0.06960467027101,1
659,334,22,0.071484159967063,1
659,335,22,0.0691417025605954,1
660,334,22,0.0720018322962556,1
660,335,22,0.0770959026773625,1
660,336,22,0.0750903761272278,1
661,335,22,0.0716443924489345,1
661,336,22,0.071121197546818,1
672,329,22,0.0688245619222023,1
672,330,22,0.0693877864933536,1
673,329,22,0.0696415852568339,1
673,330,22,0.0709321542452461,1
674,328,22,0.0683586771911653,1
674,329,22,0.0734685126611393,1
674,330,22,0.0743748195879648,1
674,331,22,0.0708022839349048,1
675,328,22,0.0721078692902586,1
675,329,22,0.0770331657697657,1
675,330,22,0.0762596341943532,1
675,331,22,0.0728809995507189,1
675,332,22,0.0680165711688821,1
676,328,22,0.072439786704577,1
676,329,22,0.0767815952027362,1
676,330,22,0.0750462494518158,1
676,331,22,0.072234565019635,1
676,332,22,0.0700645772061924,1
677,329,22,0.0721410646255557,1
677,330,22,0.071180184855011,1
677,331,22,0.0679561163657148,1
647,342,23,0.0681060584134398,1
648,342,23,0.070283575374567,1
660,335,23,0.071442560976872,1
660,336,23,0.0728813589372432,1
674,329,23,0.0730149608776621,1
674,330,23,0.0721500972068671,1
675,328,23,0.0723996552093604,1
675,329,23,0.0777914593565467,1
675,330,23,0.0756288449566283,1
675,331,23,0.0702420362821301,1
676,328,23,0.0712622986860445,1
676,329,23,0.0749916346796687,1
676,330,23,0.0725712263360745,1
676,331,23,0.0694819637320537,1
676,332,23,0.0699212299011888,1
677,329,23,0.0684327826924817,1
674,329,24,0.0707602656604355,1
675,328,24,0.0713272637900922,1
675,329,24,0.0761927942906036,1
675,330,24,0.073021753282972,1
676,329,24,0.0722542713807189,1
676,332,24,0.0685009942547991,1
675,329,25,0.0717195401711715,1
647,345,28,0.0739886168391466,1
648,345,28,0.0682381808793335,1
646,344,29,0.0709350832454194,1
646,345,29,0.0832019156643456,1
646,346,29,0.0710507577880497,1
647,344,29,0.0907810600043241,1
647,345,29,0.114773081431811,1
647,346,29,0.096323848420156,1
648,344,29,0.0828713818881459,1
648,345,29,0.100310103850247,1
648,346,29,0.081847315976849,1
646,344,30,0.0873703141747412,1
646,345,30,0.0992846602906066,1
646,346,30,0.081089968774582,1
647,343,30,0.0691349341143873,1
647,344,30,0.119842839314547,1
647,345,30,0.147608646858943,1
647,346,30,0.119643104263877,1
648,344,30,0.102468824896152,1
648,345,30,0.12408233046923,1
648,346,30,0.0998065494216848,1
649,344,30,0.0684583171050352,1
649,345,30,0.0741919757039376,1
646,344,31,0.0964148271187896,1
646,345,31,0.104222691032626,1
646,346,31,0.0824832803805242,1
647,343,31,0.0779676066716706,1
647,344,31,0.132725684195273,1
647,345,31,0.153213123971675,1
647,346,31,0.121979967220116,1
648,344,31,0.109125945138641,1
648,345,31,0.125881359512262,1
648,346,31,0.101878436693537,1
649,344,31,0.0713349606514882,1
649,345,31,0.0769588446365347,1
645,345,32,0.0690332097586763,1
646,344,32,0.0929822485578538,1
646,345,32,0.0983607014956613,1
646,346,32,0.0765659632881394,1
647,343,32,0.0748855617470134,1
647,344,32,0.120928605902296,1
647,345,32,0.131150792547914,1
647,346,32,0.103263404542339,1
648,344,32,0.0995168239853225,1
648,345,32,0.107701588526772,1
648,346,32,0.0883221134457712,1
649,344,32,0.0679154877191395,1
649,345,32,0.070820013670105,1
646,344,33,0.073683228140099,1
646,345,33,0.078774728907557,1
647,344,33,0.0868242503101266,1
647,345,33,0.0912933055969995,1
647,346,33,0.0734800369890194,1
648,344,33,0.0758909934670238,1
648,345,33,0.079207064906548,1
653,346,45,0.0725162701467294,1
653,346,46,0.0714738515635901,1
