x,y,z,signal,cytoplasm.p
731,937,1,0.0758994570196718,1
731,938,1,0.076622536716844,1
732,936,1,0.0791714736610887,1
732,937,1,0.104006304406328,1
732,938,1,0.103645791804224,1
732,939,1,0.0828973715236302,1
732,940,1,0.0681118026080536,1
733,936,1,0.088459644678856,1
733,937,1,0.116119702738468,1
733,938,1,0.114799711973264,1
733,939,1,0.0899842162230336,1
733,940,1,0.072675646090718,1
733,941,1,0.0685631022359784,1
734,936,1,0.0851205725017749,1
734,937,1,0.101474090915015,1
734,938,1,0.0980554266023464,1
734,939,1,0.0814530629698859,1
734,940,1,0.0718647502963262,1
734,941,1,0.0705730851790147,1
734,942,1,0.0703845390288015,1
735,936,1,0.0774805720436769,1
735,937,1,0.0826611886896173,1
735,938,1,0.0788506073823934,1
735,939,1,0.073173719874784,1
735,940,1,0.0727286975314842,1
735,941,1,0.0745623714354607,1
735,942,1,0.0742719931135792,1
735,943,1,0.0713043409196155,1
736,936,1,0.068620622049197,1
736,937,1,0.0701440675155983,1
736,938,1,0.0693348847969725,1
736,939,1,0.0707602716502109,1
736,940,1,0.0747583149582997,1
736,941,1,0.0777325559052094,1
736,942,1,0.0765014953354504,1
736,943,1,0.0718583532161931,1
737,939,1,0.0727135913179116,1
737,940,1,0.0761508059650113,1
737,941,1,0.0768282974815726,1
737,942,1,0.0741846442188413,1
737,943,1,0.0697295930268664,1
738,939,1,0.072487531204334,1
738,940,1,0.074811042951194,1
738,941,1,0.0744036663463175,1
738,942,1,0.0719058042169552,1
739,938,1,0.0683160299902784,1
739,939,1,0.072249767069614,1
739,940,1,0.0744901706827232,1
739,941,1,0.0742657577573821,1
739,942,1,0.0710885532708582,1
740,939,1,0.0686129970651059,1
740,940,1,0.0712506306035547,1
740,941,1,0.070594007464506,1
741,964,1,0.0843689215759185,1
741,965,1,0.0747888268742151,1
742,963,1,0.0880020977151834,1
742,964,1,0.0854992101642559,1
742,965,1,0.0765888681892899,1
743,963,1,0.0795461460922514,1
743,964,1,0.0794866736122505,1
743,965,1,0.0757819256466657,1
743,966,1,0.074353741568313,1
743,967,1,0.0756338883475197,1
743,968,1,0.0827261178550125,1
744,962,1,0.0698543001508082,1
744,963,1,0.0733413916577092,1
744,964,1,0.0740157205728564,1
744,965,1,0.0743349995610693,1
744,966,1,0.0760172998609989,1
744,967,1,0.078664259479754,1
744,968,1,0.0848865220278064,1
744,969,1,0.0903887357050416,1
745,962,1,0.0683491833971476,1
745,963,1,0.0687297078388814,1
745,964,1,0.0680105634241505,1
745,965,1,0.06998100186996,1
745,966,1,0.0742467941284484,1
745,967,1,0.0794077283724065,1
745,968,1,0.0848323984172426,1
745,969,1,0.0869196913914373,1
746,966,1,0.0697843755127248,1
746,967,1,0.0750068367296478,1
746,968,1,0.078458594551432,1
746,969,1,0.0793798579474448,1
746,970,1,0.080561862256633,1
747,967,1,0.0722578652459622,1
747,968,1,0.074149969409019,1
747,969,1,0.0744135015575333,1
747,970,1,0.0778493445460651,1
747,971,1,0.0805827246443703,1
748,967,1,0.0726582278238389,1
748,968,1,0.0745033721477169,1
748,969,1,0.0739597401319169,1
748,970,1,0.0771600471821796,1
748,971,1,0.0795988022078408,1
749,967,1,0.0722966131030602,1
749,968,1,0.0752879428792017,1
749,969,1,0.0748839145587769,1
749,970,1,0.0777511421782925,1
749,971,1,0.0799062394100771,1
750,967,1,0.0697544925232269,1
750,968,1,0.0729480191477307,1
750,969,1,0.0730849993214782,1
750,970,1,0.0757531387860671,1
750,971,1,0.0777420257401254,1
751,968,1,0.0699942871918093,1
751,969,1,0.0707120898968494,1
751,970,1,0.0736340281249185,1
751,971,1,0.0764616273903516,1
751,972,1,0.0767849674462894,1
752,968,1,0.0680058854095588,1
752,969,1,0.0702810776382229,1
752,970,1,0.0734258474909262,1
752,971,1,0.0774456097246352,1
752,972,1,0.0776513824689145,1
752,973,1,0.0758770971880832,1
753,968,1,0.068426613223814,1
753,969,1,0.0735042237021067,1
753,970,1,0.0792016681189077,1
753,971,1,0.0841379618260592,1
753,972,1,0.0823370759526522,1
753,973,1,0.0754541651364787,1
754,968,1,0.0696355535530006,1
754,969,1,0.0785537720826248,1
754,970,1,0.0891799451202402,1
754,971,1,0.0938254412212318,1
754,972,1,0.0861186367980367,1
754,973,1,0.0736977653250081,1
755,967,1,0.0679857897130735,1
755,968,1,0.0708900820627981,1
755,969,1,0.0809061485571637,1
755,970,1,0.0948204267729352,1
755,971,1,0.0996267902719914,1
755,972,1,0.0876621599915971,1
755,973,1,0.0722002615758879,1
756,967,1,0.0717343768448508,1
756,968,1,0.0715329766366175,1
756,969,1,0.0765981403616176,1
756,970,1,0.0877810390640693,1
756,971,1,0.0943783873377873,1
756,972,1,0.085118032837003,1
756,973,1,0.0710408147608767,1
757,967,1,0.0741356658253508,1
757,968,1,0.0721431790162738,1
757,969,1,0.0729770635686718,1
757,970,1,0.0802451049638658,1
757,971,1,0.0878414639183596,1
757,972,1,0.0822990708277045,1
757,973,1,0.0698731439842338,1
758,967,1,0.0742316160375709,1
758,968,1,0.0730045805968845,1
758,969,1,0.0741227937980045,1
758,970,1,0.0799704498024237,1
758,971,1,0.0870070342963998,1
758,972,1,0.082651137846487,1
758,973,1,0.0702342974923063,1
759,967,1,0.0746048269635346,1
759,968,1,0.0750085318360875,1
759,969,1,0.0771768185533149,1
759,970,1,0.0810886270648912,1
759,971,1,0.0854434932734343,1
759,972,1,0.0814711520916104,1
759,973,1,0.0705052150338954,1
760,967,1,0.0749579302134622,1
760,968,1,0.0752126693716812,1
760,969,1,0.0777019182040104,1
760,970,1,0.0792067414586761,1
760,971,1,0.0804908894078537,1
760,972,1,0.07766246954319,1
760,973,1,0.0707448539683173,1
761,967,1,0.0743503932838613,1
761,968,1,0.0744365621928443,1
761,969,1,0.0785096693663143,1
761,970,1,0.0799461193347267,1
761,971,1,0.0796313686167203,1
761,972,1,0.0767860515956378,1
761,973,1,0.0729535417206545,1
761,974,1,0.0699583724984781,1
762,967,1,0.0739102346381907,1
762,968,1,0.0753266488078718,1
762,969,1,0.0812903627005473,1
762,970,1,0.083327311612459,1
762,971,1,0.0835323416245881,1
762,972,1,0.0824775062370333,1
762,973,1,0.0796563040517333,1
762,974,1,0.0763479294736051,1
762,975,1,0.0724164026213941,1
763,967,1,0.0722699645922813,1
763,968,1,0.0745669476238705,1
763,969,1,0.0817302577961,1
763,970,1,0.0846175092347961,1
763,971,1,0.0888811092354862,1
763,972,1,0.0946127912085048,1
763,973,1,0.0927403814269811,1
763,974,1,0.0841549667984353,1
763,975,1,0.0775022969590725,1
763,976,1,0.0704141045602029,1
764,967,1,0.0721460301493668,1
764,968,1,0.0737835988065684,1
764,969,1,0.0806468032616579,1
764,970,1,0.0838999581003231,1
764,971,1,0.0906467093419796,1
764,972,1,0.100841582611749,1
764,973,1,0.0996398180334983,1
764,974,1,0.087134466768151,1
764,975,1,0.0783540010933017,1
764,976,1,0.0720478457509204,1
765,967,1,0.0765112347102597,1
765,968,1,0.0749343844063433,1
765,969,1,0.0792930960506967,1
765,970,1,0.0810237757665763,1
765,971,1,0.0832898515570733,1
765,972,1,0.0884675811312683,1
765,973,1,0.0875928043821772,1
765,974,1,0.0794992162019495,1
765,975,1,0.0743322023359549,1
765,976,1,0.0719182509702478,1
765,977,1,0.0699631822881287,1
766,967,1,0.07941383794332,1
766,968,1,0.0751140117809778,1
766,969,1,0.0782703419002136,1
766,970,1,0.0809283885932442,1
766,971,1,0.0790515942961238,1
766,972,1,0.0771092538867413,1
766,973,1,0.0761991853809612,1
766,974,1,0.0750764558891855,1
766,975,1,0.0739440289510284,1
766,976,1,0.0736809460356695,1
766,977,1,0.0729353447829727,1
767,967,1,0.0768203670189357,1
767,968,1,0.0722654602811763,1
767,969,1,0.0750418829055452,1
767,970,1,0.0794517412420858,1
767,971,1,0.0776269621545864,1
767,972,1,0.0742105979156732,1
767,973,1,0.0745674387854537,1
767,974,1,0.077353145561701,1
767,975,1,0.0774386675749402,1
767,976,1,0.0768746763125371,1
767,977,1,0.0751401990790505,1
767,978,1,0.0732527968896869,1
768,967,1,0.073632955955121,1
768,968,1,0.0679128701872873,1
768,969,1,0.0683163714074765,1
768,970,1,0.0708920407193557,1
768,971,1,0.0704928102090307,1
768,972,1,0.0708487526125004,1
768,973,1,0.0743356284874868,1
768,974,1,0.0788040788070438,1
768,975,1,0.0795388086173797,1
768,976,1,0.0800846448705289,1
768,977,1,0.0786018879484569,1
768,978,1,0.0761189703087312,1
769,967,1,0.0689009674972744,1
769,973,1,0.0712612085469207,1
769,974,1,0.0746105112603944,1
769,975,1,0.0756852446818461,1
769,976,1,0.0785608160585016,1
769,977,1,0.0791175956313166,1
770,974,1,0.070443178930021,1
770,975,1,0.0714341273731011,1
770,976,1,0.073541587921086,1
731,937,2,0.0807640950436477,1
731,938,2,0.0797841677873137,1
732,936,2,0.086528714791621,1
732,937,2,0.121551889951438,1
732,938,2,0.117201528054,1
732,939,2,0.0854057516986045,1
733,935,2,0.0722002436065616,1
733,936,2,0.103218289553985,1
733,937,2,0.13487328222825,1
733,938,2,0.12703212714271,1
733,939,2,0.0912472681832331,1
733,940,2,0.0678014723442965,1
733,942,2,0.07001239428286,1
734,935,2,0.0804761006523776,1
734,936,2,0.0976406526248442,1
734,937,2,0.107757509069958,1
734,938,2,0.0978557334801036,1
734,939,2,0.0772195196621805,1
734,942,2,0.0692010732144144,1
735,935,2,0.0742426551936432,1
735,936,2,0.0809271606892861,1
735,937,2,0.0784962043512029,1
735,938,2,0.0710218032137397,1
735,941,2,0.0698633327321196,1
735,942,2,0.0693234742748251,1
736,940,2,0.0686543444847298,1
736,941,2,0.0738830290782991,1
736,942,2,0.0718665592084986,1
737,940,2,0.0693424918117374,1
737,941,2,0.0722613512952482,1
737,942,2,0.0691364435377894,1
738,940,2,0.0683379106398345,1
738,941,2,0.0696519954864886,1
739,940,2,0.068966537568638,1
739,941,2,0.0689998886380957,1
740,964,2,0.0789826998994101,1
740,965,2,0.0724865908095953,1
741,963,2,0.0919523306359857,1
741,964,2,0.0962889100602159,1
741,965,2,0.0839563278766639,1
741,966,2,0.0712261983096758,1
742,962,2,0.0735755259885334,1
742,963,2,0.0918577401027826,1
742,964,2,0.0964619247228028,1
742,965,2,0.084879382215523,1
742,966,2,0.0730332716210766,1
742,967,2,0.0722648133854326,1
742,968,2,0.0791274368323078,1
743,963,2,0.0773102467902471,1
743,964,2,0.0812911054326975,1
743,965,2,0.0778222707612324,1
743,966,2,0.0739095338344683,1
743,967,2,0.0748505215608914,1
743,968,2,0.0819310949654452,1
743,969,2,0.0949497819625916,1
744,963,2,0.0692040082043631,1
744,964,2,0.0710005035723979,1
744,965,2,0.0732098022818265,1
744,966,2,0.0752544600346851,1
744,967,2,0.0775786186772889,1
744,968,2,0.0826839378566073,1
744,969,2,0.0917411071960874,1
744,970,2,0.0921185588830382,1
745,962,2,0.0678432510277496,1
745,965,2,0.0688814228601264,1
745,966,2,0.0736822158680555,1
745,967,2,0.0780674981561075,1
745,968,2,0.0818141985086322,1
745,969,2,0.0864308837899235,1
745,970,2,0.0868709046707598,1
746,966,2,0.06877814116281,1
746,967,2,0.0731834712291441,1
746,968,2,0.0752734476227204,1
746,969,2,0.0779737461914612,1
746,970,2,0.081586209687374,1
746,971,2,0.0849189386923007,1
747,967,2,0.0715614580186705,1
747,968,2,0.0733142100569192,1
747,969,2,0.0744051458208426,1
747,970,2,0.0796987356207056,1
747,971,2,0.0834401709606488,1
748,967,2,0.0714178711226507,1
748,968,2,0.0747148351786314,1
748,969,2,0.0746809570089381,1
748,970,2,0.0789158480161097,1
748,971,2,0.0814271631810327,1
749,967,2,0.0700034814970567,1
749,968,2,0.0748535463974711,1
749,969,2,0.0751460990078248,1
749,970,2,0.0786055716603312,1
749,971,2,0.0807358053344077,1
749,972,2,0.0829214504207602,1
750,968,2,0.0715561510776612,1
750,969,2,0.0722688564838312,1
750,970,2,0.074676967818518,1
750,971,2,0.0771204487769741,1
750,972,2,0.0786628518825337,1
751,968,2,0.0689054538390531,1
751,969,2,0.0694681393304179,1
751,970,2,0.0713102228790637,1
751,971,2,0.0746181841626888,1
751,972,2,0.0757980201731802,1
752,969,2,0.0690214817784324,1
752,970,2,0.0706727250928847,1
752,971,2,0.0747471619964947,1
752,972,2,0.0756387161064965,1
752,973,2,0.0712777463168152,1
753,969,2,0.0716573303638103,1
753,970,2,0.075597686144969,1
753,971,2,0.080568612733515,1
753,972,2,0.0800700118492133,1
753,973,2,0.0702443722945382,1
754,969,2,0.0746449285098742,1
754,970,2,0.0826592480023859,1
754,971,2,0.0877413448224573,1
754,972,2,0.083020557244619,1
754,973,2,0.0692551608863258,1
755,968,2,0.0681109999781493,1
755,969,2,0.0757652261528353,1
755,970,2,0.0863055177906872,1
755,971,2,0.0906028641860116,1
755,972,2,0.0819394986203391,1
756,967,2,0.0683926931256929,1
756,968,2,0.0686477976602116,1
756,969,2,0.0720347640814349,1
756,970,2,0.0798973805322524,1
756,971,2,0.0857567705066909,1
756,972,2,0.0796513684767992,1
757,967,2,0.0711088286606057,1
757,968,2,0.0694870490513729,1
757,969,2,0.0701179221459535,1
757,970,2,0.0753635038959416,1
757,971,2,0.0822643241405774,1
757,972,2,0.0792527429337901,1
757,973,2,0.0678422507352569,1
758,967,2,0.0709814620763839,1
758,968,2,0.0693666605554985,1
758,969,2,0.0708818401318402,1
758,970,2,0.0762901940284718,1
758,971,2,0.0834632495652861,1
758,972,2,0.081578956069358,1
758,973,2,0.0696218729059745,1
759,967,2,0.071303861737583,1
759,968,2,0.0717866855534667,1
759,969,2,0.073721179357068,1
759,970,2,0.0768856795299569,1
759,971,2,0.0807397346270737,1
759,972,2,0.0784403856341993,1
759,973,2,0.0680370202621164,1
760,967,2,0.0716604031185933,1
760,968,2,0.0726941485069455,1
760,969,2,0.0747049280901108,1
760,970,2,0.075212268056729,1
760,971,2,0.0754060372910958,1
760,972,2,0.0735978079530417,1
760,973,2,0.0679950918342782,1
761,967,2,0.0708211097990042,1
761,968,2,0.0713717798009056,1
761,969,2,0.0763269832290122,1
761,970,2,0.0773509772630042,1
761,971,2,0.0759026375904121,1
761,972,2,0.0734205465396924,1
761,973,2,0.0714797814412415,1
761,974,2,0.0692722616951084,1
762,967,2,0.0698230874311703,1
762,968,2,0.0716510410996346,1
762,969,2,0.0802150123322288,1
762,970,2,0.0820551492038678,1
762,971,2,0.0807939001660653,1
762,972,2,0.0787740700322624,1
762,973,2,0.0768238590579971,1
762,974,2,0.0741358515083884,1
762,975,2,0.0691985155803163,1
763,967,2,0.0680617700140918,1
763,968,2,0.0704764940608262,1
763,969,2,0.0800343367468983,1
763,970,2,0.0814039468115611,1
763,971,2,0.0834780263412113,1
763,972,2,0.0871107772064224,1
763,973,2,0.0848729312274114,1
763,974,2,0.077261466059345,1
763,975,2,0.0732984689271536,1
764,968,2,0.0682019187790288,1
764,969,2,0.076393871050965,1
764,970,2,0.078655927702165,1
764,971,2,0.0840861921972298,1
764,972,2,0.0929106947008601,1
764,973,2,0.0907994006966157,1
764,974,2,0.078771302756025,1
764,975,2,0.0734991443725629,1
765,967,2,0.0712181420617554,1
765,968,2,0.0689250883228322,1
765,969,2,0.0738365903495805,1
765,970,2,0.0746765605137905,1
765,971,2,0.0753466606475014,1
765,972,2,0.0795070388486291,1
765,973,2,0.0784362167505171,1
765,974,2,0.0713491085009959,1
765,975,2,0.06918763814818,1
766,967,2,0.0735461341606188,1
766,968,2,0.0695039821464442,1
766,969,2,0.072760676942374,1
766,970,2,0.0742567491351723,1
766,971,2,0.0710592452997993,1
766,972,2,0.0697802785063474,1
766,973,2,0.0691917111954557,1
766,974,2,0.0686263362949339,1
766,975,2,0.0690724847160099,1
766,976,2,0.0704077733675993,1
766,977,2,0.070667220489287,1
766,978,2,0.0698695920474183,1
767,967,2,0.0689854712486947,1
767,969,2,0.0693427913005077,1
767,970,2,0.0719446179615826,1
767,971,2,0.0689176969399819,1
767,974,2,0.0696087552978366,1
767,975,2,0.0706852976314607,1
767,976,2,0.0735668108653184,1
767,977,2,0.075226553671071,1
767,978,2,0.0742541076442185,1
767,979,2,0.0725077766452044,1
768,974,2,0.071860168118141,1
768,975,2,0.0730734390549457,1
768,976,2,0.0767118861965674,1
768,977,2,0.0791107373384773,1
768,978,2,0.0779297093626802,1
768,979,2,0.075000517516595,1
769,974,2,0.0705949598387955,1
769,975,2,0.0713019450094533,1
769,976,2,0.0752947233049606,1
769,977,2,0.0779650190886955,1
769,978,2,0.0770989394934931,1
770,974,2,0.0685273073381553,1
770,975,2,0.068682783938355,1
770,976,2,0.0707042313115174,1
770,977,2,0.0720092596177584,1
732,936,3,0.0828023676959241,1
732,937,3,0.112626142274129,1
732,938,3,0.106510389912337,1
732,939,3,0.0787928060497307,1
733,935,3,0.0839436654914568,1
733,936,3,0.111364899226102,1
733,937,3,0.133679687703652,1
733,938,3,0.117914598836469,1
733,939,3,0.084947719563124,1
733,942,3,0.0687117744513174,1
733,943,3,0.0680925874085529,1
734,935,3,0.0970039035605908,1
734,936,3,0.110552505987859,1
734,937,3,0.110359227915075,1
734,938,3,0.091717213981995,1
734,939,3,0.0729968717559376,1
734,942,3,0.0678415798804115,1
735,935,3,0.0816940016855707,1
735,936,3,0.0851773376032925,1
735,937,3,0.0778208392049105,1
735,942,3,0.0678312774667141,1
736,941,3,0.0727609345027164,1
736,942,3,0.071328102358649,1
737,941,3,0.0721927923259573,1
737,942,3,0.070070878449919,1
738,941,3,0.0678788662323105,1
740,964,3,0.0866664436872942,1
740,965,3,0.0783957977460811,1
741,963,3,0.09639459365747,1
741,964,3,0.117547916765698,1
741,965,3,0.100480782500426,1
741,966,3,0.0752326273033322,1
742,962,3,0.0701401262433815,1
742,963,3,0.0961996504271237,1
742,964,3,0.117138635412242,1
742,965,3,0.102057315346245,1
742,966,3,0.0786572933709574,1
742,967,3,0.0719962378460269,1
742,968,3,0.0778418812859099,1
743,963,3,0.0781052577002636,1
743,964,3,0.0906208874202066,1
743,965,3,0.0863582038551536,1
743,966,3,0.0782724503011563,1
743,967,3,0.0768123586892186,1
743,968,3,0.082678762690657,1
743,969,3,0.0940085845940293,1
744,964,3,0.0727192576454452,1
744,965,3,0.0756240291772023,1
744,966,3,0.0768650207945835,1
744,967,3,0.07714624074987,1
744,968,3,0.0804214259824765,1
744,969,3,0.0892357818065699,1
745,962,3,0.0689541387335487,1
745,965,3,0.0686397833407191,1
745,966,3,0.0733297295649947,1
745,967,3,0.0754860307416358,1
745,968,3,0.0776360246847749,1
745,969,3,0.0843481190859354,1
745,970,3,0.0889887275301961,1
746,966,3,0.068647138784917,1
746,967,3,0.0719030069918409,1
746,968,3,0.0736679003048364,1
746,969,3,0.0786796951309739,1
746,970,3,0.0843020337539657,1
746,971,3,0.0876717436322458,1
747,967,3,0.0717068178882103,1
747,968,3,0.075148213398543,1
747,969,3,0.0776956828478133,1
747,970,3,0.0825385779870675,1
747,971,3,0.0864564361718032,1
748,967,3,0.0701451336956205,1
748,968,3,0.0769127353454634,1
748,969,3,0.0783382539737608,1
748,970,3,0.0809239082412409,1
748,971,3,0.0835285860354089,1
749,968,3,0.0753790234040172,1
749,969,3,0.0777305193815715,1
749,970,3,0.0791334865054673,1
749,971,3,0.0807438196539002,1
749,972,3,0.0841303548112943,1
750,968,3,0.0715395354406865,1
750,969,3,0.0738413222721509,1
750,970,3,0.0739029570610731,1
750,971,3,0.0762441805738071,1
750,972,3,0.080774720905217,1
751,968,3,0.0693035223329495,1
751,969,3,0.0703465578629555,1
751,970,3,0.0696161826193393,1
751,971,3,0.0731694731240215,1
751,972,3,0.0787681461443864,1
752,969,3,0.0697178231181947,1
752,970,3,0.0691943826352865,1
752,971,3,0.0728593405228528,1
752,972,3,0.0769690811627026,1
752,973,3,0.0711606162587614,1
753,969,3,0.072660372163434,1
753,970,3,0.0742947183214675,1
753,971,3,0.0778556757386687,1
753,972,3,0.0795447564643573,1
753,973,3,0.0684766757666529,1
754,969,3,0.0748450828448232,1
754,970,3,0.0785529814322713,1
754,971,3,0.081883302547485,1
754,972,3,0.0811686145256558,1
755,969,3,0.0754773275979716,1
755,970,3,0.0809589783762399,1
755,971,3,0.0823647606945763,1
755,972,3,0.07888785779564,1
756,968,3,0.0689512995800065,1
756,969,3,0.0747362366461551,1
756,970,3,0.0788588792622283,1
756,971,3,0.0797935417858233,1
756,972,3,0.0769702012507034,1
757,968,3,0.069172334272019,1
757,969,3,0.0728408500861761,1
757,970,3,0.0768080879793545,1
757,971,3,0.0802417147509863,1
757,972,3,0.0804600540440664,1
757,973,3,0.0690278548994638,1
758,967,3,0.0686422091997583,1
758,968,3,0.0687615914133647,1
758,969,3,0.0711355310793633,1
758,970,3,0.075637038969383,1
758,971,3,0.0807094083941958,1
758,972,3,0.082603423295607,1
758,973,3,0.0719271457867249,1
759,967,3,0.0693084279590065,1
759,968,3,0.0706857828032686,1
759,969,3,0.0717233915967572,1
759,970,3,0.0741472141123325,1
759,971,3,0.0767587501993397,1
759,972,3,0.0777259731420388,1
759,973,3,0.069894479564228,1
760,967,3,0.071365418659425,1
760,968,3,0.0734870749751209,1
760,969,3,0.073584606488048,1
760,970,3,0.0731701020504391,1
760,971,3,0.071578277308009,1
760,972,3,0.0708786415917737,1
761,967,3,0.0704334934631904,1
761,968,3,0.0713459998075605,1
761,969,3,0.0744723990190952,1
761,970,3,0.0749705686395677,1
761,971,3,0.0723379904715611,1
761,972,3,0.0719820540578668,1
761,973,3,0.071907056080015,1
761,974,3,0.068782543647733,1
762,967,3,0.0682387738670987,1
762,968,3,0.0709774968450655,1
762,969,3,0.0799518455600143,1
762,970,3,0.0821136333709268,1
762,971,3,0.0789714511011986,1
762,972,3,0.0786872302684339,1
762,973,3,0.0769709679419553,1
762,974,3,0.0738541104426415,1
763,968,3,0.0695121402205464,1
763,969,3,0.0807212741392741,1
763,970,3,0.082639631487933,1
763,971,3,0.0819226913105514,1
763,972,3,0.0852581456632876,1
763,973,3,0.0814807716709116,1
763,974,3,0.0757802844482046,1
763,975,3,0.0698882801466834,1
764,969,3,0.075240336144279,1
764,970,3,0.0784798882029984,1
764,971,3,0.0818823262140939,1
764,972,3,0.0887999058503143,1
764,973,3,0.0845338680110342,1
764,974,3,0.0755468988393061,1
764,975,3,0.070121372256587,1
765,967,3,0.0684733754004045,1
765,969,3,0.0707729759638459,1
765,970,3,0.0726461584263969,1
765,971,3,0.0730074736584053,1
765,972,3,0.0763896063308763,1
765,973,3,0.0743318249801044,1
765,974,3,0.0690191397762488,1
766,967,3,0.0713316423159136,1
766,969,3,0.0701686315845362,1
766,970,3,0.0707960605582586,1
767,976,3,0.0708927175639766,1
767,977,3,0.0752232113763948,1
767,978,3,0.0753079726881575,1
767,979,3,0.0724501490160284,1
768,975,3,0.0688234478239769,1
768,976,3,0.0731878198060884,1
768,977,3,0.0784125152092377,1
768,978,3,0.0789253298305766,1
768,979,3,0.0754855335902771,1
769,974,3,0.0688543910037215,1
769,975,3,0.0702062174252054,1
769,976,3,0.0723658129783195,1
769,977,3,0.0749415421879528,1
769,978,3,0.075565155674742,1
770,976,3,0.0678819270075427,1
770,977,3,0.0687731816287742,1
732,936,4,0.0788770402612577,1
732,937,4,0.0960354047957304,1
732,938,4,0.0899444980223199,1
732,939,4,0.0694417064515536,1
732,943,4,0.0711143033153263,1
732,944,4,0.0708350180574957,1
733,935,4,0.089038730175281,1
733,936,4,0.115948359223219,1
733,937,4,0.123674846048397,1
733,938,4,0.104007598197816,1
733,939,4,0.0774970798646943,1
733,943,4,0.0741297479272502,1
733,944,4,0.0754612031225801,1
734,935,4,0.102528399202334,1
734,936,4,0.117538620634268,1
734,937,4,0.10825863763948,1
734,938,4,0.0860880829536934,1
734,939,4,0.0708022899246803,1
734,943,4,0.071444082379825,1
734,944,4,0.0714456756600828,1
735,935,4,0.0813465467938505,1
735,936,4,0.0845288186303674,1
735,937,4,0.074978343368044,1
735,942,4,0.0680146005327738,1
736,941,4,0.0725460872486978,1
736,942,4,0.0721079950755421,1
737,941,4,0.0731335105124871,1
737,942,4,0.0725387797227031,1
740,964,4,0.0867708933908147,1
740,965,4,0.0782726419739693,1
741,963,4,0.0930881118483699,1
741,964,4,0.125005187145501,1
741,965,4,0.106527975892927,1
741,966,4,0.0765394884808473,1
742,962,4,0.0679850948991264,1
742,963,4,0.0924669062512938,1
742,964,4,0.124893705445655,1
742,965,4,0.10948121069749,1
742,966,4,0.0819314064337663,1
742,967,4,0.0709773231415787,1
742,968,4,0.075475500716473,1
743,963,4,0.0759829245399469,1
743,964,4,0.0960790762482117,1
743,965,4,0.0922360842662688,1
743,966,4,0.0818883938565797,1
743,967,4,0.0774179130031603,1
743,968,4,0.0819791449437479,1
743,969,4,0.0905752393418416,1
744,964,4,0.0755952662757052,1
744,965,4,0.0782016571456391,1
744,966,4,0.0779078766313273,1
744,967,4,0.0756760743357004,1
744,968,4,0.0782011599942805,1
744,969,4,0.0861966476329174,1
745,962,4,0.0688002254647299,1
745,963,4,0.0686894385788304,1
745,965,4,0.0678792974961397,1
745,966,4,0.0716050995222747,1
745,967,4,0.0719042528651252,1
745,968,4,0.0737061270514741,1
745,969,4,0.0821659300999919,1
745,970,4,0.0916608681647558,1
746,967,4,0.069360640831216,1
746,968,4,0.071499140395352,1
746,969,4,0.0782601113638211,1
746,970,4,0.0862646076246678,1
746,971,4,0.0903309822905821,1
747,967,4,0.0683920881583769,1
747,968,4,0.0741389602018238,1
747,969,4,0.0786652238335943,1
747,970,4,0.08304605571852,1
747,971,4,0.0875992493805135,1
748,968,4,0.0772131225820475,1
748,969,4,0.0811089264137403,1
748,970,4,0.0806987765428511,1
748,971,4,0.083327724906962,1
748,972,4,0.085985999211458,1
749,968,4,0.0753863069709102,1
749,969,4,0.0802334428711514,1
749,970,4,0.0781898393187642,1
749,971,4,0.0794105375770716,1
749,972,4,0.083256254906824,1
750,968,4,0.0702625991810971,1
750,969,4,0.0737090979800752,1
750,970,4,0.0721731278933011,1
750,971,4,0.0748651126537791,1
750,972,4,0.0803164431889449,1
751,968,4,0.0684051159198838,1
751,969,4,0.0695063301384031,1
751,970,4,0.0682281539953048,1
751,971,4,0.0722876344297274,1
751,972,4,0.0795548791847925,1
751,973,4,0.0767393912452293,1
752,969,4,0.0690579894595287,1
752,970,4,0.0677573516586599,1
752,971,4,0.0706136599176114,1
752,972,4,0.0757956302527934,1
752,973,4,0.069404929230564,1
753,969,4,0.0731231841396881,1
753,970,4,0.0726076142216627,1
753,971,4,0.0733917177506659,1
753,972,4,0.0759288787964634,1
754,969,4,0.0751863023803463,1
754,970,4,0.0746189209050637,1
754,971,4,0.0741077594617367,1
754,972,4,0.075615619532533,1
755,969,4,0.0747720794621814,1
755,970,4,0.0750162706259114,1
755,971,4,0.0720295709461583,1
755,972,4,0.0719656840016837,1
756,968,4,0.0677722422403178,1
756,969,4,0.0772987584010194,1
756,970,4,0.0774247113982455,1
756,971,4,0.0724317124873304,1
756,972,4,0.0705989430394401,1
757,968,4,0.0683876736939031,1
757,969,4,0.0757741029999862,1
757,970,4,0.0773486172914945,1
757,971,4,0.0761450917192745,1
757,972,4,0.0762151062039889,1
758,968,4,0.0683789945093406,1
758,969,4,0.0723669390560957,1
758,970,4,0.0750457523004571,1
758,971,4,0.0777665179317583,1
758,972,4,0.0797904390821632,1
758,973,4,0.0701941001095602,1
759,967,4,0.0681283403779481,1
759,968,4,0.069529181131575,1
759,969,4,0.0706198233965036,1
759,970,4,0.0719683554415145,1
759,971,4,0.0743203845090799,1
759,972,4,0.0753413297473906,1
759,973,4,0.0692588625675263,1
760,967,4,0.0716966232904702,1
760,968,4,0.0733537186154936,1
760,969,4,0.072931301684574,1
760,970,4,0.0722454664108729,1
760,971,4,0.0710473256467424,1
760,972,4,0.0690768872009329,1
761,967,4,0.0717699740800855,1
761,968,4,0.071938610216851,1
761,969,4,0.0739854302786309,1
761,970,4,0.0741986602932901,1
761,971,4,0.0725787195451068,1
761,972,4,0.0725186900159932,1
761,973,4,0.0717686263806193,1
762,967,4,0.0677745542936243,1
762,968,4,0.07050387931398,1
762,969,4,0.079638957662159,1
762,970,4,0.0818346895302943,1
762,971,4,0.0791041425957559,1
762,972,4,0.0798781174145484,1
762,973,4,0.0765219144798076,1
762,974,4,0.0699198342835194,1
763,968,4,0.0680875380278861,1
763,969,4,0.081190303502399,1
763,970,4,0.083647788555753,1
763,971,4,0.0819840565595803,1
763,972,4,0.0844820265048999,1
763,973,4,0.0783789904362933,1
763,974,4,0.0719867740008863,1
764,969,4,0.0736406168778646,1
764,970,4,0.0775992115251329,1
764,971,4,0.0797945780169684,1
764,972,4,0.0840459468962805,1
764,973,4,0.0774644056398575,1
764,974,4,0.0702598019559827,1
765,969,4,0.0679788176145015,1
765,970,4,0.0704900788714458,1
765,971,4,0.0716558988074884,1
765,972,4,0.0738035088200162,1
765,973,4,0.0703956081337508,1
767,977,4,0.0718883619909745,1
767,978,4,0.0715046030705218,1
768,976,4,0.0698205297970722,1
768,977,4,0.0755186630380447,1
768,978,4,0.0756288988646069,1
768,979,4,0.0718919079380145,1
769,976,4,0.0683265899643182,1
769,977,4,0.0706850221017921,1
769,978,4,0.0712609569763537,1
732,937,5,0.0716038296898887,1
732,938,5,0.0689719523256046,1
732,943,5,0.0785057700225254,1
732,944,5,0.0823788606258807,1
733,935,5,0.0767637217129263,1
733,936,5,0.0980026447014734,1
733,937,5,0.0951783817409412,1
733,938,5,0.0814626645798609,1
733,942,5,0.0678238501452113,1
733,943,5,0.0843722099626161,1
733,944,5,0.0891374596432892,1
733,945,5,0.0704793392041438,1
734,935,5,0.0850381472024203,1
734,936,5,0.099149524967684,1
734,937,5,0.0872730761608089,1
734,938,5,0.0721624780726302,1
734,943,5,0.0758941620582133,1
734,944,5,0.0788450129321647,1
735,935,5,0.0685254145691272,1
735,936,5,0.0715649500577318,1
736,942,5,0.0688323067018016,1
737,942,5,0.0682365696297495,1
741,963,5,0.0826518805786372,1
741,964,5,0.108067048683361,1
741,965,5,0.0949280031392173,1
741,966,5,0.0710575142547071,1
742,963,5,0.0825024416720463,1
742,964,5,0.110281037386932,1
742,965,5,0.101738036358033,1
742,966,5,0.0793868120766906,1
742,967,5,0.0696566435522032,1
743,963,5,0.0742502142902049,1
743,964,5,0.093674349136629,1
743,965,5,0.0943990161242837,1
743,966,5,0.0840661803576001,1
743,967,5,0.0781303069410092,1
743,968,5,0.079334167940652,1
744,963,5,0.0694285349354369,1
744,964,5,0.0779213057077864,1
744,965,5,0.0811069437980811,1
744,966,5,0.0780472646947879,1
744,967,5,0.0744922311654627,1
744,968,5,0.0749115813313747,1
744,969,5,0.0823215264956996,1
745,963,5,0.0705878679447154,1
745,964,5,0.0688762596737269,1
745,965,5,0.0680058614504572,1
745,966,5,0.068906220530305,1
745,967,5,0.0688601172290091,1
745,968,5,0.0702827967037643,1
745,969,5,0.0792899154799564,1
745,970,5,0.0926902589863882,1
746,968,5,0.0700774252744371,1
746,969,5,0.0774547800707809,1
746,970,5,0.0876191653837366,1
746,971,5,0.0918787282758034,1
747,968,5,0.0716498012161257,1
747,969,5,0.0779513144825677,1
747,970,5,0.0826153309691131,1
747,971,5,0.0865657316036268,1
748,968,5,0.0746524696371097,1
748,969,5,0.0812926328254259,1
748,970,5,0.0800411950397376,1
748,971,5,0.0822712962391494,1
748,972,5,0.0858004000307443,1
749,968,5,0.0724752761238544,1
749,969,5,0.0797801426582412,1
749,970,5,0.0768718611180965,1
749,971,5,0.0786027205272382,1
749,972,5,0.0813591732404052,1
750,969,5,0.0713429270527775,1
750,970,5,0.0707678187672218,1
750,971,5,0.0750437816643487,1
750,972,5,0.0776311490075948,1
751,971,5,0.0726093392769795,1
751,972,5,0.0760993897329308,1
751,973,5,0.0717938313555255,1
752,971,5,0.0694326559009159,1
752,972,5,0.0718071765751288,1
753,969,5,0.0717186956128393,1
753,970,5,0.0708172523836431,1
753,971,5,0.0700168566655371,1
753,972,5,0.0711458275032853,1
754,969,5,0.0740949173832674,1
754,970,5,0.0721308820073664,1
754,971,5,0.0691855956347667,1
754,972,5,0.0709718484868581,1
755,969,5,0.0742141618320394,1
755,970,5,0.0727150049049073,1
755,971,5,0.0677872346481577,1
755,972,5,0.0707576062001555,1
756,968,5,0.0688913359384224,1
756,969,5,0.0812120583666716,1
756,970,5,0.0790738223526534,1
756,971,5,0.0698129227823072,1
756,972,5,0.07020798440895,1
757,968,5,0.0723419257540025,1
757,969,5,0.0838813239090367,1
757,970,5,0.0814808195891148,1
757,971,5,0.0733953415647862,1
757,972,5,0.0726782696123456,1
758,968,5,0.0714218603130707,1
758,969,5,0.0778469306665767,1
758,970,5,0.0763307567875176,1
758,971,5,0.0735539747766245,1
758,972,5,0.0740196378859715,1
759,967,5,0.0678337153053041,1
759,968,5,0.0693234922441513,1
759,969,5,0.0711642580422079,1
759,970,5,0.0706714073422954,1
759,971,5,0.0716845898316806,1
759,972,5,0.0718443191724181,1
760,967,5,0.0724475254944009,1
760,968,5,0.071645847964358,1
760,969,5,0.07173237027009,1
760,970,5,0.0713207529042265,1
760,971,5,0.0711420359754536,1
760,972,5,0.068304457744195,1
761,967,5,0.074645958751244,1
761,968,5,0.072943946100455,1
761,969,5,0.0743727111870221,1
761,970,5,0.0737747578980699,1
761,971,5,0.073478892941917,1
761,972,5,0.0720522602153942,1
761,973,5,0.0698647702782169,1
762,967,5,0.0694590049229245,1
762,968,5,0.0711674026742957,1
762,969,5,0.0782853702467059,1
762,970,5,0.0786541247797679,1
762,971,5,0.0772800762915297,1
762,972,5,0.0776039793863557,1
762,973,5,0.0739294797865685,1
763,968,5,0.0689234830630236,1
763,969,5,0.080355502514364,1
763,970,5,0.0813671336519191,1
763,971,5,0.0795872599106345,1
763,972,5,0.080458083407958,1
763,973,5,0.0751008881830644,1
763,974,5,0.0678611364971103,1
764,969,5,0.0721457126912703,1
764,970,5,0.0758027940241784,1
764,971,5,0.0769338972219709,1
764,972,5,0.078557779242371,1
764,973,5,0.0724536230857636,1
765,970,5,0.0698560252061249,1
765,971,5,0.0712087381143689,1
765,972,5,0.0720286485207459,1
765,973,5,0.0680295210633088,1
768,977,5,0.0704576981456039,1
768,978,5,0.06949195467743,1
731,943,6,0.0682827747572272,1
731,944,6,0.0706182840242244,1
732,942,6,0.069529432702142,1
732,943,6,0.0932570534636811,1
732,944,6,0.094783877163411,1
732,945,6,0.0711045819098432,1
733,937,6,0.0702340818603917,1
733,942,6,0.0743310582888525,1
733,943,6,0.102744965521894,1
733,944,6,0.104632763036435,1
733,945,6,0.0751893332067015,1
734,936,6,0.0728229466474892,1
734,943,6,0.0823031378852049,1
734,944,6,0.0850159730538693,1
734,945,6,0.0686876116973318,1
741,963,6,0.0711837906998051,1
741,964,6,0.0820889255473792,1
741,965,6,0.0753605509366667,1
742,963,6,0.0719866182667258,1
742,964,6,0.0864557653169578,1
742,965,6,0.084771069106866,1
742,966,6,0.0723347440132914,1
743,963,6,0.0702220903300299,1
743,964,6,0.0834160261759894,1
743,965,6,0.0878581993508425,1
743,966,6,0.0804299314635523,1
743,967,6,0.0751231641577973,1
744,963,6,0.068030042173769,1
744,964,6,0.0747312771121194,1
744,965,6,0.0776149107264706,1
744,966,6,0.0739244843138803,1
744,967,6,0.0710984304105018,1
744,968,6,0.0709440559289768,1
745,963,6,0.06777286517696,1
745,964,6,0.0678648860965142,1
745,969,6,0.0755491689641848,1
745,970,6,0.0913151023897,1
746,969,6,0.072765834138998,1
746,970,6,0.0841476113542374,1
746,971,6,0.0904756293768487,1
747,969,6,0.0724357615755045,1
747,970,6,0.0785429665277933,1
747,971,6,0.083525722922765,1
747,972,6,0.0894828600420454,1
748,969,6,0.0757351934189523,1
748,970,6,0.0774139417820665,1
748,971,6,0.0800664060044192,1
748,972,6,0.0845726817556616,1
749,969,6,0.0744867205720897,1
749,970,6,0.0745342434501566,1
749,971,6,0.0766449564461867,1
749,972,6,0.078084287496569,1
749,973,6,0.075823027485498,1
750,970,6,0.0681930479216534,1
750,971,6,0.0728095355403563,1
750,972,6,0.072466555010864,1
751,971,6,0.0694992981420771,1
751,972,6,0.0687921033292801,1
753,969,6,0.0687311693440803,1
753,970,6,0.0685762617725442,1
754,969,6,0.0709941963388959,1
754,970,6,0.0709315552677056,1
754,971,6,0.067843700260905,1
755,969,6,0.0712258868413547,1
755,970,6,0.0715129468276616,1
755,971,6,0.0678758413957308,1
755,972,6,0.0700512200070382,1
755,973,6,0.0698222967808168,1
756,969,6,0.0795554302441298,1
756,970,6,0.0771200654313482,1
756,971,6,0.0693066070672833,1
756,972,6,0.0714987690292769,1
756,973,6,0.0710726204682797,1
757,968,6,0.0759744549975236,1
757,969,6,0.0908212933257226,1
757,970,6,0.0844575283234916,1
757,971,6,0.0718496440827536,1
757,972,6,0.0707567616418233,1
758,968,6,0.0755384053377812,1
758,969,6,0.085480833533312,1
758,970,6,0.0798194655337781,1
758,971,6,0.0707148332139851,1
758,972,6,0.0699919272202995,1
759,967,6,0.0677865578035369,1
759,968,6,0.0700285786560056,1
759,969,6,0.0731095454210898,1
759,970,6,0.0716635178018042,1
759,971,6,0.0696605488857676,1
759,972,6,0.0696028793281638,1
760,967,6,0.0734112743673647,1
760,968,6,0.0706599608814956,1
760,969,6,0.0700063266403743,1
760,970,6,0.0715176907297827,1
760,971,6,0.0718640734517054,1
760,972,6,0.0691027151124813,1
761,967,6,0.0776664767029363,1
761,968,6,0.0757364093433596,1
761,969,6,0.0750018652160613,1
761,970,6,0.0746053360944441,1
761,971,6,0.0741461778811874,1
761,972,6,0.0702071817790457,1
762,967,6,0.0723269273563872,1
762,968,6,0.0740460228466326,1
762,969,6,0.0765199198845976,1
762,970,6,0.0753328901538443,1
762,971,6,0.0743688477818855,1
762,972,6,0.0732026265308908,1
762,973,6,0.0692008995109276,1
763,968,6,0.0700069196281394,1
763,969,6,0.0766874658822393,1
763,970,6,0.0771035096921275,1
763,971,6,0.0763475700870808,1
763,972,6,0.0760692611626413,1
763,973,6,0.0716699029023864,1
764,969,6,0.069497878565306,1
764,970,6,0.0736605867890664,1
764,971,6,0.075324007316918,1
764,972,6,0.0750419907215025,1
764,973,6,0.0693953216308136,1
765,970,6,0.068665988608118,1
765,971,6,0.0714209019490058,1
765,972,6,0.071327437493579,1
731,943,7,0.0756130139802316,1
731,944,7,0.0746744161741953,1
732,942,7,0.0770730157455382,1
732,943,7,0.110075156826696,1
732,944,7,0.10310727505662,1
732,945,7,0.0724584927731683,1
733,942,7,0.0795853551620555,1
733,943,7,0.114878777008616,1
733,944,7,0.108632651195348,1
733,945,7,0.0756294738830458,1
734,943,7,0.0838802098108113,1
734,944,7,0.083542296631312,1
734,945,7,0.0702184066181556,1
742,964,7,0.0703779382963047,1
742,965,7,0.0734887700815606,1
742,966,7,0.0688250411042347,1
743,964,7,0.0749976783630528,1
743,965,7,0.0824432567012649,1
743,966,7,0.0783079037817813,1
743,967,7,0.0722356311996571,1
744,964,7,0.0705648791867093,1
744,965,7,0.0735315550472818,1
744,966,7,0.0710142081785256,1
744,967,7,0.0684702726967445,1
745,969,7,0.0714634113850584,1
745,970,7,0.0868541392893999,1
746,969,7,0.0685447076357082,1
746,970,7,0.0787445584088396,1
746,971,7,0.0870533232807332,1
747,969,7,0.069679374749867,1
747,970,7,0.0766133064729442,1
747,971,7,0.081628946734892,1
747,972,7,0.0864011864834632,1
748,969,7,0.0723394040585568,1
748,970,7,0.0792482625817868,1
748,971,7,0.0812855648904475,1
748,972,7,0.0810696274973051,1
748,973,7,0.081193789551685,1
749,969,7,0.071127977972577,1
749,970,7,0.0772512235434016,1
749,971,7,0.0786349335393688,1
749,972,7,0.0744058945427683,1
749,973,7,0.0692227142729544,1
750,970,7,0.070136957652192,1
750,971,7,0.0720831854258127,1
750,972,7,0.0677712299682743,1
751,970,7,0.0679664487282892,1
751,971,7,0.0685553574563791,1
752,970,7,0.0684555917572257,1
752,971,7,0.0684576582297406,1
753,969,7,0.0678731220376967,1
753,970,7,0.0708284832125284,1
753,971,7,0.0699218648173818,1
754,969,7,0.0693259300827413,1
754,970,7,0.0729326673533665,1
754,971,7,0.0713395907478766,1
755,969,7,0.0687115588194028,1
755,970,7,0.0713747147908543,1
755,971,7,0.0705788293736286,1
755,972,7,0.0696424837231447,1
755,973,7,0.0738020712739189,1
755,974,7,0.0693573344751922,1
756,969,7,0.0757801107447179,1
756,970,7,0.0730583028924961,1
756,971,7,0.0688271015869742,1
756,972,7,0.0706997150208617,1
756,973,7,0.0747354999037802,1
757,968,7,0.0766403503088999,1
757,969,7,0.091416575174844,1
757,970,7,0.0824160571311487,1
757,971,7,0.0699977193331166,1
757,972,7,0.0696897250817676,1
757,973,7,0.0704617053053501,1
758,968,7,0.0782253586869186,1
758,969,7,0.0910353319600615,1
758,970,7,0.0821092308860037,1
758,971,7,0.0698615118403964,1
758,972,7,0.0694932424791422,1
758,973,7,0.068732582931076,1
759,967,7,0.0679304022598991,1
759,968,7,0.0714989367429882,1
759,969,7,0.0769073265782723,1
759,970,7,0.0740741148932842,1
759,971,7,0.0704366920032569,1
759,972,7,0.0708610795702849,1
759,973,7,0.0701830369943863,1
760,967,7,0.0730585664426139,1
760,968,7,0.0714180508159128,1
760,969,7,0.0717762693340366,1
760,970,7,0.0736239653022374,1
760,971,7,0.0746148718168896,1
760,972,7,0.0718398448101902,1
760,973,7,0.0685023898724686,1
761,967,7,0.0775778759451386,1
761,968,7,0.077695958377482,1
761,969,7,0.0769679970133542,1
761,970,7,0.0771499604003968,1
761,971,7,0.0775382056626282,1
761,972,7,0.071446047026158,1
762,967,7,0.0745250910733371,1
762,968,7,0.0767221646511631,1
762,969,7,0.076643572808068,1
762,970,7,0.0750143598875571,1
762,971,7,0.0751866737464215,1
762,972,7,0.0722003753816206,1
762,973,7,0.0681004400041095,1
763,967,7,0.0681623503227003,1
763,968,7,0.0712367403143894,1
763,969,7,0.073816889978272,1
763,970,7,0.0746460006796718,1
763,971,7,0.0758140128735128,1
763,972,7,0.0742929273786213,1
763,973,7,0.0709683684273476,1
764,969,7,0.0685714639624444,1
764,970,7,0.0730564580416712,1
764,971,7,0.0755921875311468,1
764,972,7,0.0730480124583495,1
764,973,7,0.0683213968290416,1
765,970,7,0.0681401342457215,1
765,971,7,0.0725310289533284,1
765,972,7,0.0710983645229724,1
731,943,8,0.0751535562782047,1
731,944,8,0.0742268960945514,1
732,942,8,0.0761081887130014,1
732,943,8,0.110936450591349,1
732,944,8,0.101602954943089,1
732,945,8,0.0702472593662837,1
733,942,8,0.0771878756787134,1
733,943,8,0.110006897346175,1
733,944,8,0.100731191051026,1
733,945,8,0.0723736835432023,1
734,943,8,0.0782735404402801,1
734,944,8,0.0770434861527893,1
734,945,8,0.0700812707102474,1
743,964,8,0.0679227533167064,1
743,965,8,0.0750073817992097,1
743,966,8,0.0727279907379863,1
746,970,8,0.0697613568058416,1
746,971,8,0.0797518769081029,1
747,970,8,0.0713844721349898,1
747,971,8,0.0763254079180806,1
747,972,8,0.0806678932608606,1
748,970,8,0.0776126885197952,1
748,971,8,0.0797658151154714,1
748,972,8,0.0749998885901775,1
748,973,8,0.0741537369777491,1
749,970,8,0.077458990882891,1
749,971,8,0.0800220636970926,1
749,972,8,0.0704918997631691,1
750,970,8,0.0710012163556711,1
750,971,8,0.0710342140283798,1
751,969,8,0.0682735265440012,1
751,970,8,0.0720012872266937,1
752,969,8,0.0691973535638876,1
752,970,8,0.0744310336301451,1
752,971,8,0.0695004182300779,1
753,969,8,0.0677858689793653,1
753,970,8,0.0740685983101358,1
753,971,8,0.0717963770100728,1
754,970,8,0.0724394991953575,1
754,971,8,0.0725382586122428,1
754,974,8,0.0698259625233649,1
755,970,8,0.0694025393101772,1
755,971,8,0.0709631393534186,1
755,972,8,0.0683995394389813,1
755,973,8,0.0710219589479003,1
755,974,8,0.0720894028126835,1
756,969,8,0.0715142346293738,1
756,970,8,0.0684519140351267,1
756,973,8,0.069801530229486,1
757,968,8,0.0733307957450169,1
757,969,8,0.0851095273559272,1
757,970,8,0.0764988718138228,1
757,973,8,0.0690257105598686,1
758,968,8,0.0764466589416134,1
758,969,8,0.0895113833525262,1
758,970,8,0.0801478849192597,1
758,971,8,0.0686779262305011,1
758,972,8,0.0693016714923492,1
758,973,8,0.0723745879992885,1
759,968,8,0.0710334653064542,1
759,969,8,0.0777143529777522,1
759,970,8,0.0731546364503422,1
759,971,8,0.069505545477825,1
759,972,8,0.0722027413429057,1
759,973,8,0.0756234062405601,1
760,967,8,0.0707410444711594,1
760,968,8,0.0713399681037272,1
760,969,8,0.0726339752232222,1
760,970,8,0.0718364545973108,1
760,971,8,0.0725339399841755,1
760,972,8,0.0719537463793006,1
760,973,8,0.0717243799096991,1
761,967,8,0.0758422786236512,1
761,968,8,0.0789458807499927,1
761,969,8,0.0784306223002884,1
761,970,8,0.0765011778773539,1
761,971,8,0.0772978239960561,1
761,972,8,0.0720680732224647,1
762,967,8,0.0758619071176549,1
762,968,8,0.0785664524371582,1
762,969,8,0.0769959992133748,1
762,970,8,0.0740548877142327,1
762,971,8,0.0756569250237291,1
762,972,8,0.0724134975803224,1
763,967,8,0.0700553110236402,1
763,968,8,0.0710880141910717,1
763,969,8,0.071172074699112,1
763,970,8,0.0728384961044417,1
763,971,8,0.0765355472086305,1
763,972,8,0.0746793816980064,1
763,973,8,0.0703043119770207,1
764,970,8,0.0731796677217616,1
764,971,8,0.0771789269542577,1
764,972,8,0.0736216173102784,1
764,973,8,0.0686061208029404,1
765,970,8,0.069048879011137,1
765,971,8,0.0746787527715889,1
765,972,8,0.0723077960137422,1
766,971,8,0.068462893293445,1
766,972,8,0.0695169260510954,1
781,967,8,0.0749923115242895,1
731,943,9,0.0680868671730407,1
731,944,9,0.0689698918428651,1
732,943,9,0.0920659147469996,1
732,944,9,0.0869410269714316,1
733,942,9,0.0686923795585545,1
733,943,9,0.089754256765667,1
733,944,9,0.0836349404875083,1
734,943,9,0.0678317506589711,1
734,944,9,0.0681462737655121,1
734,945,9,0.0690556234982435,1
746,971,9,0.0767421046134879,1
747,970,9,0.0679323609164567,1
747,971,9,0.0729554165203564,1
747,972,9,0.0774980981265133,1
748,970,9,0.0732353247148292,1
748,971,9,0.0777038948298942,1
748,972,9,0.0722443343433213,1
749,970,9,0.0751451047051075,1
749,971,9,0.0814776330285991,1
749,972,9,0.070087601902851,1
750,970,9,0.071776437047748,1
750,971,9,0.073960051600238,1
751,970,9,0.0731544627468554,1
751,971,9,0.068109843951496,1
752,970,9,0.0756229150789769,1
752,971,9,0.0693038158319443,1
753,970,9,0.0736282120529998,1
753,971,9,0.0721171953705649,1
754,970,9,0.0687108580156804,1
754,971,9,0.0716695914340653,1
754,972,9,0.0692321122305655,1
754,974,9,0.0696622200331057,1
755,971,9,0.0698371154851699,1
755,972,9,0.0717083991889173,1
755,973,9,0.0710816410700403,1
755,974,9,0.070610802794743,1
756,969,9,0.0680511621218487,1
756,973,9,0.0678194237011867,1
757,968,9,0.0677791544411357,1
757,969,9,0.0749055076991136,1
757,970,9,0.0684399644331928,1
757,973,9,0.0699474651174648,1
758,968,9,0.0739841963848974,1
758,969,9,0.081849562142626,1
758,970,9,0.0729436585912355,1
758,972,9,0.0679341099308751,1
758,973,9,0.0753737164630079,1
758,974,9,0.0712517087631277,1
759,968,9,0.0742011520398587,1
759,969,9,0.0778954119087085,1
759,970,9,0.0704691326268529,1
759,972,9,0.0701568916247414,1
759,973,9,0.0770085717519508,1
759,974,9,0.0703263842993899,1
760,967,9,0.0686374293589848,1
760,968,9,0.0753729917001839,1
760,969,9,0.0755286420038703,1
760,970,9,0.0703054200854707,1
760,971,9,0.0688868855352962,1
760,972,9,0.0694818079978931,1
760,973,9,0.071076879198593,1
761,967,9,0.0725905912799604,1
761,968,9,0.0808457237028734,1
761,969,9,0.0784718858630567,1
761,970,9,0.0734448770073894,1
761,971,9,0.0754201731610527,1
761,972,9,0.0749623925961393,1
761,973,9,0.0696387820419441,1
762,967,9,0.0756746847078063,1
762,968,9,0.0813436657118805,1
762,969,9,0.0770637315936598,1
762,970,9,0.0720826283767,1
762,971,9,0.0773605249650005,1
762,972,9,0.0784193794918524,1
762,973,9,0.0708623673719971,1
763,967,9,0.0715553604273077,1
763,968,9,0.0722441127216313,1
763,969,9,0.0694276184997999,1
763,970,9,0.0701176885447127,1
763,971,9,0.0765457897245738,1
763,972,9,0.077173775747409,1
763,973,9,0.071591646486714,1
764,970,9,0.0715403680194678,1
764,971,9,0.0770697153792898,1
764,972,9,0.0744114650338954,1
764,973,9,0.0701678948421613,1
765,970,9,0.0678875034884452,1
765,971,9,0.074667216464158,1
765,972,9,0.0723410931752212,1
765,973,9,0.0681379899061263,1
766,971,9,0.0679554275415432,1
766,972,9,0.068692888689464,1
780,967,9,0.0690447101274548,1
781,967,9,0.0799165957317531,1
732,943,10,0.0728449890209813,1
732,944,10,0.0720032398934759,1
733,943,10,0.071995219584208,1
733,944,10,0.0711706790814425,1
747,971,10,0.0680286705152012,1
748,971,10,0.0719093441742198,1
749,970,10,0.0699578274289162,1
749,971,10,0.0780751590788511,1
750,970,10,0.070283293855123,1
750,971,10,0.0742019367004369,1
751,970,10,0.0718631809751699,1
752,970,10,0.0742670215999926,1
753,970,10,0.0705966729145615,1
753,971,10,0.0693124111596512,1
754,972,10,0.0728542671830843,1
754,973,10,0.074053282454424,1
754,974,10,0.0683887039352729,1
755,972,10,0.0712973628312681,1
755,973,10,0.0715574149202718,1
757,973,10,0.0687675093114653,1
757,974,10,0.0703862461147921,1
758,968,10,0.068966980812018,1
758,969,10,0.0723639321888422,1
758,973,10,0.075137533628995,1
758,974,10,0.0766565646309225,1
759,968,10,0.0760462963637367,1
759,969,10,0.0768453144334995,1
759,970,10,0.069051790041984,1
759,973,10,0.0740998829070786,1
759,974,10,0.072919010665442,1
760,968,10,0.0768914956018756,1
760,969,10,0.0759358688643616,1
760,970,10,0.06929769428148,1
760,972,10,0.0678567819303906,1
760,973,10,0.0688526899075064,1
761,968,10,0.0789361713240605,1
761,969,10,0.0750692501893727,1
761,970,10,0.0695848321348671,1
761,971,10,0.0742660033381737,1
761,972,10,0.0805936320253836,1
761,973,10,0.0722794464067481,1
762,967,10,0.0742368031830721,1
762,968,10,0.080378311579108,1
762,969,10,0.0734583120736238,1
762,970,10,0.0688554931223961,1
762,971,10,0.0793961082081199,1
762,972,10,0.0876054847367106,1
762,973,10,0.0752182638219099,1
763,967,10,0.0759695373919157,1
763,968,10,0.0737360938978277,1
763,971,10,0.0754682710575586,1
763,972,10,0.0801460220991086,1
763,973,10,0.0719518895489249,1
764,967,10,0.0710289609953492,1
764,970,10,0.0695984289250375,1
764,971,10,0.0771738715838155,1
764,972,10,0.0768202711825293,1
764,973,10,0.0720297386598697,1
765,971,10,0.0758914786388317,1
765,972,10,0.0743181203739767,1
765,973,10,0.0698233330119619,1
781,967,10,0.0715841293185801,1
748,971,11,0.0697821113776215,1
749,970,11,0.068766071765368,1
749,971,11,0.075194053149721,1
750,970,11,0.0708521907435832,1
750,971,11,0.0751639485385331,1
751,970,11,0.0720069295951257,1
751,971,11,0.0708701241311471,1
752,970,11,0.0735987603273312,1
752,971,11,0.0693162925341139,1
753,970,11,0.0682642963001014,1
753,972,11,0.0685644319661184,1
753,973,11,0.0731665321442974,1
754,972,11,0.0715346058555278,1
754,973,11,0.0780775430094625,1
755,973,11,0.0715750308497392,1
757,974,11,0.0700726154847865,1
758,973,11,0.0713465209180208,1
758,974,11,0.0759996719519806,1
759,968,11,0.0733371269376205,1
759,969,11,0.0731790268157932,1
759,973,11,0.0682755151494358,1
759,974,11,0.070805506434073,1
760,968,11,0.0749445310858802,1
760,969,11,0.074587282911372,1
760,970,11,0.0704459462062584,1
761,968,11,0.0743143827541237,1
761,969,11,0.0720349557542479,1
761,970,11,0.069863278824141,1
761,971,11,0.0745570764740023,1
761,972,11,0.083325346966126,1
761,973,11,0.0717775631255242,1
762,967,11,0.0709111780517762,1
762,968,11,0.0752790540525,1
762,969,11,0.0703303435409329,1
762,970,11,0.0687373388127479,1
762,971,11,0.0790378058331404,1
762,972,11,0.0892710316348311,1
762,973,11,0.0744315667201562,1
763,967,11,0.076518757868169,1
763,968,11,0.0727265591816644,1
763,971,11,0.0722015493776,1
763,972,11,0.0774810991439125,1
764,967,11,0.0728028269919022,1
764,971,11,0.0733819723860812,1
764,972,11,0.0742644939147715,1
764,973,11,0.068040116976001,1
765,971,11,0.073950390092509,1
765,972,11,0.07295731527916,1
769,968,11,0.067745078608854,1
770,967,11,0.0751758622018146,1
770,968,11,0.068973258096643,1
771,967,11,0.0800967801555003,1
772,967,11,0.0689401406284262,1
749,970,12,0.0688685568225554,1
749,971,12,0.0725199298995021,1
750,970,12,0.0710311352838214,1
750,971,12,0.0745223237970998,1
751,970,12,0.0721241015816074,1
751,971,12,0.0739549722706941,1
752,970,12,0.0716428470868799,1
752,971,12,0.0702348126129911,1
753,973,12,0.0726588088320532,1
754,972,12,0.0691596658970364,1
754,973,12,0.076787147724537,1
755,973,12,0.0691275307519861,1
758,974,12,0.0727803533545809,1
759,969,12,0.0687217953455708,1
759,974,12,0.0686731583692784,1
760,968,12,0.0699492500705356,1
760,969,12,0.073850690280885,1
760,970,12,0.0736654385071448,1
760,971,12,0.0680344626280183,1
761,968,12,0.0686280314013736,1
761,969,12,0.071703697215224,1
761,970,12,0.0745568009443336,1
761,971,12,0.0758107005277136,1
761,972,12,0.0796499369204773,1
761,973,12,0.0685020185063934,1
762,968,12,0.0679500906516569,1
762,970,12,0.0700916809399021,1
762,971,12,0.0752470686518348,1
762,972,12,0.0803771974808826,1
762,973,12,0.0684215518635964,1
763,967,12,0.0726798748721542,1
763,968,12,0.0693153521393753,1
763,971,12,0.0679443404672676,1
763,972,12,0.070357614988354,1
764,967,12,0.070985984356815,1
764,971,12,0.0679577455846251,1
764,972,12,0.0682102146179654,1
765,971,12,0.0692447087282432,1
765,972,12,0.0679972241943225,1
769,968,12,0.0698022549923101,1
770,967,12,0.0781542121346525,1
770,968,12,0.0725792885737703,1
771,967,12,0.0920920780859706,1
771,968,12,0.0713359309951039,1
772,967,12,0.0789379383078051,1
749,970,13,0.0749931381132955,1
749,971,13,0.0741945393278111,1
750,970,13,0.0786263801400898,1
750,971,13,0.0778399645577802,1
751,970,13,0.0758866628594057,1
751,971,13,0.0787665229152515,1
752,970,13,0.0707082324814882,1
752,971,13,0.0744438158108603,1
752,972,13,0.067969755084313,1
753,971,13,0.0693117642639074,1
753,972,13,0.0717430500396379,1
753,973,13,0.0711104099613128,1
754,972,13,0.0699112569251387,1
754,973,13,0.0725866500077436,1
758,974,13,0.0679622558855054,1
760,969,13,0.0702975435308126,1
760,970,13,0.0730185727122316,1
760,971,13,0.0679926839445652,1
761,969,13,0.0708252187849324,1
761,970,13,0.0763295887813136,1
761,971,13,0.0735754481214531,1
761,972,13,0.0724943954869486,1
762,970,13,0.069623490145334,1
762,971,13,0.0694860966770834,1
762,972,13,0.0689020636261736,1
769,968,13,0.0722404589586339,1
769,969,13,0.0686708642852981,1
770,967,13,0.0743635827693041,1
770,968,13,0.0748031663965358,1
770,969,13,0.0678914567402128,1
771,967,13,0.0882342614098992,1
771,968,13,0.0725599415992106,1
772,967,13,0.07867239958453,1
749,969,14,0.0683117592804143,1
749,970,14,0.0813065890021207,1
749,971,14,0.0741153005889722,1
750,969,14,0.0692442594950878,1
750,970,14,0.0877505271481539,1
750,971,14,0.0799248496422619,1
751,970,14,0.0797999807943841,1
751,971,14,0.079917584044695,1
752,970,14,0.070043918470819,1
752,971,14,0.0772302892783595,1
752,972,14,0.0751459911918676,1
753,971,14,0.0733403793856656,1
753,972,14,0.0765835372891791,1
753,973,14,0.0685475467892504,1
754,971,14,0.0677622812438186,1
754,972,14,0.0700007920878996,1
748,970,15,0.0684226000742924,1
749,969,15,0.0722923483829715,1
749,970,15,0.086107178357686,1
749,971,15,0.0740147322599145,1
750,969,15,0.0742462310895603,1
750,970,15,0.0937578945239844,1
750,971,15,0.0806813043679934,1
751,969,15,0.0681222308070345,1
751,970,15,0.0825805243842319,1
751,971,15,0.0782418784874868,1
751,972,15,0.0689055017572563,1
752,970,15,0.0725717893749626,1
752,971,15,0.0783680171677505,1
752,972,15,0.0796108716052828,1
753,970,15,0.0717759339066139,1
753,971,15,0.0789003764262374,1
753,972,15,0.0808941031188233,1
753,973,15,0.0678388365632758,1
754,970,15,0.0702004971896932,1
754,971,15,0.0748075149734801,1
754,972,15,0.0738865091378097,1
749,970,16,0.0827694239311941,1
749,971,16,0.0703277379886315,1
750,969,16,0.0768485908406463,1
750,970,16,0.0911247892557421,1
750,971,16,0.0772209272594008,1
751,969,16,0.070100336165363,1
751,970,16,0.0812274041712604,1
751,971,16,0.075688197641121,1
751,972,16,0.0677683728454059,1
752,970,16,0.075566707026572,1
752,971,16,0.0827922749243659,1
752,972,16,0.0817647409331093,1
753,970,16,0.077945186942328,1
753,971,16,0.0905161322381404,1
753,972,16,0.0880531425811888,1
753,973,16,0.0679223999199574,1
754,970,16,0.0747282822244167,1
754,971,16,0.0860058493271518,1
754,972,16,0.0824045627521456,1
755,971,16,0.0693578675652033,1
750,970,17,0.0840695526011534,1
750,971,17,0.0741650576532654,1
751,969,17,0.0735400904772346,1
751,970,17,0.0807130022594391,1
751,971,17,0.0779907212149603,1
751,972,17,0.0706608413784802,1
752,969,17,0.0685371425493711,1
752,970,17,0.0813942433754042,1
752,971,17,0.0903210752020615,1
752,972,17,0.0842114503805089,1
752,973,17,0.0694788250897412,1
753,970,17,0.0825173622025813,1
753,971,17,0.0980003266583915,1
753,972,17,0.0905784977796621,1
753,973,17,0.0693944231645028,1
754,970,17,0.0735919679220214,1
754,971,17,0.0867114568494663,1
754,972,17,0.0821405454318235,1
750,970,18,0.078160483429502,1
750,971,18,0.0732262382255391,1
750,972,18,0.0682408343498381,1
751,969,18,0.0767056628199211,1
751,970,18,0.0808963373050496,1
751,971,18,0.0823084328466633,1
751,972,18,0.0762833297458572,1
751,973,18,0.0682517716797285,1
752,969,18,0.0721972487188589,1
752,970,18,0.0847776398904858,1
752,971,18,0.0949750588148027,1
752,972,18,0.0871091779363892,1
752,973,18,0.0712876354360096,1
753,970,18,0.0815352486782243,1
753,971,18,0.0966379043242153,1
753,972,18,0.0887049978590147,1
753,973,18,0.0694253423851458,1
754,971,18,0.0784633504331039,1
754,972,18,0.0749491312333915,1
749,972,19,0.0704206633642719,1
750,970,19,0.0783097785814832,1
750,971,19,0.0756622259749629,1
750,972,19,0.0738194176634931,1
750,973,19,0.0703839879694642,1
751,969,19,0.0772746016368092,1
751,970,19,0.0801862374511809,1
751,971,19,0.0819363120598234,1
751,972,19,0.0794161440068512,1
751,973,19,0.0717306152658962,1
752,969,19,0.0707015419023603,1
752,970,19,0.0799013757124478,1
752,971,19,0.0865303739594083,1
752,972,19,0.0825641363587226,1
752,973,19,0.0705853103106173,1
753,970,19,0.0734459072487591,1
753,971,19,0.0822006588177928,1
753,972,19,0.0781853409974347,1
754,971,19,0.0681961206764364,1
749,972,20,0.0746135061480972,1
750,970,20,0.0818420809131446,1
750,971,20,0.0806663119601535,1
750,972,20,0.0806472704641396,1
750,973,20,0.0752501054679653,1
751,969,20,0.0797470850877785,1
751,970,20,0.0836569049939201,1
751,971,20,0.0908404905558972,1
751,972,20,0.0912870702408024,1
751,973,20,0.0786121364541756,1
751,974,20,0.0711806460677172,1
752,970,20,0.077016580081668,1
752,971,20,0.0882889001411479,1
752,972,20,0.0884787880010519,1
752,973,20,0.0741305505571545,1
753,971,20,0.0746683125930571,1
753,972,20,0.0734867994454522,1
750,971,21,0.0803751609572447,1
750,972,21,0.081748059408605,1
750,973,21,0.0769237026242308,1
751,970,21,0.080191113128361,1
751,971,21,0.0920836205230981,1
751,972,21,0.0947979591253893,1
751,973,21,0.0813215933895114,1
751,974,21,0.072460349603544,1
752,970,21,0.0732255194524904,1
752,971,21,0.0895425002357576,1
752,972,21,0.092106561362901,1
752,973,21,0.0769465955458305,1
753,971,21,0.0715978998122373,1
753,972,21,0.0717270273904283,1
760,909,21,0.0753167297398003,1
750,971,22,0.076867302899013,1
750,972,22,0.0792843569683801,1
751,970,22,0.0734552512983916,1
751,971,22,0.0867056587468738,1
751,972,22,0.0914158264529183,1
751,973,22,0.079099638284651,1
752,971,22,0.0852230036509837,1
752,972,22,0.0890621801459933,1
752,973,22,0.0746623887051811,1
753,972,22,0.0679018729596429,1
760,909,22,0.0717085908617303,1
761,909,22,0.0747090790044667,1
751,971,23,0.0759324067741772,1
751,972,23,0.0788584000801959,1
752,971,23,0.0736252111755217,1
752,972,23,0.0760114119117753,1
761,909,23,0.0724500951080498,1
747,921,34,0.0753148908787508,1
735,951,35,0.075582100749364,1
736,950,35,0.0700327834783402,1
736,951,35,0.076784871609883,1
736,952,35,0.0783484246123992,1
737,953,35,0.0683482430024089,1
747,921,35,0.0748944026555118,1
734,951,36,0.0806922776365362,1
735,950,36,0.0751860567995547,1
735,951,36,0.0849434788021369,1
735,952,36,0.0876638491082614,1
736,950,36,0.0730348349524575,1
736,951,36,0.0853722089563339,1
736,952,36,0.0898436661431443,1
736,953,36,0.0841809204952672,1
737,950,36,0.0704906419103339,1
737,951,36,0.0780203825827682,1
737,952,36,0.0815839156033937,1
737,953,36,0.0768790248894815,1
738,949,36,0.0677699721154392,1
738,951,36,0.068303822828002,1
738,952,36,0.0694992921523017,1
738,953,36,0.0678053477289838,1
741,934,36,0.0738096483398068,1
741,935,36,0.0727123694037289,1
742,934,36,0.0755775664893821,1
742,935,36,0.0771466959728009,1
745,923,36,0.0713801834557995,1
746,922,36,0.0685444740344674,1
734,950,37,0.0798860957953885,1
734,951,37,0.0839127702299154,1
734,952,37,0.0826567622455927,1
735,949,37,0.0699913701711868,1
735,950,37,0.0803829296959456,1
735,951,37,0.0907137588878683,1
735,952,37,0.0934395559305102,1
735,953,37,0.0885184223449099,1
736,950,37,0.0763737034771748,1
736,951,37,0.0928476343453913,1
736,952,37,0.101521997138708,1
736,953,37,0.0934697443985537,1
736,954,37,0.0820964067768606,1
737,950,37,0.071027110154749,1
737,951,37,0.0834303177801068,1
737,952,37,0.0928969062378767,1
737,953,37,0.0866213346887157,1
737,954,37,0.0755264677153981,1
738,951,37,0.0704867964745236,1
738,952,37,0.0748744147749838,1
738,953,37,0.0730145056547313,1
741,934,37,0.0789098282918272,1
741,935,37,0.0764568774984551,1
742,933,37,0.0677743805901376,1
742,934,37,0.0821044091168023,1
742,935,37,0.0827453989420427,1
743,934,37,0.0692192641623208,1
743,935,37,0.071987612569443,1
734,950,38,0.0813212399927624,1
734,951,38,0.0837475662344573,1
734,952,38,0.0826870046216149,1
735,949,38,0.074189633701754,1
735,950,38,0.0871321427352937,1
735,951,38,0.0939978808653797,1
735,952,38,0.0961609265291274,1
735,953,38,0.0912099279233554,1
735,954,38,0.0889116091718508,1
736,949,38,0.0708275787564421,1
736,950,38,0.0825451188218102,1
736,951,38,0.0988417463482496,1
736,952,38,0.112125936130019,1
736,953,38,0.103039638512742,1
736,954,38,0.0906427680697628,1
736,955,38,0.0871708905923917,1
737,950,38,0.073542252786156,1
737,951,38,0.0875806391483287,1
737,952,38,0.103587391494021,1
737,953,38,0.097654003834223,1
737,954,38,0.0857727512274727,1
738,951,38,0.0708683990758304,1
738,952,38,0.0788188795420706,1
738,953,38,0.0788493674988845,1
741,934,38,0.0751561558407306,1
741,935,38,0.0726382040046584,1
742,933,38,0.0689184756107846,1
742,934,38,0.0783814342646588,1
742,935,38,0.0771813468235215,1
743,935,38,0.0697505272919085,1
772,912,38,0.0754627484846347,1
773,912,38,0.0851072153026207,1
773,913,38,0.0738312953881221,1
734,950,39,0.0843134382863377,1
734,951,39,0.0849595613491006,1
735,949,39,0.0794888658700489,1
735,950,39,0.0954784515194287,1
735,951,39,0.0975845823372736,1
735,952,39,0.0988520547517224,1
735,953,39,0.0930987976076933,1
735,954,39,0.0940624805931277,1
736,949,39,0.0764167280339123,1
736,950,39,0.0917017364023473,1
736,951,39,0.104430560198297,1
736,952,39,0.118881803809842,1
736,953,39,0.108625487423963,1
736,954,39,0.0992078953290102,1
736,955,39,0.0922525681281847,1
737,950,39,0.0799099770299301,1
737,951,39,0.0930134552877162,1
737,952,39,0.11198340343447,1
737,953,39,0.10579160488413,1
737,954,39,0.0966395155737994,1
737,955,39,0.087218419460234,1
738,952,39,0.0857819754815971,1
738,953,39,0.0865585199140386,1
738,954,39,0.0853640988004349,1
742,934,39,0.0697214948505182,1
742,935,39,0.0679742234567655,1
755,953,39,0.0700317053187672,1
756,953,39,0.0723604401497808,1
756,954,39,0.0707276273742511,1
771,912,39,0.0722679640072958,1
772,911,39,0.0918350747926484,1
772,912,39,0.107904689831221,1
772,913,39,0.0748985176312154,1
773,911,39,0.0824088454415605,1
773,912,39,0.103170575003105,1
773,913,39,0.0779653065979149,1
774,912,39,0.0706838900342404,1
735,950,40,0.0992249781684666,1
735,951,40,0.0991011036233062,1
735,952,40,0.0972999601895568,1
735,953,40,0.0935483721803013,1
735,954,40,0.0974823009324499,1
736,950,40,0.0969575127500755,1
736,951,40,0.104593158641454,1
736,952,40,0.112809213769622,1
736,953,40,0.106198214797755,1
736,954,40,0.102111510834114,1
736,955,40,0.0967393351809315,1
737,951,40,0.0953062754253986,1
737,952,40,0.10956025177374,1
737,953,40,0.106629754156617,1
737,954,40,0.102513772170794,1
737,955,40,0.0957771676086746,1
737,956,40,0.0907332915454656,1
738,952,40,0.0904956771551308,1
738,953,40,0.092040038917248,1
738,954,40,0.0933270080506415,1
738,955,40,0.0909418076068806,1
738,956,40,0.0866510559542776,1
739,953,40,0.0771927214070165,1
739,954,40,0.0792191702426425,1
758,926,40,0.0739937141380167,1
758,927,40,0.0829068892767495,1
759,926,40,0.0782274910469629,1
759,927,40,0.0882970761845763,1
771,911,40,0.0775560851422136,1
771,912,40,0.0835757674962777,1
772,911,40,0.109318444540622,1
772,912,40,0.12293138314552,1
772,913,40,0.0715060346268437,1
773,911,40,0.084453131828344,1
773,912,40,0.0994456414944039,1
735,952,41,0.09498159365977,1
735,953,41,0.0947191815992566,1
735,954,41,0.0978072941663996,1
736,951,41,0.0980707005296303,1
736,952,41,0.101285616642107,1
736,953,41,0.0998766837019074,1
736,954,41,0.100330511015053,1
736,955,41,0.0996056523545855,1
736,956,41,0.0976425513836477,1
737,951,41,0.0922745745630243,1
737,952,41,0.100297058119414,1
737,953,41,0.101946300848881,1
737,954,41,0.105270063160025,1
737,955,41,0.107079119087085,1
737,956,41,0.101876172558433,1
737,957,41,0.0920500178830734,1
738,952,41,0.0917197656263178,1
738,953,41,0.0950985320450109,1
738,954,41,0.101246024226677,1
738,955,41,0.106327198621336,1
738,956,41,0.100040018887439,1
738,957,41,0.0861045248871814,1
739,953,41,0.0827308797264599,1
739,954,41,0.0858177164714415,1
739,955,41,0.0896548564428133,1
739,956,41,0.0855559572964473,1
758,926,41,0.0769863916136244,1
758,927,41,0.085473256467424,1
759,926,41,0.0831619578726158,1
759,927,41,0.0927350804757473,1
770,911,41,0.0744589100448821,1
771,911,41,0.0950716439432158,1
771,912,41,0.0938864950019397,1
772,911,41,0.113631382321326,1
772,912,41,0.120366237869028,1
773,911,41,0.0783520484265195,1
773,912,41,0.0876568231017108,1
734,952,42,0.0924701287504619,1
734,953,42,0.0970968528953328,1
735,951,42,0.0931242601429419,1
735,952,42,0.0963555163627247,1
735,953,42,0.0984251993972273,1
735,954,42,0.0977219278873209,1
736,951,42,0.0934909122648366,1
736,952,42,0.0973077648669101,1
736,953,42,0.0988121149293187,1
736,954,42,0.100153363407437,1
736,955,42,0.10164448804575,1
736,956,42,0.0994061509051557,1
737,952,42,0.0962666221059322,1
737,953,42,0.10024470748237,1
737,954,42,0.109287752931444,1
737,955,42,0.119171732898568,1
737,956,42,0.113881503362708,1
737,957,42,0.093454901735099,1
738,952,42,0.0935682163062196,1
738,953,42,0.0977406519252384,1
738,954,42,0.108859280337589,1
738,955,42,0.121155594431061,1
738,956,42,0.11453684468982,1
738,957,42,0.0902309530413109,1
739,947,42,0.0752860081817457,1
739,953,42,0.0862590491130916,1
739,954,42,0.0912631171289559,1
739,955,42,0.0978616214293272,1
739,956,42,0.0931134545881105,1
740,941,42,0.0686248089022055,1
740,948,42,0.0775300056600982,1
758,927,42,0.0696935525482517,1
759,926,42,0.0695668089006721,1
759,927,42,0.0761091171281892,1
769,911,42,0.0756739240063298,1
770,910,42,0.0698888731344485,1
770,911,42,0.0992445228056146,1
770,912,42,0.0793453628308848,1
771,911,42,0.105242929477439,1
771,912,42,0.093351021060242,1
772,911,42,0.0945600931644875,1
772,912,42,0.0948823311017507,1
773,912,42,0.0713505520368686,1
734,952,43,0.0966418755453091,1
734,953,43,0.100134717236599,1
735,951,43,0.0905861047944271,1
735,952,43,0.100195974669671,1
735,953,43,0.104252580011899,1
735,954,43,0.0987576499015568,1
736,951,43,0.0902449032282302,1
736,952,43,0.0987157634021464,1
736,953,43,0.102306046759733,1
736,954,43,0.101349216077362,1
736,955,43,0.101801432140924,1
736,956,43,0.0982352815884463,1
737,952,43,0.0943732900389172,1
737,953,43,0.0986160755700733,1
737,954,43,0.108744851668243,1
737,955,43,0.122425163266902,1
737,956,43,0.118374805260422,1
737,957,43,0.0950018151415389,1
738,952,43,0.0922568927460274,1
738,953,43,0.0965504296441939,1
738,954,43,0.109146669761544,1
738,955,43,0.124979407152156,1
738,956,43,0.121344452049596,1
738,957,43,0.0957011513690039,1
739,953,43,0.0879204450968561,1
739,954,43,0.0938141804434695,1
739,955,43,0.100645285692161,1
739,956,43,0.097322433826878,1
740,942,43,0.075475057473093,1
740,943,43,0.077430509500838,1
740,947,43,0.0783936773655875,1
741,942,43,0.0719942133019399,1
741,943,43,0.0741450817522882,1
741,944,43,0.0746492651072678,1
742,943,43,0.0700168985939649,1
742,944,43,0.0708895968909903,1
769,911,43,0.0805199877367734,1
770,910,43,0.072534892358465,1
770,911,43,0.108780095506729,1
770,912,43,0.0832057191717281,1
771,911,43,0.100419051875097,1
771,912,43,0.0824737266887525,1
734,952,44,0.0980232076004404,1
734,953,44,0.0986795671893712,1
735,951,44,0.0892633527427613,1
735,952,44,0.102417947743858,1
735,953,44,0.107259950406576,1
735,954,44,0.0969754401478641,1
736,951,44,0.0878546833526795,1
736,952,44,0.099402934395763,1
736,953,44,0.104948208568388,1
736,954,44,0.100131866103506,1
736,955,44,0.0963570916736563,1
736,956,44,0.090599605748191,1
737,952,44,0.0915496080865993,1
737,953,44,0.0960899057621448,1
737,954,44,0.10321674419193,1
737,955,44,0.115157433340029,1
737,956,44,0.111553062030689,1
737,957,44,0.0909226882437864,1
738,953,44,0.0923299859753003,1
738,954,44,0.102564409732072,1
738,955,44,0.117460993145014,1
738,956,44,0.115851995716496,1
738,957,44,0.0944988596905174,1
739,952,44,0.0819498549420151,1
739,953,44,0.0869519762808727,1
739,954,44,0.0920968878756212,1
739,955,44,0.0967675769719682,1
739,956,44,0.0935534215609681,1
740,953,44,0.077264377090192,1
740,954,44,0.0776643922610952,1
769,911,44,0.0735112197597803,1
770,911,44,0.0979058319615949,1
770,912,44,0.0762494575659393,1
771,911,44,0.0839952314679224,1
771,912,44,0.0684696557498777,1
734,952,45,0.0990258361055611,1
734,953,45,0.0981187564977084,1
735,951,45,0.0900352371299373,1
735,952,45,0.104574410644435,1
735,953,45,0.110603718567575,1
735,954,45,0.0971289880403832,1
736,952,45,0.100344760690743,1
736,953,45,0.108030475114735,1
736,954,45,0.0996060955979655,1
737,953,45,0.0953900544139949,1
737,954,45,0.0976484992306253,1
737,955,45,0.102117081325241,1
737,956,45,0.0961629211243374,1
738,953,45,0.0879358747583006,1
738,954,45,0.0940454037434467,1
738,955,45,0.102098357287324,1
738,956,45,0.0992831808160815,1
739,953,45,0.0848614488279591,1
739,954,45,0.0885242623759302,1
739,955,45,0.0884525168461235,1
740,954,45,0.0755805553873094,1
770,911,45,0.0699904477457744,1
735,952,46,0.0991863201579997,1
735,953,46,0.104607366388716,1
736,953,46,0.102619455768048,1
738,954,46,0.084939417734412,1
738,955,46,0.0865078344345575,1
739,954,46,0.0822526680376384,1
756,931,46,0.070375003306356,1
756,932,46,0.0693559388575227,1
779,913,46,0.0680878015780039,1
779,914,46,0.073817423068283,1
784,914,46,0.0729053659570684,1
755,931,47,0.070361160935394,1
756,931,47,0.0863015465695933,1
756,932,47,0.0746954582551947,1
757,931,47,0.0686636585854853,1
757,932,47,0.069235220924001,1
779,914,47,0.0730406270652746,1
784,914,47,0.0761469365700993,1
785,914,47,0.068681040913712,1
755,931,48,0.0724448181159176,1
756,930,48,0.0730672516169519,1
756,931,48,0.0906357720120892,1
756,932,48,0.07176420592637,1
757,931,48,0.0731500183335046,1
784,914,48,0.0699313705909503,1
785,913,48,0.0681508200050448,1
785,914,48,0.0698607750980215,1
756,930,49,0.0688292758754464,1
756,931,49,0.0783318209549753,1
783,914,49,0.0679828068049215,1
786,922,56,0.0689832969602225,1
