x,y,z,signal,cytoplasm.p
73,786,1,0.113358308460591,1
74,785,1,0.103854811006773,1
74,786,1,0.114536425405541,1
74,787,1,0.120426075725328,1
75,782,1,0.0961304325825381,1
75,783,1,0.09476103814979,1
75,785,1,0.103976894609087,1
75,786,1,0.113149768440075,1
75,787,1,0.115215821670682,1
76,777,1,0.0831787651824035,1
76,778,1,0.0897160060599277,1
76,779,1,0.0915824260660459,1
76,780,1,0.0982039730324019,1
76,781,1,0.108702036753645,1
76,782,1,0.108963789938864,1
76,783,1,0.100681296221899,1
76,784,1,0.0966056194347799,1
76,785,1,0.100978448979764,1
76,786,1,0.107111439915173,1
77,777,1,0.0836552578056836,1
77,778,1,0.0904128026226208,1
77,779,1,0.0940568442144711,1
77,780,1,0.101428796233399,1
77,781,1,0.110407984686876,1
77,782,1,0.110130430474137,1
77,783,1,0.103104663514543,1
77,784,1,0.098958648794838,1
77,785,1,0.0997000931434035,1
77,786,1,0.102715783336119,1
77,787,1,0.103620215463243,1
77,788,1,0.101182484689176,1
78,777,1,0.0851580565162623,1
78,778,1,0.0908738655844564,1
78,779,1,0.0950022643746943,1
78,780,1,0.10052664022093,1
78,781,1,0.105410295781818,1
78,782,1,0.105596769469741,1
78,783,1,0.105612486640405,1
78,784,1,0.106178520416221,1
78,785,1,0.103398030734352,1
78,786,1,0.1005313721435,1
78,787,1,0.099561741311088,1
78,788,1,0.0960265159690287,1
78,789,1,0.0902611834377822,1
78,790,1,0.0854725736330278,1
78,791,1,0.0859789252867042,1
78,792,1,0.0939094178724164,1
78,793,1,0.101634772630042,1
79,778,1,0.0905552993795168,1
79,779,1,0.095422614833099,1
79,780,1,0.0997737014933612,1
79,781,1,0.101127678244216,1
79,782,1,0.101901125962773,1
79,783,1,0.1085433077054,1
79,784,1,0.11563577680391,1
79,785,1,0.110093329805276,1
79,786,1,0.0985244739347975,1
79,787,1,0.0930489686660952,1
79,788,1,0.089010278742105,1
79,789,1,0.0843253160109668,1
79,790,1,0.080991095551964,1
79,791,1,0.0829069371949527,1
79,792,1,0.0931546402837984,1
79,793,1,0.102020885532229,1
79,794,1,0.0971066162292438,1
80,778,1,0.088489144322728,1
80,779,1,0.0944185068534531,1
80,780,1,0.0981173848391405,1
80,781,1,0.0971387873129465,1
80,782,1,0.0964462973987699,1
80,783,1,0.103100350876251,1
80,784,1,0.112128715385807,1
80,785,1,0.108530501565584,1
80,786,1,0.094348941601894,1
80,787,1,0.0858896297149595,1
80,788,1,0.0814396279036514,1
80,789,1,0.0781267010962152,1
80,790,1,0.0756393630022403,1
80,791,1,0.0782127262505884,1
80,792,1,0.0886563548929469,1
80,793,1,0.0954876398349007,1
80,794,1,0.0866985189345905,1
80,795,1,0.0698989119980281,1
81,775,1,0.076546855904596,1
81,776,1,0.0826511198771607,1
81,777,1,0.0851209798065025,1
81,778,1,0.0893872212981463,1
81,779,1,0.097501743743416,1
81,780,1,0.103261859180284,1
81,781,1,0.101699318449812,1
81,782,1,0.0990815230475057,1
81,783,1,0.101218231668796,1
81,784,1,0.107144299823048,1
81,785,1,0.107238890356251,1
81,786,1,0.0946225186037632,1
81,787,1,0.0826413864921269,1
81,788,1,0.0766440040718972,1
81,789,1,0.0744142203305819,1
81,790,1,0.0711936977883258,1
81,791,1,0.0712080972084005,1
81,792,1,0.0774752770822184,1
81,793,1,0.0814593941624895,1
81,794,1,0.0743461105944464,1
81,796,1,0.0734853918482319,1
81,797,1,0.11154968379736,1
81,798,1,0.141362317393311,1
82,774,1,0.0755908098828036,1
82,775,1,0.0881764840363381,1
82,776,1,0.0958632766199036,1
82,777,1,0.0955906280332223,1
82,778,1,0.0920977204544026,1
82,779,1,0.0982380129260312,1
82,780,1,0.107221663762185,1
82,781,1,0.106576756623829,1
82,782,1,0.103672649957142,1
82,783,1,0.104575009621975,1
82,784,1,0.108590734747061,1
82,785,1,0.110461689013161,1
82,786,1,0.0970082581273106,1
82,787,1,0.0802946164473674,1
82,788,1,0.0712157042231654,1
82,789,1,0.0681989238913261,1
82,796,1,0.0752053738252373,1
82,797,1,0.115598172993914,1
82,798,1,0.143871506187965,1
82,799,1,0.125729410889776,1
83,773,1,0.0688092280971643,1
83,774,1,0.0805325902242265,1
83,775,1,0.0955681244470239,1
83,776,1,0.110384217258067,1
83,777,1,0.111100941803534,1
83,778,1,0.0975639475610018,1
83,779,1,0.0951654318465145,1
83,780,1,0.103090347951324,1
83,781,1,0.101493988948912,1
83,782,1,0.0960584354821645,1
83,783,1,0.0970553856802008,1
83,784,1,0.102912918824264,1
83,785,1,0.104767988205988,1
83,786,1,0.0900468812533255,1
83,787,1,0.0724598344828591,1
83,797,1,0.0827186006868787,1
83,798,1,0.0989468848759417,1
83,799,1,0.0902746843915462,1
83,800,1,0.0712704926987992,1
84,774,1,0.0799784162037129,1
84,775,1,0.0940967900266502,1
84,776,1,0.111384941014609,1
84,777,1,0.114342967639496,1
84,778,1,0.0987943372759153,1
84,779,1,0.0908236233483554,1
84,780,1,0.09557737266025,1
84,781,1,0.0944851850332667,1
84,782,1,0.0883408494632395,1
84,783,1,0.089204227669734,1
84,784,1,0.0945561758513723,1
84,785,1,0.0935315169523103,1
84,786,1,0.077523267162767,1
85,775,1,0.0817179847462942,1
85,776,1,0.0920169663023861,1
85,777,1,0.0960347878488637,1
85,778,1,0.0896726161268905,1
85,779,1,0.0865728175079314,1
85,780,1,0.0911408178947272,1
85,781,1,0.0918859040267391,1
85,782,1,0.0865908706910035,1
85,783,1,0.0845130595312756,1
85,784,1,0.0849783872132,1
85,785,1,0.0803463800864214,1
86,774,1,0.0730757990264554,1
86,775,1,0.0745832877311766,1
86,776,1,0.076616331309524,1
86,777,1,0.0801038001722755,1
86,778,1,0.0821153883751206,1
86,779,1,0.0850234423037999,1
86,780,1,0.0893758407248759,1
86,781,1,0.0891058995166778,1
86,782,1,0.0830480682830563,1
86,783,1,0.0780830536028355,1
86,784,1,0.0747474255466125,1
86,785,1,0.0713075274801312,1
87,773,1,0.0729300857601667,1
87,774,1,0.0764391717223566,1
87,775,1,0.077963875041593,1
87,776,1,0.0765338161635383,1
87,777,1,0.0788392986864279,1
87,778,1,0.0828167850853251,1
87,779,1,0.0865542372246237,1
87,780,1,0.0889437622862273,1
87,781,1,0.0864628033030592,1
87,782,1,0.0800038727491862,1
87,783,1,0.0728987592347961,1
88,773,1,0.0775566541708771,1
88,774,1,0.0817612548838233,1
88,775,1,0.0820117772401568,1
88,776,1,0.0785606962629935,1
88,777,1,0.0797130212350476,1
88,778,1,0.0823880309720265,1
88,779,1,0.0844371391280114,1
88,780,1,0.0852571872992227,1
88,781,1,0.0844091429177662,1
88,782,1,0.0805376036662409,1
88,783,1,0.0712709359421792,1
89,772,1,0.0772639218672612,1
89,773,1,0.0872153047770232,1
89,774,1,0.084170001134703,1
89,775,1,0.0776808102354816,1
89,776,1,0.0742580908448631,1
89,777,1,0.076839989523164,1
89,778,1,0.0787723869053734,1
89,779,1,0.0798013764120536,1
89,780,1,0.0804827313337514,1
89,781,1,0.0816976853974451,1
89,782,1,0.0792749650005443,1
90,773,1,0.0958807308254351,1
90,774,1,0.0844818887400656,1
90,775,1,0.0712875395996032,1
90,776,1,0.0691301782327153,1
90,777,1,0.0735133521198246,1
90,778,1,0.0740781939303354,1
90,779,1,0.0743435469705729,1
90,780,1,0.0743109506128163,1
90,781,1,0.0748034898444077,1
90,782,1,0.0700334423536348,1
91,774,1,0.0799787636106865,1
91,775,1,0.0692093930124526,1
91,776,1,0.0711607719929219,1
91,777,1,0.0764520197906013,1
91,778,1,0.0738837837900002,1
91,779,1,0.0695288816428047,1
91,805,1,0.0776043567422062,1
92,773,1,0.0811174019459391,1
92,774,1,0.0741358215595113,1
92,775,1,0.0703408615865449,1
92,776,1,0.0770551482455037,1
92,777,1,0.0831576212752222,1
92,778,1,0.0763973031922724,1
92,805,1,0.0715177745866384,1
93,772,1,0.074058068284973,1
93,773,1,0.0734992461987448,1
93,774,1,0.0696277848142997,1
93,775,1,0.0696840168258062,1
93,776,1,0.0765692936032649,1
93,777,1,0.0805182027837026,1
93,778,1,0.0720782738099802,1
94,770,1,0.0736451691071727,1
94,771,1,0.0707023804709171,1
94,806,1,0.0739618724919612,1
95,769,1,0.0699300288812595,1
95,770,1,0.0700314537482002,1
96,769,1,0.0694289542197153,1
96,770,1,0.0699291543740503,1
97,769,1,0.0687536010529738,1
97,770,1,0.0704357875471707,1
103,806,1,0.0702286491340989,1
103,807,1,0.0842998414961673,1
103,808,1,0.0867530498498819,1
104,806,1,0.0777285128068107,1
104,807,1,0.0985366331788706,1
104,808,1,0.112197094661835,1
105,806,1,0.0816192492885105,1
105,807,1,0.104905201980977,1
105,808,1,0.130512833549029,1
106,806,1,0.0738838556673051,1
106,807,1,0.0926238563362432,1
106,808,1,0.118546208673425,1
107,807,1,0.0698134678518691,1
107,808,1,0.0840620593921212,1
120,773,1,0.0704500971206143,1
120,774,1,0.0709744540391595,1
120,804,1,0.0719343994047409,1
121,772,1,0.0767899329701006,1
121,773,1,0.0860056636441142,1
121,774,1,0.0918728822550076,1
121,775,1,0.0806106968955138,1
121,803,1,0.0852534796282467,1
121,804,1,0.0931348800147358,1
121,805,1,0.0779676905285263,1
122,773,1,0.110660585495275,1
122,774,1,0.12121539634871,1
122,775,1,0.100506921880295,1
122,776,1,0.0696853944741495,1
122,802,1,0.0727189401873487,1
122,803,1,0.095384250321627,1
122,804,1,0.102173972212042,1
122,805,1,0.082811052870262,1
123,772,1,0.0958061341625355,1
123,773,1,0.132323866101973,1
123,774,1,0.140948986951682,1
123,775,1,0.106937676530661,1
123,776,1,0.0710760046913838,1
123,802,1,0.0757888498270345,1
123,803,1,0.0917922359189485,1
123,804,1,0.0923527890502689,1
123,805,1,0.0753616949837691,1
124,773,1,0.122479167081958,1
124,774,1,0.124728028257939,1
124,801,1,0.07066785540548,1
124,802,1,0.0826589365340649,1
124,803,1,0.0926907381684206,1
124,804,1,0.0863126396336443,1
125,801,1,0.074226800258145,1
125,802,1,0.0860025010427001,1
125,803,1,0.0940561494005241,1
125,804,1,0.0872636961725239,1
126,802,1,0.0817514017032813,1
126,803,1,0.0893907852145125,1
72,786,2,0.106362011195992,1
73,785,2,0.0991532805568632,1
73,786,2,0.108837453596012,1
73,787,2,0.11164274094806,1
74,784,2,0.0870704180997404,1
74,785,2,0.100061797710813,1
74,786,2,0.111018546453056,1
74,787,2,0.111953825923518,1
74,788,2,0.121105100624393,1
75,777,2,0.0783418837776565,1
75,778,2,0.0812569816822126,1
75,779,2,0.077640265445762,1
75,780,2,0.0773738282561761,1
75,781,2,0.0872392578888696,1
75,782,2,0.0908361180198512,1
75,783,2,0.0872106387419823,1
75,784,2,0.0889475058958557,1
75,785,2,0.0990834996733895,1
75,786,2,0.108423140831216,1
75,787,2,0.108808055778322,1
75,788,2,0.10677487443514,1
76,776,2,0.0698731200251321,1
76,777,2,0.083986702027745,1
76,778,2,0.0878658183451583,1
76,779,2,0.0863584913643731,1
76,780,2,0.0883425924878824,1
76,781,2,0.0998457225528365,1
76,782,2,0.0995893182370548,1
76,783,2,0.0923599288625522,1
76,784,2,0.0893862629340814,1
76,785,2,0.0938337250806176,1
76,786,2,0.0994869949038032,1
76,787,2,0.10095239345675,1
77,776,2,0.0708438050580155,1
77,777,2,0.084086904980503,1
77,778,2,0.090304154086541,1
77,779,2,0.0908625568884909,1
77,780,2,0.0913441528004165,1
77,781,2,0.0987253230836936,1
77,782,2,0.099065410551665,1
77,783,2,0.0940579223740441,1
77,784,2,0.0909011370318775,1
77,785,2,0.091298025540019,1
77,786,2,0.0949242834886905,1
77,787,2,0.0970898208990068,1
77,788,2,0.096301290925979,1
78,776,2,0.0715258967220882,1
78,777,2,0.0841122776691206,1
78,778,2,0.0921588221533137,1
78,779,2,0.0953375660121168,1
78,780,2,0.0947248539165656,1
78,781,2,0.0967948903478172,1
78,782,2,0.0961415196568137,1
78,783,2,0.094802918659425,1
78,784,2,0.0945914676080613,1
78,785,2,0.0927882816608986,1
78,786,2,0.0934970577744026,1
78,787,2,0.0953170690006793,1
78,788,2,0.0931175036762845,1
78,789,2,0.0884191358277889,1
78,790,2,0.0842912821071129,1
78,791,2,0.0835172473905663,1
78,792,2,0.0882665462993347,1
79,777,2,0.0806430896009065,1
79,778,2,0.0879038354496568,1
79,779,2,0.0922442363505956,1
79,780,2,0.093739925197768,1
79,781,2,0.0937829737136071,1
79,782,2,0.0938819906908348,1
79,783,2,0.0972000806846706,1
79,784,2,0.103139524007403,1
79,785,2,0.099029675551596,1
79,786,2,0.0920437106495715,1
79,787,2,0.0902678320884823,1
79,788,2,0.0871220799126125,1
79,789,2,0.082099204001975,1
79,790,2,0.079228795811719,1
79,791,2,0.0798328886204618,1
79,792,2,0.0866664197281926,1
79,793,2,0.0928968403503472,1
79,794,2,0.0904456385713935,1
80,776,2,0.0726514953162831,1
80,777,2,0.0777677218766148,1
80,778,2,0.0816534628856265,1
80,779,2,0.0866061805569399,1
80,780,2,0.0903510660075166,1
80,781,2,0.0897414326565239,1
80,782,2,0.088187960446015,1
80,783,2,0.0907162566242124,1
80,784,2,0.0985933743212866,1
80,785,2,0.0975313691725715,1
80,786,2,0.0869864654076574,1
80,787,2,0.0814114520001441,1
80,788,2,0.0783924255025278,1
80,789,2,0.0746019878099924,1
80,790,2,0.0722564456691911,1
80,791,2,0.0733185646236389,1
80,792,2,0.0803235410728004,1
80,793,2,0.0851126779777905,1
80,794,2,0.0795862715976926,1
80,795,2,0.0684263197248192,1
81,775,2,0.0746746198265591,1
81,776,2,0.0794552093220456,1
81,777,2,0.0801981031962592,1
81,778,2,0.0815881264155037,1
81,779,2,0.0895927364820832,1
81,780,2,0.0966840795028161,1
81,781,2,0.0943162074793032,1
81,782,2,0.0894771577758594,1
81,783,2,0.088565430102292,1
81,784,2,0.0965843856809675,1
81,785,2,0.102214774562104,1
81,786,2,0.0897634390913635,1
81,787,2,0.076003445510486,1
81,788,2,0.0709727948713722,1
81,789,2,0.0697441541708771,1
81,792,2,0.0697794878559939,1
81,793,2,0.0720746679651861,1
81,794,2,0.0677877976870458,1
81,797,2,0.0925456957569773,1
81,798,2,0.118609448722156,1
82,774,2,0.0750075135742686,1
82,775,2,0.0872625581151969,1
82,776,2,0.0907982446699624,1
82,777,2,0.0883156504781087,1
82,778,2,0.0827663092479832,1
82,779,2,0.0902908328260393,1
82,780,2,0.10133809905421,1
82,781,2,0.099134826058839,1
82,782,2,0.0943496963135951,1
82,783,2,0.0946342346044563,1
82,784,2,0.102777537920549,1
82,785,2,0.111551564586838,1
82,786,2,0.0963842133766923,1
82,787,2,0.0753212580100069,1
82,797,2,0.0952475576570989,1
82,798,2,0.121794847221434,1
82,799,2,0.109564552432481,1
83,774,2,0.0782899883635435,1
83,775,2,0.0899227970660259,1
83,776,2,0.0999475487347294,1
83,777,2,0.100713880600105,1
83,778,2,0.0869878789946531,1
83,779,2,0.0864449717416772,1
83,780,2,0.0957838162593747,1
83,781,2,0.0932987003720753,1
83,782,2,0.0865418743281868,1
83,783,2,0.0864891942534957,1
83,784,2,0.0937215845054765,1
83,785,2,0.100825134688486,1
83,786,2,0.0875137513263759,1
83,787,2,0.0690961802675139,1
83,797,2,0.0690941377541006,1
83,798,2,0.0852457168793213,1
83,799,2,0.0811339217465073,1
84,773,2,0.0689506167456103,1
84,774,2,0.0758626258907036,1
84,775,2,0.0854502197912146,1
84,776,2,0.0989753482886685,1
84,777,2,0.103275575765963,1
84,778,2,0.0887040095460728,1
84,779,2,0.0824570691233499,1
84,780,2,0.0877716710553352,1
84,781,2,0.0876455802932747,1
84,782,2,0.0813447917896567,1
84,783,2,0.0805703198195055,1
84,784,2,0.0846984730289518,1
84,785,2,0.0864727762791093,1
84,786,2,0.0739119596935075,1
85,774,2,0.0692652237090069,1
85,775,2,0.0726930583678217,1
85,776,2,0.0796481040492032,1
85,777,2,0.0845243622374657,1
85,778,2,0.0798147635600848,1
85,779,2,0.078975326485886,1
85,780,2,0.0837779583548646,1
85,781,2,0.0862175040308793,1
85,782,2,0.0804437139367602,1
85,783,2,0.0767938802320928,1
85,784,2,0.0766592959685074,1
85,785,2,0.073577071350588,1
86,774,2,0.0680767863810333,1
86,775,2,0.0685931948676154,1
86,776,2,0.0689303832842906,1
86,777,2,0.0725333589759612,1
86,778,2,0.0744961664479041,1
86,779,2,0.0780844372409542,1
86,780,2,0.0824071263760191,1
86,781,2,0.0835393975800157,1
86,782,2,0.0767687231753898,1
86,783,2,0.0716969886667699,1
86,784,2,0.0688709946611455,1
87,773,2,0.0688918869977597,1
87,774,2,0.0715967018571562,1
87,775,2,0.0734157307602664,1
87,776,2,0.0720316553879994,1
87,777,2,0.0745751655957268,1
87,778,2,0.0768161921454781,1
87,779,2,0.080030623086147,1
87,780,2,0.0831316675783903,1
87,781,2,0.0814364712920128,1
87,782,2,0.0745935841550986,1
87,783,2,0.0681138391316915,1
88,772,2,0.0684600301808011,1
88,773,2,0.0756078987120354,1
88,774,2,0.07777341216325,1
88,775,2,0.0776893875938622,1
88,776,2,0.0747269045760734,1
88,777,2,0.0769761730567827,1
88,778,2,0.0784517122994911,1
88,779,2,0.0799657837673828,1
88,780,2,0.0810465908210957,1
88,781,2,0.0798554880430666,1
88,782,2,0.0770464091631872,1
88,783,2,0.068388662006845,1
89,772,2,0.0741120002227238,1
89,773,2,0.083735035624309,1
89,774,2,0.078946845103833,1
89,775,2,0.0727087695487102,1
89,776,2,0.0702239411706302,1
89,777,2,0.0747882278966746,1
89,778,2,0.077188887950757,1
89,779,2,0.0778099557829988,1
89,780,2,0.0775715507423105,1
89,781,2,0.0771190890979571,1
89,782,2,0.0769105370978896,1
90,772,2,0.0808140138318769,1
90,773,2,0.090774291558116,1
90,774,2,0.0792247587030957,1
90,777,2,0.0707182174370891,1
90,778,2,0.072150390705862,1
90,779,2,0.0721732057603814,1
90,780,2,0.0704716363529724,1
90,781,2,0.0686488638402338,1
91,773,2,0.0825541813519987,1
91,774,2,0.0726164132017333,1
91,777,2,0.0718993113004157,1
91,778,2,0.0699778272889951,1
91,805,2,0.0718561070504161,1
92,773,2,0.0751946700965878,1
92,774,2,0.0692864993912471,1
92,776,2,0.0744330342151305,1
92,777,2,0.0788579149083881,1
92,778,2,0.071273355811443,1
93,772,2,0.0694211735014636,1
93,773,2,0.0708901299810014,1
93,774,2,0.0680760376591076,1
93,775,2,0.0686505888955506,1
93,776,2,0.0764819087698746,1
93,777,2,0.078661378397784,1
93,778,2,0.0679443045286152,1
94,770,2,0.0700601627417186,1
94,806,2,0.0680244776724174,1
95,769,2,0.0684809824151695,1
95,770,2,0.0695047608172469,1
96,770,2,0.0708539157989,1
97,770,2,0.0691719868650455,1
103,807,2,0.0752029779150751,1
104,807,2,0.0835528386360256,1
104,808,2,0.0924704941267617,1
105,806,2,0.070483699760639,1
105,807,2,0.0892790938725268,1
105,808,2,0.106635480381904,1
106,807,2,0.0789451440076178,1
106,808,2,0.0967813055371976,1
107,808,2,0.0707602297217831,1
120,773,2,0.0707916520835601,1
120,774,2,0.0714641780763103,1
121,772,2,0.075866339551455,1
121,773,2,0.0870098135521879,1
121,774,2,0.0894717430188928,1
121,775,2,0.0744499253817739,1
121,803,2,0.0767459380697474,1
121,804,2,0.0848277623310787,1
121,805,2,0.0693792630429516,1
122,772,2,0.0899680857578666,1
122,773,2,0.116589720414535,1
122,774,2,0.117633426799386,1
122,775,2,0.0884265212208638,1
122,803,2,0.0863859724539334,1
122,804,2,0.0946849380532636,1
122,805,2,0.0747267009237096,1
123,771,2,0.0715874776030318,1
123,772,2,0.0985981062438569,1
123,773,2,0.141038641909951,1
123,774,2,0.137569711402079,1
123,775,2,0.0925584000706123,1
123,803,2,0.0798813998114706,1
123,804,2,0.0818704424996895,1
124,772,2,0.0862834574478688,1
124,773,2,0.122536656946299,1
124,774,2,0.117168991593997,1
124,775,2,0.078357121766288,1
124,802,2,0.0736525485104722,1
124,803,2,0.0828287227077082,1
124,804,2,0.0770720693610242,1
125,773,2,0.0748005488646836,1
125,774,2,0.0711815445340281,1
125,802,2,0.0759927597511627,1
125,803,2,0.0852724971651591,1
125,804,2,0.0796266726328024,1
126,802,2,0.0706774510256796,1
126,803,2,0.0798157758321283,1
72,786,3,0.106761589113291,1
73,785,3,0.0964634880541836,1
73,786,3,0.107731501465147,1
73,787,3,0.109581000355745,1
74,785,3,0.0971671788483684,1
74,786,3,0.110909484622474,1
74,787,3,0.110302468803333,1
75,778,3,0.0820068117163457,1
75,779,3,0.0791904432797978,1
75,780,3,0.0801877289052569,1
75,781,3,0.089445687495879,1
75,782,3,0.0894087425611781,1
75,783,3,0.0818045669497802,1
75,785,3,0.0946372893899131,1
75,786,3,0.105242713845524,1
75,787,3,0.104938229602563,1
76,777,3,0.0898063678116945,1
76,778,3,0.0923549932876181,1
76,779,3,0.088493103564271,1
76,780,3,0.0874883666582075,1
76,781,3,0.0958435223406164,1
76,782,3,0.0943582317435479,1
76,783,3,0.0875026642521003,1
76,784,3,0.0848630241388907,1
76,785,3,0.0891780523512121,1
76,786,3,0.0946443693044424,1
77,776,3,0.0727364123622064,1
77,777,3,0.0902185062880183,1
77,778,3,0.0972605714264904,1
77,779,3,0.0981231110644281,1
77,780,3,0.094758791984013,1
77,781,3,0.0983436725641836,1
77,782,3,0.0973465726217621,1
77,783,3,0.0921690766488079,1
77,784,3,0.0873128243103996,1
77,785,3,0.0867534571546094,1
77,786,3,0.0908014192509273,1
77,787,3,0.0932904045331387,1
77,788,3,0.0935276775062754,1
78,777,3,0.0852711255065912,1
78,778,3,0.0975006176656398,1
78,779,3,0.104204470135842,1
78,780,3,0.100504849418005,1
78,781,3,0.0993508712679387,1
78,782,3,0.0966074403265031,1
78,783,3,0.0919849569426193,1
78,784,3,0.0879265486779943,1
78,785,3,0.0866810527495082,1
78,786,3,0.0906735255664698,1
78,787,3,0.0940210612961989,1
78,788,3,0.0922797078005468,1
78,789,3,0.0884607827361831,1
79,777,3,0.0766624885187985,1
79,778,3,0.0861427755929207,1
79,779,3,0.0929928564500968,1
79,780,3,0.0933491282912139,1
79,781,3,0.0931186357438362,1
79,782,3,0.0923774249965116,1
79,783,3,0.0911078561606709,1
79,784,3,0.0922785817227706,1
79,785,3,0.0908597896122536,1
79,786,3,0.0907269363937604,1
79,787,3,0.0923177728232485,1
79,788,3,0.0882176877013523,1
79,789,3,0.0814551893401548,1
79,790,3,0.0774072212540615,1
79,791,3,0.0784541621176319,1
79,792,3,0.0820671587035558,1
79,793,3,0.0851857172990847,1
79,794,3,0.083930062711511,1
80,778,3,0.0774517552342012,1
80,779,3,0.083848386134082,1
80,780,3,0.0887369173721504,1
80,781,3,0.0892027601747596,1
80,782,3,0.0869424046197748,1
80,783,3,0.0853759705352885,1
80,784,3,0.0898659361281018,1
80,785,3,0.0924483678964139,1
80,786,3,0.0870578755100413,1
80,787,3,0.0822083017712101,1
80,788,3,0.0779111590282495,1
80,789,3,0.07273919760777,1
80,790,3,0.070337303659954,1
80,791,3,0.072576359573597,1
80,792,3,0.0759314543998878,1
80,793,3,0.0774305933576937,1
80,794,3,0.0744380356775941,1
80,795,3,0.0705595482865984,1
81,775,3,0.0721492466587595,1
81,776,3,0.0741852971043605,1
81,777,3,0.0741283582993561,1
81,778,3,0.075686837962104,1
81,779,3,0.0842745346950792,1
81,780,3,0.0937402127069875,1
81,781,3,0.0922764493627262,1
81,782,3,0.0866551469708795,1
81,783,3,0.0844492564436566,1
81,784,3,0.0954268316349844,1
81,785,3,0.108125472952666,1
81,786,3,0.0956598518675832,1
81,787,3,0.0763974768957591,1
81,788,3,0.0691340715867289,1
81,797,3,0.078858993067961,1
82,774,3,0.0756913243038827,1
82,775,3,0.084867252920327,1
82,776,3,0.0833552838636026,1
82,777,3,0.0799033703076579,1
82,778,3,0.0786612226636234,1
82,779,3,0.0877705270082327,1
82,780,3,0.0996841603408249,1
82,781,3,0.0962894790888795,1
82,782,3,0.0896827148882241,1
82,783,3,0.0894610452800187,1
82,784,3,0.104323594789106,1
82,785,3,0.122015294915457,1
82,786,3,0.105707005296303,1
82,787,3,0.0774785295302636,1
82,797,3,0.0773124929560241,1
82,798,3,0.0954766366174809,1
83,774,3,0.0784437998061805,1
83,775,3,0.0855138192264699,1
83,776,3,0.0887690165785483,1
83,777,3,0.0893418247903483,1
83,778,3,0.0841475634360342,1
83,779,3,0.085931636009878,1
83,780,3,0.0933382029408743,1
83,781,3,0.0896925920278677,1
83,782,3,0.0840198494448389,1
83,783,3,0.0828561798381668,1
83,784,3,0.0902043764078368,1
83,785,3,0.100679631064336,1
83,786,3,0.0897408097198817,1
83,787,3,0.0710946987804242,1
83,798,3,0.0726557839954735,1
83,799,3,0.07400218368044,1
84,774,3,0.0754570342388979,1
84,775,3,0.080298066558001,1
84,776,3,0.0878384031431274,1
84,777,3,0.0916991847580246,1
84,778,3,0.0857304095051315,1
84,779,3,0.0821175686533682,1
84,780,3,0.0845390910951878,1
84,781,3,0.0835073043633933,1
84,782,3,0.0799161704576993,1
84,783,3,0.0774694550205243,1
84,784,3,0.0774764271190963,1
84,785,3,0.0790119359931642,1
84,786,3,0.0724745753201319,1
85,774,3,0.0704601659330709,1
85,775,3,0.07093900654831,1
85,776,3,0.0740666755922307,1
85,777,3,0.0773735048083042,1
85,778,3,0.076680577640523,1
85,779,3,0.0766611587886585,1
85,780,3,0.0785159646202655,1
85,781,3,0.0802132812871366,1
85,782,3,0.0772501933020319,1
85,783,3,0.0733246801843279,1
85,784,3,0.0708116160049866,1
86,774,3,0.0689149176841937,1
86,775,3,0.0692431214377608,1
86,776,3,0.0680553669441833,1
86,777,3,0.0695368720031956,1
86,778,3,0.0715361212687053,1
86,779,3,0.07411423440895,1
86,780,3,0.0762748302545568,1
86,781,3,0.0775926167824115,1
86,782,3,0.0733752997762795,1
86,783,3,0.0691597078254643,1
87,773,3,0.0696754873856288,1
87,774,3,0.0722262871500246,1
87,775,3,0.0734889018566195,1
87,776,3,0.0716698310250815,1
87,777,3,0.0719143935548867,1
87,778,3,0.0719707693210029,1
87,779,3,0.0736506557414441,1
87,780,3,0.076546412661216,1
87,781,3,0.076697049522888,1
87,782,3,0.0720003767808321,1
88,772,3,0.0702549142992519,1
88,773,3,0.075241384354975,1
88,774,3,0.0754809693814182,1
88,775,3,0.0742937419880764,1
88,776,3,0.0726611927626646,1
88,777,3,0.0742769226987379,1
88,778,3,0.0741199546444623,1
88,779,3,0.0751080519544493,1
88,780,3,0.0768807439550228,1
88,781,3,0.0764593812245746,1
88,782,3,0.074616620831308,1
88,783,3,0.0677828561223363,1
89,772,3,0.0736229290710922,1
89,773,3,0.0800596315684356,1
89,774,3,0.0754527335801568,1
89,775,3,0.0696618726261322,1
89,776,3,0.0687459700791072,1
89,777,3,0.0733363422770423,1
89,778,3,0.0754542549831098,1
89,779,3,0.0761493564393632,1
89,780,3,0.0758520060189097,1
89,781,3,0.0746862340010703,1
89,782,3,0.0750582469719529,1
89,804,3,0.0679718694750312,1
90,773,3,0.0827720055243938,1
90,774,3,0.0743760654612491,1
90,777,3,0.0685959202154249,1
90,778,3,0.0704707798150894,1
90,779,3,0.0702078346645649,1
91,777,3,0.0683928488598534,1
92,776,3,0.0732240220086391,1
92,777,3,0.0730439693599508,1
93,773,3,0.0680576550383882,1
93,774,3,0.0682270279175285,1
93,775,3,0.0718712611821919,1
93,776,3,0.0788837488097118,1
93,777,3,0.0756270180751296,1
94,769,3,0.0706139114881784,1
94,770,3,0.0699835415347319,1
95,769,3,0.0722112947421847,1
95,770,3,0.0730621063998786,1
95,771,3,0.0678924390633793,1
96,769,3,0.070016072004959,1
96,770,3,0.0737679894518618,1
96,771,3,0.0699720411659534,1
97,770,3,0.0695914388571394,1
98,767,3,0.068101733795597,1
104,807,3,0.0761571191882886,1
105,807,3,0.0823290915820367,1
106,807,3,0.0762533449301774,1
106,808,3,0.0887701606256507,1
107,808,3,0.0755853172587568,1
108,808,3,0.0688763375408071,1
120,772,3,0.0679233043760437,1
120,773,3,0.0748162001478181,1
120,774,3,0.0736565616599939,1
121,772,3,0.0796392212122769,1
121,773,3,0.0922743948697622,1
121,774,3,0.0877973492224984,1
121,775,3,0.0686549614315966,1
121,803,3,0.0686711338251913,1
121,804,3,0.0757896524569388,1
122,771,3,0.0737764589942851,1
122,772,3,0.0991925075959936,1
122,773,3,0.127311262656156,1
122,774,3,0.113213319957127,1
122,775,3,0.0770903681248879,1
122,803,3,0.076892166456721,1
122,804,3,0.0836984021579292,1
122,805,3,0.0681894720257363,1
123,771,3,0.0705222918835764,1
123,772,3,0.106609640490805,1
123,773,3,0.14825033149813,1
123,774,3,0.128272178365353,1
123,775,3,0.0782598538034786,1
123,803,3,0.0702167234912666,1
123,804,3,0.0711616704592327,1
124,772,3,0.0830769030618582,1
124,773,3,0.115125328143856,1
124,774,3,0.102074254431092,1
124,802,3,0.0685264148616199,1
124,803,3,0.0729663598400222,1
125,802,3,0.0693691283429655,1
125,803,3,0.0771211016624933,1
73,786,4,0.108194858510963,1
74,786,4,0.110433441232349,1
75,778,4,0.0800686521701963,1
75,779,4,0.080231412337289,1
75,786,4,0.101992913281086,1
76,777,4,0.0926571415181714,1
76,778,4,0.0970794705671062,1
76,779,4,0.0909230176814337,1
76,780,4,0.0882136625722798,1
76,781,4,0.0893114027210639,1
76,782,4,0.0880608993403389,1
76,783,4,0.0829550291016832,1
76,784,4,0.0813649833225485,1
77,777,4,0.0931981739714453,1
77,778,4,0.104213862103678,1
77,779,4,0.104784615822514,1
77,780,4,0.0999684111224667,1
77,781,4,0.0963015964045247,1
77,782,4,0.0954464661187635,1
77,783,4,0.0908690617845812,1
77,784,4,0.0847702664769617,1
77,785,4,0.0826274662540845,1
77,786,4,0.0873388259254347,1
77,787,4,0.0907825933868279,1
77,788,4,0.0919190694131592,1
78,777,4,0.0828213792430611,1
78,778,4,0.101456373159366,1
78,779,4,0.111430175798471,1
78,780,4,0.106959467333586,1
78,781,4,0.0991577129906632,1
78,782,4,0.0948602288305045,1
78,783,4,0.0882027492014911,1
78,784,4,0.0817457174064215,1
78,785,4,0.0820977305172253,1
78,786,4,0.0893370389597993,1
78,787,4,0.0945527496998404,1
78,788,4,0.0926687437131317,1
78,789,4,0.0879060756256584,1
79,778,4,0.0834648608148701,1
79,779,4,0.0942107035753113,1
79,780,4,0.0947979351662877,1
79,781,4,0.0911753788988167,1
79,782,4,0.0877399551945632,1
79,783,4,0.0823440780001012,1
79,784,4,0.080701669604372,1
79,785,4,0.0852006677784968,1
79,786,4,0.0917596455509673,1
79,787,4,0.0949860620322225,1
79,788,4,0.0893134811731296,1
79,789,4,0.0807785663410273,1
79,790,4,0.0753278168140758,1
79,791,4,0.076202875082611,1
79,792,4,0.0770115486703274,1
79,793,4,0.0763835267088398,1
80,778,4,0.0735427918659425,1
80,779,4,0.0827772046494458,1
80,780,4,0.0893010643687141,1
80,781,4,0.0879541016448594,1
80,782,4,0.0824355059318902,1
80,783,4,0.0774777748185625,1
80,784,4,0.0819906453125264,1
80,785,4,0.0925840962071017,1
80,786,4,0.0920305391334549,1
80,787,4,0.0846628099061877,1
80,788,4,0.0771874923330875,1
80,789,4,0.0710428632640653,1
80,790,4,0.0688524503164901,1
80,791,4,0.0717570181958835,1
80,792,4,0.0718595092428464,1
80,793,4,0.0693836056301205,1
81,778,4,0.073015505947224,1
81,779,4,0.0835498796869753,1
81,780,4,0.0943258749768076,1
81,781,4,0.0913912743635313,1
81,782,4,0.0822463967427889,1
81,783,4,0.0783499699744538,1
81,784,4,0.0937432615026688,1
81,785,4,0.115781639814583,1
81,786,4,0.105396519298386,1
81,787,4,0.0802749939431391,1
81,788,4,0.0690068906855447,1
82,774,4,0.0734521965129348,1
82,775,4,0.0797911099370087,1
82,776,4,0.076381358410143,1
82,777,4,0.0741555698490232,1
82,778,4,0.0813254567946479,1
82,779,4,0.0922846793141333,1
82,780,4,0.101963623279353,1
82,781,4,0.0952367101738396,1
82,782,4,0.0843461544396024,1
82,783,4,0.0820738852213361,1
82,784,4,0.103284668245028,1
82,785,4,0.130715599426055,1
82,786,4,0.116323990018447,1
82,787,4,0.0831732366197043,1
83,774,4,0.0756681139241865,1
83,775,4,0.07954575675685,1
83,776,4,0.0791173440607496,1
83,777,4,0.0811545445432283,1
83,778,4,0.0886742044236552,1
83,779,4,0.0940466615962819,1
83,780,4,0.0965428405987552,1
83,781,4,0.0889592638249767,1
83,782,4,0.0810980310122778,1
83,783,4,0.077587261923199,1
83,784,4,0.0853913163398773,1
83,785,4,0.0998826794670882,1
83,786,4,0.0921748927207266,1
83,787,4,0.0744525548931769,1
84,775,4,0.0748477363153278,1
84,776,4,0.0788129676337455,1
84,777,4,0.0825483173618767,1
84,778,4,0.0868109410291757,1
84,779,4,0.0867140624017677,1
84,780,4,0.084580708054705,1
84,781,4,0.0801750365711727,1
84,782,4,0.0770616112131662,1
84,783,4,0.0740226148043481,1
84,784,4,0.0717500760461885,1
84,785,4,0.0739425434867278,1
84,786,4,0.0717250268054429,1
85,774,4,0.0686804898543747,1
85,775,4,0.0696104623838271,1
85,776,4,0.0716474771832683,1
85,777,4,0.0736498351422136,1
85,778,4,0.0758573009803681,1
85,779,4,0.0757476341824695,1
85,780,4,0.0740645013037585,1
85,781,4,0.0736705597651165,1
85,782,4,0.0726726691723415,1
85,783,4,0.0704859579059668,1
86,774,4,0.0706878193269064,1
86,775,4,0.071893998369631,1
86,776,4,0.069950969136077,1
86,777,4,0.0703588908105153,1
86,778,4,0.0714961395178739,1
86,779,4,0.0718090274157291,1
86,780,4,0.0712907740783221,1
86,781,4,0.0721566919495885,1
86,782,4,0.069585982171745,1
87,773,4,0.0718223366966801,1
87,774,4,0.0760581082008363,1
87,775,4,0.0767426436932744,1
87,776,4,0.0736979450182702,1
87,777,4,0.0727512909643136,1
87,778,4,0.0708278782452124,1
87,779,4,0.0702106079305776,1
87,780,4,0.0719157712032299,1
87,781,4,0.073225010321581,1
87,782,4,0.0685072835189748,1
87,802,4,0.0706736115796446,1
87,803,4,0.0778459124047578,1
88,772,4,0.0711747281696166,1
88,773,4,0.0752585270921854,1
88,774,4,0.0754029285976604,1
88,775,4,0.0745190114513005,1
88,776,4,0.0741082865619724,1
88,777,4,0.0749059629220444,1
88,778,4,0.0729300797703913,1
88,779,4,0.0727663851983354,1
88,780,4,0.0744854088112759,1
88,781,4,0.0746269531938824,1
88,782,4,0.0708440206899301,1
88,803,4,0.0720498942541091,1
89,773,4,0.0746174354407631,1
89,774,4,0.0720198974588785,1
89,775,4,0.0691057878672643,1
89,776,4,0.0703598072461524,1
89,777,4,0.0731993141850915,1
89,778,4,0.0741883518898173,1
89,779,4,0.0745506374654414,1
89,780,4,0.0736166757455689,1
89,781,4,0.0714747200810239,1
89,782,4,0.069776918242345,1
90,777,4,0.0677430061465638,1
90,778,4,0.0692830133419612,1
90,779,4,0.068542120052733,1
92,775,4,0.0688762357146253,1
92,776,4,0.0710947526884029,1
93,774,4,0.0698633327321196,1
93,775,4,0.0761975621518263,1
93,776,4,0.0792308083762553,1
93,777,4,0.0694489900184466,1
94,769,4,0.0701987541650502,1
94,770,4,0.0690341142147625,1
94,775,4,0.071698408243541,1
94,776,4,0.0713446221592172,1
95,769,4,0.0764953019076812,1
95,770,4,0.079436808732,1
95,771,4,0.0730020888503158,1
96,769,4,0.0751632597143615,1
96,770,4,0.0827134554698054,1
96,771,4,0.0796121414376688,1
97,769,4,0.0713052333961509,1
97,770,4,0.0755491809437356,1
97,771,4,0.0726221933349996,1
98,767,4,0.0697727912870906,1
108,808,4,0.0787632405183293,1
119,773,4,0.0684124054765523,1
120,772,4,0.0688667239512814,1
120,773,4,0.0768070277891078,1
120,774,4,0.0720905947779892,1
121,771,4,0.0694945003319773,1
121,772,4,0.087961319324223,1
121,773,4,0.0992085302452032,1
121,774,4,0.0818296161905258,1
122,771,4,0.0818657165668946,1
122,772,4,0.120650177182348,1
122,773,4,0.143461601897868,1
122,774,4,0.104080948987431,1
122,804,4,0.0689683464808105,1
123,771,4,0.0788649768535911,1
123,772,4,0.124914705598226,1
123,773,4,0.156876530507412,1
123,774,4,0.112442639514807,1
124,772,4,0.0826401945268212,1
124,773,4,0.10436885353207,1
76,778,5,0.0996396083913591,1
76,779,5,0.0962079642353865,1
76,780,5,0.0926377286560822,1
76,781,5,0.0866512955452938,1
76,782,5,0.0845211936462763,1
76,783,5,0.0821429772806381,1
77,777,5,0.0908135305767972,1
77,778,5,0.104833923653652,1
77,779,5,0.107327143707075,1
77,780,5,0.103825580902794,1
77,781,5,0.0952382914745466,1
77,782,5,0.093359161165018,1
77,783,5,0.0902880116418233,1
77,784,5,0.0834272210662222,1
77,786,5,0.0829774248719242,1
77,787,5,0.0859937739399343,1
78,777,5,0.0785357188995527,1
78,778,5,0.0972247885082182,1
78,779,5,0.107964336014708,1
78,780,5,0.106504963175819,1
78,781,5,0.0962172004690617,1
78,782,5,0.0913786179680995,1
78,783,5,0.0854115258420953,1
78,784,5,0.0784298556090365,1
78,785,5,0.079098943470704,1
78,786,5,0.0849124158268842,1
78,787,5,0.0894207999790693,1
78,788,5,0.0884598543209952,1
79,778,5,0.0777728730834635,1
79,779,5,0.0888466620371293,1
79,780,5,0.0916352798442237,1
79,781,5,0.0876933367725825,1
79,782,5,0.0834841478916757,1
79,783,5,0.0773538882938513,1
79,784,5,0.0756151702993776,1
79,785,5,0.0825039930238763,1
79,786,5,0.0892278693132593,1
79,787,5,0.089854268045612,1
79,788,5,0.0847762862012442,1
79,789,5,0.0769558737079336,1
79,790,5,0.0730983445410816,1
79,791,5,0.0744277392536721,1
79,792,5,0.0744155620402728,1
80,778,5,0.0705638788942165,1
80,779,5,0.0800616860613997,1
80,780,5,0.0861583729680765,1
80,781,5,0.0846910936256523,1
80,782,5,0.0786942562749846,1
80,783,5,0.0738539127800531,1
80,784,5,0.0795790898569814,1
80,785,5,0.0928784816887295,1
80,786,5,0.0940458469868267,1
80,787,5,0.0837635948734423,1
80,788,5,0.0750587620926378,1
80,789,5,0.06815628866999,1
80,791,5,0.07074917858616,1
80,792,5,0.0702062533638579,1
81,778,5,0.0733158153167278,1
81,779,5,0.0838350588838049,1
81,780,5,0.0909440238237806,1
81,781,5,0.0884781470950835,1
81,782,5,0.0786670507150929,1
81,783,5,0.0752150173636401,1
81,784,5,0.09008971413725,1
81,785,5,0.112359573309484,1
81,786,5,0.10636567693854,1
81,787,5,0.0827154380854646,1
81,788,5,0.0703708763511017,1
82,775,5,0.0730087674498929,1
82,777,5,0.0732051182774594,1
82,778,5,0.0826737971668458,1
82,779,5,0.0928336721789212,1
82,780,5,0.096181986579453,1
82,781,5,0.0911058975041133,1
82,782,5,0.07967701070531,1
82,783,5,0.0774202490155684,1
82,784,5,0.0965116158995665,1
82,785,5,0.122645946388348,1
82,786,5,0.113579762436882,1
82,787,5,0.0850022924068432,1
82,788,5,0.0690047223868479,1
83,775,5,0.0743767902240732,1
83,776,5,0.0752135558584412,1
83,777,5,0.078487417350683,1
83,778,5,0.0901030713364042,1
83,779,5,0.0974312440868937,1
83,780,5,0.0939885068668702,1
83,781,5,0.0875637899101131,1
83,782,5,0.078538396329159,1
83,783,5,0.0746480491828605,1
83,784,5,0.0802985637093596,1
83,785,5,0.0935127330166387,1
83,786,5,0.0889487877077925,1
83,787,5,0.0741482563332531,1
84,776,5,0.0764648798383968,1
84,777,5,0.0790288511189092,1
84,778,5,0.0861884476303873,1
84,779,5,0.088827866121907,1
84,780,5,0.0827110655494186,1
84,781,5,0.077816814075838,1
84,782,5,0.0745746684443681,1
84,783,5,0.072785953794585,1
84,784,5,0.0702314942774165,1
84,785,5,0.0716242727933476,1
84,786,5,0.0699639669487068,1
85,774,5,0.0680813505898922,1
85,775,5,0.0714804343267607,1
85,776,5,0.0751162998751827,1
85,777,5,0.0749656570237352,1
85,778,5,0.0763515832366025,1
85,779,5,0.0761538367913664,1
85,780,5,0.071781061154361,1
85,781,5,0.069795576392733,1
85,782,5,0.0694862584010194,1
85,783,5,0.069295376238398,1
86,774,5,0.0714831177461424,1
86,775,5,0.0732286880436799,1
86,776,5,0.0739553496265447,1
86,777,5,0.0728632638257433,1
86,778,5,0.0720206940990074,1
86,779,5,0.0697543008504139,1
87,773,5,0.072629836288417,1
87,774,5,0.0773843463017881,1
87,775,5,0.0763994415420921,1
87,776,5,0.0748099468222948,1
87,777,5,0.072976859916308,1
87,778,5,0.0702641086044992,1
87,780,5,0.0678313373644682,1
87,781,5,0.0699384385259287,1
87,802,5,0.0680756722828079,1
88,772,5,0.071571436984496,1
88,773,5,0.0744725906919082,1
88,774,5,0.0748701919833229,1
88,775,5,0.0736315842965531,1
88,776,5,0.0746252101692394,1
88,777,5,0.074093965008978,1
88,778,5,0.0716463990236954,1
88,779,5,0.0706138515904243,1
88,780,5,0.0717407978840855,1
88,781,5,0.0726869308275819,1
88,782,5,0.0683511001252774,1
89,773,5,0.0714272930393635,1
89,774,5,0.0702330336496957,1
89,775,5,0.0701002642880582,1
89,776,5,0.0718159036778946,1
89,777,5,0.0719998496805964,1
89,778,5,0.0714830758177146,1
89,779,5,0.0718024326730077,1
89,780,5,0.0708611574373652,1
89,781,5,0.0693206231417321,1
90,776,5,0.0679530076722794,1
90,777,5,0.0680443038290094,1
90,778,5,0.067802676289153,1
92,774,5,0.069694133556466,1
92,775,5,0.0713607586141596,1
92,776,5,0.0709188749131722,1
93,773,5,0.0680350316566818,1
93,774,5,0.0759738799790847,1
93,775,5,0.0809427400951157,1
93,776,5,0.0786006061365201,1
93,777,5,0.0681215599521891,1
94,770,5,0.0683753107974662,1
94,774,5,0.0755283485048754,1
94,775,5,0.0820211572284418,1
94,776,5,0.0756643044270286,1
95,769,5,0.0738864971582589,1
95,770,5,0.0802228709175608,1
95,771,5,0.0763590524865331,1
95,775,5,0.0693400599629228,1
96,769,5,0.0738777101577391,1
96,770,5,0.084130306893091,1
96,771,5,0.0826236208182742,1
97,769,5,0.0696118100832933,1
97,770,5,0.0763012391743195,1
97,771,5,0.0754317214480344,1
98,767,5,0.0697551274394199,1
120,773,5,0.0744374546693797,1
120,774,5,0.0691322926234335,1
121,771,5,0.0718479968945171,1
121,772,5,0.0910861432248261,1
121,773,5,0.0974896264277708,1
121,774,5,0.0749797270061627,1
122,770,5,0.0709639359935475,1
122,771,5,0.0937538394460349,1
122,772,5,0.132442667307365,1
122,773,5,0.141560806570697,1
122,774,5,0.0916515121355725,1
123,770,5,0.069286511370798,1
123,771,5,0.0914138318577082,1
123,772,5,0.132605756912105,1
123,773,5,0.145643449466613,1
123,774,5,0.0927355117395764,1
124,772,5,0.0807652870089534,1
124,773,5,0.0891138778975179,1
76,779,6,0.103667690423106,1
76,780,6,0.0981369294762885,1
77,778,6,0.102589387095513,1
77,779,6,0.112731825871383,1
77,780,6,0.106897748687808,1
77,781,6,0.0910402555554448,1
77,782,6,0.0864262716628613,1
77,783,6,0.084743635935509,1
78,778,6,0.0925792564685741,1
78,779,6,0.105735384852174,1
78,780,6,0.103625977627183,1
78,781,6,0.0904107780785337,1
78,782,6,0.0840592262283544,1
78,783,6,0.0796075532697082,1
78,785,6,0.0780703672585268,1
78,786,6,0.0814502058470175,1
78,787,6,0.0836287829983915,1
78,788,6,0.0828535922551916,1
79,779,6,0.0859064070758702,1
79,780,6,0.0884843405228528,1
79,781,6,0.0844022786351516,1
79,782,6,0.0793076452151566,1
79,783,6,0.074011593617602,1
79,784,6,0.0756031188712618,1
79,785,6,0.0839201436434395,1
79,786,6,0.0875716425056697,1
79,787,6,0.084117380957766,1
79,788,6,0.079166454229299,1
79,789,6,0.0731977748128123,1
80,779,6,0.0811325860265919,1
80,780,6,0.084800185405112,1
80,781,6,0.0836146291591084,1
80,782,6,0.0770192874601512,1
80,783,6,0.072564511797845,1
80,784,6,0.0799170090262561,1
80,785,6,0.0949842052018468,1
80,786,6,0.0958081527168471,1
80,787,6,0.0837955503252304,1
80,788,6,0.0734835769462841,1
80,791,6,0.0686387411197986,1
80,792,6,0.0695987523729094,1
80,793,6,0.0682558207679026,1
81,778,6,0.0778993352115991,1
81,779,6,0.0866399509106759,1
81,780,6,0.0891659470151176,1
81,781,6,0.087365672098802,1
81,782,6,0.0777056378545372,1
81,783,6,0.0739680898788321,1
81,784,6,0.085329873223768,1
81,785,6,0.105031885730802,1
81,786,6,0.103696237692689,1
81,787,6,0.0864325788963633,1
81,788,6,0.0726453318373909,1
82,777,6,0.073999584117914,1
82,778,6,0.0837230800325997,1
82,779,6,0.0913169652098511,1
82,780,6,0.0906245891014072,1
82,781,6,0.0880669070850705,1
82,782,6,0.0777922559966756,1
82,783,6,0.074941338535589,1
82,784,6,0.0864668344219071,1
82,785,6,0.105972148694401,1
82,786,6,0.103702586854618,1
82,787,6,0.0868157568086017,1
82,788,6,0.0711501042029248,1
83,777,6,0.076920839511587,1
83,778,6,0.0874189212021566,1
83,779,6,0.0939315381129888,1
83,780,6,0.0891134406439133,1
83,781,6,0.0855534356010016,1
83,782,6,0.0770584366322013,1
83,783,6,0.0735420491337922,1
83,784,6,0.0760484287237811,1
83,785,6,0.085140841901747,1
83,786,6,0.0839013057997893,1
83,787,6,0.074743813712043,1
84,776,6,0.0757247771995222,1
84,777,6,0.0782085334078046,1
84,778,6,0.0847350406078022,1
84,779,6,0.0878574865675693,1
84,780,6,0.0814978904490204,1
84,781,6,0.0772782853486835,1
84,782,6,0.0733882197218291,1
84,783,6,0.0724605233070307,1
84,784,6,0.0703618018413624,1
84,785,6,0.0709159399232235,1
84,786,6,0.0688299587098426,1
85,775,6,0.071958789770192,1
85,776,6,0.0784092208327647,1
85,777,6,0.0783056336569026,1
85,778,6,0.0787402757194247,1
85,779,6,0.0777463084295403,1
85,780,6,0.072738341069887,1
85,781,6,0.0699002896463713,1
85,782,6,0.0688228188975593,1
85,783,6,0.0692365566439164,1
86,774,6,0.0689125816717856,1
86,775,6,0.0717161439685166,1
86,776,6,0.0774197099357819,1
86,777,6,0.0769181620819808,1
86,778,6,0.0744326748286062,1
86,779,6,0.0693613116860614,1
87,773,6,0.0718550229010677,1
87,774,6,0.0753990711822992,1
87,775,6,0.0730848615566439,1
87,776,6,0.0746354766442844,1
87,777,6,0.0736978312125375,1
87,778,6,0.0709193540952047,1
87,781,6,0.0685039532038494,1
88,773,6,0.073543935913045,1
88,774,6,0.0747113012111422,1
88,775,6,0.0725673389718364,1
88,776,6,0.0739272396105668,1
88,777,6,0.0726536396558783,1
88,778,6,0.0703092475519548,1
88,779,6,0.0678465813428751,1
88,780,6,0.0683332266354674,1
88,781,6,0.0697453161873057,1
89,774,6,0.0710024143107522,1
89,775,6,0.0712962008148395,1
89,776,6,0.0719150883688337,1
89,777,6,0.0701481345730986,1
89,778,6,0.0684210367429116,1
90,774,6,0.0715834944023872,1
90,775,6,0.0705093958971284,1
90,776,6,0.0684929619659804,1
90,777,6,0.0677898402004591,1
91,774,6,0.0749487598673164,1
91,775,6,0.0709971912265987,1
92,774,6,0.0761226660001564,1
92,775,6,0.072183496194528,1
93,773,6,0.0719799456569241,1
93,774,6,0.081720374666681,1
93,775,6,0.0805447973865029,1
93,776,6,0.0719913981074993,1
94,773,6,0.0707637157710691,1
94,774,6,0.0865884568115151,1
94,775,6,0.0882786276763275,1
94,776,6,0.0737328174906809,1
95,769,6,0.0683432535194962,1
95,770,6,0.0764055990312089,1
95,771,6,0.0754502058949357,1
95,774,6,0.077867852952068,1
95,775,6,0.0788798554556983,1
96,769,6,0.0686922417937202,1
96,770,6,0.0786424207586257,1
96,771,6,0.0781498935065851,1
97,770,6,0.0703790703638563,1
97,771,6,0.0702575797493073,1
121,773,6,0.0855951364173745,1
122,770,6,0.0778481286216578,1
122,771,6,0.098132017860456,1
122,772,6,0.123316298092626,1
122,773,6,0.117036605577986,1
122,774,6,0.0751444697889146,1
123,770,6,0.0767094603375282,1
123,771,6,0.0954533483707044,1
123,772,6,0.119605500453881,1
123,773,6,0.113478858680402,1
76,779,7,0.110290129865998,1
77,778,7,0.101808979257935,1
77,779,7,0.121284458459135,1
77,780,7,0.109731283820668,1
78,778,7,0.0892110200750437,1
78,779,7,0.106497044692733,1
78,780,7,0.100579302326295,1
78,785,7,0.0789271147836474,1
78,786,7,0.0807051077354547,1
79,779,7,0.0847510033592577,1
79,780,7,0.0850282700627767,1
79,781,7,0.0809700355016384,1
79,782,7,0.0766010094640368,1
79,783,7,0.0731217406038154,1
79,784,7,0.0761640373788819,1
79,785,7,0.0836490404188128,1
79,786,7,0.0857852938171717,1
79,787,7,0.0825985356388761,1
79,788,7,0.077995045832803,1
80,780,7,0.0812318306152851,1
80,781,7,0.0803489257409688,1
80,782,7,0.0761743038539269,1
80,783,7,0.0719056365032439,1
80,784,7,0.0781778477884024,1
80,785,7,0.0932694163601179,1
80,786,7,0.0960238984371766,1
80,787,7,0.0863545560819317,1
80,788,7,0.0751138320877156,1
80,789,7,0.0677494870835525,1
80,791,7,0.0686297025487117,1
80,792,7,0.0698200685843659,1
80,793,7,0.0685852644049786,1
81,779,7,0.0837154790076102,1
81,780,7,0.0844989775692974,1
81,781,7,0.0837519327807278,1
81,782,7,0.078105898606232,1
81,783,7,0.0727212821895322,1
81,784,7,0.0802816306142884,1
81,785,7,0.0986359795937456,1
81,786,7,0.10299514646103,1
81,787,7,0.0912668966772368,1
81,788,7,0.0751993541009548,1
82,778,7,0.0822241267578314,1
82,779,7,0.0851011296908088,1
82,780,7,0.0852109282637663,1
82,781,7,0.0834882868264809,1
82,782,7,0.0771261869818125,1
82,783,7,0.0722501264561384,1
82,784,7,0.078667583805104,1
82,785,7,0.0933602752632434,1
82,786,7,0.097577113087343,1
82,787,7,0.0895480527575584,1
82,788,7,0.0736841445757361,1
83,777,7,0.0799045802422898,1
83,778,7,0.0852978758435521,1
83,779,7,0.08735670540502,1
83,780,7,0.0848256898687885,1
83,781,7,0.0811050330597268,1
83,782,7,0.0755640954844952,1
83,783,7,0.0720766925092731,1
83,784,7,0.0744968672516265,1
83,785,7,0.0802750538408932,1
83,786,7,0.0816017711238774,1
83,787,7,0.0769812164476741,1
84,777,7,0.0806489955194563,1
84,778,7,0.0876361164481341,1
84,779,7,0.0873630785260514,1
84,780,7,0.0810310533436939,1
84,781,7,0.0745555011630706,1
84,782,7,0.0712598189190267,1
84,783,7,0.0702724284025374,1
84,784,7,0.0703742306253287,1
84,785,7,0.0706542047073309,1
84,786,7,0.0686516910142252,1
85,776,7,0.0781619089960485,1
85,777,7,0.0816370988192188,1
85,778,7,0.0856311229880105,1
85,779,7,0.0817215366831096,1
85,780,7,0.0740458671124721,1
85,781,7,0.0686955241906424,1
86,775,7,0.0705506295110196,1
86,776,7,0.0774476702073747,1
86,777,7,0.079723042129301,1
86,778,7,0.0785472132785558,1
86,779,7,0.071195045487792,1
87,774,7,0.0733575760308547,1
87,775,7,0.0717968502023298,1
87,776,7,0.0741402959217392,1
87,777,7,0.0743730166655677,1
87,778,7,0.0718027201822272,1
87,782,7,0.0683787728876506,1
88,774,7,0.0759048058891088,1
88,775,7,0.0737454079985832,1
88,776,7,0.0731229385588965,1
88,777,7,0.0709229419706725,1
88,778,7,0.0686813883206855,1
89,774,7,0.0733256205790666,1
89,775,7,0.0729585491728935,1
89,776,7,0.07151314449025,1
89,777,7,0.0684363406190725,1
90,773,7,0.0728368429264298,1
90,774,7,0.0767831765034432,1
90,775,7,0.0727097039536734,1
90,776,7,0.0687037900807019,1
91,773,7,0.0788147945152441,1
91,774,7,0.0842134629450451,1
91,775,7,0.0751600432049688,1
91,777,7,0.0681542221974751,1
92,773,7,0.0771367529456278,1
92,774,7,0.0812797787674058,1
92,775,7,0.0720117034461238,1
93,773,7,0.0763021496201812,1
93,774,7,0.0810232007481373,1
93,775,7,0.0743872783208082,1
94,771,7,0.0684179220597007,1
94,772,7,0.0679501206005339,1
94,773,7,0.0753540580201272,1
94,774,7,0.0852664055635717,1
94,775,7,0.0811520408171089,1
95,770,7,0.0705230046668496,1
95,771,7,0.0732069751078351,1
95,773,7,0.0699275790631186,1
95,774,7,0.0802056862519225,1
95,775,7,0.0774891973202607,1
96,770,7,0.0710975918419451,1
96,771,7,0.0726804498905932,1
97,766,7,0.0719201137903989,1
121,773,7,0.0706599788508218,1
123,771,7,0.0902106596822371,1
76,779,8,0.106730801667707,1
77,778,8,0.0974598812031073,1
77,779,8,0.121114193103459,1
77,780,8,0.10603299283297,1
78,779,8,0.103245782623096,1
79,782,8,0.0764034187529613,1
79,783,8,0.0746437006059161,1
79,784,8,0.0763818196228492,1
79,785,8,0.0798497678075544,1
79,786,8,0.0808554990163351,1
79,787,8,0.0790583327934549,1
80,780,8,0.0759653445491319,1
80,781,8,0.0765595182898032,1
80,782,8,0.077620589033555,1
80,783,8,0.0740822789571619,1
80,784,8,0.0764100793832122,1
80,785,8,0.0861428474702255,1
80,786,8,0.0904500530358674,1
80,787,8,0.0834434713268972,1
80,788,8,0.0745410658043435,1
80,792,8,0.0680401289555518,1
81,779,8,0.0771629102948235,1
81,780,8,0.0780523679834333,1
81,781,8,0.0803299800813613,1
81,782,8,0.0806227004054263,1
81,783,8,0.0743731065121988,1
81,784,8,0.0777444036809614,1
81,785,8,0.0923787367573254,1
81,786,8,0.100925679058442,1
81,787,8,0.0906987065822744,1
81,788,8,0.0749750609711218,1
82,778,8,0.078508010198527,1
82,779,8,0.0782422258944604,1
82,780,8,0.080796613534324,1
82,781,8,0.0813071939694366,1
82,782,8,0.0785694772737379,1
82,783,8,0.0721670362917138,1
82,784,8,0.0752099200647701,1
82,785,8,0.0866864974553517,1
82,786,8,0.0949133221996985,1
82,787,8,0.0887274175883573,1
82,788,8,0.0740051426294903,1
83,778,8,0.0821684218465605,1
83,779,8,0.0812236545718566,1
83,780,8,0.0817307190088062,1
83,781,8,0.0784735270615178,1
83,782,8,0.0748417046114945,1
83,783,8,0.071812231945571,1
83,784,8,0.074556393639606,1
83,785,8,0.0784968033287434,1
83,786,8,0.0806028383101818,1
83,787,8,0.0766620752242955,1
84,777,8,0.0822460673051416,1
84,778,8,0.086213688543946,1
84,779,8,0.0840045156198009,1
84,780,8,0.0787189581087567,1
84,781,8,0.0710214258578892,1
84,782,8,0.068459850487539,1
84,783,8,0.0685057860751235,1
84,784,8,0.0708623134640184,1
84,785,8,0.0712752485804711,1
84,786,8,0.0688666760330781,1
85,777,8,0.0805223357287324,1
85,778,8,0.0872381138417672,1
85,779,8,0.0818129825842249,1
85,780,8,0.0726825762608621,1
85,784,8,0.0677461507786516,1
86,776,8,0.073876158805909,1
86,777,8,0.079469027733906,1
86,778,8,0.0813253609582414,1
86,779,8,0.0726217500916196,1
86,783,8,0.068109592380929,1
87,776,8,0.0716629787220177,1
87,777,8,0.0740507966976308,1
87,778,8,0.0729378425193168,1
87,782,8,0.0699922027499682,1
87,783,8,0.0692127053582518,1
88,776,8,0.0703457192943987,1
90,774,8,0.0755007595993578,1
91,773,8,0.0797867972987167,1
91,774,8,0.0846112798683744,1
91,775,8,0.0737770699513764,1
92,773,8,0.0785786655892099,1
92,774,8,0.0796881696568903,1
92,775,8,0.0691925916924403,1
93,773,8,0.0801274478055763,1
93,774,8,0.0753357412869373,1
94,771,8,0.072865342277809,1
94,772,8,0.0807953736508151,1
94,773,8,0.0817963010597206,1
94,774,8,0.0767043690284335,1
94,775,8,0.0687813097539994,1
95,771,8,0.0740260169967784,1
95,772,8,0.076785817994397,1
95,773,8,0.0761112914166614,1
95,774,8,0.0738573209622589,1
95,775,8,0.067962441568543,1
96,771,8,0.0689049686672453,1
97,766,8,0.07232947900071,1
77,779,9,0.108084970091374,1
79,782,9,0.0744994488448263,1
79,783,9,0.0745829223548768,1
79,784,9,0.0755544100176646,1
79,785,9,0.0766376010019888,1
79,786,9,0.0764410405322831,1
79,787,9,0.0753250555276139,1
80,781,9,0.0722522648059581,1
80,782,9,0.0773627531614514,1
80,783,9,0.0765763136200401,1
80,784,9,0.0761913926831587,1
80,785,9,0.0808002792768721,1
80,786,9,0.0834402248686275,1
80,787,9,0.078411041724488,1
80,788,9,0.0720784355339161,1
80,791,9,0.0697671369391078,1
81,780,9,0.0702832878653475,1
81,781,9,0.0749674419768061,1
81,782,9,0.0807504143966216,1
81,783,9,0.0771728054037933,1
81,784,9,0.0767897233279614,1
81,785,9,0.087212244001791,1
81,786,9,0.095434462608851,1
81,787,9,0.0864426596883707,1
81,788,9,0.0729725053495882,1
81,791,9,0.072017525507818,1
81,792,9,0.0720876178596127,1
82,779,9,0.073066514874577,1
82,780,9,0.0742952394319278,1
82,781,9,0.078169510021038,1
82,782,9,0.07990288513585,1
82,783,9,0.0746834307861805,1
82,784,9,0.0737413109922058,1
82,785,9,0.0836927238508448,1
82,786,9,0.0930582288588721,1
82,787,9,0.0861246026143405,1
82,788,9,0.0724250997752828,1
83,779,9,0.0769095188360707,1
83,780,9,0.0765411955668378,1
83,781,9,0.0758005598379521,1
83,782,9,0.0744912847809486,1
83,783,9,0.0717398095711436,1
83,784,9,0.0723517729447691,1
83,785,9,0.0776912444242379,1
83,786,9,0.0823071210858495,1
83,787,9,0.0774903952753418,1
83,788,9,0.0677468875210265,1
84,778,9,0.0816293001316409,1
84,779,9,0.0778851394438882,1
84,780,9,0.0733825713636217,1
84,781,9,0.0682648174105616,1
84,784,9,0.0681254353368765,1
84,785,9,0.0698041238022366,1
84,786,9,0.0693801794785886,1
85,778,9,0.0805906910456595,1
85,779,9,0.0763214486765376,1
85,780,9,0.06921592785742,1
86,777,9,0.0731593983217895,1
86,778,9,0.0761641392050638,1
86,779,9,0.0701735791390211,1
86,783,9,0.0695435805516497,1
87,782,9,0.0699210981261299,1
87,783,9,0.0725812532201033,1
90,774,9,0.0701141785363251,1
91,773,9,0.0775276456885884,1
91,774,9,0.079286645062585,1
91,775,9,0.0712198611272968,1
92,773,9,0.0767615893528819,1
92,774,9,0.0762048936369226,1
92,775,9,0.0687070724776241,1
93,773,9,0.0786928846164167,1
93,774,9,0.0704464313780662,1
94,771,9,0.0750162167179328,1
94,772,9,0.0896840985263428,1
94,773,9,0.0816007828109355,1
95,771,9,0.0759783303822109,1
95,772,9,0.0873432823183363,1
95,773,9,0.0779970703768901,1
96,772,9,0.0702704397971028,1
79,782,10,0.0708210079728223,1
79,783,10,0.0710006772758846,1
79,784,10,0.0715920957198694,1
79,785,10,0.0736441268862522,1
79,786,10,0.0732681486840511,1
80,781,10,0.0684330881710273,1
80,782,10,0.0741371512896514,1
80,783,10,0.0757071492905039,1
80,784,10,0.0741574446487251,1
80,785,10,0.0765086890557124,1
80,786,10,0.0770567355359862,1
80,787,10,0.0733034045020877,1
80,791,10,0.0695347037044988,1
81,781,10,0.0700323282554094,1
81,782,10,0.0797371839890332,1
81,783,10,0.0801152166841983,1
81,784,10,0.0760079198727139,1
81,785,10,0.0804917040173088,1
81,786,10,0.0865495053020534,1
81,787,10,0.0807052814389415,1
81,788,10,0.0699155935225323,1
81,790,10,0.0683204684138538,1
81,791,10,0.074413483588207,1
81,792,10,0.0720601068211754,1
82,780,10,0.0692242476554581,1
82,781,10,0.0746391483766079,1
82,782,10,0.0824710911875741,1
82,783,10,0.080129304635952,1
82,784,10,0.0745552076640758,1
82,785,10,0.0804760108057465,1
82,786,10,0.0909133921123571,1
82,787,10,0.0851532347470609,1
82,788,10,0.0714500002779256,1
83,779,10,0.0731359543408525,1
83,780,10,0.0718850077167475,1
83,781,10,0.0745950756091745,1
83,782,10,0.077129708969751,1
83,783,10,0.0739466884113084,1
83,784,10,0.0713642266941193,1
83,785,10,0.0778697217619945,1
83,786,10,0.0871006784450888,1
83,787,10,0.0815951943504822,1
83,788,10,0.069803524824696,1
84,779,10,0.0737220778233789,1
84,780,10,0.06965260644358,1
84,781,10,0.0685004431954618,1
84,785,10,0.0703682887681265,1
84,786,10,0.0729345122041914,1
85,779,10,0.0738988061467171,1
85,780,10,0.0688244361369188,1
85,783,10,0.0692146041170554,1
85,784,10,0.0698566601223179,1
85,785,10,0.0682297173266856,1
86,779,10,0.0700299862532259,1
86,783,10,0.0729126615035122,1
86,784,10,0.0717888478623881,1
87,782,10,0.0696026577064738,1
87,783,10,0.0768662307292154,1
87,784,10,0.0724142762511251,1
88,783,10,0.0688223457053023,1
91,773,10,0.0738385010879349,1
91,774,10,0.0747051616913516,1
91,775,10,0.07004533804759,1
92,773,10,0.0727598024351647,1
92,774,10,0.0746480431930851,1
92,775,10,0.0706850101222413,1
93,772,10,0.081583550227094,1
93,773,10,0.0756324927298502,1
93,774,10,0.0695879408283026,1
94,771,10,0.0778549988940479,1
94,772,10,0.0968907267543046,1
94,773,10,0.0817191407729475,1
95,771,10,0.0814049530938292,1
95,772,10,0.0977675040883811,1
95,773,10,0.0801002841741125,1
96,772,10,0.0735622825951119,1
79,782,11,0.0686372736248242,1
79,783,11,0.0707186127622659,1
79,784,11,0.0721259823710847,1
79,785,11,0.0734307710863095,1
80,782,11,0.0716756111583478,1
80,783,11,0.0760614504955126,1
80,784,11,0.0750105563801746,1
80,785,11,0.0745381547734964,1
80,786,11,0.0723966124034544,1
80,787,11,0.0687967753540964,1
81,781,11,0.068966980812018,1
81,782,11,0.0789690551910365,1
81,783,11,0.0833193152622927,1
81,784,11,0.0771261809920371,1
81,785,11,0.0750434102982736,1
81,786,11,0.0769907701394458,1
81,787,11,0.073514819614799,1
81,791,11,0.0712403701182851,1
82,781,11,0.0730183211416646,1
82,782,11,0.0843802722003119,1
82,783,11,0.0863005043486728,1
82,784,11,0.0770813235640256,1
82,785,11,0.0768929571070746,1
82,786,11,0.0847100991830138,1
82,787,11,0.0808779726536564,1
82,788,11,0.0686133564516302,1
83,780,11,0.068598417951769,1
83,781,11,0.0740602485632206,1
83,782,11,0.0794558681973402,1
83,783,11,0.0772056353627906,1
83,784,11,0.0715789661321806,1
83,785,11,0.0769511118364862,1
83,786,11,0.0876312946789327,1
83,787,11,0.0828610195766944,1
83,788,11,0.0696204832780804,1
84,780,11,0.0683798330778974,1
84,781,11,0.0700235292753388,1
84,782,11,0.07088885415884,1
84,783,11,0.0698286399529712,1
84,784,11,0.0688805483529172,1
84,785,11,0.0717402408349728,1
84,786,11,0.0759193251046917,1
84,787,11,0.0712529486466366,1
85,779,11,0.0741651115612441,1
85,780,11,0.0700092676200983,1
85,781,11,0.068549978638065,1
85,782,11,0.06891715187042,1
85,783,11,0.0730656643264694,1
85,784,11,0.0745915715905623,1
85,785,11,0.071016592109137,1
86,778,11,0.0703193283439622,1
86,779,11,0.0695528347546511,1
86,780,11,0.0690409126098477,1
86,782,11,0.0686041082384042,1
86,783,11,0.0765815906121723,1
86,784,11,0.0775492268493743,1
86,785,11,0.0716456143631172,1
87,782,11,0.070275021975288,1
87,783,11,0.0802865182710192,1
87,784,11,0.0786464099490457,1
87,785,11,0.0710513747349165,1
88,783,11,0.0734726515959445,1
88,784,11,0.0697190210732758,1
91,773,11,0.073552165864452,1
91,774,11,0.0729120625259717,1
91,775,11,0.0688283354807077,1
92,773,11,0.0723167986461766,1
92,774,11,0.0746785431294497,1
92,775,11,0.0716744311725929,1
93,773,11,0.0740465379673175,1
93,774,11,0.0707204037051122,1
94,771,11,0.07894753991778,1
94,772,11,0.0951580404636642,1
94,773,11,0.081367295375855,1
95,771,11,0.0833268204508758,1
95,772,11,0.0986046770274767,1
95,773,11,0.0820752508901285,1
96,772,11,0.0741380737150638,1
79,783,12,0.0704145657729091,1
79,784,12,0.0723061847641581,1
79,785,12,0.0717413130047704,1
80,782,12,0.0702435936237355,1
80,783,12,0.076348636267103,1
80,784,12,0.0753798260339215,1
80,785,12,0.0718157419539587,1
80,786,12,0.0683516451948392,1
81,781,12,0.0703863539307494,1
81,782,12,0.078472940063528,1
81,783,12,0.0852899513706906,1
81,784,12,0.0789369020766599,1
81,785,12,0.0723770797458572,1
81,786,12,0.0706445671587036,1
82,781,12,0.0733241830329693,1
82,782,12,0.0839809218944788,1
82,783,12,0.0885238490814272,1
82,784,12,0.0785529395038434,1
82,785,12,0.0742529516175652,1
82,786,12,0.0775755159736289,1
82,787,12,0.074424193306632,1
83,781,12,0.0736022224175155,1
83,782,12,0.0792602121837207,1
83,783,12,0.0782504618356429,1
83,784,12,0.0715402602035105,1
83,785,12,0.074996336653362,1
83,786,12,0.0829719082887758,1
83,787,12,0.0787399762306545,1
84,780,12,0.0684276075265313,1
84,781,12,0.0714513180285148,1
84,782,12,0.073161902047909,1
84,783,12,0.0728459413952707,1
84,784,12,0.0717373477734519,1
84,785,12,0.0731678319255604,1
84,786,12,0.0756180394017968,1
84,787,12,0.0714178890919769,1
85,779,12,0.0745709847324938,1
85,780,12,0.0719958005924223,1
85,781,12,0.0718241875372804,1
85,782,12,0.07274385166326,1
85,783,12,0.0785882971480619,1
85,784,12,0.0818297779144618,1
85,785,12,0.0759725981671479,1
85,786,12,0.0700472308166182,1
86,778,12,0.0691479199474663,1
86,779,12,0.0707551084638114,1
86,780,12,0.0731596738514582,1
86,781,12,0.0716332993848836,1
86,782,12,0.0721836159900361,1
86,783,12,0.0823407416952004,1
86,784,12,0.087752389968305,1
86,785,12,0.0807944691947288,1
86,786,12,0.0725980784992172,1
87,782,12,0.0715924131779659,1
87,783,12,0.0854639423666686,1
87,784,12,0.0906532980949256,1
87,785,12,0.0833341758950737,1
87,786,12,0.0729485462479663,1
88,783,12,0.079243183252243,1
88,784,12,0.081256514479731,1
88,785,12,0.0736087572624829,1
89,783,12,0.0696448257253283,1
89,784,12,0.0687710792176069,1
91,773,12,0.074764789905513,1
91,774,12,0.072474162025629,1
91,775,12,0.0696991769473574,1
92,773,12,0.0730418609590081,1
92,774,12,0.0741835121512897,1
92,775,12,0.0729155306059314,1
93,773,12,0.072091020052043,1
93,774,12,0.0714582242395573,1
93,775,12,0.0694130034478106,1
94,772,12,0.0838111776492633,1
94,773,12,0.0795395573393053,1
94,774,12,0.0678858263513317,1
95,771,12,0.0762370347717483,1
95,772,12,0.0880185216793452,1
95,773,12,0.0819323528182804,1
96,772,12,0.0705766970135842,1
96,773,12,0.0691119992643597,1
79,783,13,0.0705280420679656,1
79,784,13,0.0743537954762916,1
79,785,13,0.0742019846186401,1
80,782,13,0.0689243336111311,1
80,783,13,0.075917216703749,1
80,784,13,0.0774007582863991,1
80,785,13,0.0735071706716062,1
80,786,13,0.0689799366962201,1
81,780,13,0.0683580961829509,1
81,781,13,0.0717148262179274,1
81,782,13,0.0760724656924832,1
81,783,13,0.0827848955210664,1
81,784,13,0.0809600864846899,1
81,785,13,0.074581107452929,1
81,786,13,0.0699840626451921,1
82,781,13,0.0721591597370556,1
82,782,13,0.0786462362455589,1
82,783,13,0.0832737151021309,1
82,784,13,0.079146304624835,1
82,785,13,0.0749391402880152,1
82,786,13,0.0733017034058726,1
82,787,13,0.0685673010685376,1
83,781,13,0.0711817901148197,1
83,782,13,0.0758598047064876,1
83,783,13,0.0758420809610628,1
83,784,13,0.0726070032645714,1
83,785,13,0.0739716298360967,1
83,786,13,0.0760817139057092,1
83,787,13,0.071513869253074,1
84,781,13,0.0704635561459504,1
84,782,13,0.0728504576859265,1
84,783,13,0.0727801377226663,1
84,784,13,0.0724738265982063,1
84,785,13,0.0725477643858113,1
84,786,13,0.0712633409069651,1
85,779,13,0.0721764582084266,1
85,780,13,0.0725662967509158,1
85,781,13,0.0728837847962825,1
85,782,13,0.0737635450385109,1
85,783,13,0.0786860442929037,1
85,784,13,0.0831305654597157,1
85,785,13,0.0781150270239499,1
85,786,13,0.0704838674743503,1
86,778,13,0.0692352928013058,1
86,779,13,0.072306759782597,1
86,780,13,0.0747256467232383,1
86,781,13,0.0723386912752836,1
86,782,13,0.0723608953727116,1
86,783,13,0.0833165959042587,1
86,784,13,0.0941127288190041,1
86,785,13,0.089399596174134,1
86,786,13,0.0783693169490135,1
87,779,13,0.0706832910566999,1
87,780,13,0.0706367325324732,1
87,782,13,0.0709420613337668,1
87,783,13,0.0876992846195601,1
87,784,13,0.101760713647718,1
87,785,13,0.0976179453862821,1
87,786,13,0.0836236557506444,1
88,783,13,0.0840815022030873,1
88,784,13,0.093695888368987,1
88,785,13,0.0880333224143721,1
88,786,13,0.0721847001393845,1
89,783,13,0.074258252568799,1
89,784,13,0.0777489978386974,1
89,785,13,0.0711738896010599,1
91,773,13,0.0735630732454654,1
91,774,13,0.071718144553502,1
91,775,13,0.0720641079911463,1
91,776,13,0.0729263301709875,1
92,773,13,0.0713809082186235,1
92,774,13,0.0723783495782431,1
92,775,13,0.0741403917581457,1
92,776,13,0.0729556980398005,1
93,773,13,0.0687159852634275,1
93,774,13,0.0716250215152733,1
93,775,13,0.0713184348611445,1
94,772,13,0.0698227100753197,1
94,773,13,0.0748095155584656,1
94,774,13,0.07411467765233,1
94,775,13,0.0696500847481342,1
95,771,13,0.0684366221385166,1
95,772,13,0.0736982325274897,1
95,773,13,0.0784031172516265,1
95,774,13,0.0753376100968638,1
95,775,13,0.0696658857756539,1
95,776,13,0.0681225302958048,1
95,777,13,0.0692131545914072,1
96,773,13,0.0697020101111242,1
79,784,14,0.071941521247698,1
79,785,14,0.0749470647608767,1
80,783,14,0.0709721958938317,1
80,784,14,0.0752192820837288,1
80,785,14,0.0741820865847432,1
80,786,14,0.0699625294026095,1
81,781,14,0.0702497870515048,1
81,782,14,0.069890682046621,1
81,783,14,0.0757819496057674,1
81,784,14,0.0791103060746481,1
81,785,14,0.0759189657181674,1
81,786,14,0.0700809652317018,1
82,780,14,0.0686938590330797,1
82,781,14,0.0703235451458477,1
82,782,14,0.0711331112100995,1
82,783,14,0.0761661338002739,1
82,784,14,0.0785680936356192,1
82,785,14,0.0761993650742234,1
82,786,14,0.070932004500861,1
83,781,14,0.0692913630888764,1
83,782,14,0.0717684886157849,1
83,783,14,0.0738659342592919,1
83,784,14,0.0744555976990829,1
83,785,14,0.0737549856494565,1
83,786,14,0.0703974110561479,1
84,783,14,0.0731284012340662,1
84,784,14,0.0728797237285576,1
84,785,14,0.071964935279758,1
85,779,14,0.0714264784299083,1
85,780,14,0.0744854387601529,1
85,781,14,0.0754829639766282,1
85,783,14,0.0776640867825495,1
85,784,14,0.0826650221458768,1
85,785,14,0.0816814950345241,1
85,786,14,0.0726848583652916,1
85,788,14,0.068183056976277,1
85,789,14,0.0697629860247519,1
86,778,14,0.0717165572630196,1
86,779,14,0.0752214623619764,1
86,780,14,0.076071782858087,1
86,781,14,0.0727967114312132,1
86,783,14,0.0833843103152174,1
86,784,14,0.100381454054877,1
86,785,14,0.103308555469345,1
86,786,14,0.0874934639570776,1
86,787,14,0.0715262261597355,1
87,778,14,0.0728423355504767,1
87,779,14,0.0776951198089252,1
87,780,14,0.0743189289936564,1
87,782,14,0.0704398066864678,1
87,783,14,0.0899605386408558,1
87,784,14,0.114166317183238,1
87,785,14,0.118789058127464,1
87,786,14,0.0983439960120555,1
87,787,14,0.0742078725678637,1
88,782,14,0.0683903391439585,1
88,783,14,0.0886136178454289,1
88,784,14,0.105749317069767,1
88,785,14,0.105168811996571,1
88,786,14,0.0839407963890375,1
89,776,14,0.0682532990724569,1
89,777,14,0.067820477901658,1
89,783,14,0.0797498643435666,1
89,784,14,0.086416915633678,1
89,785,14,0.0811256798155494,1
90,776,14,0.0725990069144051,1
90,777,14,0.0698580018320087,1
91,773,14,0.0697636808386989,1
91,774,14,0.0712298580624485,1
91,775,14,0.0748210338965703,1
91,776,14,0.0809092273017221,1
91,777,14,0.0724854827011453,1
92,773,14,0.0677726315757192,1
92,774,14,0.0717217503982961,1
92,775,14,0.0765552595594899,1
92,776,14,0.0801379359023113,1
92,777,14,0.069047447454815,1
93,774,14,0.0742972579862394,1
93,775,14,0.0746458629148375,1
93,776,14,0.0705102584247868,1
94,773,14,0.0737032220104025,1
94,774,14,0.0846368681889066,1
94,775,14,0.0789337454650212,1
95,773,14,0.0766169542461662,1
95,774,14,0.0870954254120582,1
95,775,14,0.0802310529507646,1
95,776,14,0.071370617784477,1
95,777,14,0.0725834454779017,1
95,778,14,0.0701798085054427,1
96,773,14,0.0682449553153171,1
96,774,14,0.0729816876752848,1
96,777,14,0.0680909282407656,1
79,784,15,0.0699831222504535,1
79,785,15,0.0756024839550688,1
80,784,15,0.0722757387357721,1
80,785,15,0.0749683224737907,1
80,786,15,0.0726717227878274,1
81,783,15,0.0698754859864173,1
81,784,15,0.0777151076894532,1
81,785,15,0.0776069443251814,1
81,786,15,0.0710202338925835,1
82,781,15,0.0698615777279258,1
82,783,15,0.072998620770356,1
82,784,15,0.0802535086187597,1
82,785,15,0.0781969252230688,1
82,786,15,0.0691194205960871,1
83,782,15,0.0694121409201522,1
83,783,15,0.0739663768030662,1
83,784,15,0.0780830116744077,1
83,785,15,0.0746227244124462,1
84,783,15,0.0719227672609035,1
84,784,15,0.0723347739621684,1
84,785,15,0.0704805012205725,1
85,784,15,0.0775463757162813,1
85,785,15,0.0799790271608043,1
85,786,15,0.0723850161982694,1
86,779,15,0.0751659970417218,1
86,780,15,0.073374065882546,1
86,783,15,0.0794047933824578,1
86,784,15,0.0957003068106717,1
86,785,15,0.104467744724014,1
86,786,15,0.0889117229775835,1
86,787,15,0.071629819325373,1
87,779,15,0.0798281327387898,1
87,783,15,0.0861630210337912,1
87,784,15,0.110878026322044,1
87,785,15,0.121528302215891,1
87,786,15,0.100363490718436,1
87,787,15,0.0751443859320589,1
88,776,15,0.0683679014452897,1
88,782,15,0.0678130984983585,1
88,783,15,0.0851859149616731,1
88,784,15,0.103720412426225,1
88,785,15,0.107123515302391,1
88,786,15,0.0860686880609305,1
89,775,15,0.0720799209982167,1
89,776,15,0.0742698966921873,1
89,777,15,0.071322400092463,1
89,783,15,0.0782174521833833,1
89,784,15,0.0860854594320658,1
89,785,15,0.0817078320769819,1
90,774,15,0.0694473428302101,1
90,775,15,0.0733631704810834,1
90,776,15,0.0774918927191932,1
90,777,15,0.0738058148835473,1
90,778,15,0.0679805187107167,1
91,774,15,0.0704432148686735,1
91,775,15,0.0757238308150081,1
91,776,15,0.0828839005187433,1
91,777,15,0.0758051120672603,1
92,774,15,0.0695286660108901,1
92,775,15,0.0751218823458606,1
92,776,15,0.0803918963897276,1
92,777,15,0.0708382705055409,1
93,774,15,0.073527967171814,1
93,775,15,0.0730446402147962,1
93,776,15,0.0687523312205878,1
94,773,15,0.0740380025373647,1
94,774,15,0.0899537162866689,1
94,775,15,0.0820741906998818,1
95,773,15,0.07729980062194,1
95,774,15,0.0939888422942929,1
95,775,15,0.0846308185157471,1
95,776,15,0.0710774781761335,1
95,777,15,0.0748131333828105,1
95,778,15,0.0756438313746927,1
96,773,15,0.0688219923085534,1
96,774,15,0.0775727067689637,1
96,775,15,0.0719263371670452,1
96,776,15,0.069602262381297,1
96,777,15,0.0771605563130891,1
96,778,15,0.0727338906667607,1
79,785,16,0.075345929894902,1
80,784,16,0.0700026968364786,1
80,785,16,0.0759206548348317,1
80,786,16,0.0765033581556015,1
81,784,16,0.0767440812393717,1
81,785,16,0.0796982863875502,1
81,786,16,0.0744515845495612,1
82,783,16,0.0718005039653272,1
82,784,16,0.0820313997443851,1
82,785,16,0.0807313788903831,1
82,786,16,0.0709307226889242,1
83,783,16,0.0743698360948274,1
83,784,16,0.0804750704110078,1
83,785,16,0.0759368871261805,1
84,784,16,0.0722608421643387,1
85,785,16,0.0760782458257495,1
86,784,16,0.0869519223728941,1
86,785,16,0.0970623038707941,1
86,786,16,0.0868447712806657,1
87,783,16,0.080115522162744,1
87,784,16,0.0992998922894627,1
87,785,16,0.110606701475727,1
87,786,16,0.0950868879216227,1
87,787,16,0.0735712792377709,1
88,783,16,0.0797598193502905,1
88,784,16,0.0950265708832897,1
88,785,16,0.0990213317944562,1
88,786,16,0.082356512773843,1
89,775,16,0.0765866939008178,1
89,776,16,0.0765357269018927,1
89,777,16,0.0729013528075467,1
89,778,16,0.07077835478216,1
89,780,16,0.0684732975333242,1
89,783,16,0.0745729314095005,1
89,784,16,0.0799837770527008,1
89,785,16,0.0753871036110391,1
90,774,16,0.0702331893838562,1
90,775,16,0.0764093606101636,1
90,776,16,0.0780646110843621,1
90,777,16,0.07544701933442,1
90,778,16,0.0712510019696298,1
90,779,16,0.0702409102043539,1
90,780,16,0.0691107354217492,1
91,774,16,0.0689564987050585,1
91,775,16,0.074147884967178,1
91,776,16,0.0785235896043567,1
91,777,16,0.0750394750158322,1
91,778,16,0.0683403005602213,1
91,779,16,0.0678012147839541,1
91,780,16,0.0685987953076195,1
91,781,16,0.0685884809143713,1
92,775,16,0.0708394145526433,1
92,776,16,0.0741518621780472,1
92,777,16,0.0687379377902885,1
93,774,16,0.0679989911780671,1
93,775,16,0.0679758227267988,1
94,773,16,0.069122756900988,1
94,774,16,0.0845453623900373,1
94,775,16,0.0778771970017005,1
94,777,16,0.0707383370926761,1
94,778,16,0.0747988657377947,1
95,773,16,0.0743876916153111,1
95,774,16,0.0913601574802999,1
95,775,16,0.0828552993411822,1
95,776,16,0.0719471276774775,1
95,777,16,0.0819144314102672,1
95,778,16,0.0844640871275606,1
96,774,16,0.0772619632107036,1
96,775,16,0.072747307763669,1
96,776,16,0.0702564896101835,1
96,777,16,0.0796516380166924,1
96,778,16,0.0764865628253646,1
80,785,17,0.0797046415392554,1
81,784,17,0.0780818376784282,1
81,785,17,0.0830785083216668,1
81,786,17,0.0802349103661257,1
82,783,17,0.072103251173421,1
82,784,17,0.0814331409768873,1
82,785,17,0.0817903651922938,1
83,784,17,0.0787543337223014,1
86,785,17,0.0861089932596339,1
87,784,17,0.0871788929323334,1
87,785,17,0.0938557375052327,1
87,786,17,0.0854228045891838,1
87,787,17,0.0711831917222646,1
88,783,17,0.0766059450389709,1
88,784,17,0.0856574600304683,1
88,785,17,0.0875532479053995,1
88,786,17,0.0767341501917495,1
89,776,17,0.0781152486456399,1
89,777,17,0.0758323415862535,1
89,781,17,0.0696600756935106,1
89,782,17,0.0680361217958056,1
89,783,17,0.0721993690993525,1
89,784,17,0.0744519738849626,1
89,785,17,0.0701724171225924,1
90,775,17,0.0774860766472745,1
90,776,17,0.0784011106768657,1
90,777,17,0.0776334969995538,1
90,778,17,0.0757160560865318,1
90,779,17,0.0743376949600017,1
90,780,17,0.0725568209262244,1
90,781,17,0.0705779848152964,1
91,775,17,0.0731725458788045,1
91,776,17,0.075914838762913,1
91,777,17,0.0758730840385615,1
91,778,17,0.072972960572519,1
91,779,17,0.0723585533705281,1
91,780,17,0.0722259097941741,1
91,781,17,0.0707985103763994,1
92,776,17,0.0710978374227367,1
92,777,17,0.0709338613312367,1
92,778,17,0.0688968345522446,1
92,779,17,0.0695956915976772,1
92,780,17,0.0712694684472049,1
92,781,17,0.0700092556405475,1
93,777,17,0.0707599062739112,1
93,778,17,0.0722320612935155,1
93,779,17,0.0700644214720319,1
93,780,17,0.0698093528761656,1
93,781,17,0.0683004445946733,1
94,774,17,0.0740702634676985,1
94,775,17,0.0712834965012045,1
94,776,17,0.0693998798498972,1
94,777,17,0.0800727312072474,1
94,778,17,0.0848656895889461,1
94,779,17,0.0744517702325988,1
95,773,17,0.0698761089230595,1
95,774,17,0.0827823139278666,1
95,775,17,0.0773793448393245,1
95,776,17,0.0725360064566904,1
95,777,17,0.0839756029739187,1
95,778,17,0.0880256375325269,1
95,779,17,0.0731501381290127,1
96,774,17,0.0748000097848971,1
96,775,17,0.0713342957864182,1
96,776,17,0.0685303201951843,1
96,777,17,0.0747376801820278,1
96,778,17,0.0751912499348312,1
81,785,18,0.0867952238585117,1
82,784,18,0.0813347409465263,1
88,786,18,0.0781271623089214,1
88,787,18,0.0710553040275825,1
89,783,18,0.0774088444831964,1
89,784,18,0.0771724520070444,1
89,785,18,0.0727017555217104,1
90,776,18,0.0813198922932962,1
90,777,18,0.0820182881260226,1
90,781,18,0.0771285529430977,1
90,782,18,0.0743482369647153,1
90,783,18,0.0719163582012197,1
90,784,18,0.0678798904839048,1
91,776,18,0.0778159215993026,1
91,777,18,0.0802874766350841,1
91,779,18,0.0786733998770227,1
91,780,18,0.0775220692076859,1
91,781,18,0.0749042019280752,1
91,782,18,0.0697331928818851,1
92,778,18,0.0785817203746667,1
92,779,18,0.0769550890473555,1
92,780,18,0.0766375231349085,1
92,781,18,0.0736650491717434,1
93,776,18,0.0709729206566557,1
93,777,18,0.079286645062585,1
93,778,18,0.0824397766417543,1
93,779,18,0.0789663178636762,1
93,780,18,0.0781971228856572,1
93,781,18,0.0747411362824368,1
94,775,18,0.0700263384800039,1
94,776,18,0.0738913309070111,1
94,777,18,0.0863237806158984,1
94,778,18,0.092077546890837,1
94,779,18,0.083747739937944,1
94,780,18,0.077578516851107,1
94,781,18,0.0721023467173347,1
95,774,18,0.0753335130904864,1
95,775,18,0.0751580486097587,1
95,776,18,0.0745570045966974,1
95,777,18,0.08263389927287,1
95,778,18,0.0879532930251797,1
95,779,18,0.0797748956149861,1
96,774,18,0.0707605052514517,1
96,775,18,0.070988110727084,1
96,776,18,0.0687934450389709,1
96,777,18,0.0703900735812762,1
96,778,18,0.0738405316217973,1
89,786,19,0.0753139265249106,1
89,787,19,0.0736177778642435,1
89,788,19,0.0726660325011922,1
90,783,19,0.0758941680479887,1
90,784,19,0.0729669947562152,1
90,785,19,0.0688446156902598,1
90,788,19,0.0684067571183449,1
90,789,19,0.0710189760397483,1
90,790,19,0.0700744124174082,1
91,781,19,0.0768987851585441,1
91,782,19,0.0725998814216142,1
91,783,19,0.069329248418316,1
91,789,19,0.0685437552614187,1
92,779,19,0.0827472437928676,1
92,780,19,0.0806210831660669,1
92,781,19,0.0759741016007747,1
92,782,19,0.0702856658061835,1
93,778,19,0.0864046905020754,1
93,779,19,0.0854092916558691,1
93,780,19,0.0850275692590542,1
93,781,19,0.0800329111803519,1
95,777,19,0.0789447486824411,1
95,778,19,0.0833430826911016,1
91,788,20,0.0777620435695305,1
91,789,20,0.0800669151353287,1
91,790,20,0.0762558246971953,1
92,789,20,0.0760985391848232,1
