x,y,z,signal,cytoplasm.p
722,533,1,0.0679002557202834,1
722,535,1,0.0682038894151372,1
722,536,1,0.0691521427391272,1
722,537,1,0.0692098662047096,1
723,529,1,0.0688335825239629,1
723,530,1,0.0716635657200074,1
723,531,1,0.0735823423529448,1
723,532,1,0.0754690916567891,1
723,533,1,0.0777957360561862,1
723,534,1,0.0776961260911933,1
723,535,1,0.0774709344950495,1
723,536,1,0.077339938106932,1
723,537,1,0.0773081383893044,1
723,538,1,0.0741701968805633,1
723,539,1,0.0699572344411511,1
724,527,1,0.070524945354081,1
724,528,1,0.0731374218358269,1
724,529,1,0.07545012203808,1
724,530,1,0.0784681901716315,1
724,531,1,0.0816207347528111,1
724,532,1,0.0868919467517592,1
724,533,1,0.0911640881721774,1
724,534,1,0.0905194445839397,1
724,535,1,0.0876885629215843,1
724,536,1,0.0850087493847303,1
724,537,1,0.082969901714015,1
724,538,1,0.0788964890619993,1
724,539,1,0.0735775265735188,1
724,540,1,0.0691131732603392,1
724,544,1,0.0686034493631096,1
725,526,1,0.0710987658379245,1
725,527,1,0.0748921325306331,1
725,528,1,0.0777780781982909,1
725,529,1,0.0800951569263654,1
725,530,1,0.0832694503820423,1
725,531,1,0.0896053210002101,1
725,532,1,0.101217584773052,1
725,533,1,0.109457191698114,1
725,534,1,0.105782176977642,1
725,535,1,0.0979500365040872,1
725,536,1,0.0901987699780573,1
725,537,1,0.0851194643933249,1
725,538,1,0.0797635749394697,1
725,539,1,0.0748003871407476,1
725,540,1,0.0716542935476798,1
725,541,1,0.0698603857626201,1
725,542,1,0.0694298466962507,1
725,543,1,0.0698008713541914,1
725,544,1,0.072762419967017,1
726,523,1,0.0679935344926727,1
726,524,1,0.0702550161254338,1
726,525,1,0.0726352390658327,1
726,526,1,0.0770060380769543,1
726,527,1,0.081244858376792,1
726,528,1,0.0834458732268348,1
726,529,1,0.0847667744379003,1
726,530,1,0.0884964039305194,1
726,531,1,0.0977427064182025,1
726,532,1,0.116823561246364,1
726,533,1,0.128954845047865,1
726,534,1,0.122184685763923,1
726,535,1,0.107808577895064,1
726,536,1,0.0958907636992393,1
726,537,1,0.0876626571429557,1
726,538,1,0.0819763177697565,1
726,539,1,0.0777936695836713,1
726,540,1,0.077163036080107,1
726,541,1,0.0775159117185691,1
726,542,1,0.0764125411809039,1
726,543,1,0.0743641997161709,1
726,544,1,0.0752011869722289,1
727,520,1,0.0698431172401262,1
727,521,1,0.0715380978945891,1
727,522,1,0.0726449844304174,1
727,523,1,0.0728617424227904,1
727,524,1,0.0750523350636277,1
727,525,1,0.0789401485349297,1
727,526,1,0.0843391883308058,1
727,527,1,0.0885727256487358,1
727,528,1,0.0899516977323573,1
727,529,1,0.0904540841547152,1
727,530,1,0.0930873511468934,1
727,531,1,0.102369131074303,1
727,532,1,0.123003512020952,1
727,533,1,0.136586477789721,1
727,534,1,0.128317772535739,1
727,535,1,0.112276890449787,1
727,536,1,0.0988059514504265,1
727,537,1,0.0900930863808033,1
727,538,1,0.0851750435193122,1
727,539,1,0.0834153014131653,1
727,540,1,0.0846821149523195,1
727,541,1,0.0857508346392641,1
727,544,1,0.0766983253450494,1
728,519,1,0.0698835961423163,1
728,520,1,0.0740338935514366,1
728,521,1,0.0766801823153462,1
728,523,1,0.0787375982898185,1
728,524,1,0.0812221151995774,1
728,525,1,0.0861214579822526,1
728,526,1,0.0913244284700063,1
728,527,1,0.0950843782057278,1
728,528,1,0.0974493032597412,1
728,529,1,0.0979907549972936,1
728,530,1,0.0987001780065414,1
728,531,1,0.104040230494225,1
728,532,1,0.118585178152213,1
728,533,1,0.128019805168419,1
728,534,1,0.122075336424121,1
728,535,1,0.11020137337404,1
728,536,1,0.100211937421127,1
728,537,1,0.0937835247729444,1
728,538,1,0.0922195644657005,1
728,539,1,0.0927738343226206,1
728,540,1,0.0933162923424411,1
728,543,1,0.0785063510307397,1
729,517,1,0.0681332220449036,1
729,518,1,0.0706461005412074,1
729,519,1,0.0741747191609944,1
729,520,1,0.0779999454690847,1
729,524,1,0.087842074875451,1
729,525,1,0.0928000815184474,1
729,526,1,0.0970359608385609,1
729,527,1,0.100715689512277,1
729,528,1,0.104128531763252,1
729,529,1,0.105729994054309,1
729,531,1,0.106573941429389,1
729,532,1,0.112162066455264,1
729,535,1,0.107491814612522,1
729,536,1,0.100916898047697,1
729,537,1,0.097774386340322,1
729,538,1,0.0983716448153271,1
729,539,1,0.0997945998197509,1
729,542,1,0.0816304861071712,1
730,508,1,0.0691311545661064,1
730,509,1,0.0684317045329087,1
730,510,1,0.0677461747377533,1
730,516,1,0.0702790950225637,1
730,517,1,0.072383297132728,1
730,518,1,0.0750657461707605,1
730,519,1,0.078133583348156,1
730,536,1,0.103839680834099,1
730,537,1,0.101973111083595,1
730,538,1,0.102153894484883,1
730,539,1,0.101240369878694,1
730,540,1,0.0968537099422988,1
730,541,1,0.0883090138069594,1
730,542,1,0.0797269953810685,1
731,508,1,0.0705027771953054,1
731,509,1,0.0704969671131621,1
731,510,1,0.0702599037821646,1
731,511,1,0.0700831215508477,1
731,512,1,0.0689330786832231,1
731,514,1,0.0685130995908936,1
731,515,1,0.0704183153723129,1
731,516,1,0.073080297347785,1
731,517,1,0.0754204786395984,1
731,518,1,0.0784881061748547,1
731,537,1,0.106109637999059,1
731,538,1,0.105153741721651,1
731,539,1,0.101292337170112,1
731,540,1,0.0955518622067981,1
731,541,1,0.0883084268089697,1
732,510,1,0.0724680344853892,1
732,511,1,0.0728039410901276,1
732,515,1,0.0747605970627291,1
732,516,1,0.0766820750843744,1
732,517,1,0.0788800411387359,1
732,518,1,0.0825090843329709,1
732,537,1,0.109084939136215,1
732,538,1,0.108473982044858,1
732,539,1,0.102163214575414,1
732,540,1,0.0947008948149437,1
733,516,1,0.0808383383097985,1
733,517,1,0.0826079455760381,1
733,518,1,0.0863578145197523,1
734,516,1,0.0857036471886198,1
734,517,1,0.0872585868941031,1
723,533,2,0.0690707476811423,1
723,534,2,0.0685459295498909,1
723,535,2,0.0686167466645097,1
723,536,2,0.0694496189448642,1
723,537,2,0.0709360475992597,1
724,528,2,0.0691867636409707,1
724,529,2,0.0708936879075922,1
724,530,2,0.0726674161393109,1
724,531,2,0.0745266963331458,1
724,532,2,0.0780397055982262,1
724,533,2,0.0809707183360346,1
724,534,2,0.0798480607215638,1
724,535,2,0.0777753708198076,1
724,536,2,0.0763163753367691,1
724,537,2,0.0749280951421676,1
724,538,2,0.0713054729871671,1
725,527,2,0.0702136627160344,1
725,528,2,0.0730154879778978,1
725,529,2,0.0755810705079943,1
725,530,2,0.0768685907007251,1
725,531,2,0.081989117919798,1
725,532,2,0.0933760403521106,1
725,533,2,0.102355905650208,1
725,534,2,0.0952057070963409,1
725,535,2,0.0865534226151685,1
725,536,2,0.0798941161046564,1
725,537,2,0.0758954977781287,1
725,538,2,0.0714887241759219,1
725,543,2,0.0680885323306034,1
726,524,2,0.068447870936728,1
726,525,2,0.0699659136257136,1
726,526,2,0.0718693624233884,1
726,527,2,0.0763833769644547,1
726,528,2,0.078360416142761,1
726,529,2,0.0799528518422824,1
726,530,2,0.0814118772741979,1
726,531,2,0.0901264494298117,1
726,532,2,0.113353336947005,1
726,533,2,0.130308402514441,1
726,534,2,0.115768833674767,1
726,535,2,0.095672598109646,1
726,536,2,0.08490105322294,1
726,537,2,0.0786694945434584,1
726,538,2,0.0745440547022708,1
726,539,2,0.0699923644739041,1
726,540,2,0.0698497419317246,1
726,541,2,0.0723434112183031,1
727,520,2,0.068461461737123,1
727,521,2,0.069945770011025,1
727,523,2,0.070873933628305,1
727,524,2,0.0728653003493812,1
727,525,2,0.076286827774694,1
727,526,2,0.0799033882769841,1
727,527,2,0.0846316331252022,1
727,528,2,0.0846168982777048,1
727,529,2,0.0849909118335728,1
727,530,2,0.0851596737556218,1
727,531,2,0.0940339992110747,1
727,532,2,0.118941414054677,1
727,533,2,0.138652471122574,1
727,534,2,0.121630499763859,1
727,535,2,0.0997118031543212,1
727,536,2,0.0878343061367501,1
727,537,2,0.081722782556394,1
727,538,2,0.0778424922430013,1
727,539,2,0.075711198378678,1
727,540,2,0.0781738585979824,1
728,519,2,0.0679650830594968,1
728,520,2,0.0721553143012453,1
728,524,2,0.0786593598434723,1
728,525,2,0.0831438028633618,1
728,526,2,0.0870127485421366,1
728,527,2,0.0908052347378606,1
728,528,2,0.0919253826364365,1
728,529,2,0.0923585092857811,1
728,530,2,0.0910750501607752,1
728,531,2,0.0943758297036892,1
728,532,2,0.108835417072374,1
728,533,2,0.120940357841641,1
728,534,2,0.111192836937804,1
728,535,2,0.0983293030929858,1
728,536,2,0.0911362776449698,1
728,537,2,0.086096025395881,1
728,538,2,0.0847949323720814,1
728,539,2,0.0852631171768741,1
729,518,2,0.069074407433915,1
729,519,2,0.072853847898806,1
729,520,2,0.0759640866962967,1
729,527,2,0.0961294921877995,1
729,528,2,0.0990420444378083,1
729,529,2,0.100284689233201,1
729,530,2,0.0975896796361437,1
729,531,2,0.0962812850761248,1
729,532,2,0.0992354482958754,1
729,535,2,0.0973644700706736,1
729,536,2,0.0932576045230184,1
729,537,2,0.0915047566483632,1
729,538,2,0.0923252300936283,1
729,543,2,0.0759616548474821,1
730,516,2,0.0691042724540867,1
730,517,2,0.0711758841962699,1
730,518,2,0.0738813938696134,1
730,519,2,0.0771497028400544,1
730,536,2,0.097633632608069,1
730,537,2,0.097415574834433,1
730,538,2,0.0989747133724755,1
730,539,2,0.0986199030365574,1
730,542,2,0.0813638392754461,1
731,510,2,0.0690569472386081,1
731,511,2,0.0695554882251558,1
731,514,2,0.0679186623001044,1
731,515,2,0.0700149758760598,1
731,516,2,0.0722158769203699,1
731,517,2,0.0743849482981754,1
731,518,2,0.077268276433981,1
731,537,2,0.101981436871409,1
731,538,2,0.102888887845337,1
731,539,2,0.0997746957960785,1
731,540,2,0.0959480559009926,1
731,541,2,0.0898595450377442,1
732,515,2,0.0748821835136847,1
732,516,2,0.0765058978203734,1
732,517,2,0.0785863025528519,1
732,518,2,0.0818563066297326,1
732,539,2,0.101021120139752,1
732,540,2,0.0953541636797653,1
733,516,2,0.0828585517892274,1
733,517,2,0.0847079069252154,1
733,518,2,0.0873641027776457,1
724,532,3,0.0679693717386871,1
724,533,3,0.0685236415956072,1
725,528,3,0.0683310942754231,1
725,529,3,0.0703186095709136,1
725,530,3,0.069869645955397,1
725,531,3,0.0735675116690409,1
725,532,3,0.0821329683659356,1
725,533,3,0.0892550089856215,1
725,534,3,0.080002363325784,1
725,535,3,0.0726128073569392,1
725,536,3,0.0684428275458366,1
726,525,3,0.0678346796591444,1
726,526,3,0.0677990165363803,1
726,527,3,0.0710158194281097,1
726,528,3,0.0729315891937935,1
726,529,3,0.0743849602777262,1
726,530,3,0.0740580563054222,1
726,531,3,0.081364887486142,1
726,532,3,0.102761569179318,1
726,533,3,0.120877860525061,1
726,534,3,0.101436702736934,1
726,535,3,0.0803198094427228,1
726,536,3,0.0727290329589069,1
726,537,3,0.0682782165381437,1
727,520,3,0.0691167910846841,1
727,521,3,0.0703729368338411,1
727,522,3,0.0701381436277223,1
727,523,3,0.07003381371971,1
727,524,3,0.0714619798287365,1
727,525,3,0.0734785694940451,1
727,526,3,0.0757148221927983,1
727,527,3,0.0788461929179196,1
727,528,3,0.077744206018373,1
727,529,3,0.0777025710895296,1
727,530,3,0.0772341766425977,1
727,531,3,0.0842862866344248,1
727,532,3,0.107041095992812,1
727,533,3,0.128255958053555,1
727,534,3,0.107054932373998,1
727,535,3,0.0839718953029427,1
727,536,3,0.0762886486664172,1
727,537,3,0.0726187432243661,1
727,538,3,0.069879055892559,1
727,540,3,0.0689720661313373,1
728,519,3,0.0679225316950164,1
728,520,3,0.0724301970741528,1
728,521,3,0.0758130006014693,1
728,523,3,0.076689131039802,1
728,524,3,0.0775530303567568,1
728,525,3,0.0804167958860881,1
728,526,3,0.0826940725565933,1
728,527,3,0.0844328863874735,1
728,528,3,0.0836270160146469,1
728,529,3,0.0846181261816629,1
728,530,3,0.0837735858188186,1
728,531,3,0.0847235342492483,1
728,532,3,0.0939859851714245,1
728,533,3,0.105467510116491,1
728,534,3,0.0950692300637274,1
728,535,3,0.0844010806800705,1
728,536,3,0.0812063740698118,1
728,537,3,0.0778319023200844,1
728,538,3,0.0767231829129821,1
728,539,3,0.0771249710574052,1
729,518,3,0.06916954303668,1
729,519,3,0.0727795327553504,1
729,520,3,0.0756307976234105,1
729,524,3,0.0836013198781574,1
729,525,3,0.0862550000249175,1
729,526,3,0.0877541449724988,1
729,527,3,0.0888978865963969,1
729,528,3,0.0903725992500993,1
729,529,3,0.0919195485951916,1
729,530,3,0.0899042227724936,1
729,531,3,0.0869879269128563,1
729,532,3,0.0868316177338753,1
729,533,3,0.0910941156158907,1
729,534,3,0.0888841101129643,1
729,535,3,0.0863942443337683,1
729,536,3,0.0853809719977521,1
729,537,3,0.0849474380436799,1
729,538,3,0.0864013781562762,1
729,539,3,0.0881116986255526,1
729,543,3,0.0737598553368611,1
730,512,3,0.0679031907102321,1
730,516,3,0.069667808493559,1
730,517,3,0.0711007304842575,1
730,518,3,0.0738289713552648,1
730,519,3,0.0776953953385939,1
730,520,3,0.0794004268361872,1
730,527,3,0.094397410864475,1
730,528,3,0.0974666496493154,1
730,529,3,0.0980667113392103,1
730,532,3,0.0906145622173784,1
730,535,3,0.0912776722831912,1
730,536,3,0.090628087130244,1
730,537,3,0.0934035573803233,1
730,538,3,0.0971843994526591,1
730,539,3,0.0967352441643295,1
730,540,3,0.0968590648015113,1
730,542,3,0.0806643533035959,1
731,508,3,0.0684766817564283,1
731,510,3,0.0682543412933775,1
731,511,3,0.0699453028085434,1
731,512,3,0.070842349542592,1
731,514,3,0.0698180799789313,1
731,515,3,0.0712980935838676,1
731,516,3,0.0730022445844763,1
731,517,3,0.0742624394218075,1
731,518,3,0.0770544893702091,1
731,519,3,0.081635625334469,1
731,536,3,0.0952645985681274,1
731,537,3,0.0983100519548327,1
731,538,3,0.10168570968009,1
731,539,3,0.0986588545460191,1
731,540,3,0.0949572392329714,1
731,541,3,0.0888502439228218,1
732,510,3,0.0717472189233201,1
732,511,3,0.0712623106655953,1
732,516,3,0.0769691949684353,1
732,517,3,0.0785649370239806,1
732,518,3,0.0814575912400924,1
732,536,3,0.101154524417583,1
732,537,3,0.102073727330856,1
732,538,3,0.104063434884145,1
732,539,3,0.0997825903200629,1
732,540,3,0.0949613242597979,1
733,517,3,0.0860744681941968,1
733,518,3,0.0882073613285533,1
733,539,3,0.103757896440713,1
734,504,3,0.071724541633635,1
725,532,4,0.0711791186749888,1
725,533,4,0.0754370822970223,1
726,531,4,0.0724651713727454,1
726,532,4,0.0897210254917174,1
726,533,4,0.104822027959697,1
726,534,4,0.0853017392486886,1
727,521,4,0.0681046208673425,1
727,522,4,0.0679747745161028,1
727,523,4,0.0679156793919525,1
727,524,4,0.0687612320268403,1
727,525,4,0.0692804976362909,1
727,526,4,0.0709497941338152,1
727,527,4,0.0724799481486706,1
727,528,4,0.0713483537892948,1
727,529,4,0.0703268515018715,1
727,530,4,0.0696454247028688,1
727,531,4,0.0746617837378652,1
727,532,4,0.0925971958459135,1
727,533,4,0.110372285625459,1
727,534,4,0.0903486161893758,1
727,535,4,0.0698213923247305,1
728,520,4,0.0702661930463404,1
728,521,4,0.0748280239644685,1
728,522,4,0.076825673959945,1
728,523,4,0.0765381707302581,1
728,524,4,0.0765309530508945,1
728,525,4,0.0771202571041611,1
728,526,4,0.0785115980739949,1
728,527,4,0.0785097112947422,1
728,528,4,0.0768600013627937,1
728,529,4,0.0766663758830367,1
728,530,4,0.0758108382925479,1
728,531,4,0.074722334377439,1
728,532,4,0.0795007915128812,1
728,533,4,0.0880925133749289,1
728,534,4,0.0790497913737267,1
728,535,4,0.0707746710702856,1
728,536,4,0.0689726171906746,1
728,537,4,0.067817536921934,1
728,539,4,0.0690323172821408,1
728,540,4,0.0736707274788278,1
729,519,4,0.0694969261910165,1
729,520,4,0.072868768429341,1
729,521,4,0.0771601430185861,1
729,523,4,0.0823624007230665,1
729,524,4,0.0827041952770285,1
729,525,4,0.0835696639151395,1
729,526,4,0.0839271397011131,1
729,527,4,0.0830556633182704,1
729,528,4,0.0831191429580175,1
729,529,4,0.0831601010422401,1
729,530,4,0.080789168243495,1
729,531,4,0.0766061307220085,1
729,532,4,0.0751842418976068,1
729,533,4,0.0779925121578065,1
729,534,4,0.0763712656385848,1
729,535,4,0.074119493431756,1
729,536,4,0.0742566233498888,1
729,537,4,0.0757868372624982,1
729,538,4,0.077803828242759,1
729,539,4,0.0803876915673929,1
729,543,4,0.0728247795187632,1
730,518,4,0.0708398757653495,1
730,519,4,0.0753643424644984,1
730,520,4,0.0774274846642582,1
730,523,4,0.0844446503063698,1
730,524,4,0.0867445383790307,1
730,525,4,0.0886429437858141,1
730,526,4,0.0888631818376976,1
730,527,4,0.088713245779748,1
730,528,4,0.0908193466487159,1
730,529,4,0.0901573267220269,1
730,530,4,0.0855614020022909,1
730,531,4,0.0809274242394039,1
730,532,4,0.0795440736299611,1
730,533,4,0.0829509680339583,1
730,534,4,0.0826104972203609,1
730,535,4,0.0796133334029745,1
730,536,4,0.0804834081783723,1
730,537,4,0.0861809424418043,1
730,538,4,0.0912695681170676,1
730,539,4,0.0919493597073846,1
730,540,4,0.0926512835178248,1
730,542,4,0.0788363696862546,1
731,516,4,0.069608126371419,1
731,517,4,0.0705959062233096,1
731,518,4,0.0742465485476568,1
731,519,4,0.080234263470382,1
731,524,4,0.087962810778299,1
731,525,4,0.0898724769628446,1
731,526,4,0.0908217665179797,1
731,527,4,0.0918888629757894,1
731,528,4,0.0945676043428459,1
731,529,4,0.0947883874642914,1
731,532,4,0.0895185591034619,1
731,535,4,0.0895994450305373,1
731,536,4,0.0876121813056139,1
731,537,4,0.092557184146205,1
731,538,4,0.0973663388806001,1
731,539,4,0.0957418159542316,1
731,540,4,0.0917287023712227,1
731,541,4,0.0867227895045335,1
732,512,4,0.068497831653385,1
732,515,4,0.0727284699200188,1
732,516,4,0.073850025415815,1
732,517,4,0.0754012155218944,1
732,518,4,0.0788780824821783,1
732,519,4,0.0858145299109258,1
732,525,4,0.0913093581950861,1
732,526,4,0.0935592076840097,1
732,527,4,0.0959716855649671,1
732,528,4,0.0985047855430397,1
732,535,4,0.0983423068953911,1
732,536,4,0.09490160020923,1
732,537,4,0.0969838977107366,1
732,538,4,0.0996399378290064,1
732,539,4,0.0976202334804869,1
732,540,4,0.0931343109860723,1
733,510,4,0.0714313960355162,1
733,511,4,0.0698074421378112,1
733,516,4,0.081429547111644,1
733,517,4,0.0836163302553235,1
733,518,4,0.0861258305182986,1
733,519,4,0.0914559100299316,1
733,527,4,0.101709441170247,1
733,535,4,0.10308688586114,1
733,539,4,0.101872039613404,1
726,532,5,0.0715753602873865,1
726,533,5,0.0810601936010415,1
727,532,5,0.0729968298275098,1
727,533,5,0.0842858493808201,1
727,534,5,0.0709643972062537,1
728,522,5,0.0704509177198449,1
728,523,5,0.0718953101304449,1
728,524,5,0.0710902962955012,1
728,525,5,0.0701663075516788,1
728,526,5,0.0706306828593137,1
728,527,5,0.0699017152129178,1
728,528,5,0.06798588554948,1
728,533,5,0.0694124284293716,1
728,541,5,0.0697147922918395,1
728,543,5,0.0732637042707003,1
729,521,5,0.069796624603429,1
729,522,5,0.0736066548513156,1
729,523,5,0.0759458538199625,1
729,524,5,0.0763240063106357,1
729,525,5,0.0764914265229938,1
729,526,5,0.0761951003541347,1
729,527,5,0.0743810968725897,1
729,528,5,0.0729974467743766,1
729,529,5,0.0715895081368943,1
729,530,5,0.0684700510750545,1
729,539,5,0.0698452615797213,1
729,540,5,0.0760961971826397,1
729,542,5,0.0749793316809859,1
729,543,5,0.072087252483313,1
730,519,5,0.0690907175923441,1
730,520,5,0.0714851303106786,1
730,521,5,0.0736435578575886,1
730,522,5,0.0758293886269786,1
730,523,5,0.0777298185778491,1
730,524,5,0.0798335654650826,1
730,525,5,0.08156650332629,1
730,526,5,0.0814909003811222,1
730,527,5,0.080452662661216,1
730,528,5,0.0805357348563144,1
730,529,5,0.078424692422637,1
730,530,5,0.0726296026871762,1
730,533,5,0.0681548571136681,1
730,537,5,0.0742258658531817,1
730,538,5,0.0804643906414599,1
730,539,5,0.0829201805883742,1
730,540,5,0.0852094427994658,1
730,541,5,0.0839839407412831,1
730,542,5,0.0777270453118363,1
731,518,5,0.0694769143513869,1
731,519,5,0.0748022319915725,1
731,520,5,0.0786732381530868,1
731,522,5,0.0805840244256333,1
731,523,5,0.0794447871128401,1
731,524,5,0.0809907361654397,1
731,525,5,0.0829236426785586,1
731,526,5,0.084078321632347,1
731,527,5,0.0843536356690838,1
731,528,5,0.0847918835764,1
731,529,5,0.0830049239308107,1
731,530,5,0.0796009046190081,1
731,531,5,0.0760990543055081,1
731,532,5,0.0748136844421478,1
731,533,5,0.078605775312695,1
731,534,5,0.0789026345715653,1
731,535,5,0.0762094398764554,1
731,536,5,0.0759957127104376,1
731,537,5,0.0824393693370267,1
731,538,5,0.0894724318430644,1
731,539,5,0.0904219490096649,1
731,540,5,0.0881862653395752,1
731,541,5,0.0847060800437167,1
731,542,5,0.0810758149352989,1
732,515,5,0.0685884869041467,1
732,516,5,0.069719733856549,1
732,517,5,0.0711704514699771,1
732,518,5,0.0742330715529945,1
732,519,5,0.0804588201503328,1
732,520,5,0.0865130694982619,1
732,524,5,0.0843715151486691,1
732,525,5,0.0847221745702312,1
732,526,5,0.0871493453702582,1
732,527,5,0.0890470679426454,1
732,528,5,0.0891770820075964,1
732,529,5,0.0889354305086383,1
732,530,5,0.0899282297923187,1
732,531,5,0.0891630120251689,1
732,532,5,0.087072598377988,1
732,533,5,0.0897384617279227,1
732,534,5,0.0901116247356832,1
732,535,5,0.0870953295756517,1
732,536,5,0.0849251680587224,1
732,537,5,0.088706627077925,1
732,538,5,0.0938991933257993,1
732,539,5,0.0948977128449919,1
732,540,5,0.0920292393521919,1
732,541,5,0.0893801893018203,1
733,506,5,0.0680350436362326,1
733,516,5,0.0767758150694699,1
733,517,5,0.0784015479304703,1
733,518,5,0.0807903721883515,1
733,519,5,0.0855899073434455,1
733,526,5,0.0926078217074828,1
733,527,5,0.0943021075479987,1
733,528,5,0.0931565330528266,1
733,533,5,0.0988558882079819,1
733,534,5,0.0981199724221157,1
733,535,5,0.095321171996832,1
733,539,5,0.0991343768256835,1
733,540,5,0.0957012891338382,1
734,509,5,0.0707009968327984,1
734,510,5,0.0707507538970916,1
734,516,5,0.0849367343150304,1
734,517,5,0.0858625080119236,1
734,518,5,0.0879708430671177,1
728,543,6,0.0710018512718641,1
729,523,6,0.0694936198349927,1
729,524,6,0.0700742087650444,1
729,525,6,0.0698319582885458,1
729,526,6,0.0691127300169592,1
729,541,6,0.0712164828939681,1
729,542,6,0.0724350428024559,1
729,543,6,0.0725818462078684,1
730,521,6,0.0683481471660025,1
730,522,6,0.0700868891195778,1
730,523,6,0.0717622772186895,1
730,524,6,0.0736411020496724,1
730,525,6,0.0751790307930041,1
730,526,6,0.0750080885927075,1
730,527,6,0.073445182485935,1
730,528,6,0.0715521858463428,1
730,529,6,0.0681225063367032,1
730,538,6,0.0683998509073024,1
730,539,6,0.0719678523003804,1
730,540,6,0.0754867195658074,1
730,541,6,0.0784734911228653,1
730,542,6,0.0773325766729586,1
730,543,6,0.0772312476424244,1
731,519,6,0.0701834263297876,1
731,520,6,0.0737442399923791,1
731,521,6,0.0752195636031729,1
731,522,6,0.0747872455735081,1
731,523,6,0.0741301612217532,1
731,524,6,0.0752366404528539,1
731,525,6,0.0770101590424333,1
731,526,6,0.0780743324898452,1
731,527,6,0.0776828287897932,1
731,528,6,0.0759144853661641,1
731,529,6,0.0724824638543409,1
731,530,6,0.0680218242019127,1
731,537,6,0.0721559911458661,1
731,538,6,0.079331125134746,1
731,539,6,0.0830660016706202,1
731,540,6,0.082967272202612,1
731,541,6,0.0822533508720346,1
731,542,6,0.0810024222172558,1
732,518,6,0.0703933200395459,1
732,519,6,0.0761125372899458,1
732,520,6,0.0811097170640939,1
732,521,6,0.082950476872375,1
732,522,6,0.0813820601722295,1
732,523,6,0.0797549616424367,1
732,524,6,0.0792286161184569,1
732,525,6,0.0798250060760282,1
732,526,6,0.0818139409482897,1
732,527,6,0.0829251940303886,1
732,528,6,0.0810590974721423,1
732,529,6,0.0782490781975242,1
732,530,6,0.0765266044739501,1
732,531,6,0.0744858340853297,1
732,532,6,0.0734344847470609,1
732,533,6,0.0759901721681875,1
732,534,6,0.0768122209243843,1
732,535,6,0.0758238600642794,1
732,536,6,0.0756925581976162,1
732,537,6,0.0808673288227609,1
732,538,6,0.0875678569676134,1
732,539,6,0.0917411850631677,1
732,540,6,0.0904094303790675,1
732,541,6,0.0886174572914638,1
733,513,6,0.0681654051081571,1
733,515,6,0.0715607033069694,1
733,516,6,0.0722738040383162,1
733,517,6,0.0737819037001286,1
733,518,6,0.0761157597891139,1
733,519,6,0.0807635260149842,1
733,520,6,0.0854224272333333,1
733,524,6,0.0853174324602509,1
733,525,6,0.0843718625556426,1
733,526,6,0.0862747602939801,1
733,527,6,0.0875147096904407,1
733,528,6,0.0850733071840504,1
733,529,6,0.0822547824283565,1
733,530,6,0.0812608750362262,1
733,531,6,0.0814481333847272,1
733,532,6,0.0834096710242842,1
733,533,6,0.0867633941920071,1
733,534,6,0.086614278733288,1
733,535,6,0.0858609566600936,1
733,536,6,0.0876632141920684,1
733,539,6,0.0975098838481921,1
733,540,6,0.0956943469841433,1
734,515,6,0.0791211236090304,1
734,516,6,0.0803691711818392,1
734,517,6,0.0814112663171066,1
734,518,6,0.0836840326867315,1
734,519,6,0.0883938230369254,1
734,533,6,0.100965043862407,1
735,509,6,0.0722960560539475,1
735,510,6,0.073917344501597,1
728,543,7,0.0702001917111475,1
729,542,7,0.0708600493289152,1
729,543,7,0.0749827937711703,1
730,524,7,0.0683481351864517,1
730,525,7,0.0701801619021917,1
730,526,7,0.0710839830722239,1
730,527,7,0.0691266682243277,1
730,541,7,0.0742510169201092,1
730,542,7,0.0796177658367745,1
730,543,7,0.0826914071065379,1
731,520,7,0.0680930186723821,1
731,521,7,0.0695461920937265,1
731,522,7,0.069843350841367,1
731,523,7,0.069236550654141,1
731,524,7,0.0697323363440021,1
731,525,7,0.0717010018162916,1
731,526,7,0.0735461341606188,1
731,527,7,0.0724289152622161,1
731,528,7,0.0693714703451491,1
731,538,7,0.0682629306313089,1
731,539,7,0.0745128479724083,1
731,540,7,0.0782556429913686,1
731,541,7,0.0816496773475703,1
731,542,7,0.085095475342826,1
732,519,7,0.0701939443753996,1
732,520,7,0.0740640939990309,1
732,521,7,0.0753482239788823,1
732,522,7,0.074744197057669,1
732,523,7,0.0736893856292158,1
732,524,7,0.0730646340850997,1
732,525,7,0.0742826069955977,1
732,526,7,0.0767748746747312,1
732,527,7,0.0769615340456917,1
732,528,7,0.0738936549398684,1
732,529,7,0.0698827096555563,1
732,537,7,0.0716571267114465,1
732,538,7,0.0803135441376487,1
732,539,7,0.0877056697201424,1
732,540,7,0.0896726939939707,1
732,541,7,0.0898006535659577,1
733,515,7,0.0681669265111101,1
733,516,7,0.068553746206795,1
733,517,7,0.0691365753128484,1
733,518,7,0.070861864230863,1
733,519,7,0.0747369614089792,1
733,520,7,0.0786208635569414,1
733,521,7,0.0806790222635639,1
733,522,7,0.0810026138900687,1
733,523,7,0.0805951654078874,1
733,524,7,0.0786599348619112,1
733,525,7,0.0782502462037283,1
733,526,7,0.0803674640958487,1
733,527,7,0.081311159200755,1
733,528,7,0.0784933831669869,1
733,529,7,0.0749897718595176,1
733,530,7,0.073257097548428,1
733,531,7,0.0726666075196311,1
733,532,7,0.0739040891286247,1
733,533,7,0.0764323194192927,1
733,534,7,0.0767128745095093,1
733,535,7,0.0768876621456161,1
733,536,7,0.0799724384078583,1
733,537,7,0.0868655977297505,1
733,538,7,0.0929304729392489,1
733,539,7,0.0971673106234273,1
733,540,7,0.0979827286982503,1
733,541,7,0.0984586822417439,1
734,512,7,0.0686257373173933,1
734,513,7,0.0735715068492363,1
734,514,7,0.0759018409502831,1
734,515,7,0.0759692199338192,1
734,516,7,0.0768018406436066,1
734,517,7,0.0773239513963748,1
734,518,7,0.0786328431077523,1
734,519,7,0.0825490361349254,1
734,524,7,0.0892255273110758,1
734,525,7,0.0879635175717968,1
734,526,7,0.088714605458765,1
734,527,7,0.0888152157162506,1
734,528,7,0.0868369486339862,1
734,530,7,0.0838660200328757,1
734,531,7,0.0842128579777291,1
734,532,7,0.0867907554860593,1
734,533,7,0.0904139346901724,1
734,534,7,0.0924132198943346,1
735,506,7,0.0684388683042936,1
735,507,7,0.0697133787048438,1
735,508,7,0.0690532455574075,1
735,510,7,0.0697366609618448,1
735,514,7,0.0830992029956927,1
735,515,7,0.0837176233472053,1
735,516,7,0.0858770811354851,1
735,517,7,0.0869956597129048,1
735,518,7,0.0882850367360113,1
735,532,7,0.0999024577054771,1
736,506,7,0.0748419801411632,1
736,507,7,0.0759740536825714,1
736,508,7,0.0762118118275159,1
736,509,7,0.0760271171028884,1
728,543,8,0.0681056211598352,1
730,541,8,0.0690212242180899,1
730,543,8,0.0850191536246096,1
731,540,8,0.0718079672254824,1
731,541,8,0.0795100037874548,1
732,522,8,0.0679105820930825,1
732,526,8,0.0678957993273818,1
732,538,8,0.071145276443948,1
732,539,8,0.0809854052653288,1
732,540,8,0.0866431674200686,1
732,541,8,0.0892937568427194,1
733,520,8,0.0703875279267289,1
733,521,8,0.0724762344879192,1
733,522,8,0.0733024760868999,1
733,523,8,0.0721770991143949,1
733,524,8,0.0697573376665445,1
733,525,8,0.0688951035071525,1
733,526,8,0.0698425482114626,1
733,527,8,0.0700707646441863,1
733,528,8,0.0685386699420995,1
733,536,8,0.0705491859751469,1
733,537,8,0.0788785137460075,1
733,538,8,0.0874956921535284,1
733,539,8,0.0950321833028446,1
733,541,8,0.100745626409754,1
734,514,8,0.0697771937720136,1
734,515,8,0.0697093415962205,1
734,516,8,0.0707224761674024,1
734,517,8,0.070348235000069,1
734,518,8,0.0711846172888111,1
734,519,8,0.0743569101595025,1
734,520,8,0.0783174095553497,1
734,521,8,0.0818797925390974,1
734,522,8,0.082803931027305,1
734,523,8,0.0818966297977622,1
734,524,8,0.078920771611493,1
734,525,8,0.0774516474182439,1
734,526,8,0.077483069780021,1
734,527,8,0.0769047509748479,1
734,528,8,0.0759443144476833,1
734,529,8,0.0748114502559215,1
734,530,8,0.0733266328511101,1
734,531,8,0.0727896554757856,1
734,532,8,0.0747140505180533,1
734,533,8,0.0781866048400452,1
734,534,8,0.0809349174484362,1
734,535,8,0.0874697324669211,1
735,513,8,0.0762446298069625,1
735,514,8,0.0775971570321688,1
735,515,8,0.0770055888437989,1
735,516,8,0.0787416952961958,1
735,517,8,0.0798566560492706,1
735,518,8,0.0807120978033529,1
735,519,8,0.084397217274934,1
735,524,8,0.0896726520655429,1
735,525,8,0.0898370893697491,1
735,526,8,0.0914744064563837,1
735,527,8,0.0904997202535295,1
735,528,8,0.0906378864028073,1
735,530,8,0.0898808746279631,1
735,531,8,0.0874380525448016,1
735,532,8,0.0872719021648294,1
736,507,8,0.0710918895757591,1
736,508,8,0.0708092919721292,1
736,509,8,0.0696184767033196,1
736,510,8,0.0730460957302198,1
736,518,8,0.0910160388934805,1
736,531,8,0.103739579707523,1
737,507,8,0.0800809731382053,1
725,548,18,0.0772546017767303,1
726,547,18,0.0847024143011686,1
727,547,18,0.101489017435326,1
728,546,18,0.111940624458524,1
732,543,18,0.140528121372592,1
740,492,18,0.0939940114704678,1
740,494,18,0.0847793649458026,1
741,493,18,0.0981698672512432,1
741,494,18,0.0954945041175154,1
741,495,18,0.087474206829149,1
741,496,18,0.0788634494608627,1
742,497,18,0.0835659023361849,1
742,498,18,0.081253028430445,1
742,499,18,0.0789152490385692,1
743,500,18,0.0890705059338069,1
743,501,18,0.0878115629595356,1
743,502,18,0.0863614682827496,1
743,503,18,0.0864423601996004,1
743,504,18,0.0865042046306618,1
743,505,18,0.0877334083700451,1
743,506,18,0.0895735332621333,1
743,507,18,0.0924488350988955,1
743,508,18,0.0982432959079388,1
744,506,18,0.10411831320641,1
744,507,18,0.104018355834444,1
744,508,18,0.108212504389307,1
725,548,19,0.0865423954386471,1
726,547,19,0.0976160945456818,1
727,547,19,0.115422013699239,1
728,546,19,0.129782440336087,1
732,542,19,0.143784211201206,1
732,543,19,0.156475970266947,1
739,491,19,0.097925909688754,1
740,492,19,0.0993752736129405,1
741,493,19,0.100646759176911,1
741,494,19,0.0984067928174063,1
742,495,19,0.0974867213866991,1
742,497,19,0.0849183636738618,1
742,498,19,0.0828809834981208,1
743,500,19,0.0909558656097572,1
743,501,19,0.0889795032760717,1
743,502,19,0.0874627483887983,1
743,503,19,0.0873160348300169,1
744,505,19,0.102472095313523,1
744,506,19,0.105491984338798,1
744,507,19,0.105907351304065,1
744,508,19,0.109903022661093,1
