x,y,z,signal,cytoplasm.p
575,323,1,0.0850504142624507,1
575,324,1,0.0734001273953351,1
576,322,1,0.0722937380108656,1
576,323,1,0.0767332577152141,1
576,324,1,0.06867251746331,1
574,323,2,0.0940314056383241,1
574,324,2,0.0801629851430569,1
575,322,2,0.105052754108315,1
575,323,2,0.109787336138912,1
575,324,2,0.0983874278735205,1
575,325,2,0.0740187334298853,1
576,321,2,0.073608403865734,1
576,322,2,0.0998073820004662,1
576,323,2,0.109770876236098,1
576,324,2,0.0986220473761525,1
576,325,2,0.0720411791308941,1
577,322,2,0.0764266710610854,1
577,323,2,0.0855890987237657,1
577,324,2,0.0749282209274511,1
573,323,3,0.0811719089021288,1
573,324,3,0.0682656320200168,1
574,322,3,0.105941648758037,1
574,323,3,0.109203249180024,1
574,324,3,0.0972805593070184,1
574,325,3,0.0709236008459671,1
575,322,3,0.126628739728254,1
575,323,3,0.135029819018697,1
575,324,3,0.122966974390979,1
575,325,3,0.0919897367833929,1
576,321,3,0.0878527786041006,1
576,322,3,0.127567421391146,1
576,323,3,0.143489610087663,1
576,324,3,0.125433839432618,1
576,325,3,0.088600086942788,1
577,322,3,0.0986992495913536,1
577,323,3,0.114040388145113,1
577,324,3,0.0946221412479127,1
573,323,4,0.0790959186341242,1
573,324,4,0.0697135344390043,1
574,322,4,0.102795974449247,1
574,323,4,0.111836785712095,1
574,324,4,0.102678598810402,1
574,325,4,0.0755870303345227,1
575,322,4,0.130872627378085,1
575,323,4,0.143752992491793,1
575,324,4,0.131066588285264,1
575,325,4,0.0978718699350459,1
576,321,4,0.0918353443325416,1
576,322,4,0.136693874462741,1
576,323,4,0.155609429459038,1
576,324,4,0.13269299200111,1
576,325,4,0.0916743511491935,1
577,322,4,0.109283871556981,1
577,323,4,0.126635687867724,1
577,324,4,0.100868668376133,1
573,323,5,0.0735822525063137,1
573,324,5,0.0681888610686449,1
574,322,5,0.0930977913254252,1
574,323,5,0.106249583111632,1
574,324,5,0.0990658298359434,1
574,325,5,0.0718913029706986,1
575,322,5,0.123899199075984,1
575,323,5,0.139417245646344,1
575,324,5,0.1258147172711,1
575,325,5,0.0913973839344448,1
576,321,5,0.0873135311038974,1
576,322,5,0.130228846317505,1
576,323,5,0.148108277984614,1
576,324,5,0.123565592545001,1
576,325,5,0.083053914303852,1
577,322,5,0.105844818048832,1
577,323,5,0.120475994513557,1
577,324,5,0.0935911751153487,1
574,322,6,0.0766033035480171,1
574,323,6,0.0891465042041515,1
574,324,6,0.0838672000186306,1
575,321,6,0.0735325733091008,1
575,322,6,0.10420058876138,1
575,323,6,0.118758007131762,1
575,324,6,0.10685671872628,1
575,325,6,0.0763133564899648,1
576,321,6,0.0724010747861315,1
576,322,6,0.107549160722254,1
576,323,6,0.121599161258938,1
576,324,6,0.101228725755306,1
577,322,6,0.0849790940066978,1
577,323,6,0.094616738470497,1
577,324,6,0.0735585809139113,1
574,323,7,0.0689737492582262,1
575,322,7,0.0802766830598035,1
575,323,7,0.0923951607214871,1
575,324,7,0.0848345307772869,1
576,322,7,0.081320820708484,1
576,323,7,0.0915047806074648,1
576,324,7,0.0782886885822805,1
581,318,7,0.0744920275130989,1
581,319,7,0.0785333948666954,1
582,318,7,0.0753950400634514,1
582,319,7,0.0820950291285174,1
586,349,7,0.0837099923733388,1
587,350,7,0.0701515607246306,1
581,318,8,0.103493711406679,1
581,319,8,0.110020182668024,1
582,318,8,0.112057916240514,1
582,319,8,0.120233887791669,1
582,320,8,0.0679277427996191,1
583,318,8,0.0733792590178225,1
583,319,8,0.0761612341639922,1
587,349,8,0.0797409695270895,1
581,318,9,0.112112986235592,1
581,319,9,0.121550955546475,1
582,318,9,0.128088819360641,1
582,319,9,0.138066958597139,1
582,320,9,0.0738898334631597,1
583,318,9,0.0794872007124862,1
583,319,9,0.0821083264299175,1
587,349,9,0.082488934728507,1
587,354,9,0.069356903211363,1
589,353,9,0.0685629944200211,1
606,346,9,0.0787424619874477,1
581,318,10,0.0969995010756678,1
581,319,10,0.108021406594771,1
582,318,10,0.111808657726791,1
582,319,10,0.123158539387996,1
582,320,10,0.0692606175717201,1
583,319,10,0.0709073505852921,1
585,349,10,0.0768086150795902,1
586,349,10,0.0930523049709961,1
586,351,10,0.0762625931434035,1
586,355,10,0.076423712112035,1
587,349,10,0.0770335790642687,1
587,350,10,0.0835625780108349,1
587,354,10,0.0734184680876267,1
589,353,10,0.0694962852850481,1
590,353,10,0.0699154018497193,1
593,354,10,0.0730149189492343,1
601,350,10,0.0701376404865883,1
602,348,10,0.0681171215286137,1
602,349,10,0.0702905894015668,1
603,348,10,0.0845461530403908,1
603,349,10,0.0803786649758569,1
604,347,10,0.0762404729028311,1
604,348,10,0.0927820702638031,1
605,346,10,0.073199158450931,1
605,347,10,0.088258100716013,1
606,346,10,0.0807648437655734,1
606,347,10,0.090220998034587,1
581,318,11,0.0684900808840103,1
581,319,11,0.0782579969731029,1
582,318,11,0.0752349453464141,1
582,319,11,0.0850642386640865,1
586,349,11,0.0702246359845772,1
586,350,11,0.0771509007951355,1
586,355,11,0.079718759439886,1
586,356,11,0.0904249019689398,1
587,354,11,0.0748519531172133,1
594,356,11,0.0761979095587998,1
594,357,11,0.0860275263243441,1
602,348,11,0.0848242463329157,1
602,349,11,0.084736573990306,1
602,350,11,0.0718380119389162,1
603,347,11,0.0866900254330656,1
603,348,11,0.121823095002246,1
603,349,11,0.113181430392868,1
603,350,11,0.0807057666107493,1
604,347,11,0.103293545092179,1
604,348,11,0.139056637207833,1
604,349,11,0.12543564834479,1
604,350,11,0.0880234752236055,1
605,346,11,0.0735627737566951,1
605,347,11,0.100106906709392,1
605,348,11,0.115953438552763,1
606,346,11,0.0763395917062407,1
606,347,11,0.0882562558651881,1
606,348,11,0.0888699742430074,1
607,347,11,0.0696124449994863,1
610,341,11,0.0763924574639693,1
610,342,11,0.0974200971148641,1
610,343,11,0.0851308629359215,1
611,343,11,0.103087556715985,1
586,355,12,0.074571535791831,1
586,356,12,0.0935462098713799,1
587,354,12,0.0708922683308211,1
587,355,12,0.115193994929104,1
588,354,12,0.0925621436802407,1
592,354,12,0.0849289236479016,1
593,355,12,0.0965327657965232,1
594,356,12,0.068575830508715,1
594,357,12,0.0817596735831162,1
594,358,12,0.0826522639242632,1
602,348,12,0.0928223694727311,1
602,349,12,0.0917749973453315,1
602,350,12,0.0716151922938329,1
603,347,12,0.105669988484297,1
603,348,12,0.149962688491044,1
603,349,12,0.138880909176988,1
603,350,12,0.0909021552936964,1
603,351,12,0.0704317264794458,1
604,346,12,0.0687320378615141,1
604,347,12,0.127343295975024,1
604,348,12,0.17807359095565,1
604,349,12,0.161212624759834,1
604,350,12,0.103893121610266,1
605,346,12,0.0710049599652996,1
605,347,12,0.110899960879579,1
605,348,12,0.143397894646655,1
605,349,12,0.130020018787769,1
606,347,12,0.0843616559783517,1
606,348,12,0.0975079790996131,1
610,341,12,0.0965955506223233,1
610,342,12,0.127251125311085,1
610,343,12,0.114825743537176,1
610,344,12,0.0767878425384841,1
611,342,12,0.170273190301969,1
611,343,12,0.142425550445984,1
586,356,13,0.0877817937757704,1
586,358,13,0.0894733662480277,1
587,355,13,0.107545614775214,1
588,354,13,0.08317620155853,1
589,354,13,0.0984854685173571,1
590,354,13,0.102388478048863,1
591,354,13,0.0926462101780564,1
592,354,13,0.0735064099701297,1
593,355,13,0.087451044367656,1
594,357,13,0.0765496231808333,1
594,358,13,0.0810834518989409,1
602,348,13,0.090324968556075,1
602,349,13,0.0882950396609385,1
603,347,13,0.116583395211706,1
603,348,13,0.161353384481862,1
603,349,13,0.149128276838411,1
603,350,13,0.0962598416801732,1
603,351,13,0.0720108768571179,1
604,346,13,0.072667092691439,1
604,347,13,0.140675397970262,1
604,348,13,0.197227443176678,1
604,349,13,0.180128670917714,1
604,350,13,0.114261183246109,1
604,351,13,0.0890829766462011,1
605,347,13,0.116080853055188,1
605,348,13,0.160767919874631,1
605,349,13,0.150393628872366,1
605,350,13,0.0983653735204776,1
606,347,13,0.077685632004683,1
606,348,13,0.100634575973736,1
607,348,13,0.0678961886627831,1
610,341,13,0.101384915138779,1
610,342,13,0.133792846540612,1
610,343,13,0.120768295553344,1
610,344,13,0.0821959089258962,1
611,341,13,0.146976114596575,1
611,342,13,0.181896373435375,1
611,343,13,0.152208387065612,1
611,344,13,0.098418502828324,1
612,342,13,0.146009544539395,1
586,356,14,0.0752755021156845,1
586,357,14,0.093641656942466,1
586,358,14,0.0845265125668363,1
586,359,14,0.072112750957214,1
587,355,14,0.08913459054087,1
589,354,14,0.0746367045482425,1
590,354,14,0.0754992980941589,1
590,355,14,0.137955237306276,1
591,354,14,0.0680893349605077,1
591,355,14,0.129725501531082,1
592,355,14,0.109323044688133,1
592,359,14,0.131354792318674,1
593,356,14,0.0993022822098495,1
593,357,14,0.117012251151187,1
593,358,14,0.12381848086262,1
593,359,14,0.0967164482491072,1
594,358,14,0.0774376013949181,1
594,359,14,0.0689210032960057,1
602,348,14,0.0794113521865268,1
602,349,14,0.0743122444043039,1
603,347,14,0.118833238710855,1
603,348,14,0.151683694719644,1
603,349,14,0.134102973152006,1
603,350,14,0.0865073193138727,1
604,346,14,0.0767808884092383,1
604,347,14,0.147625070823104,1
604,348,14,0.19621717171814,1
604,349,14,0.173276439731167,1
604,350,14,0.107659564262527,1
604,351,14,0.0822637730812401,1
605,347,14,0.122656105047435,1
605,348,14,0.170946632730356,1
605,349,14,0.157179289695056,1
605,350,14,0.0999253326577506,1
606,347,14,0.0754318292639917,1
606,348,14,0.104312992886639,1
606,349,14,0.10451318316024,1
609,355,14,0.11883139386003,1
610,341,14,0.0912831888663397,1
610,342,14,0.118859797375002,1
610,343,14,0.105157635075665,1
610,344,14,0.0733115805455162,1
611,340,14,0.0849006938364157,1
611,341,14,0.135860888376654,1
611,342,14,0.163651050347848,1
611,343,14,0.136246570015012,1
611,344,14,0.0920158402246099,1
612,341,14,0.115362655024971,1
612,342,14,0.131610388014776,1
586,357,15,0.0826516469773964,1
586,358,15,0.0773696833315955,1
586,359,15,0.0681371932659974,1
587,355,15,0.0701155382153421,1
587,356,15,0.108190150547494,1
587,357,15,0.137394953714849,1
587,359,15,0.108999105654655,1
588,355,15,0.0975235405361165,1
589,355,15,0.110449170382564,1
590,355,15,0.110406511202126,1
590,356,15,0.159279544543228,1
591,355,15,0.099547485645623,1
591,356,15,0.145615057931191,1
592,355,15,0.0832638140033857,1
592,356,15,0.125252145585468,1
592,357,15,0.146350314841763,1
592,358,15,0.154091680269047,1
593,356,15,0.0800363373318838,1
593,357,15,0.0972330843471547,1
593,358,15,0.108149120585967,1
593,359,15,0.0898235165386803,1
594,358,15,0.0678306904687244,1
603,347,15,0.10824888628512,1
603,348,15,0.127510614361201,1
603,349,15,0.107381842336078,1
603,350,15,0.071352462775223,1
604,346,15,0.075406216984358,1
604,347,15,0.139052767812921,1
604,348,15,0.173093260419717,1
604,349,15,0.146798673489963,1
604,350,15,0.0926216880375464,1
604,351,15,0.0719981845230337,1
604,352,15,0.0701557895060668,1
605,347,15,0.120041651939806,1
605,348,15,0.16002942848534,1
605,349,15,0.142700912400924,1
605,350,15,0.0930761682362114,1
606,347,15,0.0736274453617479,1
606,348,15,0.099710102058106,1
606,349,15,0.0975663853995918,1
608,355,15,0.156455125848536,1
609,354,15,0.147939102768062,1
609,355,15,0.15559232266048,1
609,356,15,0.11635357950895,1
610,341,15,0.0726090936961879,1
610,342,15,0.0894979183374147,1
610,343,15,0.0793417929247431,1
610,355,15,0.123861056186202,1
611,340,15,0.0711079242045195,1
611,341,15,0.106685722618005,1
611,342,15,0.121589709393348,1
611,343,15,0.102094523831064,1
611,344,15,0.071733448429663,1
612,341,15,0.0920614403847717,1
612,342,15,0.0987903720445969,1
612,343,15,0.0845293756794801,1
587,356,16,0.0806753145925879,1
587,357,16,0.105122798541907,1
587,358,16,0.105214753573931,1
587,359,16,0.089415846434809,1
588,356,16,0.107925857697503,1
588,357,16,0.140147051861296,1
588,359,16,0.125019323015458,1
589,355,16,0.0753179935824109,1
589,356,16,0.11775787037321,1
589,359,16,0.13951587328817,1
590,355,16,0.0746842633649619,1
590,356,16,0.118462938815738,1
590,357,16,0.158900259985004,1
591,356,16,0.102047276482666,1
591,357,16,0.131132439876072,1
591,358,16,0.147732096130049,1
592,356,16,0.0854249010105757,1
592,357,16,0.109336689396507,1
592,358,16,0.119998333884073,1
593,357,16,0.0716061417431952,1
593,358,16,0.0833977034530241,1
593,359,16,0.0756536965347856,1
603,347,16,0.0866644850307366,1
603,348,16,0.0972392538158224,1
603,349,16,0.0791195902265266,1
604,347,16,0.115131964815005,1
604,348,16,0.136231523699193,1
604,349,16,0.111968836300684,1
604,350,16,0.0738196572545093,1
605,347,16,0.102713171794042,1
605,348,16,0.130555265118001,1
605,349,16,0.114014859722335,1
605,350,16,0.0788485708587555,1
606,348,16,0.0845549759795631,1
606,349,16,0.0819827388089911,1
607,355,16,0.13265103961417,1
608,354,16,0.154625405196327,1
608,355,16,0.171026248825046,1
608,356,16,0.138448603126874,1
609,353,16,0.113930895050701,1
609,354,16,0.158477142250361,1
609,355,16,0.169436418677826,1
609,356,16,0.137605134933827,1
610,354,16,0.13758981308834,1
610,355,16,0.135886548574491,1
611,341,16,0.073932043410442,1
611,342,16,0.0801616015049383,1
611,343,16,0.068806934013184,1
612,341,16,0.0699181990748337,1
612,342,16,0.070297609418342,1
587,357,17,0.0738062221882748,1
587,358,17,0.0780005803852777,1
588,356,17,0.075462856300592,1
588,357,17,0.0970913662610614,1
588,358,17,0.104654637696215,1
588,359,17,0.0889007976272439,1
589,356,17,0.083069972891714,1
589,357,17,0.106515864567057,1
589,358,17,0.119110709066737,1
589,359,17,0.0994580762681457,1
590,356,17,0.083113123233735,1
590,357,17,0.108537126257182,1
590,358,17,0.121739992858271,1
590,359,17,0.0999822774525303,1
591,356,17,0.0712739428094327,1
591,357,17,0.0913256683535152,1
591,358,17,0.100997508445104,1
591,359,17,0.0832913969191279,1
592,357,17,0.0761584728775303,1
592,358,17,0.0826462501897561,1
603,348,17,0.068345703337637,1
604,347,17,0.0809943779488862,1
604,348,17,0.0920539172268624,1
604,349,17,0.0768450568731571,1
605,347,17,0.0729446588837282,1
605,348,17,0.087428900167982,1
605,349,17,0.0789457010567306,1
607,354,17,0.135298196895514,1
607,355,17,0.160808638367837,1
607,356,17,0.152781033553476,1
607,357,17,0.121812493099779,1
608,353,17,0.115000153817432,1
608,354,17,0.161988444429451,1
608,355,17,0.18554838741829,1
608,356,17,0.17226779749154,1
608,357,17,0.132599874952657,1
609,353,17,0.123180246334066,1
609,354,17,0.163638651512758,1
609,355,17,0.179349221444201,1
609,356,17,0.161179716933756,1
609,357,17,0.11936144106521,1
610,353,17,0.12858812703844,1
610,354,17,0.14400837255598,1
610,355,17,0.141506000125737,1
610,356,17,0.122752540431463,1
611,353,17,0.136957795946657,1
611,354,17,0.123629838876,1
611,355,17,0.0993679720767213,1
612,356,17,0.0700271171508066,1
589,358,18,0.0715521379281396,1
590,358,18,0.0690531137823486,1
606,355,18,0.125965192408837,1
606,356,18,0.136990655854531,1
606,357,18,0.122929897681219,1
607,354,18,0.150116673637168,1
607,355,18,0.187651960602037,1
607,356,18,0.198435904323832,1
607,357,18,0.170137378134426,1
607,358,18,0.106672413337054,1
608,353,18,0.127721142987152,1
608,354,18,0.172679390898301,1
608,355,18,0.203405465243585,1
608,356,18,0.207736312452753,1
608,357,18,0.173065611616446,1
608,358,18,0.10600492474542,1
609,353,18,0.142634318077966,1
609,354,18,0.176567905173326,1
609,355,18,0.191648398650317,1
609,356,18,0.182394051894264,1
609,357,18,0.144438761877964,1
610,352,18,0.102390370817891,1
610,353,18,0.14972994977789,1
610,354,18,0.160478889252215,1
610,355,18,0.152533320401808,1
610,356,18,0.134290141653876,1
610,357,18,0.103915523370283,1
611,352,18,0.105519237816893,1
611,353,18,0.148591389309717,1
611,354,18,0.137559145438264,1
611,355,18,0.111910196399465,1
611,356,18,0.0955752822286335,1
611,357,18,0.0801321377997188,1
612,353,18,0.1128886621506,1
612,354,18,0.099831149429275,1
612,355,18,0.0843175472722659,1
612,356,18,0.0836076091423332,1
612,357,18,0.0761754299317031,1
613,355,18,0.0709449963237155,1
613,356,18,0.0836120715250102,1
613,357,18,0.0756610459892081,1
605,350,19,0.0741769892858731,1
606,350,19,0.0833154099287284,1
606,354,19,0.106180149635132,1
606,355,19,0.136366425420875,1
606,356,19,0.158315334457558,1
606,357,19,0.152797433558536,1
607,353,19,0.111513385758403,1
607,354,19,0.156597634584982,1
607,355,19,0.195568826448701,1
607,356,19,0.2187027286925,1
607,357,19,0.202195195184259,1
607,358,19,0.127384325936552,1
608,353,19,0.136853034774815,1
608,354,19,0.180779376158662,1
608,355,19,0.210310909594834,1
608,356,19,0.22162564325396,1
608,357,19,0.19731035364784,1
608,358,19,0.123797085384871,1
609,352,19,0.101129271524474,1
609,353,19,0.159075053610886,1
609,354,19,0.191215433724908,1
609,355,19,0.200428822396738,1
609,356,19,0.191442026928497,1
609,357,19,0.160321465975009,1
609,358,19,0.102596311275882,1
610,352,19,0.108097237151405,1
610,353,19,0.167325130663357,1
610,354,19,0.180426003368841,1
610,355,19,0.166971626098477,1
610,356,19,0.14491629073239,1
610,357,19,0.1172347713075,1
611,352,19,0.103454789846094,1
611,353,19,0.150121213886925,1
611,354,19,0.148493528359143,1
611,355,19,0.126661839227145,1
611,356,19,0.106850573216714,1
611,357,19,0.0892653173890943,1
612,353,19,0.105029477841089,1
612,354,19,0.103176325187494,1
612,355,19,0.0964106642248828,1
612,356,19,0.0936195367018936,1
612,357,19,0.0833102707014305,1
613,355,19,0.0812443192970055,1
613,356,19,0.090866444252729,1
613,357,19,0.0812981793574514,1
614,356,19,0.0689645549529788,1
605,350,20,0.0798092349973856,1
605,356,20,0.0896576177292752,1
605,357,20,0.094006230612295,1
606,350,20,0.0826636385077582,1
606,354,20,0.113698324051258,1
606,355,20,0.138932265511314,1
606,356,20,0.16493644417031,1
606,357,20,0.173417954164897,1
606,358,20,0.12234624198616,1
607,353,20,0.118633755230751,1
607,354,20,0.164918331089484,1
607,355,20,0.195339214398308,1
607,356,20,0.221936392801996,1
607,357,20,0.223340515952545,1
607,358,20,0.150999446736425,1
608,353,20,0.146727323285333,1
608,354,20,0.192794051012569,1
608,355,20,0.213629772269697,1
608,356,20,0.223129747735577,1
608,357,20,0.210095109966526,1
608,358,20,0.141031358343058,1
609,352,20,0.103152102535755,1
609,353,20,0.172931296892754,1
609,354,20,0.209278440028644,1
609,355,20,0.210963291972896,1
609,356,20,0.197541199591967,1
609,357,20,0.170109992881272,1
609,358,20,0.115383343709222,1
610,352,20,0.111292997962135,1
610,353,20,0.182968363539691,1
610,354,20,0.206040990381092,1
610,355,20,0.189702799803114,1
610,356,20,0.16162147484946,1
610,357,20,0.129994586201398,1
611,352,20,0.0991676979462641,1
611,353,20,0.149247389512124,1
611,354,20,0.160054525644289,1
611,355,20,0.14475350061642,1
611,356,20,0.121215516144218,1
611,357,20,0.0968765848945723,1
612,353,20,0.102829026029935,1
612,354,20,0.111773377949653,1
612,355,20,0.111810802066386,1
612,356,20,0.103388315318645,1
612,357,20,0.0873253908592002,1
612,358,20,0.0696687788371747,1
613,354,20,0.0831054084030128,1
613,355,20,0.090070229397856,1
613,356,20,0.0921155520157846,1
613,357,20,0.0811180668110091,1
605,350,21,0.0694378969543957,1
605,356,21,0.0891410235596555,1
605,357,21,0.0956292081766089,1
606,354,21,0.115892270966322,1
606,355,21,0.132911235457784,1
606,356,21,0.15086671331344,1
606,357,21,0.170455315412948,1
606,358,21,0.133149580600718,1
607,353,21,0.124622716026761,1
607,354,21,0.168311574795332,1
607,355,21,0.188098678051776,1
607,356,21,0.204610368464149,1
607,357,21,0.219581500621787,1
607,358,21,0.165663566965881,1
607,359,21,0.0893133553878461,1
608,352,21,0.0913397922439213,1
608,353,21,0.150448099889903,1
608,354,21,0.196817263356912,1
608,355,21,0.210220104599687,1
608,356,21,0.21017951788154,1
608,357,21,0.204236630437949,1
608,358,21,0.149720989073883,1
608,359,21,0.0836537004640782,1
609,352,21,0.104128124458524,1
609,353,21,0.175662119356961,1
609,354,21,0.216993438464593,1
609,355,21,0.216641000079736,1
609,356,21,0.197453605116437,1
609,357,21,0.169625515887376,1
609,358,21,0.121649211822226,1
610,352,21,0.112462094305324,1
610,353,21,0.185011607705554,1
610,354,21,0.218488845792322,1
610,355,21,0.205617944523754,1
610,356,21,0.17324501736939,1
610,357,21,0.134979361150681,1
610,358,21,0.095623242360305,1
611,352,21,0.098056055528764,1
611,353,21,0.146485420215808,1
611,354,21,0.168393766493446,1
611,355,21,0.159540650832703,1
611,356,21,0.132008061183495,1
611,357,21,0.099416555145035,1
612,353,21,0.106481579092636,1
612,354,21,0.12309402950688,1
612,355,21,0.12412752931444,1
612,356,21,0.106793251066084,1
612,357,21,0.0838367659697954,1
613,354,21,0.0931634871820723,1
613,355,21,0.0951515056186968,1
613,356,21,0.0863548435911512,1
605,356,22,0.090746253419443,1
605,357,22,0.0931703334953607,1
606,354,22,0.121834727146084,1
606,355,22,0.134595296751682,1
606,356,22,0.143112218298467,1
606,357,22,0.158845142071722,1
606,358,22,0.135257969563891,1
607,353,22,0.132474029771388,1
607,354,22,0.174948210005934,1
607,355,22,0.188580507564943,1
607,356,22,0.193226237267175,1
607,357,22,0.204744012332995,1
607,358,22,0.167802947027001,1
607,359,22,0.0999762996566757,1
608,352,22,0.0940707404934118,1
608,353,22,0.153921822218099,1
608,354,22,0.200708520949072,1
608,355,22,0.211125447172673,1
608,356,22,0.202870458504369,1
608,357,22,0.193321306982411,1
608,358,22,0.150968551474884,1
608,359,22,0.0924025640838883,1
609,352,22,0.107344454157997,1
609,353,22,0.173884941014609,1
609,354,22,0.218863422387078,1
609,355,22,0.221983640150394,1
609,356,22,0.201069955976588,1
609,357,22,0.16830726215704,1
609,358,22,0.123288265943728,1
610,352,22,0.119881090020287,1
610,353,22,0.182387151672997,1
610,354,22,0.221012697557168,1
610,355,22,0.216139008982555,1
610,356,22,0.185009894629788,1
610,357,22,0.140178474223073,1
610,358,22,0.0972293227682001,1
611,352,22,0.111096964592665,1
611,353,22,0.15310801539286,1
611,354,22,0.181765880188391,1
611,355,22,0.178004421029268,1
611,356,22,0.147608802593103,1
611,357,22,0.106654995070175,1
612,353,22,0.123816600073142,1
612,354,22,0.146503521317084,1
612,355,22,0.145137085833386,1
612,356,22,0.11762359158817,1
612,357,22,0.0860456633642719,1
613,353,22,0.104139720663709,1
613,354,22,0.118565627525289,1
613,355,22,0.114920885129716,1
613,356,22,0.0923560235289878,1
614,354,22,0.0890601975303341,1
614,355,22,0.0831092957672509,1
605,355,23,0.0946787326459435,1
605,356,23,0.0945052867195275,1
605,357,23,0.0875561828953482,1
606,354,23,0.125522619883678,1
606,355,23,0.139697399421608,1
606,356,23,0.143839736419215,1
606,357,23,0.143616114144227,1
606,358,23,0.124102108707619,1
607,353,23,0.135556272358634,1
607,354,23,0.176980852269329,1
607,355,23,0.190715071846637,1
607,356,23,0.189209158452848,1
607,357,23,0.183879504215268,1
607,358,23,0.153129147320491,1
607,359,23,0.0997223152101577,1
608,352,23,0.101159172483298,1
608,353,23,0.158352782533393,1
608,354,23,0.203881293001796,1
608,355,23,0.215565499967032,1
608,356,23,0.203369358877441,1
608,357,23,0.181999277776841,1
608,358,23,0.14407085789301,1
608,359,23,0.0947446201754036,1
609,352,23,0.114666643122856,1
609,353,23,0.173040957700877,1
609,354,23,0.21600790477848,1
609,355,23,0.223668947317577,1
609,356,23,0.203048642343131,1
609,357,23,0.164743633300008,1
609,358,23,0.120421403700512,1
610,352,23,0.129168344602417,1
610,353,23,0.181020332843673,1
610,354,23,0.218306900374605,1
610,355,23,0.220367143523069,1
610,356,23,0.191927905529837,1
610,357,23,0.143942964208552,1
610,358,23,0.0973952694958085,1
611,351,23,0.104622760111508,1
611,352,23,0.129766124187882,1
611,353,23,0.171911956914252,1
611,354,23,0.204875643637306,1
611,355,23,0.202868901162764,1
611,356,23,0.167050367685957,1
611,357,23,0.117652031041795,1
612,352,23,0.119094404898084,1
612,353,23,0.160873890981104,1
612,354,23,0.190644739903826,1
612,355,23,0.183330086076427,1
612,356,23,0.141194328152289,1
612,357,23,0.0960205321833987,1
613,352,23,0.106087044566229,1
613,353,23,0.143316170151023,1
613,354,23,0.166407101746063,1
613,355,23,0.155066695909549,1
613,356,23,0.113900419073438,1
613,357,23,0.0772184834310354,1
614,353,23,0.110826023091974,1
614,354,23,0.124383855763141,1
614,355,23,0.115143740713452,1
614,356,23,0.08487342837877,1
605,355,24,0.0988994817933828,1
605,356,24,0.0992897815485783,1
605,357,24,0.0849419753685102,1
606,354,24,0.12684008296366,1
606,355,24,0.144292635317173,1
606,356,24,0.149795969082409,1
606,357,24,0.134521862105211,1
606,358,24,0.109064573899836,1
607,353,24,0.134787927928722,1
607,354,24,0.1743767494936,1
607,355,24,0.189353835487991,1
607,356,24,0.188729569115683,1
607,357,24,0.168037722263794,1
607,358,24,0.133658555776022,1
607,359,24,0.0917831554194338,1
608,352,24,0.109054511077155,1
608,353,24,0.162125550388482,1
608,354,24,0.203588033597944,1
608,355,24,0.215325621441594,1
608,356,24,0.203682480376537,1
608,357,24,0.172760696109655,1
608,358,24,0.133246938410158,1
608,359,24,0.091063747454585,1
609,352,24,0.122033611648647,1
609,353,24,0.170226793501678,1
609,354,24,0.20436560228198,1
609,355,24,0.213083121407093,1
609,356,24,0.196740702047679,1
609,357,24,0.15923761611539,1
609,358,24,0.116105770520875,1
610,352,24,0.133932312471153,1
610,353,24,0.175350806770037,1
610,354,24,0.204036380266594,1
610,355,24,0.2098273430468,1
610,356,24,0.188556847952091,1
610,357,24,0.146118151147047,1
610,358,24,0.0986451619194422,1
611,351,24,0.119059903791748,1
611,352,24,0.144372455064226,1
611,353,24,0.189610425486811,1
611,354,24,0.221254157383313,1
611,355,24,0.218283492332321,1
611,356,24,0.180966987903912,1
611,357,24,0.129634456944919,1
611,358,24,0.082273536415151,1
612,351,24,0.108078692806749,1
612,352,24,0.146130070800104,1
612,353,24,0.206623723650738,1
612,354,24,0.240440821594012,1
612,355,24,0.224190872387308,1
612,356,24,0.168011379231561,1
612,357,24,0.110564245947653,1
613,351,24,0.0963430276810043,1
613,352,24,0.140612852735478,1
613,353,24,0.197342686455479,1
613,354,24,0.223695350247565,1
613,355,24,0.200684058706316,1
613,356,24,0.140887939160749,1
613,357,24,0.0875926127093642,1
614,352,24,0.112990081027765,1
614,353,24,0.148913567349226,1
614,354,24,0.166769039914713,1
614,355,24,0.151311597891906,1
614,356,24,0.106459728391957,1
615,353,24,0.0899444680734429,1
615,354,24,0.0939600973621221,1
615,355,24,0.0865474747681909,1
605,355,25,0.100673820982193,1
605,356,25,0.10050536453869,1
606,354,25,0.126953744941754,1
606,355,25,0.14536390664844,1
606,356,25,0.150163118355662,1
606,357,25,0.125098136480243,1
607,353,25,0.134707353469968,1
607,354,25,0.168855841727325,1
607,355,25,0.184281010840248,1
607,356,25,0.184229654505921,1
607,357,25,0.152647773030255,1
607,358,25,0.112598373675349,1
608,352,25,0.121691619432096,1
608,353,25,0.167967629911999,1
608,354,25,0.20022351685494,1
608,355,25,0.208584632363878,1
608,356,25,0.197977063568672,1
608,357,25,0.160997016804339,1
608,358,25,0.119073213072699,1
609,352,25,0.13168668577389,1
609,353,25,0.170980906225226,1
609,354,25,0.194640555015464,1
609,355,25,0.198883747851348,1
609,356,25,0.187305943256414,1
609,357,25,0.152913407589937,1
609,358,25,0.112674671434464,1
610,352,25,0.135473924926359,1
610,353,25,0.172146480580477,1
610,354,25,0.194815600211913,1
610,355,25,0.197564116472668,1
610,356,25,0.182815780001012,1
610,357,25,0.146991124973741,1
610,358,25,0.101913776368429,1
611,351,25,0.122798386172417,1
611,352,25,0.157052222599605,1
611,353,25,0.209907510200827,1
611,354,25,0.239102633891127,1
611,355,25,0.227542175685767,1
611,356,25,0.19067728834338,1
611,357,25,0.139816548033974,1
611,358,25,0.0894332647016881,1
612,349,25,0.0794187675284787,1
612,350,25,0.0902045441215482,1
612,351,25,0.120223741112132,1
612,352,25,0.179843689383473,1
612,353,25,0.256347987933813,1
612,354,25,0.287647703069678,2
612,355,25,0.255809243574744,1
612,356,25,0.189935478618514,1
612,357,25,0.123364168377666,1
613,349,25,0.0764996145459731,1
613,351,25,0.116609330939212,1
613,352,25,0.186692889743664,1
613,353,25,0.257316798166995,1
613,354,25,0.275700640800548,1
613,355,25,0.235143296511708,1
613,356,25,0.161996710319511,1
613,357,25,0.0953653106517949,1
614,352,25,0.148435739006031,1
614,353,25,0.194966866000003,1
614,354,25,0.205494507232199,1
614,355,25,0.17858087701429,1
614,356,25,0.123858049318948,1
614,357,25,0.0723679812770163,1
615,353,25,0.110313274358164,1
615,354,25,0.110467978277337,1
615,355,25,0.100770591793644,1
615,356,25,0.0786801982721079,1
605,355,26,0.10769890510739,1
605,356,26,0.106984804083551,1
606,354,26,0.130928979185099,1
606,355,26,0.153320544603797,1
606,356,26,0.155812542743037,1
606,357,26,0.124571707099408,1
607,353,26,0.136438266787088,1
607,354,26,0.167487765045166,1
607,355,26,0.188646718542275,1
607,356,26,0.188001020753566,1
607,357,26,0.147952004744285,1
607,358,26,0.10233023347282,1
608,352,26,0.141444868477949,1
608,353,26,0.171398788896164,1
608,354,26,0.192985580070934,1
608,355,26,0.201455026657855,1
608,356,26,0.192525541360693,1
608,357,26,0.15225281921957,1
608,358,26,0.108570070021912,1
609,352,26,0.143982185257907,1
609,353,26,0.170930124909339,1
609,354,26,0.183898156375881,1
609,355,26,0.184620343596518,1
609,356,26,0.177543208323047,1
609,357,26,0.14621584438391,1
609,358,26,0.108297954525242,1
610,352,26,0.139380947607387,1
610,353,26,0.173970019784468,1
610,354,26,0.189630838641392,1
610,355,26,0.185808595241454,1
610,356,26,0.175964483219429,1
610,357,26,0.146154041881276,1
610,358,26,0.103910432061188,1
611,349,26,0.0784827273565406,1
611,350,26,0.0967985740596915,1
611,351,26,0.121347530794154,1
611,352,26,0.171410564794611,1
611,353,26,0.233339823055326,1
611,354,26,0.253961445780361,2
611,355,26,0.228322284034575,1
611,356,26,0.193608935997381,1
611,357,26,0.147382329185023,1
611,358,26,0.0962084793560714,1
612,348,26,0.0680732643930949,1
612,349,26,0.0872534536565806,1
612,350,26,0.0993743451977527,1
612,351,26,0.133240433514068,1
612,352,26,0.214199639501773,1
612,353,26,0.30044761352014,2
612,354,26,0.319672516457028,2
612,355,26,0.269957452468976,2
612,356,26,0.200219455787216,1
612,357,26,0.1335223243242,1
613,345,26,0.0796363401303068,1
613,346,26,0.0744188624065212,1
613,347,26,0.0678882042921676,1
613,348,26,0.0703452101634892,1
613,349,26,0.0834593023032939,1
613,350,26,0.0933953274289162,1
613,351,26,0.134743375979256,1
613,352,26,0.224084949199038,1
613,353,26,0.30174449573183,1
613,354,26,0.307630192799849,2
613,355,26,0.250871536280597,1
613,356,26,0.170099666508473,1
613,357,26,0.0997143547986439,1
614,345,26,0.0777160480841919,1
614,349,26,0.0679774579354845,1
614,351,26,0.106469455787216,1
614,352,26,0.176206446186708,1
614,353,26,0.227666092159355,1
614,354,26,0.226570394523984,1
614,355,26,0.189253710402314,1
614,356,26,0.129862990835739,1
614,357,26,0.073523654533522,1
615,352,26,0.105667712369643,1
615,353,26,0.122928220544105,1
615,354,26,0.118813628186177,1
615,355,26,0.110347404098425,1
615,356,26,0.089843809897754,1
605,355,27,0.114502954540576,1
605,356,27,0.112321885642633,1
606,354,27,0.132920735241577,1
606,355,27,0.15974092496316,1
606,356,27,0.15672508502606,1
606,357,27,0.122872240103166,1
607,350,27,0.0862227510741344,1
607,353,27,0.134740500887062,1
607,354,27,0.165296848956457,1
607,355,27,0.1940413139248,1
607,356,27,0.188549827935316,1
607,357,27,0.142834951594948,1
607,358,27,0.0971389490368824,1
608,352,27,0.1501540737948,1
608,353,27,0.164731953237967,1
608,354,27,0.182832395637987,1
608,355,27,0.197111025901897,1
608,356,27,0.185601109421409,1
608,357,27,0.141472026119638,1
608,358,27,0.0984518838466587,1
609,352,27,0.145130137693915,1
609,353,27,0.164627946777827,1
609,354,27,0.176474584472509,1
609,355,27,0.180020591410298,1
609,356,27,0.170887585524409,1
609,357,27,0.136557882601935,1
609,358,27,0.0993772562285997,1
610,352,27,0.141241563521137,1
610,353,27,0.176373513002317,1
610,354,27,0.189345174272755,1
610,355,27,0.182542083203635,1
610,356,27,0.169821920622921,1
610,357,27,0.139396904369067,1
610,358,27,0.0995801778397861,1
611,349,27,0.0830628570385324,1
611,350,27,0.102614041011082,1
611,351,27,0.124509018110014,1
611,352,27,0.181712283678063,1
611,353,27,0.245993606944996,2
611,354,27,0.258377371759388,2
611,355,27,0.223860452416841,1
611,356,27,0.187115600173579,1
611,357,27,0.143370533352603,1
611,358,27,0.0951587053287342,1
612,348,27,0.0731578230108579,1
612,349,27,0.0952349611594212,1
612,350,27,0.113714712076767,1
612,351,27,0.146712276969515,1
612,352,27,0.231654707560956,2
612,353,27,0.314463544214318,2
612,354,27,0.321657599903704,2
612,355,27,0.263095086582443,2
612,356,27,0.193388392466952,1
612,357,27,0.131191487082019,1
613,344,27,0.0695016521238114,1
613,345,27,0.0936680179440254,1
613,346,27,0.0816491382677838,1
613,347,27,0.0710414916054975,1
613,348,27,0.0742207625645362,1
613,349,27,0.090043431142692,1
613,350,27,0.105109812708828,1
613,351,27,0.14400837255598,1
613,352,27,0.235188627131977,1
613,353,27,0.308912459959549,2
613,354,27,0.305991821512743,2
613,355,27,0.242006884312424,1
613,356,27,0.16221252192737,1
613,357,27,0.0973167375504674,1
614,344,27,0.0697806798212996,1
614,345,27,0.0876178775820245,1
614,346,27,0.0707361088962253,1
614,349,27,0.0703648027188405,1
614,350,27,0.0782240708852064,1
614,351,27,0.111947129354615,1
614,352,27,0.185353360331088,1
614,353,27,0.233359301804945,1
614,354,27,0.222041621176319,1
614,355,27,0.177871244362903,1
614,356,27,0.122888184885295,1
614,357,27,0.0720295529768321,1
615,352,27,0.110867723908347,1
615,353,27,0.126269604774493,1
615,354,27,0.118232044953408,1
615,355,27,0.109244914057744,1
615,356,27,0.0940996591290694,1
605,351,28,0.0743909021349285,1
605,352,28,0.0787593411745403,1
605,355,28,0.125330216318103,1
605,356,28,0.122044273448869,1
605,357,28,0.10091072857903,1
606,350,28,0.0729729366134174,1
606,351,28,0.0980240461689972,1
606,354,28,0.13745303057718,1
606,355,28,0.168195984109557,1
606,356,28,0.158207278909244,1
606,357,28,0.120835189365072,1
606,358,28,0.0848460970335949,1
607,350,28,0.0944636517906841,1
607,351,28,0.124649981484406,1
607,353,28,0.129055305560965,1
607,354,28,0.16113559624812,1
607,355,28,0.194455950137468,1
607,356,28,0.182868442106377,1
607,357,28,0.135576206331183,1
607,358,28,0.0952893004018995,1
608,350,28,0.105956000259908,1
608,353,28,0.144326010345732,1
608,354,28,0.165181545779901,1
608,355,28,0.186072193277498,1
608,356,28,0.172798383776506,1
608,357,28,0.129920133293108,1
608,358,28,0.0922139161074932,1
609,353,28,0.144176864938136,1
609,354,28,0.160558888692531,1
609,355,28,0.169249058503143,1
609,356,28,0.158572499474816,1
609,357,28,0.12563168171426,1
609,358,28,0.0916068044519461,1
610,350,28,0.096071235632206,1
610,351,28,0.111813772994987,1
610,352,28,0.131791027661454,1
610,353,28,0.165378944818164,1
610,354,28,0.180851912338822,1
610,355,28,0.175930197745008,1
610,356,28,0.159894083520278,1
610,357,28,0.131099256520326,1
610,358,28,0.0955886633868893,1
611,348,28,0.07224771257665,1
611,349,28,0.0891147643842779,1
611,350,28,0.112222706941469,1
611,351,28,0.131252846341273,1
611,352,28,0.176356897365342,1
611,353,28,0.230420047136178,1
611,354,28,0.243350726363292,1
611,355,28,0.212676415657062,1
611,356,28,0.174858950372842,1
611,357,28,0.133873157449249,1
611,358,28,0.0920113538828312,1
612,348,28,0.0847742496776063,1
612,349,28,0.104403833820438,1
612,350,28,0.130027434129721,1
612,351,28,0.155266694510337,1
612,352,28,0.220858257188114,1
612,353,28,0.287805090408232,2
612,354,28,0.295278652977139,2
612,355,28,0.242956048082275,1
612,356,28,0.176993143288461,1
612,357,28,0.120088911267755,1
613,344,28,0.0716741556429243,1
613,345,28,0.0953761162066264,1
613,346,28,0.0832631431485403,1
613,347,28,0.0754032280864306,1
613,348,28,0.0854737356494565,1
613,349,28,0.0998810023299747,1
613,350,28,0.116947729290519,1
613,351,28,0.141540992393656,1
613,352,28,0.214974884152952,1
613,353,28,0.27720510466869,1
613,354,28,0.276561730912838,1
613,355,28,0.217620663785952,1
613,356,28,0.145991191867553,1
614,344,28,0.0723006022934802,1
614,345,28,0.0886776485445133,1
614,346,28,0.0700229542568998,1
614,348,28,0.0685687925226136,1
614,349,28,0.0764386146732439,1
614,350,28,0.0835038602425351,1
614,351,28,0.106743152584593,1
614,352,28,0.170349523999736,1
614,353,28,0.211986034143828,1
614,354,28,0.200098031060196,1
614,355,28,0.156130396164704,1
614,356,28,0.110589355086153,1
615,352,28,0.106355614115859,1
615,353,28,0.120022269026593,1
615,354,28,0.112551617488534,1
615,355,28,0.102391221365998,1
604,353,29,0.071888739346825,1
604,355,29,0.100487736629671,1
604,356,29,0.101440991416125,1
605,351,29,0.0762476246946652,1
605,352,29,0.0872737410258789,1
605,353,29,0.0961675512207258,1
605,354,29,0.114834824036691,1
605,355,29,0.137116189567479,1
605,356,29,0.133464163605013,1
605,357,29,0.108403087063158,1
606,350,29,0.0689427461807275,1
606,351,29,0.095644218553775,1
606,352,29,0.104987166067625,1
606,353,29,0.117926015348392,1
606,354,29,0.146897325090891,1
606,355,29,0.175533998061038,1
606,356,29,0.161196200795672,1
606,357,29,0.120709559815718,1
606,358,29,0.0866110322750183,1
607,350,29,0.0867770329106053,1
607,351,29,0.111061696795077,1
607,353,29,0.126395306201152,1
607,354,29,0.159469791789657,1
607,355,29,0.189477368615954,1
607,356,29,0.174101303681805,1
607,357,29,0.129390373597147,1
607,358,29,0.0949165387090913,1
608,350,29,0.0960933379034521,1
608,353,29,0.128128723244392,1
608,354,29,0.152460029509946,1
608,355,29,0.172730315968799,1
608,356,29,0.158851838640626,1
608,357,29,0.12096279554031,1
608,358,29,0.0897184379087423,1
609,353,29,0.131002928952255,1
609,354,29,0.150266777408829,1
609,355,29,0.157408218911053,1
609,356,29,0.144878267638116,1
609,357,29,0.115916086313334,1
610,349,29,0.0751900998979534,1
610,350,29,0.0911960316444147,1
610,351,29,0.105452308066512,1
610,352,29,0.122977408579735,1
610,353,29,0.153204762245209,1
610,354,29,0.170358305010481,1
610,355,29,0.166239591687073,1
610,356,29,0.146908729623263,1
610,357,29,0.120514999930998,1
610,358,29,0.0910465028911927,1
611,348,29,0.0807703663384973,1
611,349,29,0.093639782142764,1
611,350,29,0.114132331197587,1
611,351,29,0.131631472024203,1
611,352,29,0.159621488841576,1
611,353,29,0.198651284667862,1
611,354,29,0.213877892726093,1
611,355,29,0.192988275469867,1
611,356,29,0.156150473891863,1
611,357,29,0.119015375801384,1
612,347,29,0.074588109500378,1
612,348,29,0.0950904638175397,1
612,349,29,0.109419815499584,1
612,350,29,0.131250654083474,1
612,351,29,0.148964204910504,1
612,352,29,0.188401604953132,1
612,353,29,0.238158645287226,1
612,354,29,0.249484256378488,1
612,355,29,0.211987040426096,1
612,356,29,0.153917473641155,1
612,357,29,0.104788473237875,1
613,345,29,0.0824017715168066,1
613,346,29,0.0767294841567086,1
613,347,29,0.0771922841534119,1
613,348,29,0.0927905697551035,1
613,349,29,0.103249065020018,1
613,350,29,0.114320098676998,1
613,351,29,0.127356557337772,1
613,352,29,0.175801764980764,1
613,353,29,0.225613995105443,1
613,354,29,0.228645683988267,1
613,355,29,0.183687987136454,1
613,356,29,0.126067078488484,1
614,344,29,0.0689763009025489,1
614,345,29,0.0788638447860395,1
614,348,29,0.0723552649838305,1
614,349,29,0.0788487325826915,1
614,350,29,0.0813031927994658,1
614,351,29,0.0950927818606217,1
614,352,29,0.14038375580577,1
614,353,29,0.175879763836094,1
614,354,29,0.16816825144943,1
614,355,29,0.132452969721062,1
615,353,29,0.106870051966333,1
615,354,29,0.101990397575416,1
571,317,30,0.077530299159093,1
581,316,30,0.0732810985784778,1
581,317,30,0.086588337016007,1
582,316,30,0.0775370855746274,1
582,317,30,0.0883606277016283,1
582,318,30,0.0685117399118765,1
604,352,30,0.0689012789655955,1
604,353,30,0.0905088007530441,1
604,354,30,0.112106696971416,1
604,355,30,0.123465886743602,1
604,356,30,0.119083599343252,1
605,351,30,0.0693293861831503,1
605,352,30,0.0914072790434147,1
605,353,30,0.112846853518269,1
605,354,30,0.135519063873815,1
605,355,30,0.153862319789221,1
605,356,30,0.148662571800636,1
605,357,30,0.115218888435689,1
606,351,30,0.0810887528501747,1
606,352,30,0.101229061182729,1
606,353,30,0.123892885852706,1
606,354,30,0.150961579376312,1
606,355,30,0.172905576797163,1
606,356,30,0.160474540675271,1
606,357,30,0.118418123316154,1
606,358,30,0.0849256232816532,1
607,350,30,0.0706423449520281,1
607,351,30,0.0882337522789897,1
607,353,30,0.120936632201339,1
607,354,30,0.149191900232767,1
607,355,30,0.170025572986707,1
607,356,30,0.155562661292672,1
607,357,30,0.117587640956187,1
607,358,30,0.0874783517537296,1
608,350,30,0.0792265436561666,1
608,354,30,0.136374990799705,1
608,355,30,0.146877187465978,1
608,356,30,0.133794224188956,1
608,357,30,0.105041050087173,1
609,353,30,0.125007942442188,1
609,354,30,0.135305145034984,1
609,355,30,0.133082183647856,1
609,356,30,0.120072762833262,1
610,349,30,0.0734615285830166,1
610,350,30,0.0833042929055758,1
610,351,30,0.0967613895339744,1
610,352,30,0.114415348085495,1
610,353,30,0.136734221589872,1
610,354,30,0.148051614709278,1
610,355,30,0.142164923338542,1
610,356,30,0.124365539029952,1
610,357,30,0.103002573782533,1
611,348,30,0.0797808434619637,1
611,349,30,0.0893293301188525,1
611,350,30,0.102440301585671,1
611,351,30,0.116287907611404,1
611,352,30,0.132274761923199,1
611,353,30,0.157494950858924,1
611,354,30,0.172069751557533,1
611,355,30,0.160107055974595,1
611,356,30,0.1298926881422,1
612,347,30,0.0741633565570503,1
612,348,30,0.0956981624710766,1
612,349,30,0.106029638558743,1
612,350,30,0.116070490743737,1
612,351,30,0.124574079050468,1
612,352,30,0.14437487493349,1
612,353,30,0.180055619616869,1
612,354,30,0.193504222743743,1
612,355,30,0.169525570494961,1
612,356,30,0.124654821222934,1
613,347,30,0.0731354571894939,1
613,348,30,0.0927958347676849,1
613,349,30,0.101317194738045,1
613,350,30,0.101666159053167,1
613,351,30,0.10453385986494,1
613,352,30,0.131621960260859,1
613,353,30,0.169821860725167,1
613,354,30,0.174601126480289,1
613,355,30,0.142997981301934,1
614,348,30,0.0712106428629478,1
614,349,30,0.0780411191852219,1
614,350,30,0.0753696973237108,1
614,352,30,0.106185013332761,1
614,353,30,0.134282091395731,1
614,354,30,0.131474947213307,1
580,317,31,0.0700726993416422,1
581,316,31,0.0866522359400325,1
581,317,31,0.0972028898893358,1
581,318,31,0.0690269204945005,1
582,316,31,0.0962858313156575,1
582,317,31,0.102859741598214,1
582,318,31,0.0726915968626227,1
583,316,31,0.0745448872810521,1
583,317,31,0.0766159659332243,1
602,354,31,0.0738239159848226,1
602,355,31,0.0791351876016824,1
603,353,31,0.0797846110306937,1
603,354,31,0.111057372177234,1
603,355,31,0.118724835755567,1
603,356,31,0.104821321166199,1
604,352,31,0.0705600274686308,1
604,353,31,0.105613756472791,1
604,354,31,0.140339048122143,1
604,355,31,0.153268601271481,1
604,356,31,0.141213279801672,1
604,357,31,0.108664265229938,1
605,352,31,0.0885861068069916,1
605,353,31,0.120094194249662,1
605,354,31,0.151600149332289,1
605,355,31,0.17324205842034,1
605,356,31,0.168017560679779,1
605,357,31,0.125292121346525,1
606,351,31,0.0679560924066132,1
606,352,31,0.093016893418799,1
606,353,31,0.119942545115947,1
606,354,31,0.144914409942912,1
606,355,31,0.164053551275544,1
606,356,31,0.15860268794286,1
606,357,31,0.118002253209753,1
607,351,31,0.0728120093175988,1
607,354,31,0.13930388315702,1
607,355,31,0.149511358914243,1
607,356,31,0.137722163165699,1
607,357,31,0.106852753494962,1
608,355,31,0.128180666576708,1
608,356,31,0.113196776197457,1
609,353,31,0.124647992878972,1
609,355,31,0.118062761920899,1
610,349,31,0.070501854769893,1
610,350,31,0.0777019182040104,1
610,352,31,0.106501045862704,1
610,353,31,0.122752360738201,1
610,354,31,0.128937738249307,1
610,355,31,0.121360348913522,1
610,356,31,0.105374932147824,1
611,348,31,0.0706659147182486,1
611,349,31,0.0805757285866967,1
611,350,31,0.0875606692371269,1
611,351,31,0.097177660955328,1
611,352,31,0.110449170382564,1
611,353,31,0.127909713096467,1
611,354,31,0.138329454514508,1
611,355,31,0.129793533400138,1
612,348,31,0.0835337252627068,1
612,349,31,0.092028221090373,1
612,350,31,0.0939774437516963,1
612,351,31,0.0994343447779892,1
612,352,31,0.113783654391684,1
612,353,31,0.139726785259747,1
612,354,31,0.148405430742479,1
612,355,31,0.130569257233349,1
613,348,31,0.0824273957759912,1
613,349,31,0.0893252810306784,1
613,350,31,0.0850808662806121,1
613,352,31,0.10440016807789,1
613,353,31,0.131641355153622,1
613,354,31,0.133422642481902,1
614,349,31,0.0702602451993627,1
580,317,32,0.0690876987455398,1
581,316,32,0.0866292052535985,1
581,317,32,0.0953857537552538,1
581,318,32,0.0717333286341549,1
582,316,32,0.101882377965753,1
582,317,32,0.102627925310472,1
582,318,32,0.0713958826571372,1
583,316,32,0.0824139247711043,1
583,317,32,0.0774029505441974,1
602,354,32,0.0878862255099647,1
602,355,32,0.0942899363243748,1
603,353,32,0.103645600131411,1
603,354,32,0.145982003552081,1
603,355,32,0.152487294967592,1
603,356,32,0.132521660465412,1
604,352,32,0.0812789581681753,1
604,353,32,0.135102427076162,1
604,354,32,0.181722634009964,1
604,355,32,0.194932808137048,1
604,356,32,0.173417235391848,1
604,357,32,0.128976336362019,1
605,352,32,0.0949272544172916,1
605,353,32,0.1391351871225,1
605,354,32,0.179350024074105,1
605,355,32,0.203913110688749,1
605,356,32,0.194132993427156,1
605,357,32,0.141578045144314,1
605,358,32,0.0915441514012049,1
606,352,32,0.092370045593212,1
606,353,32,0.123594439303354,1
606,354,32,0.148942929228264,1
606,355,32,0.167308970249313,1
606,356,32,0.162233821568712,1
606,357,32,0.120206802027285,1
607,354,32,0.13595774304496,1
607,355,32,0.137602128066573,1
607,356,32,0.12321679594359,1
608,353,32,0.120886761331313,1
609,352,32,0.0959868097478659,1
609,353,32,0.119257482523273,1
609,354,32,0.126036243124696,1
610,350,32,0.073948425446176,1
610,351,32,0.0792672621493729,1
610,352,32,0.0928363975267307,1
610,353,32,0.106689136789986,1
610,354,32,0.111432044608397,1
611,349,32,0.0719930872241637,1
611,350,32,0.0760908423234272,1
611,351,32,0.0801378520454556,1
611,352,32,0.0898943875612778,1
611,353,32,0.101432521873701,1
611,354,32,0.10679496414185,1
612,349,32,0.0750801396010599,1
612,350,32,0.0755909236885363,1
612,353,32,0.107317284536757,1
612,354,32,0.109238217488841,1
613,349,32,0.0738593275370197,1
581,316,33,0.0722550979697249,1
581,317,33,0.0799306597244052,1
581,318,33,0.068530907193174,1
582,316,33,0.0868964929912919,1
582,317,33,0.0834007821975825,1
583,316,33,0.07875372276521,1
602,354,33,0.0918144160572749,1
602,355,33,0.101858850127961,1
603,353,33,0.120685456959487,1
603,354,33,0.163492680686127,1
603,355,33,0.167614317019932,1
603,356,33,0.147248385827406,1
604,352,33,0.09396590145449,1
604,353,33,0.163872684017401,1
604,354,33,0.211014085268334,1
604,355,33,0.216059440806069,1
604,356,33,0.188767556271304,1
604,357,33,0.138659143732376,1
605,352,33,0.106156034799349,1
605,353,33,0.166165653899468,1
605,354,33,0.208545411314523,1
605,355,33,0.221324740896691,1
605,356,33,0.201622021596159,1
605,357,33,0.145498616697309,1
605,358,33,0.0941068528493314,1
606,352,33,0.0975388084736251,1
606,353,33,0.137207545621963,1
606,354,33,0.166871309339986,1
606,355,33,0.177428719755947,1
606,356,33,0.16460141207278,1
606,357,33,0.121071330270657,1
607,354,33,0.134922649957142,1
607,355,33,0.132378157426248,1
607,356,33,0.11562928388737,1
608,353,33,0.109629721188893,1
608,354,33,0.129079707905967,1
609,351,33,0.0682491182092239,1
609,352,33,0.0841506122317156,1
609,353,33,0.106677456727946,1
609,354,33,0.123158563347098,1
609,355,33,0.109894732811932,1
610,350,33,0.0720881329802976,1
610,351,33,0.07367245852392,1
610,352,33,0.0833458319980127,1
610,353,33,0.096317421391146,1
610,354,33,0.105428720330965,1
611,350,33,0.0713340022874234,1
611,351,33,0.0723972892480752,1
611,352,33,0.0798011847392406,1
611,353,33,0.0879515919289645,1
602,354,34,0.0938298496959303,1
602,355,34,0.10930763898579,1
603,352,34,0.0691481894873596,1
603,353,34,0.132585235941566,1
603,354,34,0.174038854283427,1
603,355,34,0.17532883627385,1
603,356,34,0.151846975997197,1
604,352,34,0.103506361812335,1
604,353,34,0.191117500897029,1
604,354,34,0.235689971333414,1
604,355,34,0.225397476704086,1
604,356,34,0.185773315464316,1
604,357,34,0.134575183085871,1
605,352,34,0.114901394400547,1
605,353,34,0.195330337551157,1
605,354,34,0.238311791864792,1
605,355,34,0.228922148061881,1
605,356,34,0.18981722847246,1
605,357,34,0.134680076032771,1
606,352,34,0.100410875831668,1
606,353,34,0.152046938659333,1
606,354,34,0.18805928928871,1
606,355,34,0.186564636672683,1
606,356,34,0.157242302132322,1
606,357,34,0.112888650171049,1
607,353,34,0.106890800548338,1
607,354,34,0.132221524799395,1
607,355,34,0.129556050784862,1
607,356,34,0.107782558310703,1
608,353,34,0.0948523103474185,1
608,354,34,0.11571127193312,1
609,352,34,0.0773061378043189,1
609,353,34,0.0948444577518619,1
609,354,34,0.113697928726081,1
609,355,34,0.102526386637798,1
610,351,34,0.0679112948763557,1
610,352,34,0.0760533642987152,1
610,353,34,0.088152255394823,1
610,354,34,0.0994005145264991,1
611,352,34,0.0712704208214943,1
611,353,34,0.0766988045270818,1
602,354,35,0.088481537307963,1
602,355,35,0.10381222370364,1
603,352,35,0.0679972840920765,1
603,353,35,0.129013101603458,1
603,354,35,0.164908256287252,1
603,355,35,0.162269269059561,1
603,356,35,0.137152571463292,1
604,352,35,0.102033080714955,1
604,353,35,0.192144292156135,1
604,354,35,0.231720403417603,1
604,355,35,0.209890810706997,1
604,356,35,0.161687733744995,1
604,357,35,0.116169597567595,1
605,352,35,0.113583679749997,1
605,353,35,0.199583449455113,1
605,354,35,0.239216679214847,1
605,355,35,0.214670292094033,1
605,356,35,0.161651040380862,1
605,357,35,0.114147269697448,1
606,352,35,0.0993666782852337,1
606,353,35,0.152810071984642,1
606,354,35,0.187080691762516,1
606,355,35,0.17735520125262,1
606,356,35,0.137673789739524,1
606,357,35,0.0992118425910024,1
607,353,35,0.103093270961722,1
607,354,35,0.123185756927439,1
607,355,35,0.120568237054802,1
607,356,35,0.0970050895361211,1
608,352,35,0.0785304718562975,1
608,353,35,0.0870450873395507,1
609,352,35,0.0770334472892097,1
609,353,35,0.0886036508591542,1
609,354,35,0.100381489993529,1
610,352,35,0.0725843738930895,1
610,353,35,0.0835639077409749,1
602,354,36,0.0773194890136977,1
602,355,36,0.0904369474072802,1
602,356,36,0.0905143592646204,1
603,353,36,0.112749531647481,1
603,354,36,0.143015687078032,1
603,355,36,0.138394659209572,1
604,352,36,0.0917287023712227,1
604,353,36,0.17165327049404,1
604,354,36,0.206397525772326,1
604,355,36,0.180694944284547,1
604,356,36,0.133052390504989,1
605,352,36,0.104812695889615,1
605,353,36,0.181824915414788,1
605,354,36,0.214533341869163,1
605,355,36,0.186048377930486,1
605,356,36,0.133781909210722,1
605,357,36,0.0958353223380863,1
606,352,36,0.0952502410764805,1
606,353,36,0.141928339189577,1
606,354,36,0.167423662468776,1
606,355,36,0.154354715266203,1
606,356,36,0.115664036564272,1
607,352,36,0.0844613737593019,1
607,353,36,0.100332373835204,1
607,354,36,0.110606174375492,1
607,355,36,0.105349212052233,1
608,352,36,0.07990510135275,1
608,353,36,0.0833824295257401,1
608,354,36,0.0826055676352022,1
609,352,36,0.075286175895457,1
609,353,36,0.0798499055723887,1
609,354,36,0.0809176429361668,1
610,352,36,0.0683619955267399,1
610,353,36,0.0729265098642496,1
582,317,37,0.0689713114196362,1
582,318,37,0.0739885988698204,1
602,355,37,0.0753207608586482,1
602,356,37,0.0738654430977087,1
603,353,37,0.0937392064247193,1
603,354,37,0.117365683838762,1
603,355,37,0.111765603221177,1
604,352,37,0.0811079201314722,1
604,353,37,0.14229194251579,1
604,354,37,0.170639069742836,1
604,355,37,0.148036448597952,1
605,352,37,0.0948105975514948,1
605,353,37,0.154153818199104,1
605,354,37,0.17830595830273,1
605,355,37,0.153575637158765,1
605,356,37,0.112164689976892,1
606,352,37,0.0914775690577978,1
606,353,37,0.128176282061111,1
606,354,37,0.14343711569601,1
606,355,37,0.130467670642472,1
606,356,37,0.0997499819827556,1
607,352,37,0.0842752354988017,1
607,353,37,0.0980760374195166,1
607,354,37,0.0997122463977012,1
607,355,37,0.0918387585045227,1
608,352,37,0.0798871200469828,1
608,353,37,0.0833441488711238,1
608,354,37,0.0753849832305456,1
609,352,37,0.0728475825937318,1
609,353,37,0.0742199898835089,1
578,353,38,0.0690594030465244,1
579,353,38,0.0686364709949199,1
582,318,38,0.0771096312425918,1
603,353,38,0.0732663637309803,1
603,354,38,0.0904724907345362,1
603,355,38,0.0861583849476273,1
604,353,38,0.108402787574388,1
604,354,38,0.129162666295333,1
604,355,38,0.113928187672218,1
605,352,38,0.0806456472350047,1
605,353,38,0.120502133893427,1
605,354,38,0.136600865230245,1
605,355,38,0.119104144272893,1
605,356,38,0.0910318399210001,1
606,352,38,0.0833762420877463,1
606,353,38,0.107866439125481,1
606,354,38,0.114682971250611,1
606,355,38,0.104013504116365,1
607,352,38,0.0819485012527735,1
607,353,38,0.0899843420083171,1
607,354,38,0.08585240925059,1
608,351,38,0.0691349221348365,1
608,352,38,0.0788727995002706,1
608,353,38,0.0798116608564248,1
608,354,38,0.0693843423724954,1
609,352,38,0.0713048141118725,1
609,353,38,0.0691968084943257,1
610,351,38,0.0684949086429872,1
610,352,38,0.069587593421329,1
603,354,39,0.0682997078522985,1
604,353,39,0.0776479263685056,1
604,354,39,0.0933005032944723,1
605,353,39,0.0899134110879656,1
605,354,39,0.102400816986198,1
605,355,39,0.0920433273039455,1
606,352,39,0.0753666784769065,1
606,353,39,0.0880072609015829,1
606,354,39,0.0918948946796227,1
606,355,39,0.0831671450181169,1
607,351,39,0.0700620075925435,1
607,352,39,0.0798368897904326,1
607,353,39,0.0803674521162979,1
607,354,39,0.0751195583130032,1
608,349,39,0.0682662968850868,1
608,351,39,0.0713019390196779,1
608,352,39,0.0758943177923739,1
608,353,39,0.0726343046608695,1
609,352,39,0.0697247832372158,1
610,351,39,0.0678841072857903,1
610,352,39,0.072694747484486,1
611,351,39,0.0684805811002173,1
611,352,39,0.0760128374783218,1
605,353,40,0.0691267880198358,1
606,352,40,0.071885133502031,1
606,353,40,0.0756525165490307,1
606,354,40,0.0776509272459837,1
607,351,40,0.0748594163773685,1
607,352,40,0.0812537352239428,1
607,353,40,0.0750083521428254,1
607,354,40,0.0687625617569803,1
608,349,40,0.0744524890056475,1
608,350,40,0.0737569383162387,1
608,351,40,0.0769555742191633,1
608,352,40,0.0767585465469759,1
609,349,40,0.0706231716809552,1
609,350,40,0.0703903610904956,1
609,351,40,0.0713207588940019,1
609,352,40,0.0691281596784037,1
610,351,40,0.0692919620664169,1
610,352,40,0.0739896949987196,1
611,351,40,0.0733470280363657,1
611,352,40,0.0840106790986931,1
576,348,41,0.0698018956057858,1
576,349,41,0.0800960733620025,1
606,352,41,0.0725502441528292,1
607,351,41,0.0759814510551972,1
607,352,41,0.0812129987614103,1
607,353,41,0.073572890487355,1
608,349,41,0.0728087089513504,1
608,350,41,0.075539555374659,1
608,351,41,0.0782172365514688,1
608,352,41,0.0760618278513631,1
609,349,41,0.072851218387403,1
609,350,41,0.0745632159937929,1
609,351,41,0.0752460743491175,1
609,352,41,0.0695444370895327,1
610,350,41,0.0681519700419227,1
610,351,41,0.073697262183874,1
610,352,41,0.073562372441743,1
611,350,41,0.0690512509621975,1
611,351,41,0.0792862976556115,1
611,352,41,0.0839832938455393,1
612,351,41,0.0685811015110718,1
575,349,42,0.0697473826598206,1
576,348,42,0.0714106534432871,1
576,349,42,0.0889163470841965,1
606,352,42,0.0715278913172982,1
606,353,42,0.0696095459481901,1
607,351,42,0.0743693808718966,1
607,352,42,0.0781900609404542,1
607,353,42,0.0725243383742005,1
608,349,42,0.0705572242537411,1
608,350,42,0.074972227807355,1
608,351,42,0.0772554702941641,1
608,352,42,0.0738260363653161,1
609,349,42,0.0727400122172251,1
609,350,42,0.0769335198661204,1
609,351,42,0.0815907499371313,1
609,352,42,0.073773356290625,1
610,350,42,0.0745523146025549,1
610,351,42,0.0859734446422082,1
610,352,42,0.0797465579875428,1
611,350,42,0.0747080128244446,1
611,351,42,0.0845768865779963,1
611,352,42,0.0806645449764089,1
612,350,42,0.0729449523827231,1
612,351,42,0.0711580226860108,1
576,349,43,0.0754527635290338,1
607,351,43,0.0705499466766234,1
607,352,43,0.0720112302538668,1
607,353,43,0.0692597969724896,1
608,350,43,0.0692804497180876,1
608,351,43,0.0738187647779739,1
608,352,43,0.0706215364722695,1
609,350,43,0.0738523314793461,1
609,351,43,0.0846579042801306,1
609,352,43,0.0777524120106785,1
610,350,43,0.077421794377623,1
610,351,43,0.0960386153153478,1
610,352,43,0.0873216173006948,1
611,350,43,0.0736804009661076,1
611,351,43,0.083740264698238,1
611,352,43,0.0748411894908097,1
612,350,43,0.0711033060876819,1
612,351,43,0.0679741336101344,1
607,351,44,0.0742787735393382,1
607,352,44,0.0718810904036323,1
607,353,44,0.0684478230185248,1
608,350,44,0.06815916975196,1
608,351,44,0.0746061087754714,1
608,352,44,0.0720672526232341,1
609,350,44,0.0733614094871142,1
609,351,44,0.086633793421559,1
609,352,44,0.0828765750234224,1
610,350,44,0.0781464254266254,1
610,351,44,0.098822267598631,1
610,352,44,0.0914037271065992,1
611,350,44,0.0683331966865904,1
611,351,44,0.0777456375746949,1
606,351,45,0.0700272609054164,1
606,352,45,0.0682611816168905,1
607,350,45,0.0677547041779306,1
607,351,45,0.0794060931637208,1
607,352,45,0.0741672858497162,1
608,350,45,0.0682507713872358,1
608,351,45,0.0762385262258243,1
608,352,45,0.0742827327808812,1
609,350,45,0.0716518976375176,1
609,351,45,0.0827430629296346,1
609,352,45,0.0824090311245981,1
610,350,45,0.0744580834558762,1
610,351,45,0.0891007423200537,1
610,352,45,0.084527039667072,1
611,351,45,0.0690647339466352,1
606,351,46,0.0685268101867967,1
607,351,46,0.0789901691493407,1
607,352,46,0.0725451228948575,1
608,351,46,0.0729077498876797,1
608,352,46,0.070342149388257,1
609,351,46,0.0733775339625057,1
609,352,46,0.0736394908000883,1
610,351,46,0.0733131498666724,1
607,351,47,0.0684999819827556,1
592,348,60,0.0704697555634951,1
592,349,60,0.0686630596079448,1
