x,y,z,signal,cytoplasm.p
689,361,3,0.0749294727905108,1
689,362,3,0.0693607366676225,1
690,362,3,0.0703585254342156,1
694,357,3,0.0680656693578807,1
695,350,3,0.0682702022186511,1
695,351,3,0.0709476378146693,1
695,356,3,0.071287994822534,1
695,357,3,0.0810033087040158,1
695,358,3,0.0771453842119871,1
696,356,3,0.0704977158350878,1
696,357,3,0.0792450400826187,1
696,358,3,0.0772787166125127,1
682,364,4,0.0779948182213376,1
683,363,4,0.0769076140874917,1
683,364,4,0.0957273386670766,1
683,365,4,0.0785988571221017,1
684,363,4,0.0692639359072948,1
684,364,4,0.0875619630286145,1
684,365,4,0.0741954437838973,1
686,371,4,0.0730682399298938,1
686,372,4,0.0750953596203652,1
687,371,4,0.0738187527984231,1
687,372,4,0.0738869344118635,1
688,362,4,0.0802565334553395,1
689,362,4,0.0989817693279031,1
689,363,4,0.0720540391786897,1
690,362,4,0.0875325831802506,1
690,363,4,0.069460208867781,1
690,365,4,0.0686779621691536,1
691,364,4,0.083306850539674,1
691,365,4,0.0904861893508885,1
692,364,4,0.0838504046883937,1
692,365,4,0.0923101358596066,1
693,365,4,0.0704212024440584,1
694,350,4,0.0678466472304045,1
694,351,4,0.0693045405947684,1
694,357,4,0.076832957526838,1
694,358,4,0.0693934468311117,1
695,350,4,0.0749653096167617,1
695,351,4,0.0759802291410145,1
695,356,4,0.0840309185497882,1
695,357,4,0.102570447425681,1
695,358,4,0.0879089327485268,1
696,351,4,0.0679485452896023,1
696,356,4,0.0804870499618188,1
696,357,4,0.0979703777813642,1
696,358,4,0.088147026320894,1
697,357,4,0.0697491736026669,1
697,358,4,0.0687230891370583,1
699,360,4,0.0682021463904943,1
700,359,4,0.0689838839582123,1
700,360,4,0.0745106077964067,1
700,361,4,0.0699804088821948,1
701,360,4,0.0747325948627086,1
701,361,4,0.0701082666279999,1
682,363,5,0.0696142898503112,1
682,364,5,0.0894573735476951,1
682,365,5,0.0701845524075639,1
683,363,5,0.0832902049538222,1
683,364,5,0.114942340505219,1
683,365,5,0.0873371847269736,1
684,363,5,0.0688257059693047,1
684,364,5,0.0942196642793179,1
684,365,5,0.0748498267469443,1
684,370,5,0.0712140151065011,1
684,371,5,0.0748344030752753,1
685,371,5,0.0757167029822756,1
685,372,5,0.0787579275875446,1
685,373,5,0.0756341818465145,1
686,371,5,0.0813555494262849,1
686,372,5,0.0895073881723307,1
686,373,5,0.0846195337788832,1
687,371,5,0.0786401925621748,1
687,372,5,0.0848046298184628,1
687,373,5,0.0777436849079127,1
688,362,5,0.0855625220902917,1
688,372,5,0.071480482244964,1
688,373,5,0.0699336167567273,1
689,361,5,0.110745472592321,1
689,362,5,0.11395893917915,1
689,363,5,0.0780563092556501,1
690,362,5,0.0907431686851092,1
690,363,5,0.0700910460237092,1
690,365,5,0.0716270939775635,1
691,364,5,0.0860334202633431,1
691,365,5,0.10030535395835,1
692,364,5,0.0860205542257722,1
692,365,5,0.102415048692561,1
692,366,5,0.0686581180432353,1
693,365,5,0.0737011195992351,1
694,350,5,0.0690942815087104,1
694,351,5,0.0700748496710128,1
694,357,5,0.0788432699075217,1
694,358,5,0.0688917851715778,1
695,350,5,0.073877147118851,1
695,351,5,0.0727563163858788,1
695,356,5,0.0871789827789645,1
695,357,5,0.110737985373064,1
695,358,5,0.0901779854574003,1
696,356,5,0.0797418021058709,1
696,357,5,0.101577342663455,1
696,358,5,0.0872570714809255,1
696,359,5,0.0692360295436807,1
697,357,5,0.0714874303844343,1
697,358,5,0.068914965602397,1
699,359,5,0.0692016422430779,1
699,360,5,0.0725961138528842,1
699,361,5,0.0684286437576765,1
700,359,5,0.0721584349742315,1
700,360,5,0.0816715939357789,1
700,361,5,0.0753131298847816,1
700,362,5,0.0679035980149597,1
701,359,5,0.0694356447988432,1
701,360,5,0.0792638000591886,1
701,361,5,0.0738904084815986,1
701,362,5,0.0693339803408863,1
701,363,5,0.0687052036676976,1
701,364,5,0.0695590102130942,1
702,360,5,0.0684137891146709,1
682,364,6,0.0927408665987889,1
682,365,6,0.0725723344445245,1
683,363,6,0.0825801590079322,1
683,364,6,0.119901215665649,1
683,365,6,0.0923997908178756,1
683,371,6,0.0700072131271343,1
684,364,6,0.0890720932242894,1
684,365,6,0.0723597812744862,1
684,370,6,0.0748399196584237,1
684,371,6,0.0828914835744066,1
684,372,6,0.0788980284342785,1
684,373,6,0.0734829959380697,1
685,370,6,0.0719923205329118,1
685,371,6,0.0867419627756063,1
685,372,6,0.0973889203338787,1
685,373,6,0.0994741049071307,1
685,374,6,0.0795545437573698,1
686,370,6,0.0690154620541499,1
686,371,6,0.0903263402146429,1
686,372,6,0.110461173892476,1
686,373,6,0.115954097428058,1
686,374,6,0.0926177048369018,1
686,375,6,0.0686730984715243,1
687,371,6,0.0829023490269921,1
687,372,6,0.101521206488355,1
687,373,6,0.104062835906605,1
687,374,6,0.0867306061614376,1
687,375,6,0.0691145329393563,1
688,362,6,0.088969093046417,1
688,363,6,0.0686509123434225,1
688,371,6,0.0688523904187361,1
688,372,6,0.0838459542852674,1
688,373,6,0.0874473307069047,1
688,374,6,0.0806530805462829,1
688,375,6,0.0731196681415251,1
689,361,6,0.109669062033756,1
689,362,6,0.12242602579456,1
689,363,6,0.0850115765587216,1
689,372,6,0.0725600673844941,1
689,373,6,0.0786684762816394,1
689,374,6,0.0785687704802401,1
689,375,6,0.0754612510407834,1
689,376,6,0.0686169682861997,1
690,361,6,0.0839352738161137,1
690,362,6,0.0917940029026931,1
690,363,6,0.0711615566535,1
690,365,6,0.0697077003977594,1
690,373,6,0.0751606361927339,1
690,374,6,0.0766689694557872,1
690,375,6,0.0736372146854342,1
691,364,6,0.0807434902162529,1
691,365,6,0.096666217992557,1
692,351,6,0.0696270900003527,1
692,364,6,0.0810756352420368,1
692,365,6,0.098803166204863,1
692,366,6,0.0690629070651366,1
693,350,6,0.0689769597778435,1
693,351,6,0.0732375049930768,1
693,365,6,0.0706017702134315,1
694,351,6,0.0689885499932531,1
694,357,6,0.0763925053821726,1
694,358,6,0.0684342322181298,1
695,356,6,0.0809855669892648,1
695,357,6,0.0996251969917335,1
695,358,6,0.0834308748292195,1
695,359,6,0.0683924175960242,1
696,356,6,0.0719534229314287,1
696,357,6,0.0890590055650285,1
696,358,6,0.0786956698619802,1
696,359,6,0.0684997603610656,1
698,359,6,0.0709475419782628,1
698,360,6,0.077430761071405,1
698,361,6,0.0737204306351424,1
699,359,6,0.0757268676311387,1
699,360,6,0.0890892179921736,1
699,361,6,0.0822555251605068,1
699,362,6,0.0690836017391624,1
700,359,6,0.0767444945338747,1
700,360,6,0.0923026246812481,1
700,361,6,0.0856468940666531,1
700,362,6,0.0748720488136986,1
700,363,6,0.0711056181409884,1
700,364,6,0.0717818757638162,1
700,365,6,0.0706947315277243,1
701,359,6,0.070020222919315,1
701,360,6,0.0804203657922297,1
701,361,6,0.0778543639778549,1
701,362,6,0.0770264152928837,1
701,363,6,0.0774414528205038,1
701,364,6,0.0755314392289846,1
701,365,6,0.0704564223234425,1
702,360,6,0.068358820945775,1
702,361,6,0.0694865578897897,1
702,362,6,0.0738920736391614,1
702,363,6,0.0763716130455583,1
702,364,6,0.0725015233196811,1
703,363,6,0.0677483190773484,1
682,364,7,0.0936347507314235,1
682,365,7,0.0773983623762369,1
683,364,7,0.116844118155556,1
683,365,7,0.0965657634692319,1
683,371,7,0.0709448345997795,1
684,364,7,0.0839588136334572,1
684,365,7,0.0733302626550058,1
684,370,7,0.0767563962176054,1
684,371,7,0.0876882095248354,1
684,372,7,0.0899114883700604,1
684,373,7,0.0852754321551078,1
684,374,7,0.0715202603434317,1
685,370,7,0.0749955220439069,1
685,371,7,0.0930920111921589,1
685,372,7,0.112565537726576,1
685,373,7,0.121481977292905,1
685,374,7,0.101792854782543,1
685,375,7,0.0714647111663214,1
686,370,7,0.0705806981835551,1
686,371,7,0.0933742973274676,1
686,372,7,0.12680964292505,1
686,373,7,0.1474824542707,1
686,374,7,0.124477823359702,1
686,375,7,0.0838525490279888,1
687,371,7,0.0830193652793133,1
687,372,7,0.115414298868517,1
687,373,7,0.132750961047484,1
687,374,7,0.113516486449499,1
687,375,7,0.0829022052723824,1
688,361,7,0.082435074668061,1
688,362,7,0.0992423904455703,1
688,363,7,0.0791694011987984,1
688,371,7,0.0721050001878394,1
688,372,7,0.0955361510259096,1
688,373,7,0.106423562128059,1
688,374,7,0.0969443052953065,1
688,375,7,0.0854308009393501,1
688,376,7,0.0756136548862,1
689,361,7,0.111931424163502,1
689,362,7,0.135479028215005,1
689,363,7,0.0997251962921278,1
689,372,7,0.0798533976114501,1
689,373,7,0.0896792288389381,1
689,374,7,0.0879074532740017,1
689,375,7,0.084203873314621,1
689,376,7,0.0767081785255914,1
690,361,7,0.0866353447733891,1
690,362,7,0.101811530902258,1
690,363,7,0.0810682318796356,1
690,365,7,0.0705190394355312,1
690,372,7,0.0710788857733538,1
690,373,7,0.0859198301625539,1
690,374,7,0.0871077463800673,1
690,375,7,0.0792784570396057,1
690,376,7,0.068963021570475,1
691,358,7,0.0686720322915021,1
691,362,7,0.0678721936225088,1
691,364,7,0.0778076018012644,1
691,365,7,0.0910743074286249,1
691,366,7,0.0731674186310574,1
691,373,7,0.0696005912339589,1
691,374,7,0.0733198823742281,1
692,350,7,0.069003512452216,1
692,351,7,0.074412920549319,1
692,352,7,0.0683193004076497,1
692,357,7,0.0678757156104472,1
692,363,7,0.067767636103031,1
692,364,7,0.0793436317857926,1
692,365,7,0.0933843302012718,1
692,366,7,0.0763390765855558,1
693,350,7,0.0716496754308421,1
693,351,7,0.0787426716295869,1
693,352,7,0.0708519032343637,1
693,357,7,0.0678404717719615,1
693,359,7,0.0686234911516163,1
693,360,7,0.0685451748381898,1
693,365,7,0.0706357202604297,1
694,350,7,0.0678760091094421,1
694,351,7,0.0729692469117676,1
694,352,7,0.0680955763064802,1
694,356,7,0.0688159066967414,1
694,357,7,0.073076811298499,1
694,358,7,0.0694787831613134,1
694,359,7,0.0689818953527776,1
694,360,7,0.0697470292630717,1
694,361,7,0.0688553074393586,1
694,362,7,0.0681710115379366,1
695,351,7,0.068042554814591,1
695,356,7,0.0724952400452808,1
695,357,7,0.0823214785774964,1
695,358,7,0.0759549522888034,1
695,359,7,0.0707729400251935,1
695,360,7,0.0703932541520165,1
695,361,7,0.0692471825054857,1
696,357,7,0.0747710132821593,1
696,358,7,0.0726194380383131,1
696,359,7,0.0698665971597156,1
696,360,7,0.0690133536532071,1
697,359,7,0.0687150209095872,1
697,360,7,0.0723920841332479,1
697,361,7,0.0703756741612014,1
698,359,7,0.0750482799856782,1
698,360,7,0.0959835093816175,1
698,361,7,0.0912505445903799,1
698,362,7,0.0727593292429077,1
699,359,7,0.0831310386519728,1
699,360,7,0.115374251230156,1
699,361,7,0.107861000409413,1
699,362,7,0.0802046320514511,1
699,364,7,0.0688348823052259,1
699,365,7,0.072576167900784,1
700,359,7,0.0777761375110595,1
700,360,7,0.101892117340563,1
700,361,7,0.0976161903820883,1
700,362,7,0.0823474861823069,1
700,363,7,0.0776066328568603,1
700,364,7,0.0807336190663847,1
700,365,7,0.081114239344525,1
701,359,7,0.0691229425840255,1
701,360,7,0.0779209283519358,1
701,361,7,0.079576232734113,1
701,362,7,0.0833983144101154,1
701,363,7,0.0890055228604331,1
701,364,7,0.0858466770355269,1
701,365,7,0.077514965334055,1
702,360,7,0.0678273960922514,1
702,361,7,0.0715092870748889,1
702,362,7,0.0792007097548428,1
702,363,7,0.0867081624729933,1
702,364,7,0.0815301274202526,1
702,365,7,0.071286090073955,1
703,362,7,0.0691446315607687,1
703,363,7,0.0720970697252025,1
703,364,7,0.0701682721980118,1
682,365,8,0.0791266342024034,1
683,365,8,0.0965665840684625,1
683,371,8,0.073472112516158,1
683,372,8,0.0744816352527704,1
684,364,8,0.0793218050442151,1
684,365,8,0.0726583895477748,1
684,370,8,0.0785036676113581,1
684,371,8,0.0946473522125943,1
684,372,8,0.102962178737198,1
684,373,8,0.0981109039021518,1
684,374,8,0.0812262122059547,1
685,370,8,0.077040245684295,1
685,371,8,0.0985878936767906,1
685,372,8,0.124032675231119,1
685,373,8,0.137171798642343,1
685,374,8,0.116774648740403,1
685,375,8,0.077079969874784,1
686,370,8,0.0706082751095218,1
686,371,8,0.0929688374507209,1
686,372,8,0.135639350543507,1
686,373,8,0.169022237688089,1
686,374,8,0.145651128358683,1
686,375,8,0.0910214716197733,1
687,371,8,0.0804293863939904,1
687,372,8,0.122553643949349,1
687,373,8,0.153012190965924,1
687,374,8,0.131123491151616,1
687,375,8,0.0895172293733219,1
687,376,8,0.0694926794402541,1
688,361,8,0.0836013378474836,1
688,362,8,0.104998103397516,1
688,363,8,0.0844280586284967,1
688,371,8,0.0732568579574118,1
688,372,8,0.0996762119088619,1
688,373,8,0.11438158971131,1
688,374,8,0.100965043862407,1
688,375,8,0.0885556967172581,1
688,376,8,0.0806255994567226,1
688,377,8,0.0686295168656742,1
689,360,8,0.0698302691718814,1
689,361,8,0.110513536509071,1
689,362,8,0.142391780092248,1
689,363,8,0.108173642726477,1
689,364,8,0.0708150241871923,1
689,372,8,0.0791847110647348,1
689,373,8,0.0884222205621227,1
689,374,8,0.0851102940471791,1
689,375,8,0.0852742881080053,1
689,376,8,0.0815901449698154,1
689,377,8,0.069282833648699,1
690,357,8,0.068875906276978,1
690,358,8,0.0713293721910349,1
690,361,8,0.08479365654992,1
690,362,8,0.105461735973,1
690,363,8,0.0846290215831254,1
690,364,8,0.0686370520031342,1
690,365,8,0.0702415271512206,1
690,372,8,0.069320341622288,1
690,373,8,0.0852198889677729,1
690,374,8,0.087627826598973,1
690,375,8,0.0802151261379615,1
690,376,8,0.0704097440037077,1
691,357,8,0.0735453375204898,1
691,358,8,0.0743304054033333,1
691,359,8,0.0677820954208598,1
691,362,8,0.0686248089022055,1
691,364,8,0.0744181017050447,1
691,365,8,0.0869382537054188,1
691,366,8,0.0797021378131359,1
691,373,8,0.0696665626202747,1
691,374,8,0.075519345872441,1
692,351,8,0.0701760469264881,1
692,356,8,0.0685582145792475,1
692,357,8,0.0727603834433791,1
692,358,8,0.0734887341429082,1
692,359,8,0.070077880497368,1
692,360,8,0.0680572956518639,1
692,363,8,0.0691619599810167,1
692,364,8,0.0775147916305683,1
692,365,8,0.0898994010032922,1
692,366,8,0.0837146943470321,1
693,351,8,0.0736830484468369,1
693,352,8,0.0680675082189302,1
693,356,8,0.0709640677686064,1
693,357,8,0.0729178187001363,1
693,358,8,0.0732558337058175,1
693,359,8,0.0712759314148674,1
693,360,8,0.0704171653354351,1
693,361,8,0.0679885629790862,1
693,362,8,0.0702895232215446,1
693,363,8,0.0717018883030516,1
693,364,8,0.0693296617128189,1
693,365,8,0.070298304232289,1
694,351,8,0.0708393965833171,1
694,352,8,0.069694103607589,1
694,356,8,0.0710396168057956,1
694,357,8,0.0733795285577157,1
694,358,8,0.0724268008714979,1
694,359,8,0.0712605376920753,1
694,360,8,0.0721106904744745,1
694,361,8,0.0705047238723122,1
694,362,8,0.0732561391843632,1
694,363,8,0.0745344351229696,1
695,352,8,0.0715239799939585,1
695,357,8,0.06976820311913,1
695,358,8,0.07014608606991,1
695,359,8,0.0708657036768979,1
695,360,8,0.0738116189759152,1
695,361,8,0.0726673023335782,1
695,362,8,0.0721456887321687,1
695,363,8,0.0705741273999353,1
696,359,8,0.0681608588686244,1
696,360,8,0.069645472621072,1
696,361,8,0.0688822853877848,1
697,360,8,0.0713699109909791,1
697,361,8,0.0709898118232991,1
698,359,8,0.0709538312424385,1
698,360,8,0.103119278566533,1
698,361,8,0.102026192473239,1
698,362,8,0.0754865039338928,1
699,359,8,0.0811788510518237,1
699,360,8,0.130896610438808,1
699,361,8,0.128951023571156,1
699,362,8,0.0875651076607023,1
699,364,8,0.0684444927033994,1
699,365,8,0.0769527829838244,1
699,366,8,0.0681522575511421,1
700,359,8,0.0692541486142822,1
700,360,8,0.0999976112775683,1
700,361,8,0.100701517703668,1
700,362,8,0.0817996253850707,1
700,363,8,0.0769623786040239,1
700,364,8,0.0829006359512262,1
700,365,8,0.0857682409265924,1
700,366,8,0.0706003805855374,1
701,360,8,0.0686569140983787,1
701,361,8,0.0724709754651132,1
701,362,8,0.0804253912137949,1
701,363,8,0.0938494602206077,1
701,364,8,0.091798345489862,1
701,365,8,0.0801846501606985,1
702,362,8,0.0762274631106504,1
702,363,8,0.0902669156528453,1
702,364,8,0.0861911849577476,1
702,365,8,0.072621756081395,1
703,363,8,0.0710702125785667,1
703,364,8,0.0697816441751399,1
683,371,9,0.0731449989017148,1
683,372,9,0.0810050457388834,1
683,373,9,0.076680296121079,1
684,365,9,0.0710568973078403,1
684,370,9,0.0757853937266255,1
684,371,9,0.0984859656687158,1
684,372,9,0.113050625677563,1
684,373,9,0.111929016273789,1
684,374,9,0.0930560845192769,1
684,375,9,0.0694150759101008,1
685,370,9,0.0759649671932813,1
685,371,9,0.101535078808194,1
685,372,9,0.128996150539061,1
685,373,9,0.146212861475758,1
685,374,9,0.126705564587604,1
685,375,9,0.0846706565119688,1
686,370,9,0.0691323465314121,1
686,371,9,0.0901829390016606,1
686,372,9,0.133558167140226,1
686,373,9,0.174634609324806,1
686,374,9,0.153046464460794,1
686,375,9,0.0953602552813527,1
687,371,9,0.0771682112460573,1
687,372,9,0.121318779872208,1
687,373,9,0.161308245534407,1
687,374,9,0.140538591500001,1
687,375,9,0.0935234666941653,1
687,376,9,0.071052578679773,1
688,361,9,0.0825406863880102,1
688,362,9,0.10400471112607,1
688,363,9,0.0858395192539174,1
688,364,9,0.0687379377902885,1
688,371,9,0.0739062813864231,1
688,372,9,0.0996929413515693,1
688,373,9,0.117532834511227,1
688,374,9,0.103434604302978,1
688,375,9,0.0880725614330533,1
688,376,9,0.0811471771194796,1
688,377,9,0.0698909995047175,1
689,358,9,0.0701426539286026,1
689,359,9,0.0693476430185861,1
689,360,9,0.077129295675248,1
689,361,9,0.107181244757749,1
689,362,9,0.138852445764261,1
689,363,9,0.109937128442252,1
689,364,9,0.0739738580325476,1
689,372,9,0.0771277802620704,1
689,373,9,0.0848166213488246,1
689,374,9,0.082033214646333,1
689,375,9,0.0825888561618209,1
689,376,9,0.0816421182510086,1
689,377,9,0.0706707784158779,1
690,357,9,0.0722876823479306,1
690,358,9,0.0769290215447909,1
690,359,9,0.0709407016547497,1
690,360,9,0.0701750466339954,1
690,361,9,0.0832620410298657,1
690,362,9,0.103409027961997,1
690,363,9,0.0853093762123305,1
690,364,9,0.0694502538610571,1
690,365,9,0.0695216280247887,1
690,366,9,0.0679516479932623,1
690,373,9,0.0784789058798319,1
690,374,9,0.0823897799864449,1
690,375,9,0.0765207344940528,1
690,376,9,0.0688836570463526,1
691,356,9,0.0693123332925709,1
691,357,9,0.0790454188376807,1
691,358,9,0.0789322180722929,1
691,359,9,0.069648072183598,1
691,362,9,0.0701264036679276,1
691,364,9,0.0711159564933382,1
691,365,9,0.0820605519812835,1
691,366,9,0.0833730854761076,1
691,374,9,0.0703908762111805,1
692,356,9,0.0805235636326905,1
692,357,9,0.0954076224252591,1
692,358,9,0.0889271346697017,1
692,359,9,0.0730243947739257,1
692,360,9,0.0688102822976357,1
692,361,9,0.067743659032083,1
692,362,9,0.0680425608043665,1
692,363,9,0.0698451178251116,1
692,364,9,0.0747568893917532,1
692,365,9,0.0857068217695847,1
692,366,9,0.087216394916147,1
692,367,9,0.0698219913022711,1
693,351,9,0.0705442863388653,1
693,352,9,0.0712949309824535,1
693,356,9,0.0894124562219295,1
693,357,9,0.106730801667707,1
693,358,9,0.0963648783816834,1
693,359,9,0.0753480622549463,1
693,360,9,0.071126648242437,1
693,361,9,0.071168277181505,1
693,362,9,0.0725128919134007,1
693,363,9,0.0750284658086369,1
693,364,9,0.0703153391535422,1
693,365,9,0.0699170550277312,1
693,366,9,0.0695065038418899,1
694,351,9,0.0719603171629204,1
694,352,9,0.0771866956929586,1
694,356,9,0.0818621107221005,1
694,357,9,0.0945022079749691,1
694,358,9,0.0878782471291246,1
694,359,9,0.0758921494936771,1
694,360,9,0.0741470044701933,1
694,361,9,0.0748166194320965,1
694,362,9,0.0775288795823219,1
694,363,9,0.0810428172625902,1
694,364,9,0.0704267849147363,1
694,368,9,0.067805910767872,1
695,351,9,0.0714921862661063,1
695,352,9,0.0813310632244274,1
695,353,9,0.070430917859766,1
695,357,9,0.0686792439810903,1
695,358,9,0.0717860326679476,1
695,359,9,0.0738968355106087,1
695,360,9,0.0765750078490017,1
695,361,9,0.0771140277377395,1
695,362,9,0.0770455166866518,1
695,363,9,0.0776137187611649,1
695,367,9,0.0688758104405715,1
695,368,9,0.0775613920832228,1
695,369,9,0.075011700427277,1
696,352,9,0.0708931308584795,1
696,359,9,0.0697679575383384,1
696,360,9,0.0706976305790206,1
696,361,9,0.0712945775857046,1
696,362,9,0.0699268183616421,1
696,363,9,0.0688104260522454,1
696,368,9,0.0808009022135143,1
696,369,9,0.0762600834275086,1
696,370,9,0.0683741607605884,1
697,360,9,0.0697405842647354,1
697,361,9,0.0718774426304103,1
697,367,9,0.071984863262532,1
698,359,9,0.0683580722238493,1
698,360,9,0.0995626817058267,1
698,361,9,0.106122096731902,1
698,362,9,0.0760766765045933,1
699,359,9,0.0789320144199291,1
699,360,9,0.130581212825058,1
699,361,9,0.140105782308753,1
699,362,9,0.0932388864748763,1
699,364,9,0.0688558824577975,1
699,365,9,0.0792533898295339,1
699,366,9,0.0731424831960445,1
700,360,9,0.0931230142696576,1
700,361,9,0.1021482401369,1
700,362,9,0.0818774864755663,1
700,363,9,0.0775654172122953,1
700,364,9,0.0834490478077997,1
700,365,9,0.0855910693598741,1
700,366,9,0.0735379221785379,1
701,361,9,0.0699119217902087,1
701,362,9,0.0796714881323861,1
701,363,9,0.0978250837993538,1
701,364,9,0.097987436661719,1
701,365,9,0.0819312746587074,1
702,362,9,0.0758046388750033,1
702,363,9,0.0945292038927215,1
702,364,9,0.0932631989732471,1
702,365,9,0.075768826007854,1
703,363,9,0.0734562875295368,1
703,364,9,0.0737109009024723,1
683,371,10,0.0718618512450299,1
683,372,10,0.0868059275871613,1
683,373,10,0.0865942549141076,1
683,374,10,0.0711876421253908,1
684,370,10,0.0713226456732546,1
684,371,10,0.100362053172338,1
684,372,10,0.122863351276464,1
684,373,10,0.127604126734831,1
684,374,10,0.107506813010137,1
684,375,10,0.0781076955388536,1
685,370,10,0.0742159467851102,1
685,371,10,0.103961704538659,1
685,372,10,0.132892032237834,1
685,373,10,0.151106531941124,1
685,374,10,0.13263582558464,1
685,375,10,0.0923949450895725,1
686,370,10,0.0679257242453075,1
686,371,10,0.0881559391066973,1
686,372,10,0.125521865171977,1
686,373,10,0.163188939175316,1
686,374,10,0.144946658893695,1
686,375,10,0.0962904314631689,1
687,371,10,0.0743954843131136,1
687,372,10,0.111387289006567,1
687,373,10,0.15017727818472,1
687,374,10,0.134447852440302,1
687,375,10,0.0940684404196561,1
687,376,10,0.0729170100804566,1
688,360,10,0.068670361144164,1
688,361,10,0.0761057209255343,1
688,362,10,0.0897009717236599,1
688,363,10,0.0790370271623377,1
688,371,10,0.0726019778430062,1
688,372,10,0.0924062358162118,1
688,373,10,0.109855619578534,1
688,374,10,0.0996230586419138,1
688,375,10,0.0862440567052517,1
688,376,10,0.0799518755088913,1
688,377,10,0.0699451470743828,1
689,357,10,0.0683859785874634,1
689,358,10,0.0745785019006276,1
689,359,10,0.0754409277328326,1
689,360,10,0.0789905644745175,1
689,361,10,0.093495734034038,1
689,362,10,0.113907558885722,1
689,363,10,0.0970019568835841,1
689,364,10,0.0729517807266853,1
689,372,10,0.072491520394754,1
689,373,10,0.0786195697654538,1
689,374,10,0.0783965284986805,1
689,375,10,0.0801951083085564,1
689,376,10,0.0797939191416738,1
689,377,10,0.0704077613880485,1
690,357,10,0.0709532861728766,1
690,358,10,0.0749311918560522,1
690,359,10,0.0719744170942248,1
690,360,10,0.0708323406278895,1
690,361,10,0.0766755522189578,1
690,362,10,0.0895728803766141,1
690,363,10,0.0794438047896736,1
690,364,10,0.0683906146736272,1
690,365,10,0.0677933382292959,1
690,373,10,0.0700668233719695,1
690,374,10,0.0748427947506183,1
690,375,10,0.0733037578988366,1
690,376,10,0.0679196146743939,1
691,356,10,0.0688941032146597,1
691,357,10,0.0780207599386187,1
691,358,10,0.0746745419594788,1
691,362,10,0.0688351758042208,1
691,364,10,0.0684027439688233,1
691,365,10,0.0761877029815089,1
691,366,10,0.0789759973407314,1
691,367,10,0.0685853602413851,1
692,352,10,0.0719234740544013,1
692,356,10,0.0903584514005916,1
692,357,10,0.123046398812855,1
692,358,10,0.102935691950355,1
692,359,10,0.0733022005572312,1
692,361,10,0.0698773667758946,1
692,362,10,0.0691207323569009,1
692,363,10,0.0695707322035627,1
692,364,10,0.0718412643869613,1
692,365,10,0.0794114360433825,1
692,366,10,0.0815926486959349,1
692,367,10,0.070929183316645,1
693,351,10,0.075629402005741,1
693,352,10,0.0896604628725928,1
693,353,10,0.078947509968903,1
693,356,10,0.109628487295159,1
693,357,10,0.156246837398586,1
693,358,10,0.127016769358571,1
693,359,10,0.0812143823995289,1
693,360,10,0.069918839980802,1
693,361,10,0.0761670562256863,1
693,362,10,0.0760513756932806,1
693,363,10,0.0764762244730148,1
693,364,10,0.0700872185572251,1
694,351,10,0.0824765418831931,1
694,352,10,0.101988924090666,1
694,353,10,0.0845848350099593,1
694,356,10,0.0882535125480524,1
694,357,10,0.120938165583843,1
694,358,10,0.103181188885124,1
694,359,10,0.0802891957006255,1
694,360,10,0.0740805239529681,1
694,361,10,0.0803143407777776,1
694,362,10,0.0827401099703597,1
694,363,10,0.084749368150572,1
694,364,10,0.0711300324655411,1
694,368,10,0.0860429859346656,1
694,369,10,0.0913564018911206,1
694,370,10,0.0708628645233557,1
695,351,10,0.0762060257044743,1
695,352,10,0.0949962147015348,1
695,353,10,0.078766708598289,1
695,357,10,0.0686590764073001,1
695,358,10,0.071734083345856,1
695,359,10,0.0771000775508201,1
695,360,10,0.0782292520409321,1
695,361,10,0.0820195998868364,1
695,362,10,0.0837817379031454,1
695,363,10,0.0842927436123118,1
695,364,10,0.0695435745618743,1
695,367,10,0.0804672297950021,1
695,368,10,0.115350028578416,1
695,369,10,0.124127960578269,1
695,370,10,0.0918737328031152,1
696,352,10,0.0698958152841434,1
696,359,10,0.0719309492941074,1
696,360,10,0.0713506239141735,1
696,361,10,0.0738356679241681,1
696,362,10,0.0749201946284078,1
696,363,10,0.075359077451917,1
696,367,10,0.0940879311488255,1
696,368,10,0.12408306122183,1
696,369,10,0.1253213035323,1
696,370,10,0.093347253491512,1
697,361,10,0.0709246610362139,1
697,366,10,0.0684595509987687,1
697,367,10,0.0889554064096155,1
697,368,10,0.0998920834144748,1
697,369,10,0.0917871565894046,1
698,360,10,0.0879883990988311,1
698,361,10,0.0992792934518434,1
698,362,10,0.0733383847904556,1
698,367,10,0.0712668748744543,1
699,359,10,0.0738668626744798,1
699,360,10,0.115248981067326,1
699,361,10,0.132564535277765,1
699,362,10,0.092610499137089,1
699,365,10,0.0760064104493117,1
699,366,10,0.0731905691129996,1
700,360,10,0.0838005158490416,1
700,361,10,0.0981125750494899,1
700,362,10,0.0800119050380049,1
700,363,10,0.0744809703877004,1
700,364,10,0.0786662480851886,1
700,365,10,0.07987747650858,1
700,366,10,0.0724027339539188,1
701,362,10,0.0759952395181805,1
701,363,10,0.0929383554836825,1
701,364,10,0.0958952081125901,1
701,365,10,0.0793099452889123,1
702,362,10,0.071394343284858,1
702,363,10,0.0911789128663059,1
702,364,10,0.0935064976604416,1
702,365,10,0.0745574538298528,1
703,363,10,0.072742551881997,1
703,364,10,0.0751394323877986,1
683,371,11,0.0687287315054903,1
683,372,11,0.0877989544823071,1
683,373,11,0.0878566959172157,1
683,374,11,0.0728660490713069,1
684,371,11,0.098320737714156,1
684,372,11,0.128939870609351,1
684,373,11,0.135316549567356,1
684,374,11,0.115653794048329,1
684,375,11,0.0807583448592585,1
685,370,11,0.0721939483526105,1
685,371,11,0.104790593618369,1
685,372,11,0.13740338731862,1
685,373,11,0.151496885604298,1
685,374,11,0.134373088063691,1
685,375,11,0.0948122627090575,1
686,348,11,0.0711130394727158,1
686,371,11,0.0883043058434907,1
686,372,11,0.119935189671749,1
686,373,11,0.146463401801418,1
686,374,11,0.13327295799452,1
686,375,11,0.0954356605639321,1
687,347,11,0.0860867172849009,1
687,348,11,0.0708271474926129,1
687,371,11,0.0729962009010922,1
687,372,11,0.0998907297252332,1
687,373,11,0.13006568483546,1
687,374,11,0.122393477355007,1
687,375,11,0.0930980129471152,1
687,376,11,0.0725496691343902,1
688,347,11,0.0800504971609423,1
688,359,11,0.0699956229117247,1
688,360,11,0.0697222435724439,1
688,361,11,0.0698562468278149,1
688,362,11,0.0736240072306652,1
688,363,11,0.0697323303542267,1
688,371,11,0.0700685124886338,1
688,372,11,0.082787165645945,1
688,373,11,0.0987754395345111,1
688,374,11,0.0961252035086092,1
688,375,11,0.0859446158531817,1
688,376,11,0.0764550206680794,1
689,356,11,0.0696959005402107,1
689,357,11,0.0721577221909583,1
689,358,11,0.0724872556746653,1
689,359,11,0.0747611541118419,1
689,360,11,0.074955785873867,1
689,361,11,0.0782837829562235,1
689,362,11,0.0852214403196029,1
689,363,11,0.0788616704975673,1
689,364,11,0.0678411366370315,1
689,373,11,0.0745215391365216,1
689,374,11,0.07883083513378,1
689,375,11,0.0807261677857803,1
689,376,11,0.0763743683422448,1
690,356,11,0.0689867470708561,1
690,357,11,0.0693252712074467,1
690,359,11,0.0681314969895868,1
690,361,11,0.0700165691563176,1
690,362,11,0.0745345848673547,1
690,363,11,0.0708455960008618,1
690,374,11,0.0707301909981247,1
690,375,11,0.0730123193867083,1
690,376,11,0.0683205402911587,1
691,357,11,0.0727638635028897,1
691,365,11,0.0694846351718845,1
691,366,11,0.0722236157101938,1
692,352,11,0.0718406474400946,1
692,356,11,0.0845610196629472,1
692,357,11,0.127951845176669,1
692,358,11,0.1019325603041,1
692,359,11,0.0708934003983728,1
692,361,11,0.0698448902136462,1
692,362,11,0.0701381076890699,1
692,363,11,0.0686262105096503,1
692,364,11,0.0686622929166929,1
692,365,11,0.0720062707198311,1
692,366,11,0.0728885227086282,1
693,351,11,0.0751448351652143,1
693,352,11,0.100051752857458,1
693,353,11,0.0826919461863244,1
693,356,11,0.111390188057864,1
693,357,11,0.178364562265297,1
693,358,11,0.142270031917357,1
693,359,11,0.0859473352112158,1
693,360,11,0.0704962842787659,1
693,361,11,0.0799384045040044,1
693,362,11,0.0819572762737425,1
693,363,11,0.0782754931070623,1
693,364,11,0.070835509219079,1
694,351,11,0.0861910352133625,1
694,352,11,0.118154453402806,1
694,353,11,0.0926075701369157,1
694,356,11,0.0800815960748475,1
694,357,11,0.125154536205461,1
694,358,11,0.105322030451443,1
694,359,11,0.0814307211076235,1
694,360,11,0.0748115041639002,1
694,361,11,0.0835451297950788,1
694,362,11,0.0883151712960762,1
694,363,11,0.0859012378996953,1
694,364,11,0.0722016871424344,1
694,367,11,0.0693603593117719,1
694,368,11,0.102664918163376,1
694,369,11,0.11911562068257,1
694,370,11,0.0865197600773898,1
695,352,11,0.0963245072954506,1
695,358,11,0.0718107943994737,1
695,359,11,0.079121177517009,1
695,360,11,0.0788271334525794,1
695,361,11,0.0825417705373586,1
695,362,11,0.0870514245219297,1
695,363,11,0.0859983680976703,1
695,364,11,0.0709558078683223,1
695,367,11,0.0953494377469704,1
695,368,11,0.164320587442671,1
695,369,11,0.190230163588912,1
695,370,11,0.125677084211834,1
696,359,11,0.0720432695625106,1
696,360,11,0.0704036883407728,1
696,361,11,0.0718241456088525,1
696,362,11,0.0749712694432901,1
696,363,11,0.0760681231053142,1
696,367,11,0.112869674562564,1
696,368,11,0.176487738019299,1
696,369,11,0.188164302031118,1
696,370,11,0.120992876192397,1
696,371,11,0.0710338187032031,1
697,366,11,0.0693336209543619,1
697,367,11,0.104218402353435,1
697,368,11,0.132946095950643,1
697,369,11,0.125274583284137,1
697,370,11,0.0857242999342179,1
698,360,11,0.0726595216153265,1
698,361,11,0.0818211945663058,1
698,367,11,0.07571617588204,1
698,368,11,0.0813237916370852,1
698,369,11,0.0739354396130969,1
699,360,11,0.0907196168882149,1
699,361,11,0.10611792784822,1
699,362,11,0.0835814697624637,1
700,360,11,0.0727663432699075,1
700,361,11,0.0852351569052814,1
700,362,11,0.074706527360144,1
700,363,11,0.0688119654245246,1
700,364,11,0.0692768917914968,1
700,365,11,0.0696203215541445,1
701,362,11,0.0710782209082838,1
701,363,11,0.0812578082712186,1
701,364,11,0.0834833033333436,1
701,365,11,0.0714883528098468,1
702,363,11,0.0827130421753024,1
702,364,11,0.0860904189661015,1
702,365,11,0.0701946990871007,1
703,363,11,0.0714649028391344,1
703,364,11,0.0752814080342343,1
683,372,12,0.0867528761463951,1
683,373,12,0.0848925118032118,1
683,374,12,0.0708960358995512,1
684,371,12,0.0950294519652597,1
684,372,12,0.130148966672698,1
684,373,12,0.133341684677522,1
684,374,12,0.112695168445901,1
684,375,12,0.077504135820122,1
685,370,12,0.0687492225271524,1
685,371,12,0.101710938614098,1
685,372,12,0.136615336527625,1
685,373,12,0.144760316980831,1
685,374,12,0.128507792170702,1
685,375,12,0.0922454283159013,1
686,347,12,0.08364338607083,1
686,348,12,0.0748079821759618,1
686,371,12,0.0859785778797307,1
686,372,12,0.112341651901471,1
686,373,12,0.127921213465245,1
686,374,12,0.120049810013908,1
686,375,12,0.0933669418832697,1
686,376,12,0.0684968972484218,1
687,346,12,0.0986258269244334,1
687,347,12,0.101085965448292,1
687,348,12,0.0818839254841272,1
687,371,12,0.0705104021793966,1
687,372,12,0.0880613425837189,1
687,373,12,0.107780090523236,1
687,374,12,0.107232205766898,1
687,375,12,0.0906868767758486,1
687,376,12,0.0719772382784408,1
688,346,12,0.0968865099524191,1
688,347,12,0.0971518270540042,1
688,348,12,0.0753223002309274,1
688,359,12,0.0679206748646407,1
688,372,12,0.0730124751208689,1
688,373,12,0.086037289658255,1
688,374,12,0.0896989831182253,1
688,375,12,0.0840777466139081,1
688,376,12,0.0724176664640046,1
689,347,12,0.0693987298130193,1
689,356,12,0.0733144316786092,1
689,357,12,0.0710878344978096,1
689,373,12,0.0702329557826154,1
689,374,12,0.0780064922936029,1
689,375,12,0.0799743072177848,1
689,376,12,0.0725052968781866,1
690,356,12,0.0690787320517578,1
690,374,12,0.0682526282176115,1
690,375,12,0.0719168433730275,1
692,356,12,0.0697012074812199,1
692,357,12,0.106856982276398,1
692,358,12,0.0870372646928712,1
693,352,12,0.0953806085381805,1
693,353,12,0.0771751953241801,1
693,356,12,0.0956695612935155,1
693,357,12,0.157424978302638,1
693,358,12,0.130816563080289,1
693,359,12,0.0806761890997971,1
693,360,12,0.0683821870596317,1
693,361,12,0.0766032975582417,1
693,362,12,0.0816845318506547,1
693,363,12,0.0749278435716005,1
694,351,12,0.0790800457292997,1
694,352,12,0.113772022247847,1
694,353,12,0.0892638199452429,1
694,357,12,0.104457310535258,1
694,358,12,0.0926425863639361,1
694,359,12,0.0739073295971191,1
694,360,12,0.0720703493371187,1
694,361,12,0.0796356453163598,1
694,362,12,0.0873868160059833,1
694,363,12,0.0813091406464434,1
694,364,12,0.0698984927137497,1
694,368,12,0.095589058712066,1
694,369,12,0.115122165542442,1
694,370,12,0.0814427545664131,1
695,352,12,0.08358813638249,1
695,359,12,0.0721449519897938,1
695,360,12,0.0729572673609567,1
695,361,12,0.0752221392065972,1
695,362,12,0.0825820697462865,1
695,363,12,0.0801435483218662,1
695,364,12,0.0688786975123169,1
695,367,12,0.0948444098336587,1
695,368,12,0.173186461325026,1
695,369,12,0.204349956988621,1
695,370,12,0.12884398628466,1
695,371,12,0.0704509057402941,1
696,362,12,0.0702599936287957,1
696,363,12,0.0709356103456551,1
696,367,12,0.109741634152568,1
696,368,12,0.186262608237637,1
696,369,12,0.200493332277855,1
696,370,12,0.122083865864299,1
696,371,12,0.0728588194123925,1
696,372,12,0.0685401134779722,1
697,367,12,0.0983525254522328,1
697,368,12,0.136220466573795,1
697,369,12,0.128855450714786,1
697,370,12,0.0871834032332137,1
697,371,12,0.0696670178432055,1
698,367,12,0.0682055186340475,1
698,368,12,0.0765804106264174,1
698,369,12,0.0697766846411042,1
699,360,12,0.0701806051455717,1
699,361,12,0.0784830987226157,1
699,362,12,0.072318164314969,1
700,361,12,0.0703589387287186,1
700,362,12,0.0682062014684438,1
701,373,12,0.0709425405157992,1
702,363,12,0.0703606458147091,1
702,364,12,0.07214740779771,1
703,364,12,0.069452733628075,1
683,372,13,0.0816456342491716,1
683,373,13,0.079518191810434,1
684,371,13,0.0871911180639359,1
684,372,13,0.120813602214511,1
684,373,13,0.121219217825418,1
684,374,13,0.100974579584852,1
684,375,13,0.0713130141144026,1
685,371,13,0.0911678377715812,1
685,372,13,0.125304340488352,1
685,373,13,0.131245826324497,1
685,374,13,0.11667887223167,1
685,375,13,0.0865336383870043,1
686,347,13,0.0908579327818779,1
686,348,13,0.0786560954158763,1
686,371,13,0.0786199950395076,1
686,372,13,0.10102314468384,1
686,373,13,0.111643902964488,1
686,374,13,0.108307406390832,1
686,375,13,0.0899442524415283,1
686,376,13,0.0691200435327293,1
687,346,13,0.108401290130537,1
687,347,13,0.12059023151009,1
687,348,13,0.0927188062559706,1
687,372,13,0.0777219599925171,1
687,373,13,0.0914008520144046,1
687,374,13,0.0964272019947773,1
687,375,13,0.088063295250501,1
687,376,13,0.0711808736791826,1
688,346,13,0.101301070262653,1
688,347,13,0.109276492153682,1
688,348,13,0.0825431961039051,1
688,356,13,0.0706098324511273,1
688,373,13,0.076983312869066,1
688,374,13,0.0853865305093283,1
688,375,13,0.0825239269964257,1
688,376,13,0.069701962192921,1
689,346,13,0.0709961310363519,1
689,347,13,0.0731473588732245,1
689,356,13,0.0742659614097459,1
689,374,13,0.0769987305509597,1
689,375,13,0.0781455209705391,1
689,376,13,0.0694612930171294,1
690,375,13,0.0694508767976993,1
692,357,13,0.0798034249152423,1
692,358,13,0.070747597285453,1
693,352,13,0.0812039841494251,1
693,353,13,0.069025494927954,1
693,356,13,0.0755118826122858,1
693,357,13,0.115144363650094,1
693,358,13,0.103948742664681,1
693,359,13,0.0737807896019032,1
693,361,13,0.0699539340749027,1
693,362,13,0.076079701341173,1
693,363,13,0.0696749243467407,1
694,351,13,0.0686626283441156,1
694,352,13,0.0934565788722125,1
694,353,13,0.078527656661857,1
694,357,13,0.0815016939564029,1
694,358,13,0.0794136881989349,1
694,359,13,0.0692327471467585,1
694,360,13,0.0685337403569408,1
694,361,13,0.0727306022800631,1
694,362,13,0.0803358740203603,1
694,363,13,0.0740511441046043,1
694,368,13,0.0838638936626068,1
694,369,13,0.09899213762913,1
694,370,13,0.0756429329083819,1
695,362,13,0.0723128633637352,1
695,363,13,0.0697477001179171,1
695,367,13,0.0859588655288713,1
695,368,13,0.15317876661995,1
695,369,13,0.177259963823673,1
695,370,13,0.11595590634023,1
695,371,13,0.0720088283539292,1
695,373,13,0.068004160354242,1
696,367,13,0.0960813643424166,1
696,368,13,0.165831196820378,1
696,369,13,0.177334320895557,1
696,370,13,0.110873294399474,1
696,371,13,0.0725296273458836,1
696,372,13,0.0712378064944116,1
697,367,13,0.082304365789163,1
697,368,13,0.118428341872996,1
697,369,13,0.114758322625212,1
697,370,13,0.0814592144692273,1
697,371,13,0.0689499578703157,1
700,372,13,0.0677535062228495,1
701,373,13,0.0718875893099472,1
701,374,13,0.0774311863454588,1
683,372,14,0.0749647046494458,1
683,373,14,0.0753604491104848,1
684,371,14,0.0776015834761935,1
684,372,14,0.105383844933628,1
684,373,14,0.106253871790822,1
684,374,14,0.0874320927182732,1
685,371,14,0.078586673918927,1
685,372,14,0.107849931304464,1
685,373,14,0.114219111063661,1
685,374,14,0.100179281165616,1
685,375,14,0.0782962237197406,1
686,348,14,0.0730628191831518,1
686,349,14,0.0687061021340084,1
686,371,14,0.0693272658026567,1
686,372,14,0.0870234283116845,1
686,373,14,0.0954741508606876,1
686,374,14,0.0928071734125274,1
686,375,14,0.0815288456083158,1
687,347,14,0.120263405404867,1
687,348,14,0.0895762885588198,1
687,372,14,0.0682050993497691,1
687,373,14,0.0775195894406681,1
687,374,14,0.083243772214879,1
687,375,14,0.0801696517630832,1
687,376,14,0.0681826197226724,1
688,346,14,0.0877638903370835,1
688,347,14,0.102431987777408,1
688,348,14,0.0776628768479176,1
688,356,14,0.0685997357023582,1
688,373,14,0.0680928269995691,1
688,374,14,0.0767819246403835,1
688,375,14,0.0764197468807166,1
689,347,14,0.072131379158725,1
689,374,14,0.0705583683008435,1
689,375,14,0.0722228310496157,1
692,346,14,0.0711718410978712,1
693,357,14,0.0780338835365321,1
693,358,14,0.077748638452173,1
694,352,14,0.0689595235416382,1
694,358,14,0.0683462004889957,1
694,368,14,0.068796445916449,1
694,369,14,0.077386412774303,1
695,367,14,0.0708380428940755,1
695,368,14,0.111499213949794,1
695,369,14,0.124850447287676,1
695,370,14,0.0912448063855414,1
695,371,14,0.0691432898510779,1
695,373,14,0.0694627964507562,1
696,367,14,0.0780734939212884,1
696,368,14,0.123406587967087,1
696,369,14,0.13149670207758,1
696,370,14,0.0909607772255897,1
696,371,14,0.069243804272157,1
696,372,14,0.069841889336168,1
697,368,14,0.0877775709841096,1
697,369,14,0.0890367775084988,1
697,370,14,0.0695530084581379,1
700,373,14,0.0690617989566865,1
700,376,14,0.0793174864161477,1
701,373,14,0.0705528277585935,1
701,374,14,0.0745661210348645,1
683,372,15,0.070815137992925,1
684,353,15,0.0682737960838944,1
684,371,15,0.0690695437362858,1
684,372,15,0.0895081848124597,1
684,373,15,0.0935497677979707,1
685,371,15,0.0689431774445567,1
685,372,15,0.090738334936357,1
685,373,15,0.0980177449252706,1
685,374,15,0.0860271908969214,1
686,349,15,0.0683156885730802,1
686,350,15,0.0683752389201614,1
686,372,15,0.0754704513358062,1
686,373,15,0.083322435935279,1
686,374,15,0.0810213019893338,1
686,375,15,0.0734934660654785,1
687,348,15,0.0829358797897119,1
687,373,15,0.0700070034849951,1
687,374,15,0.0756235799440469,1
687,375,15,0.073382810954638,1
688,347,15,0.0881061461037517,1
688,348,15,0.0718565143551437,1
688,374,15,0.072540181330148,1
688,375,15,0.0723257114319799,1
689,347,15,0.0687711870335642,1
689,375,15,0.0688036875549143,1
692,345,15,0.0679522110321504,1
692,346,15,0.0705230585748283,1
695,368,15,0.0736771604976133,1
695,369,15,0.08167434324269,1
695,370,15,0.0686998847471376,1
696,368,15,0.082409606143037,1
696,369,15,0.089547543626649,1
696,370,15,0.071339698563834,1
696,373,15,0.0693950700602466,1
699,373,15,0.0689045493829669,1
699,377,15,0.0806346500073602,1
700,374,15,0.0740722221242561,1
700,375,15,0.0815443171981882,1
700,376,15,0.0831760817630219,1
700,377,15,0.0810478786228078,1
701,372,15,0.0695408312447386,1
701,373,15,0.0692816057447409,1
701,374,15,0.0738371593782441,1
701,375,15,0.0810035662643582,1
702,373,15,0.0761852651429189,1
684,372,16,0.0739563020008342,1
684,373,16,0.080989322578444,1
685,372,16,0.0729906304099651,1
685,373,16,0.0805855039001584,1
685,374,16,0.0735085363403987,1
686,347,16,0.0680451423975662,1
686,350,16,0.06785197214074,1
686,373,16,0.0700846309742499,1
686,374,16,0.0696776257354486,1
687,347,16,0.0829336995114643,1
687,348,16,0.0718510576697493,1
688,347,16,0.0723910598816535,1
691,344,16,0.0726643972925065,1
692,344,16,0.071945732059808,1
696,374,16,0.0739152840188575,1
698,378,16,0.0898140227446627,1
699,374,16,0.0699959583391474,1
699,375,16,0.0796420124476158,1
699,376,16,0.0843877294706917,1
699,377,16,0.0785068182332214,1
699,378,16,0.0805741952041929,1
700,375,16,0.0756458379494536,1
700,376,16,0.080358132025767,1
700,377,16,0.0785113285341017,1
700,378,16,0.0781619030062731,1
701,375,16,0.0747616812120775,1
701,376,16,0.0811101603074739,1
701,377,16,0.0852532280576797,1
701,378,16,0.0817428602835531,1
702,372,16,0.068966124274135,1
702,373,16,0.0681984926274969,1
702,374,16,0.0724394872158067,1
703,372,16,0.068501155978735,1
703,373,16,0.0709812584240201,1
709,371,16,0.0681061841987233,1
709,372,16,0.0702878820230835,1
679,363,17,0.0688576853801945,1
682,352,17,0.0688424593711138,1
683,373,17,0.0720381722636406,1
684,373,17,0.0703711339114441,1
684,374,17,0.0685949438820338,1
690,344,17,0.0742280581109801,1
691,343,17,0.0922477763078603,1
691,344,17,0.0728891456452704,1
693,344,17,0.0690125510233028,1
693,345,17,0.0793433263072469,1
693,346,17,0.0757679515006448,1
694,344,17,0.0705339360069646,1
694,346,17,0.0800794038170491,1
697,375,17,0.0794269974798859,1
698,375,17,0.0733028594325258,1
698,376,17,0.0861490349082194,1
698,377,17,0.0894725636181233,1
698,378,17,0.0891939252560365,1
699,376,17,0.0769339451401742,1
699,377,17,0.075322102568339,1
699,378,17,0.0823381720815514,1
700,376,17,0.0733604990412526,1
700,377,17,0.0749915747819147,1
700,378,17,0.0764645743598511,1
701,376,17,0.0732275380068021,1
701,377,17,0.080519065311361,1
701,378,17,0.0792916045966207,1
702,375,17,0.069402994533108,1
676,350,18,0.0924548967516058,1
676,351,18,0.104654446023402,1
678,364,18,0.0703912056488278,1
679,363,18,0.0691481355793809,1
679,364,18,0.080138906245927,1
679,365,18,0.0765622496273881,1
680,364,18,0.0684461638507375,1
680,365,18,0.0679921688238803,1
683,374,18,0.0730857061149761,1
690,343,18,0.101747619998681,1
690,344,18,0.0755127930581474,1
691,344,18,0.0710564840133374,1
693,344,18,0.0732616138390838,1
693,345,18,0.0870324848520976,1
693,346,18,0.078897902648995,1
694,344,18,0.0772423706553523,1
694,345,18,0.0940894285926769,1
694,346,18,0.0863002168394533,1
695,375,18,0.070831196580787,1
696,375,18,0.0703559737898929,1
697,376,18,0.0896128800967718,1
697,378,18,0.117444748874114,1
697,379,18,0.103295905063689,1
698,376,18,0.0707439614917818,1
698,377,18,0.0805640964428593,1
698,378,18,0.0829751787061472,1
699,377,18,0.0701518602134008,1
699,378,18,0.0785105917917268,1
699,379,18,0.140518753363858,1
700,377,18,0.0703529968715163,1
700,378,18,0.0710803892069806,1
700,379,18,0.090218338574307,1
701,377,18,0.07312328596587,1
701,378,18,0.0741410626129911,1
709,373,18,0.071172014801358,1
710,373,18,0.0694313501298775,1
711,373,18,0.0752429596659066,1
712,369,18,0.0747830707000505,1
675,350,19,0.100908308709766,1
675,351,19,0.132694812892833,1
676,350,19,0.125269755525161,1
676,351,19,0.160924636358339,1
676,352,19,0.106055322715682,1
677,350,19,0.0896766951639416,1
677,351,19,0.104825166602009,1
678,364,19,0.0838060683708424,1
678,365,19,0.0855273800779878,1
679,364,19,0.0995030295325637,1
679,365,19,0.106594103013403,1
679,366,19,0.0749933058270068,1
680,364,19,0.0760397195903415,1
680,365,19,0.0833898328881413,1
681,340,19,0.0678080431279163,1
682,374,19,0.0896381569489828,1
683,375,19,0.0709590603163675,1
690,343,19,0.101316547842301,1
690,344,19,0.0754263426297203,1
691,343,19,0.0896302624249984,1
691,344,19,0.0706780679725463,1
691,377,19,0.0690188941954572,1
692,379,19,0.0768726817173271,1
693,344,19,0.0736028573337085,1
693,345,19,0.0873290925404008,1
693,346,19,0.0754904152572326,1
693,376,19,0.0714122167746679,1
693,379,19,0.0836252490309023,1
694,344,19,0.0774329593189788,1
694,345,19,0.0927395608277505,1
694,346,19,0.0807482161490478,1
694,376,19,0.085560000394846,1
694,378,19,0.117801523856365,1
694,379,19,0.0948319690701415,1
695,345,19,0.0708280519486991,1
695,376,19,0.113990744886553,1
695,378,19,0.159479135839289,1
695,379,19,0.11887128576423,1
696,376,19,0.105306169526169,1
696,378,19,0.159122911916375,1
696,379,19,0.122495507189264,1
697,376,19,0.071563829969731,1
697,377,19,0.107668225477764,1
697,378,19,0.108544421803626,1
698,377,19,0.0719409881576869,1
698,378,19,0.079658604125489,1
699,378,19,0.0757446512743175,1
700,378,19,0.06903075395076,1
701,378,19,0.0699886927415806,1
702,379,19,0.0678601781330455,1
711,374,19,0.0764840950378975,1
712,369,19,0.0686296905691609,1
712,370,19,0.0677884026543618,1
713,369,19,0.0841602917087708,1
674,351,20,0.070526215186467,1
675,350,20,0.108745366788928,1
675,351,20,0.154475181629158,1
675,352,20,0.098521275394731,1
676,349,20,0.0692359995948037,1
676,350,20,0.137767038563037,1
676,351,20,0.191284423958028,1
676,352,20,0.121005382843443,1
677,350,20,0.0886311379384899,1
677,351,20,0.111444275729775,1
677,352,20,0.0717348140984554,1
678,345,20,0.0709233672447263,1
678,364,20,0.0883307566916813,1
678,365,20,0.0936471495665128,1
679,364,20,0.108695819366774,1
679,365,20,0.125333450796822,1
679,366,20,0.0806746916559458,1
680,364,20,0.0764177462957312,1
680,365,20,0.0915276735290645,1
681,340,20,0.0685157111329703,1
682,374,20,0.0743400788906131,1
686,338,20,0.0687938763028001,1
690,343,20,0.0930394329436497,1
690,344,20,0.0724811101650993,1
691,342,20,0.0837838103654357,1
691,343,20,0.0850787518898939,1
691,344,20,0.0704491567258757,1
691,378,20,0.0733856860468326,1
692,377,20,0.0743380363771998,1
692,378,20,0.082081048992721,1
692,379,20,0.072986138078411,1
693,344,20,0.0720520745323567,1
693,345,20,0.0824278689682482,1
693,346,20,0.0685835992474159,1
693,377,20,0.0867291686153403,1
693,378,20,0.0918815494600193,1
693,379,20,0.0790308636834454,1
694,344,20,0.0737817060375403,1
694,345,20,0.0836219965828571,1
694,346,20,0.0689637343537483,1
694,377,20,0.104206087375202,1
694,378,20,0.10299190000276,1
694,379,20,0.0880920341928964,1
695,376,20,0.0830829407554669,1
695,377,20,0.134150340295912,1
695,378,20,0.129132777316059,1
695,379,20,0.104308716186999,1
696,376,20,0.074273748117773,1
696,377,20,0.12212554272157,1
696,378,20,0.123377849024692,1
696,379,20,0.104779332840606,1
697,377,20,0.0800215605559585,1
697,378,20,0.0884696655731094,1
697,379,20,0.0880037568829707,1
698,378,20,0.0715180860549595,1
698,379,20,0.0873403952465909,1
699,378,20,0.0681567678520225,1
699,379,20,0.0921877168298697,1
711,375,20,0.0751197439960408,1
713,369,20,0.0745101945019037,1
674,351,21,0.0695874736258209,1
675,350,21,0.102691932050454,1
675,351,21,0.145965507710614,1
675,352,21,0.10044110622814,1
676,349,21,0.0702916196429366,1
676,350,21,0.129615133929461,1
676,351,21,0.181078972744893,1
676,352,21,0.123845854136223,1
677,345,21,0.0796347588295998,1
677,346,21,0.0747608486332962,1
677,349,21,0.0683996951731419,1
677,350,21,0.0835450758871001,1
677,351,21,0.103862825326265,1
677,352,21,0.0726628818793289,1
678,345,21,0.0719078227712669,1
678,346,21,0.0692474340760527,1
678,364,21,0.0811782580640586,1
678,365,21,0.0874424729990508,1
679,364,21,0.100382741856589,1
679,365,21,0.120099369415613,1
679,366,21,0.0782057002440378,1
680,364,21,0.0698943238300675,1
680,365,21,0.0882668877165328,1
681,340,21,0.0713219688286338,1
681,341,21,0.0697287664378604,1
682,340,21,0.0702013177889238,1
686,338,21,0.0691735921248541,1
690,343,21,0.0808978766773288,1
690,344,21,0.0681518921748424,1
691,343,21,0.0779028272506605,1
691,344,21,0.0687626036854082,1
691,378,21,0.0678746614099759,1
692,378,21,0.0730669161895291,1
693,345,21,0.0704988898310673,1
693,378,21,0.0763831673223155,1
693,379,21,0.069040858701869,1
694,342,21,0.0697922880060354,1
694,345,21,0.0685732489155152,1
694,377,21,0.0730560507369436,1
694,378,21,0.0809121443223446,1
694,379,21,0.0738121221170492,1
695,342,21,0.0847925304721438,1
695,377,21,0.0835340786594557,1
695,378,21,0.0902217767053897,1
695,379,21,0.08088585519809,1
696,377,21,0.073852624978341,1
696,378,21,0.0829257930079291,1
696,379,21,0.0792212666640344,1
697,379,21,0.0685707691484974,1
711,376,21,0.0714937735565887,1
712,374,21,0.068093372069131,1
712,375,21,0.0795423545644197,1
714,370,21,0.0748318334616263,1
675,350,22,0.0851795717895187,1
675,351,22,0.11589460697873,1
675,352,22,0.094767567004982,1
675,353,22,0.0682338143330629,1
676,350,22,0.10471482295949,1
676,351,22,0.140371836152713,1
676,352,22,0.111343803237124,1
676,353,22,0.0718339329018651,1
677,345,22,0.0729224308271985,1
677,346,22,0.0711474207835431,1
677,350,22,0.074585731559542,1
677,351,22,0.0860382180734429,1
677,352,22,0.0693795026339678,1
678,345,22,0.070901498574721,1
678,346,22,0.0702211499352913,1
678,348,22,0.0694989746942052,1
678,364,22,0.067803089583656,1
678,365,22,0.070757540312626,1
679,345,22,0.0689325875216399,1
679,346,22,0.0691752692619677,1
679,364,22,0.0769379522999204,1
679,365,22,0.0913455723771876,1
680,365,22,0.0709953164268968,1
681,340,22,0.0708999412331155,1
681,341,22,0.0699422779719636,1
682,340,22,0.0711794780615132,1
686,338,22,0.0683020857931344,1
690,343,22,0.0728606283245649,1
691,343,22,0.0749439440878904,1
691,344,22,0.0688014893073405,1
694,342,22,0.0701534894323111,1
695,342,22,0.0831353692595909,1
695,343,22,0.0690350486197257,1
712,375,22,0.0684185270270167,1
713,374,22,0.0711682711917296,1
671,355,23,0.0730518818532614,1
675,351,23,0.0863356822996291,1
675,352,23,0.0848049532663347,1
675,353,23,0.0691182286307814,1
676,350,23,0.0790726004384707,1
676,351,23,0.0999748920594554,1
676,352,23,0.0928465681653692,1
676,353,23,0.0706934736748892,1
677,345,23,0.0682916276452765,1
677,346,23,0.0694911640270765,1
677,351,23,0.0707559410425928,1
678,345,23,0.0694577051416615,1
678,346,23,0.0709961669750043,1
678,347,23,0.0691842838739529,1
678,348,23,0.0702094578936998,1
678,349,23,0.0681951443430453,1
679,345,23,0.0707806668354665,1
679,346,23,0.072283447576719,1
680,345,23,0.0700509744262466,1
680,346,23,0.0703816519570561,1
681,340,23,0.0688223636746285,1
681,341,23,0.0692918782095613,1
682,340,23,0.070747375663763,1
685,342,23,0.0678059167576474,1
690,343,23,0.072423344771089,1
690,344,23,0.0680682868897329,1
691,342,23,0.0731469096400691,1
691,343,23,0.0794983716436174,1
691,344,23,0.0744439955041225,1
692,342,23,0.0683966463774605,1
692,343,23,0.0722818063782579,1
692,344,23,0.0687803693592608,1
694,342,23,0.0711043063801746,1
695,342,23,0.080600580164854,1
695,343,23,0.0689859743898288,1
671,355,24,0.0741315807985243,1
675,352,24,0.0713741218030891,1
676,351,24,0.0744179819095366,1
676,352,24,0.0755945355231058,1
677,346,24,0.068526061464871,1
677,347,24,0.0682900523343449,1
678,346,24,0.0707344916568658,1
678,347,24,0.0697216925131066,1
678,348,24,0.0686918464685434,1
679,345,24,0.0706240881165923,1
679,346,24,0.0723949172970147,1
680,345,24,0.071236704375737,1
680,346,24,0.0714879095664668,1
690,343,24,0.072662720155393,1
690,344,24,0.06933396237156,1
691,342,24,0.0767098317036033,1
691,343,24,0.0861196430803048,1
691,344,24,0.0798459044024178,1
692,342,24,0.0788553932129424,1
692,343,24,0.0884506061077692,1
692,344,24,0.0799728457125859,1
693,342,24,0.0786583296021026,1
693,343,24,0.0855473799380667,1
693,344,24,0.0771640184032735,1
694,342,24,0.074597992629797,1
694,343,24,0.075768412713351,1
694,344,24,0.0685387358296289,1
695,341,24,0.082126888743899,1
695,342,24,0.0792656928282167,1
695,343,24,0.0701350229547361,1
671,355,25,0.0678061263997866,1
677,346,25,0.0696585483007822,1
677,347,25,0.0680741149412025,1
678,346,25,0.0735329866036038,1
678,347,25,0.0704329843322809,1
679,345,25,0.0689387030823288,1
679,346,25,0.0724491906519636,1
680,345,25,0.068175743460507,1
680,346,25,0.069391973346362,1
690,343,25,0.0692503151580227,1
690,344,25,0.0680630697953548,1
691,342,25,0.0757565289989466,1
691,343,25,0.0857543087089993,1
691,344,25,0.0805516916179946,1
692,342,25,0.090190108762821,1
692,343,25,0.103452046528959,1
692,344,25,0.0893137746721245,1
693,342,25,0.0975342802034185,1
693,343,25,0.110268650531394,1
693,344,25,0.0921233327340363,1
694,341,25,0.0704644546122612,1
694,342,25,0.0848921284575859,1
694,343,25,0.0906590842179673,1
694,344,25,0.0766049806851306,1
695,341,25,0.0786385333943875,1
695,342,25,0.0796061756213649,1
695,343,25,0.0734430920543185,1
696,341,25,0.095233643408832,1
696,343,25,0.0709132684833927,1
675,364,26,0.0695912292150002,1
676,364,26,0.0690704362128212,1
677,346,26,0.0745681635482778,1
677,347,26,0.0707374925343439,1
678,345,26,0.0700172579804892,1
678,346,26,0.0822464446609921,1
678,347,26,0.0755782133851259,1
679,345,26,0.0681135156838196,1
679,346,26,0.0756655323309867,1
679,347,26,0.0701826955771882,1
691,342,26,0.0703465997913833,1
691,343,26,0.0795588144672339,1
691,344,26,0.0780061928048326,1
692,342,26,0.0948922621493729,1
692,343,26,0.107803977747553,1
692,344,26,0.0921870459750243,1
693,341,26,0.0811997014600102,1
693,342,26,0.11813250686572,1
693,343,26,0.12950239437678,1
693,344,26,0.1009900571645,1
694,341,26,0.0806919481988889,1
694,342,26,0.107436181578556,1
694,343,26,0.111125535821349,1
694,344,26,0.0843208775873913,1
695,341,26,0.0814470911638066,1
695,342,26,0.0897413008814649,1
695,343,26,0.0831512840928432,1
696,341,26,0.0942531231647328,1
696,342,26,0.0890843542945444,1
696,343,26,0.0701762026606487,1
711,377,26,0.067955056175468,1
711,378,26,0.0678009152951838,1
675,364,27,0.0696073057721884,1
677,346,27,0.0779333271870251,1
677,347,27,0.0719905894878196,1
678,345,27,0.0711008802286427,1
678,346,27,0.0879919510356465,1
678,347,27,0.0791335943214246,1
679,346,27,0.0768756406663774,1
679,347,27,0.0728383463600566,1
691,343,27,0.0717950592594836,1
691,344,27,0.0747300072797334,1
692,342,27,0.0920558219754413,1
692,343,27,0.102875386891573,1
692,344,27,0.0899521230064111,1
693,341,27,0.088904876664295,1
693,342,27,0.132139512794544,1
693,343,27,0.139842531679683,1
693,344,27,0.104718991843172,1
694,341,27,0.0968473967190215,1
694,342,27,0.137065575965303,1
694,343,27,0.135538063441401,1
694,344,27,0.094296896443396,1
695,341,27,0.0888940351708111,1
695,342,27,0.108686762826361,1
695,343,27,0.0995028198904245,1
695,344,27,0.0687225320879456,1
696,341,27,0.0863561254030879,1
696,342,27,0.0867668802412931,1
696,343,27,0.0702091763742557,1
697,341,27,0.0841899171379262,1
697,342,27,0.0772341407039452,1
710,378,27,0.068348141176227,1
711,377,27,0.0721995368130638,1
711,378,27,0.0761158376561942,1
712,378,27,0.0729857068145819,1
677,346,28,0.0807074796865153,1
677,347,28,0.0729422809428922,1
678,345,28,0.0685200117917115,1
678,346,28,0.0869836442234414,1
678,347,28,0.0783842135204469,1
679,343,28,0.0681335035643476,1
679,346,28,0.0729611367558686,1
679,347,28,0.071667327298962,1
679,348,28,0.0680483289580819,1
680,342,28,0.070732071787602,1
680,343,28,0.0704349729377155,1
681,342,28,0.0696779851219729,1
691,344,28,0.0693357652939571,1
692,341,28,0.068105884709953,1
692,342,28,0.0874585735153407,1
692,343,28,0.0984247920924998,1
692,344,28,0.085902681435568,1
693,341,28,0.0940069733444452,1
693,342,28,0.138342655979502,1
693,343,28,0.147205007873919,1
693,344,28,0.107087025590621,1
694,341,28,0.111279173560499,1
694,342,28,0.159345252379426,1
694,343,28,0.155534928632545,1
694,344,28,0.102256259746563,1
695,341,28,0.0980072268796586,1
695,342,28,0.126705109364674,1
695,343,28,0.113848966902705,1
695,344,28,0.0727347771535207,1
696,341,28,0.0785161862419555,1
696,342,28,0.0863221693663143,1
696,343,28,0.0708383064441933,1
697,341,28,0.0715640276323194,1
697,342,28,0.0696394469070142,1
710,378,28,0.0697126419624689,1
711,377,28,0.0738760030717485,1
711,378,28,0.0821528424407309,1
711,379,28,0.0685022760667359,1
712,377,28,0.0725826069093449,1
712,378,28,0.0773467125429155,1
677,346,29,0.0788140038648906,1
677,347,29,0.0720417661288839,1
678,346,29,0.0786692729217684,1
678,347,29,0.0729123140965387,1
678,350,29,0.0694536620432629,1
678,351,29,0.0691320710017435,1
679,342,29,0.0727276193719112,1
679,343,29,0.0802137125509658,1
679,344,29,0.0684584908085219,1
679,349,29,0.0693196947265442,1
679,350,29,0.073262578192924,1
679,351,29,0.0727108719598775,1
680,342,29,0.0734438287966934,1
680,343,29,0.0781902765723688,1
692,342,29,0.0828100465879939,1
692,343,29,0.0924002520305818,1
692,344,29,0.0784128566264358,1
693,341,29,0.0907302906679874,1
693,342,29,0.130964905857981,1
693,343,29,0.142362538008719,1
693,344,29,0.103399084934824,1
694,341,29,0.109259600987038,1
694,342,29,0.156708289695823,1
694,343,29,0.155204484702976,1
694,344,29,0.102049540617769,1
695,341,29,0.0968156089809447,1
695,342,29,0.127472890755697,1
695,343,29,0.114946305736537,1
695,344,29,0.0725075250746374,1
696,341,29,0.0711849107878059,1
696,342,29,0.082257256205599,1
696,343,29,0.0693582509108292,1
711,377,29,0.0698617514314126,1
711,378,29,0.0797157705419587,1
712,377,29,0.0708422177675331,1
677,346,30,0.0698185232223113,1
678,343,30,0.0709045533601777,1
678,350,30,0.0708885127416419,1
678,351,30,0.0725211458239094,1
678,352,30,0.0684161670555069,1
679,342,30,0.0734698244219531,1
679,343,30,0.0862016850340334,1
679,344,30,0.0710885892095107,1
679,350,30,0.0786669428991356,1
679,351,30,0.0819950178485723,1
679,352,30,0.0728614069953677,1
680,342,30,0.0705760620973913,1
680,343,30,0.0797074926723484,1
680,350,30,0.0694328775226059,1
680,351,30,0.069632456839116,1
692,342,30,0.0748313183409415,1
692,343,30,0.0818251657873996,1
693,341,30,0.0797224491415358,1
693,342,30,0.113103527373944,1
693,343,30,0.126736735378814,1
693,344,30,0.0936551818553315,1
694,341,30,0.0927973921092903,1
694,342,30,0.135554786894333,1
694,343,30,0.140778877330166,1
694,344,30,0.0956369709255343,1
695,341,30,0.0828584739221471,1
695,342,30,0.111245858429694,1
695,343,30,0.104557148111716,1
695,344,30,0.0678510077868997,1
696,342,30,0.073077446214692,1
712,378,30,0.0697128156659557,1
677,343,31,0.0685647853628673,1
678,343,31,0.0720225688987094,1
678,351,31,0.0701267810237782,1
678,352,31,0.0682521430458037,1
679,342,31,0.0691359224273292,1
679,343,31,0.0817885383107952,1
679,344,31,0.0693964117699374,1
679,350,31,0.0757150258451621,1
679,351,31,0.0812455412111882,1
679,352,31,0.073890636093064,1
680,343,31,0.0735495483325999,1
680,350,31,0.0715517845313906,1
680,351,31,0.0731047895394179,1
685,377,31,0.0942767707980336,1
693,342,31,0.0863885780062347,1
693,343,31,0.0968480496045407,1
693,344,31,0.0721660300094456,1
694,341,31,0.0722533190064295,1
694,342,31,0.101662720922084,1
694,343,31,0.109856482106193,1
694,344,31,0.0769572992744801,1
695,342,31,0.0843041301753576,1
695,343,31,0.0825450110058529,1
701,340,31,0.0689059150517593,1
702,339,31,0.0713770807521395,1
702,340,31,0.0723969059024493,1
678,352,32,0.0677772556823322,1
679,343,32,0.069883901620862,1
679,350,32,0.0703758957828914,1
679,351,32,0.0756720132679755,1
679,352,32,0.0725723164751983,1
680,350,32,0.0720192206142577,1
680,351,32,0.0710111953214966,1
681,350,32,0.0694560100352218,1
684,377,32,0.091327866601089,1
685,376,32,0.0718646784190213,1
685,377,32,0.113241280228719,1
685,378,32,0.0790607346933925,1
686,377,32,0.0681029377404535,1
694,342,32,0.0728211317455413,1
694,343,32,0.079166484178176,1
701,339,32,0.0730294860830204,1
701,340,32,0.0856837910831507,1
702,339,32,0.0932014683479184,1
702,340,32,0.109269364320949,1
702,341,32,0.0815567759310315,1
703,339,32,0.0885174699706204,1
703,340,32,0.100841762305011,1
703,341,32,0.0782614950019397,1
704,340,32,0.0717821812423618,1
678,352,33,0.0687957091740742,1
678,353,33,0.069123481663812,1
679,351,33,0.0691288245434737,1
679,352,33,0.0706190267563747,1
679,353,33,0.074180415437405,1
680,350,33,0.0712443832678068,1
681,349,33,0.0693486373213034,1
681,350,33,0.0725558865212611,1
685,377,33,0.104245871463445,1
686,377,33,0.0678742061870451,1
701,339,33,0.0787422044271053,1
701,340,33,0.0956715079705222,1
701,341,33,0.071464040311476,1
702,339,33,0.116001656244777,1
702,340,33,0.137165413541761,1
702,341,33,0.0956800613698013,1
703,339,33,0.113695197388496,1
703,340,33,0.127214971026738,1
703,341,33,0.0872053976885026,1
704,339,33,0.0826987745302866,1
704,340,33,0.0871775212737655,1
678,351,34,0.0692178086468973,1
678,352,34,0.0744359093073251,1
678,353,34,0.075109878835948,1
679,351,34,0.0710741478610081,1
679,352,34,0.0761284461334227,1
679,353,34,0.0826740846760653,1
679,354,34,0.0729053000695389,1
680,349,34,0.0709071229738267,1
680,350,34,0.0729874019210216,1
680,351,34,0.0693360947316044,1
680,352,34,0.0710874751112852,1
680,353,34,0.0746160937310723,1
681,349,34,0.0749435307933874,1
681,350,34,0.0742435716292802,1
701,339,34,0.0808206205541491,1
701,340,34,0.0959793884161385,1
701,341,34,0.069692582204636,1
702,339,34,0.133513651129413,1
702,340,34,0.150976110571446,1
702,341,34,0.0973485612271967,1
703,339,34,0.138822137500709,1
703,340,34,0.147300844280407,1
703,341,34,0.0898070506460907,1
704,339,34,0.0999546406288095,1
704,340,34,0.101648237645154,1
705,339,34,0.0699656321062695,1
705,340,34,0.0692986646250956,1
674,362,35,0.0807127926172999,1
674,363,35,0.0766913292873758,1
675,362,35,0.0829249604291478,1
675,363,35,0.0760869489694136,1
678,351,35,0.0685749560015058,1
678,352,35,0.0743928967301385,1
678,353,35,0.0712442155540954,1
679,350,35,0.0681728983171894,1
679,351,35,0.0744532736662256,1
679,352,35,0.0795752743700481,1
679,353,35,0.0790258801903081,1
680,349,35,0.0688800032833553,1
680,350,35,0.0724725507760449,1
680,351,35,0.0774247113982455,1
680,352,35,0.0810677167589507,1
680,353,35,0.0769279853136457,1
681,349,35,0.0711929071379722,1
681,350,35,0.0712314573324818,1
681,351,35,0.0705921686034565,1
681,352,35,0.0692424865215678,1
701,339,35,0.0794340294762119,1
701,340,35,0.0898508359043047,1
702,339,35,0.136388755303587,1
702,340,35,0.145295407576903,1
702,341,35,0.0923826600602159,1
703,339,35,0.151846796303935,1
703,340,35,0.151674937668001,1
703,341,35,0.0905047816137471,1
704,339,35,0.108413629067872,1
704,340,35,0.10580786113458,1
705,339,35,0.0765340857034316,1
705,340,35,0.0745037375240166,1
673,362,36,0.0691821335445823,1
673,363,36,0.0796849411679468,1
674,362,36,0.101800845142934,1
674,363,36,0.103500144425465,1
674,364,36,0.0808142534228931,1
675,361,36,0.0701172453013327,1
675,362,36,0.105833904678043,1
675,363,36,0.0994464081856558,1
676,362,36,0.071012662816471,1
678,351,36,0.0682463209841096,1
678,352,36,0.0750454588014622,1
678,353,36,0.0684193356466964,1
679,350,36,0.0695629215364339,1
679,351,36,0.0809642254194951,1
679,352,36,0.0871725617397298,1
679,353,36,0.0770413418131941,1
680,350,36,0.0731492456524773,1
680,351,36,0.0883465696987517,1
680,352,36,0.0932699614296798,1
680,353,36,0.0783710300247795,1
681,350,36,0.0686774710075703,1
681,351,36,0.0765491320192501,1
681,352,36,0.0759754792491179,1
688,377,36,0.0846730284630294,1
701,339,36,0.0679202555803623,1
701,340,36,0.0733212180941435,1
702,339,36,0.114744186755255,1
702,340,36,0.115329771157995,1
702,341,36,0.0752066496473987,1
703,339,36,0.138951983851949,1
703,340,36,0.130930704240416,1
703,341,36,0.0799067605205374,1
704,339,36,0.105814737396746,1
704,340,36,0.0971214049847198,1
705,339,36,0.0778578260680392,1
705,340,36,0.0722652206901601,1
673,362,37,0.0683588928230799,1
673,363,37,0.0972240697351695,1
673,364,37,0.109470752549632,1
674,362,37,0.102461217881387,1
674,363,37,0.127080141182361,1
674,364,37,0.122018086150796,1
674,365,37,0.0891047973980032,1
675,361,37,0.0680309945480585,1
675,362,37,0.106617535014789,1
675,363,37,0.115183129476519,1
675,364,37,0.0967317760843698,1
676,362,37,0.0713816689201,1
676,363,37,0.0713133136031729,1
678,351,37,0.0687612320268403,1
678,352,37,0.077363603709559,1
678,353,37,0.0696281981088027,1
679,351,37,0.0841182195263228,1
679,352,37,0.0935842748940816,1
679,353,37,0.0800539532613512,1
680,350,37,0.0713792191019592,1
680,351,37,0.0911828900771751,1
680,352,37,0.096359200074599,1
680,353,37,0.0790176083104732,1
681,350,37,0.0693290327864013,1
681,351,37,0.0795477154134076,1
681,352,37,0.0760239365321481,1
688,343,37,0.0712965721809146,1
694,341,37,0.0703699718950154,1
702,339,37,0.0795103991126315,1
702,340,37,0.0768316038375964,1
703,339,37,0.103587870676053,1
703,340,37,0.0925998672857443,1
704,338,37,0.0695458506765284,1
704,339,37,0.0919035439153082,1
704,340,37,0.0793499689681716,1
705,339,37,0.0738023228444859,1
672,364,38,0.072915656391215,1
673,363,38,0.103098529984528,1
673,364,38,0.133644527722022,1
673,365,38,0.10092757182747,1
674,362,38,0.0909749250750974,1
674,363,38,0.142641721440368,1
674,364,38,0.169248627239313,1
674,365,38,0.123422293158201,1
675,362,38,0.0958084581953928,1
675,363,38,0.130872531541678,1
675,364,38,0.140273807488427,1
676,362,38,0.0682426672211122,1
676,363,38,0.0827170074066208,1
678,351,38,0.070360687743137,1
678,352,38,0.0796717217336269,1
678,353,38,0.0712876294462342,1
679,351,38,0.0848281277073785,1
679,352,38,0.0944737325826915,1
679,353,38,0.0829752026652488,1
680,350,38,0.0716932091184891,1
680,351,38,0.0914874461974414,1
680,352,38,0.0924131240579281,1
680,353,38,0.0793660155764828,1
681,350,38,0.0739966491279654,1
681,351,38,0.0844738684307977,1
681,352,38,0.0743172638360937,1
682,351,38,0.0691415588059857,1
688,343,38,0.0716776057535578,1
689,343,38,0.0693392273841415,1
694,341,38,0.0750955992113814,1
694,342,38,0.0702814609838489,1
703,339,38,0.0685538300636507,1
704,339,38,0.0739199919823262,1
710,340,38,0.0789774887948074,1
710,341,38,0.073105825770563,1
711,341,38,0.0829614741000195,1
712,375,38,0.0696049937188819,1
673,363,39,0.0994064444041506,1
673,364,39,0.137050337976671,1
673,365,39,0.104317089893016,1
674,362,39,0.0833047720876083,1
674,363,39,0.145102297217831,1
674,364,39,0.19530333564363,1
674,365,39,0.144139344984996,1
674,366,39,0.0680459030990427,1
675,362,39,0.0884095042689369,1
675,363,39,0.138437809551593,1
675,364,39,0.174357510334998,1
675,365,39,0.129691755136448,1
676,362,39,0.0686870965766469,1
676,363,39,0.090605086392687,1
676,364,39,0.105573181734194,1
678,351,39,0.0683450205032408,1
678,352,39,0.0747484198493298,1
679,351,39,0.0785141018001144,1
679,352,39,0.0834703474491415,1
679,353,39,0.0768460332065482,1
679,354,39,0.0689204282775668,1
679,370,39,0.0721087198383662,1
680,350,39,0.0729816816855094,1
680,351,39,0.0885985835091612,1
680,352,39,0.082975915448522,1
680,353,39,0.0759673032056895,1
680,354,39,0.0738929780952476,1
680,370,39,0.0965659491522695,1
680,371,39,0.100778713929093,1
681,350,39,0.080675566163155,1
681,351,39,0.0900219577978634,1
681,352,39,0.0737540692138195,1
681,370,39,0.0772101276943447,1
681,371,39,0.0788750276967215,1
682,350,39,0.0731621476287006,1
682,351,39,0.0742491840488352,1
688,343,39,0.0720901994528124,1
689,342,39,0.0726713094933244,1
689,343,39,0.0737418500719923,1
690,342,39,0.073809504585197,1
690,343,39,0.0741144021226614,1
694,341,39,0.068454238067984,1
710,339,39,0.0684995028007231,1
710,340,39,0.101815496133576,1
710,341,39,0.101578073416054,1
711,339,39,0.0709454575364217,1
711,340,39,0.119157537130857,1
711,341,39,0.125098783375987,1
712,340,39,0.0799858974331944,1
712,341,39,0.0838677690472941,1
673,363,40,0.0895253515087717,1
673,364,40,0.117567766881391,1
674,361,40,0.0690007691350803,1
674,362,40,0.0820417440865104,1
674,363,40,0.136955819320773,1
674,364,40,0.185542912763569,1
674,365,40,0.139148999544585,1
675,360,40,0.085866503192119,1
675,361,40,0.0848734163992192,1
675,362,40,0.0891264983542972,1
675,363,40,0.135587011886014,1
675,364,40,0.176650240626049,1
675,365,40,0.1318707515721,1
676,360,40,0.0830576878623575,1
676,361,40,0.0796759984332664,1
676,362,40,0.073372514530716,1
676,363,40,0.0899008924573681,1
676,364,40,0.10767452672149,1
678,352,40,0.0679812494633161,1
679,351,40,0.0718849058905656,1
679,352,40,0.072470292630717,1
679,370,40,0.0962822973481683,1
680,350,40,0.0712146380431432,1
680,351,40,0.0838478770031726,1
680,352,40,0.0749844948673854,1
680,353,40,0.0701142623931807,1
680,354,40,0.0730982367251243,1
680,369,40,0.0692362990835739,1
680,370,40,0.137388820184834,1
680,371,40,0.144846617664873,1
681,350,40,0.0814651742957558,1
681,351,40,0.0904814454487674,1
681,352,40,0.0728724341718891,1
681,370,40,0.100296273458836,1
681,371,40,0.10309516373075,1
682,350,40,0.0728903256310252,1
682,351,40,0.0735695481926787,1
687,344,40,0.0778574487121887,1
687,345,40,0.0771170585640946,1
688,342,40,0.0701246247046322,1
688,343,40,0.0711869113727914,1
688,344,40,0.0741956594158119,1
688,345,40,0.0704154642392199,1
689,342,40,0.0737391546730598,1
689,343,40,0.0719448335934972,1
690,342,40,0.0702054387544027,1
690,343,40,0.0698975583087864,1
710,339,40,0.0723148339998436,1
710,340,40,0.111993825643676,1
710,341,40,0.115531231263983,1
711,339,40,0.0788767108236104,1
711,340,40,0.137857436253456,1
711,341,40,0.148241095264455,1
711,342,40,0.0761752382588902,1
712,340,40,0.0888117835749433,1
712,341,40,0.0958882060651412,1
673,364,41,0.0956201636157466,1
674,360,41,0.0757347801244493,1
674,361,41,0.0807632025671123,1
674,362,41,0.0837181923758688,1
674,363,41,0.120362332535463,1
674,364,41,0.152954904753946,1
674,365,41,0.116805915368019,1
675,359,41,0.0717908364678227,1
675,360,41,0.109811894218075,1
675,361,41,0.108099225756839,1
675,362,41,0.092687006538343,1
675,363,41,0.120854967603461,1
675,364,41,0.150325153759931,1
676,359,41,0.0741412363164779,1
676,360,41,0.108575712390344,1
676,361,41,0.102010870627751,1
676,362,41,0.0765271435537366,1
677,360,41,0.0761808985966483,1
677,361,41,0.0703295289314777,1
679,351,41,0.0677845332594499,1
680,351,41,0.076608664397005,1
680,352,41,0.0695964882378062,1
680,369,41,0.0820256795088729,1
680,370,41,0.157767821067296,1
681,350,41,0.073951498200959,1
681,351,41,0.0820339993069111,1
681,352,41,0.0687964279471228,1
681,370,41,0.115180158547917,1
681,371,41,0.121114348837619,1
682,351,41,0.0678859281775136,1
687,345,41,0.0857155848110029,1
688,342,41,0.0713375961526666,1
688,343,41,0.0694672588334333,1
688,344,41,0.0772010112561776,1
688,345,41,0.0813326624944607,1
689,342,41,0.0724460220607741,1
710,339,41,0.0699113707308714,1
710,340,41,0.102173301357197,1
710,341,41,0.106585753266488,1
711,339,41,0.0773349426342438,1
711,340,41,0.126783455626977,1
711,341,41,0.137315481374769,1
711,342,41,0.0751860268506777,1
712,340,41,0.0844874352720911,1
712,341,41,0.0925510625957406,1
674,360,42,0.0748258436862209,1
674,361,42,0.0832990818009731,1
674,364,42,0.108117985733409,1
675,359,42,0.0714709465225185,1
675,360,42,0.116956079037434,1
675,361,42,0.118163713595583,1
675,362,42,0.0916937280726302,1
676,359,42,0.0755549670667773,1
676,360,42,0.118529688872857,1
676,361,42,0.112546430343033,1
676,362,42,0.0774956243492708,1
677,360,42,0.0802330415561992,1
677,361,42,0.0742048117926315,1
680,351,42,0.0705752714470377,1
680,352,42,0.068298785426886,1
680,369,42,0.0815821785685261,1
681,351,42,0.0703950570744135,1
681,370,42,0.111085320469276,1
687,345,42,0.0766277837600992,1
688,344,42,0.0724384629642124,1
688,345,42,0.0778862235932366,1
710,340,42,0.0797412809954106,1
710,341,42,0.0812482665589977,1
711,339,42,0.0681520838476554,1
711,340,42,0.0955193796547743,1
711,341,42,0.102060669620472,1
712,340,42,0.0705202373906123,1
712,341,42,0.0773509652834534,1
674,361,43,0.0770415873939858,1
675,360,43,0.103413939577829,1
675,361,43,0.10770082183552,1
675,362,43,0.0804789697547968,1
676,359,43,0.0689904487520566,1
676,360,43,0.106948637819653,1
676,361,43,0.104265350213064,1
676,362,43,0.071661121891642,1
677,360,43,0.0738854130089105,1
677,361,43,0.0699391992274052,1
680,352,43,0.0688667299410568,1
675,360,44,0.0798019993486958,1
675,361,44,0.0852685618827177,1
676,360,44,0.0832426820757552,1
676,361,44,0.0842141936976446,1
680,352,44,0.0702224736756559,1
685,351,46,0.0721744935620936,1
685,352,46,0.0714576492211184,1
686,351,46,0.0791896825783213,1
686,352,46,0.0767818228142016,1
687,351,46,0.0711370704516425,1
685,351,47,0.097965957327115,1
685,352,47,0.100414206146794,1
686,350,47,0.071496732505639,1
686,351,47,0.114337936228155,1
686,352,47,0.114535143593605,1
686,353,47,0.068079338025356,1
687,351,47,0.0893589914866603,1
687,352,47,0.0865317935361794,1
695,344,47,0.0781962064500202,1
695,345,47,0.0731365832672701,1
696,344,47,0.0779447676580496,1
696,345,47,0.0736933508605343,1
700,371,47,0.0693289968477489,1
682,356,48,0.0750736167356433,1
684,351,48,0.0745691518612197,1
684,352,48,0.0829139931503804,1
685,350,48,0.068746676872605,1
685,351,48,0.125488609938925,1
685,352,48,0.137919202817437,1
685,353,48,0.0807346253486528,1
686,350,48,0.0770136750405963,1
686,351,48,0.142736479687282,1
686,352,48,0.151651649421225,1
686,353,48,0.0842854300965418,1
687,351,48,0.0962048016339724,1
687,352,48,0.0977719125630795,1
695,344,48,0.0937682867843129,1
695,345,48,0.0871577610047029,1
695,369,48,0.084477019052661,1
695,370,48,0.0836769228233252,1
696,344,48,0.0921878905333564,1
696,345,48,0.0889644749295794,1
696,346,48,0.0684906439228985,1
696,369,48,0.0767266929213697,1
696,370,48,0.0766769238775257,1
698,345,48,0.0685136626297817,1
699,345,48,0.0865181548175812,1
699,346,48,0.0781271443395952,1
699,371,48,0.0957235591187957,1
699,372,48,0.0689532702161149,1
700,345,48,0.0738300315455116,1
700,370,48,0.0784097898614282,1
700,371,48,0.120400211875127,1
700,372,48,0.0829307465521894,1
701,371,48,0.0773910488604668,1
720,361,48,0.0742012179273882,1
720,362,48,0.0787776339486286,1
721,361,48,0.0785618043714435,1
721,362,48,0.0804615874265701,1
683,356,49,0.0681193377455137,1
683,357,49,0.0679771165182863,1
684,351,49,0.0763210653309116,1
684,352,49,0.0885551875863486,1
685,350,49,0.0681911252037482,1
685,351,49,0.131073740077098,1
685,352,49,0.152812671547168,1
685,353,49,0.0921531438462293,1
686,350,49,0.0747393393498152,1
686,351,49,0.142620625451389,1
686,352,49,0.161572178997873,1
686,353,49,0.0941559989565332,1
687,351,49,0.0904942455988089,1
687,352,49,0.0973770545888005,1
689,350,49,0.0683769040777241,1
694,345,49,0.0684633005981725,1
694,369,49,0.0824255269660647,1
694,370,49,0.0769045473224841,1
695,344,49,0.0944578956165194,1
695,345,49,0.0933145433280227,1
695,346,49,0.0688122050155408,1
695,368,49,0.0740926472583888,1
695,369,49,0.149361422856293,1
695,370,49,0.138277463263989,1
696,344,49,0.0888968204163747,1
696,345,49,0.0907269124346587,1
696,346,49,0.0728208921545251,1
696,369,49,0.12648982485705,1
696,370,49,0.117408630528419,1
698,345,49,0.0736494338272614,1
698,346,49,0.0703459469058641,1
699,344,49,0.0686064442508123,1
699,345,49,0.0946063462101685,1
699,346,49,0.0886539529930093,1
699,370,49,0.0718177305593933,1
699,371,49,0.115505870554916,1
699,372,49,0.0792686937056948,1
700,345,49,0.0789637542398026,1
700,346,49,0.0738410946606854,1
700,370,49,0.103781975337843,1
700,371,49,0.163176192933253,1
700,372,49,0.108635765878559,1
701,371,49,0.102964526729157,1
720,361,49,0.0975109560179896,1
720,362,49,0.0996177936293324,1
720,363,49,0.0689907302715007,1
721,361,49,0.101935734885065,1
721,362,49,0.10304789242325,1
721,363,49,0.0698049084628147,1
722,361,49,0.072441368005284,1
722,362,49,0.0741393495372252,1
683,357,50,0.090182471799179,1
683,358,50,0.099129435260974,1
683,359,50,0.0831068758979871,1
684,352,50,0.0742097413777902,1
684,358,50,0.0752799165801583,1
685,351,50,0.105541004660716,1
685,352,50,0.126762036190127,1
685,353,50,0.0853021944716194,1
686,351,50,0.114195786878233,1
686,352,50,0.138994918562055,1
686,353,50,0.0934843175221152,1
687,351,50,0.079993175010312,1
687,352,50,0.0950794246614675,1
687,353,50,0.0725948979284769,1
689,351,50,0.0724782290831293,1
690,351,50,0.0681494363669262,1
694,345,50,0.0695786866253011,1
694,369,50,0.0980700356645603,1
694,370,50,0.0875037364218979,1
695,344,50,0.0846528848483408,1
695,345,50,0.0905096453113763,1
695,346,50,0.0706511079934463,1
695,368,50,0.0933434919125573,1
695,369,50,0.201408689755318,1
695,370,50,0.180614262009835,1
695,371,50,0.0723665796695714,1
696,344,50,0.0771436292077933,1
696,345,50,0.0833851129451218,1
696,346,50,0.0703555784647161,1
696,368,50,0.0757355887441291,1
696,369,50,0.166391827818779,1
696,370,50,0.149030284112777,1
697,369,50,0.0699546288888497,1
698,345,50,0.0703055458707543,1
698,346,50,0.0686059770483307,1
699,345,50,0.0853533591331329,1
699,346,50,0.0824524749656139,1
699,370,50,0.0701917461278258,1
699,371,50,0.11382731985439,1
699,372,50,0.0794195222401798,1
700,345,50,0.0712816396708288,1
700,346,50,0.0684530760515554,1
700,370,50,0.108830397640584,1
700,371,50,0.173084659102235,1
700,372,50,0.117384647467695,1
701,370,50,0.0707055730212082,1
701,371,50,0.1131257733998,1
701,372,50,0.0729903548802965,1
719,362,50,0.0695003882812009,1
720,361,50,0.109359115115625,1
720,362,50,0.112716492046345,1
720,363,50,0.0754160821444508,1
721,360,50,0.0706541388198015,1
721,361,50,0.115789929663745,1
721,362,50,0.120577844654552,1
721,363,50,0.0804045348158331,1
722,361,50,0.0770822699485397,1
722,362,50,0.0802991806562264,1
684,357,51,0.0772404718965488,1
684,358,51,0.0904025780760036,1
684,359,51,0.0811672847955158,1
685,352,51,0.0837606419141674,1
685,353,51,0.0707920833473893,1
686,352,51,0.102023952297237,1
686,353,51,0.0861370074392052,1
687,351,51,0.0733472736171573,1
687,352,51,0.0918282763975631,1
687,353,51,0.0778475356338927,1
688,351,51,0.0739405728506194,1
688,352,51,0.0817521983434102,1
689,351,51,0.0793051295094863,1
689,352,51,0.0781298397385276,1
690,351,51,0.0754363695137491,1
690,352,51,0.0701995567949546,1
694,369,51,0.1037747037505,1
694,370,51,0.0940692909677637,1
695,345,51,0.0757665439034245,1
695,368,51,0.102524421991465,1
695,369,51,0.2154778575733,1
695,370,51,0.197514041950279,1
695,371,51,0.0849752246117859,1
696,345,51,0.0695001726492863,1
696,368,51,0.0867039456711079,1
696,369,51,0.185068103267178,1
696,370,51,0.170745579929096,1
696,371,51,0.0776537544199751,1
697,369,51,0.08456999833628,1
697,370,51,0.0826058251955446,1
699,345,51,0.067791523327348,1
699,346,51,0.0680525337804166,1
699,371,51,0.0941084700886908,1
699,372,51,0.0711807419041237,1
700,370,51,0.0938805411651867,1
700,371,51,0.143640181061806,1
700,372,51,0.104634536009955,1
701,370,51,0.0688490481240598,1
701,371,51,0.102290629077839,1
701,372,51,0.0714196141472937,1
708,346,51,0.0783875857640002,1
708,347,51,0.0686331107309174,1
709,345,51,0.069230183522885,1
709,346,51,0.0847238037891415,1
710,346,51,0.0715415659745489,1
719,362,51,0.0712170639021825,1
720,361,51,0.102881508442037,1
720,362,51,0.109737860594063,1
720,363,51,0.0786615281421691,1
721,360,51,0.070830561664594,1
721,361,51,0.112512013093553,1
721,362,51,0.122100182012503,1
721,363,51,0.0883957217957289,1
722,361,51,0.0773152482527106,1
722,362,51,0.0822600534307133,1
686,353,52,0.0686577167282831,1
687,352,52,0.0770227375707848,1
687,353,52,0.0678117388193415,1
688,351,52,0.0805051031448908,1
688,352,52,0.0854520766215903,1
689,351,52,0.0854993838677427,1
689,352,52,0.0871322146125986,1
690,351,52,0.078197769781401,1
690,352,52,0.0764081866141841,1
694,369,52,0.0924376102597857,1
694,370,52,0.0882813051059337,1
695,368,52,0.0900948473747725,1
695,369,52,0.17867468887669,1
695,370,52,0.173568848586911,1
695,371,52,0.0847045466612129,1
696,368,52,0.0817684186552082,1
696,369,52,0.163526522917168,1
696,370,52,0.161563326109824,1
696,371,52,0.0834371281547428,1
697,369,52,0.0816115164884621,1
697,370,52,0.0844721673345825,1
699,371,52,0.0679188719422436,1
700,370,52,0.0694937216611746,1
700,371,52,0.0981815892417117,1
700,372,52,0.0785150781335055,1
701,371,52,0.0778302731011741,1
707,346,52,0.0750131379733743,1
707,347,52,0.0708173122813972,1
708,346,52,0.094925840830296,1
708,347,52,0.0868323305171486,1
709,346,52,0.0885715037345531,1
709,347,52,0.0756875507453772,1
720,361,52,0.0876187101608058,1
720,362,52,0.0948876739814123,1
720,363,52,0.0738121700352525,1
721,360,52,0.0678834484104957,1
721,361,52,0.0964007331772606,1
721,362,52,0.106090794165633,1
721,363,52,0.0833045983841215,1
722,361,52,0.0714557265032132,1
722,362,52,0.0758304068887976,1
688,352,53,0.0752641754503928,1
689,351,53,0.0852134559489874,1
689,352,53,0.0839048397672785,1
690,350,53,0.0685600654198478,1
690,351,53,0.0780599570288721,1
690,352,53,0.0754892412612531,1
694,369,53,0.0703913793523146,1
694,370,53,0.0717294053312643,1
695,369,53,0.117069776954181,1
695,370,53,0.123536530154734,1
696,369,53,0.116364253288722,1
696,370,53,0.125686164711348,1
697,370,53,0.0735221690692215,1
706,367,53,0.0781360930640509,1
707,346,53,0.0783131568148119,1
707,347,53,0.0773674191964922,1
707,367,53,0.0800134563898349,1
708,346,53,0.0990108676568229,1
708,347,53,0.0991335741957792,1
709,346,53,0.0848455100356051,1
709,347,53,0.0846308664339503,1
713,347,53,0.0710981488910578,1
720,361,53,0.071483554999747,1
720,362,53,0.0738765361617596,1
721,361,53,0.0777841997487553,1
721,362,53,0.0810429490376491,1
690,352,54,0.0692238223814044,1
707,347,54,0.0754246654926068,1
708,346,54,0.087198239906893,1
708,347,54,0.0969402442275816,1
708,348,54,0.0736116083955759,1
709,347,54,0.0903686999063103,1
709,348,54,0.0680707966056278,1
708,347,55,0.0770456844003631,1
