x,y,z,signal,cytoplasm.p
622,900,1,0.110545210441415,1
622,901,1,0.139316030421542,1
622,905,1,0.148520662041729,1
622,906,1,0.156041639672746,1
622,907,1,0.167930026102004,1
623,899,1,0.0946075920834528,1
623,900,1,0.105178707105541,1
623,901,1,0.118327258423253,1
623,902,1,0.134123446204342,1
623,904,1,0.120543439384623,1
623,905,1,0.116325595278255,1
623,906,1,0.122407960631938,1
623,907,1,0.132131234924933,1
623,908,1,0.146070197005151,1
624,898,1,0.0878384450715553,1
624,899,1,0.0967848035660343,1
624,900,1,0.0999897227433593,1
624,901,1,0.100927092645437,1
624,902,1,0.102233450681819,1
624,903,1,0.0964854046423922,1
624,904,1,0.0898443489775406,1
624,905,1,0.0868540314734426,1
624,906,1,0.0889776823843485,1
624,907,1,0.0951419698962513,1
624,908,1,0.10759947483566,1
624,909,1,0.122096875656479,1
625,897,1,0.0807271141702944,1
625,898,1,0.0881421027255107,1
625,899,1,0.0926123619572401,1
625,900,1,0.0892674377695878,1
625,901,1,0.0832690790159671,1
625,902,1,0.0774220998561687,1
625,903,1,0.0703746439198317,1
625,908,1,0.0760091777255491,1
625,909,1,0.0909584232438553,1
625,910,1,0.11359169406949,1
626,895,1,0.0681735032845053,1
626,896,1,0.0740284129069406,1
626,897,1,0.0777720944126608,1
626,898,1,0.0803042360266686,1
626,899,1,0.0792794753014247,1
626,900,1,0.0732276937409626,1
626,909,1,0.0684199585833386,1
626,910,1,0.091191545302636,1
626,911,1,0.122076893765727,1
627,895,1,0.0704829510387133,1
627,896,1,0.072061178990973,1
627,897,1,0.0713386563429134,1
627,898,1,0.0690252852858148,1
627,910,1,0.0705142176663298,1
627,911,1,0.0968590168833081,1
627,912,1,0.123404731136712,1
627,917,1,0.115241326134358,1
628,894,1,0.0698958392432451,1
628,895,1,0.0706374812543989,1
628,911,1,0.0744805271443204,1
628,912,1,0.0982921604956966,1
628,913,1,0.11357263460415,1
628,914,1,0.120234259157744,1
628,917,1,0.114722719400202,1
628,918,1,0.11008734002987,1
629,893,1,0.0749068853474568,1
629,894,1,0.0758654410851441,1
629,895,1,0.071557462838475,1
629,912,1,0.0833253649354523,1
629,913,1,0.101826062097391,1
629,914,1,0.110248189458609,1
629,915,1,0.108685085689248,1
629,916,1,0.106780253253454,1
629,917,1,0.109143423303274,1
629,918,1,0.109791265431578,1
629,919,1,0.0987323790391212,1
630,892,1,0.0806438742614847,1
630,893,1,0.0838412523115741,1
630,894,1,0.0778491468834767,1
630,895,1,0.0681016080103135,1
630,912,1,0.077764607193404,1
630,913,1,0.0986113616168292,1
630,914,1,0.108344339345982,1
630,915,1,0.102499157118805,1
630,916,1,0.0989243633204171,1
630,917,1,0.102380379872515,1
630,918,1,0.106143288557286,1
630,919,1,0.101289665730281,1
630,920,1,0.0941731297141928,1
631,891,1,0.0776160667531239,1
631,892,1,0.0881409227397559,1
631,893,1,0.0849186092546534,1
631,894,1,0.0717005106547083,1
631,912,1,0.0715893823516107,1
631,913,1,0.0891874263497216,1
631,914,1,0.098473662670033,1
631,915,1,0.0949491769952756,1
631,916,1,0.0935180639167496,1
631,917,1,0.0979743849411105,1
631,918,1,0.103243674222153,1
631,919,1,0.10454864263064,1
631,920,1,0.107417936722671,1
632,891,1,0.0825599974239174,1
632,892,1,0.0858161112116329,1
632,893,1,0.0760891591965382,1
632,913,1,0.0734632895769858,1
632,914,1,0.0816872152700363,1
632,915,1,0.0834271491889173,1
632,916,1,0.0878199067166754,1
632,917,1,0.0949561490938476,1
632,918,1,0.103711272028956,1
632,919,1,0.110299366099673,1
632,920,1,0.121672583925858,1
633,890,1,0.0755507921933197,1
633,891,1,0.0825556907754009,1
633,892,1,0.0760512439182216,1
633,914,1,0.0701624561260931,1
633,915,1,0.0743038527289608,1
633,916,1,0.0813938181013504,1
633,917,1,0.0921162348501809,1
633,918,1,0.105465198063185,1
633,919,1,0.116805603899698,1
633,920,1,0.137789895545984,1
634,889,1,0.0706095209828062,1
634,890,1,0.08225291361843,1
634,891,1,0.0804361248913215,1
634,915,1,0.0690889625881503,1
634,916,1,0.077280537504236,1
634,917,1,0.0908189752826407,1
634,918,1,0.109412004832455,1
634,919,1,0.125253822722582,1
634,920,1,0.153311176595063,1
635,889,1,0.0745579210323344,1
635,890,1,0.0848849347373239,1
635,891,1,0.0775263818459779,1
635,916,1,0.075634307631798,1
635,917,1,0.091179667578007,1
635,918,1,0.112860809694964,1
635,919,1,0.132815830315125,1
636,889,1,0.0775127311478288,1
636,890,1,0.0865661868265576,1
636,891,1,0.074553290935946,1
636,916,1,0.0784351625500458,1
636,917,1,0.0944270482731813,1
636,918,1,0.116270573201381,1
636,919,1,0.137652130711658,1
637,889,1,0.0778318603916566,1
637,890,1,0.0850207049764396,1
637,891,1,0.0710514106735689,1
637,915,1,0.0716616489918777,1
637,916,1,0.0862538439982642,1
637,917,1,0.102869612748082,1
637,918,1,0.122083997639358,1
637,919,1,0.14185437744287,1
637,920,1,0.163581580932695,1
637,921,1,0.191996452519577,1
638,889,1,0.0794223254550696,1
638,890,1,0.084400379876348,1
638,891,1,0.0700949992754768,1
638,914,1,0.0705654062869449,1
638,915,1,0.0817901675297055,1
638,916,1,0.098543168023838,1
638,917,1,0.116138187185369,1
638,918,1,0.132841646247123,1
638,919,1,0.14830173575066,1
638,920,1,0.170726831932077,1
639,888,1,0.0723928628040506,1
639,889,1,0.085331113107277,1
639,891,1,0.0733175583413708,1
639,913,1,0.0730445443783897,1
639,914,1,0.082761727069798,1
639,915,1,0.0962278143510802,1
639,916,1,0.119436445032837,1
639,917,1,0.144348927226433,1
639,918,1,0.157996390896768,1
639,919,1,0.164871982207396,1
640,888,1,0.0880990961380995,1
640,910,1,0.0683548257655796,1
640,911,1,0.0734743167535072,1
640,912,1,0.0815306904591407,1
640,913,1,0.0893573143495468,1
640,914,1,0.100384652594943,1
640,915,1,0.118963707998736,1
640,916,1,0.158181187447577,1
640,917,1,0.197270821130164,1
640,918,1,0.206645262883096,1
641,892,1,0.0738451856772874,1
641,893,1,0.0677668214935759,1
641,906,1,0.0716073157391747,1
641,907,1,0.0755191961280558,1
641,908,1,0.078332569676901,1
641,909,1,0.0815970032626546,1
641,910,1,0.0852105808567928,1
641,911,1,0.0890288290765357,1
641,912,1,0.0963175950946327,1
641,913,1,0.105504766519513,1
641,914,1,0.117687634266805,1
641,915,1,0.142329749978149,1
641,916,1,0.195360118714473,1
641,917,1,0.243192141069657,1
642,892,1,0.0826936652518658,1
642,893,1,0.0797754287049971,1
642,894,1,0.0805653602854698,1
642,895,1,0.0891493433576937,1
642,896,1,0.0960497562976019,1
642,897,1,0.0921420388026276,1
642,898,1,0.0859196444795163,1
642,899,1,0.0846701593606102,1
642,900,1,0.0834164993682464,1
642,901,1,0.0825935581355142,1
642,902,1,0.0827817508889785,1
642,903,1,0.0824440832902708,1
642,904,1,0.0827173727829206,1
642,905,1,0.085659286911967,1
642,906,1,0.0924570291116502,1
642,907,1,0.0943272406456,1
642,908,1,0.0955066513820376,1
642,909,1,0.100117370847025,1
642,910,1,0.105475716108797,1
642,911,1,0.10710385685951,1
642,912,1,0.111369631148672,1
642,913,1,0.119478409399328,1
642,914,1,0.129461136803787,1
643,891,1,0.0921999479512476,1
643,892,1,0.0894054601642559,1
643,893,1,0.0897093094910243,1
643,894,1,0.0956481119077885,1
643,895,1,0.112167361416723,1
643,896,1,0.125137058040828,1
643,897,1,0.122287063005154,1
643,898,1,0.11682291435062,1
643,899,1,0.117491660795089,1
643,900,1,0.115786359757603,1
643,901,1,0.112415409995814,1
643,902,1,0.109379240760987,1
643,903,1,0.105562615770379,1
643,904,1,0.101938454243099,1
643,905,1,0.100898629232711,1
643,906,1,0.103962555086766,1
643,907,1,0.103835823418738,1
643,908,1,0.105570222785144,1
644,893,1,0.0978291987750574,1
644,894,1,0.107038077146007,1
644,895,1,0.123322599336352,1
644,896,1,0.134738763852194,1
644,897,1,0.132562750324694,1
644,898,1,0.132049151042777,1
644,899,1,0.138355917342249,1
644,900,1,0.139062878553806,1
644,901,1,0.132590207455152,1
644,902,1,0.125292229162482,1
644,903,1,0.118977771991389,1
645,895,1,0.124723787496952,1
645,896,1,0.131335061998488,1
645,897,1,0.129311152827634,1
645,898,1,0.132003245404069,1
645,899,1,0.141727130654156,1
645,900,1,0.143865468494356,1
645,901,1,0.135509791701487,1
646,900,1,0.135396201600698,1
622,900,2,0.100800720363933,1
623,899,2,0.0844515924560648,1
623,900,2,0.0956845177627029,1
623,901,2,0.110633379935383,1
623,904,2,0.110150017039713,1
623,905,2,0.112039180223046,1
623,906,2,0.122148795029694,1
623,907,2,0.133366087022524,1
623,908,2,0.145635351290265,1
624,898,2,0.0769906743030393,1
624,899,2,0.0866678213356375,1
624,900,2,0.0922454762341046,1
624,901,2,0.0964891123133682,1
624,902,2,0.0973927597799136,1
624,903,2,0.0889964483506938,1
624,904,2,0.0817833930937219,1
624,905,2,0.0807592013971415,1
624,906,2,0.0872517345910392,1
624,907,2,0.0969330804561966,1
624,908,2,0.109881159980863,1
624,909,2,0.124221700563365,1
625,897,2,0.0711826286833765,1
625,898,2,0.0793104544198217,1
625,899,2,0.084523523668909,1
625,900,2,0.0826979599208315,1
625,901,2,0.0790088871974828,1
625,902,2,0.0723962649964809,1
625,908,2,0.0747093365648092,1
625,909,2,0.0912317786240345,1
626,897,2,0.0689070051908831,1
626,898,2,0.0728701520674596,1
626,899,2,0.0730747867544119,1
626,900,2,0.0684254991255886,1
626,910,2,0.0902871551039403,1
627,911,2,0.091843490427093,1
628,912,2,0.0932926087704879,1
628,913,2,0.110656129102373,1
628,918,2,0.112746321127864,1
629,912,2,0.0734140476333774,1
629,913,2,0.0919887664397772,1
629,914,2,0.100907470141209,1
629,917,2,0.109707109087131,1
629,918,2,0.112849872365074,1
629,919,2,0.0990124968757331,1
630,892,2,0.073155151571027,1
630,893,2,0.0768433497871665,1
630,913,2,0.0856888704126946,1
630,914,2,0.0963096826013221,1
630,915,2,0.09584941028984,1
630,916,2,0.098305122369674,1
630,917,2,0.104455142236561,1
630,918,2,0.10958861935006,1
630,919,2,0.102099064080822,1
630,920,2,0.0936333012057753,1
631,891,2,0.0702873070046446,1
631,892,2,0.0817806557663616,1
631,893,2,0.0763648505891256,1
631,913,2,0.0749492450391243,1
631,914,2,0.083792028337292,1
631,915,2,0.0862390672223389,1
631,916,2,0.0925573159212639,1
631,917,2,0.101418230269584,1
631,918,2,0.107019820310571,1
631,919,2,0.1052371912726,1
631,920,2,0.105769981794916,1
632,891,2,0.0791387634975995,1
632,892,2,0.0799527619956513,1
632,914,2,0.0699381390371585,1
632,915,2,0.075521178743715,1
632,916,2,0.0855786825043356,1
632,917,2,0.0966769756291852,1
632,918,2,0.105985362138946,1
632,919,2,0.109577286694993,1
632,920,2,0.115465355714073,1
633,890,2,0.0732924671721973,1
633,891,2,0.0826942941782833,1
633,892,2,0.0704082285905301,1
633,916,2,0.0766761931249262,1
633,917,2,0.090123071196483,1
633,918,2,0.104849580926562,1
633,919,2,0.116941404087691,1
633,920,2,0.131162041346126,1
634,890,2,0.0839753993215549,1
634,891,2,0.0806354646168154,1
634,916,2,0.071698216570728,1
634,917,2,0.087136179843917,1
634,918,2,0.108496851007356,1
634,919,2,0.130608502241805,1
635,889,2,0.075301288098805,1
635,890,2,0.0894073948617119,1
635,891,2,0.0761985684340944,1
635,916,2,0.0700602465985743,1
635,917,2,0.0894291916544124,1
635,918,2,0.116010844560249,1
636,889,2,0.0803593180012972,1
636,890,2,0.092144674303806,1
636,891,2,0.0716865365086874,1
636,916,2,0.0744965797424071,1
636,917,2,0.0967315065444765,1
636,918,2,0.124523824834816,1
637,889,2,0.0799623276669739,1
637,890,2,0.089699318545648,1
637,916,2,0.0847315006505375,1
637,917,2,0.108005988912878,1
637,918,2,0.131520361690432,1
637,919,2,0.150959986096054,1
638,889,2,0.0792357199920877,1
638,890,2,0.0875299656483985,1
638,915,2,0.0783075264259307,1
638,916,2,0.0979519172935645,1
638,917,2,0.119946989529298,1
638,918,2,0.138764755452325,1
638,919,2,0.150453850074292,1
638,920,2,0.164320886931441,1
639,891,2,0.0712623406144724,1
639,913,2,0.071203215541445,1
639,914,2,0.0814216406081088,1
639,915,2,0.0937411770608278,1
639,916,2,0.116363282945106,1
639,917,2,0.145690960365129,1
639,918,2,0.15919639448105,1
639,919,2,0.159126026599586,1
640,911,2,0.0685908947938597,1
640,912,2,0.0772681027304942,1
640,913,2,0.0870240632278775,1
640,914,2,0.0991603904202695,1
640,915,2,0.114336498682058,1
640,916,2,0.159057623364456,1
640,917,2,0.220680768163299,1
641,906,2,0.0682414932251327,1
641,907,2,0.0725158568522264,1
641,908,2,0.0743208457217861,1
641,909,2,0.0763350574462588,1
641,910,2,0.0802563897007297,1
641,911,2,0.083777994293517,1
641,912,2,0.0912462020032109,1
641,913,2,0.102809283730198,1
641,914,2,0.115123399436175,1
641,915,2,0.135702494755832,1
641,916,2,0.208499793185035,1
642,892,2,0.0804754657361846,1
642,893,2,0.0795624442711296,1
642,894,2,0.0801683879204727,1
642,895,2,0.0849391901229466,1
642,896,2,0.0895428835813835,1
642,897,2,0.0816460774925516,1
642,898,2,0.0755659702841971,1
642,899,2,0.0769622827676174,1
642,900,2,0.0768932506060694,1
642,901,2,0.0748949836637262,1
642,902,2,0.074517777557567,1
642,903,2,0.0765508690541177,1
642,904,2,0.0788241924728553,1
642,905,2,0.0835569296526275,1
642,906,2,0.094753119666704,1
642,907,2,0.0963320124840337,1
642,908,2,0.0933612396170837,1
642,909,2,0.0941275175744802,1
642,910,2,0.0992005458745877,1
642,911,2,0.0997196856987547,1
642,912,2,0.104030179651094,1
642,913,2,0.11433416266965,1
642,914,2,0.123989393114039,1
642,916,2,0.215010343623352,1
643,891,2,0.0923733759083375,1
643,892,2,0.0905646374393739,1
643,893,2,0.0935655448663887,1
643,894,2,0.0999884648905242,1
643,895,2,0.114718957821247,1
643,896,2,0.126065281555862,1
643,897,2,0.116253658075636,1
643,898,2,0.110038894726391,1
643,899,2,0.115571051290878,1
643,900,2,0.115125771387236,1
643,901,2,0.107643092380162,1
643,902,2,0.101372779853807,1
643,903,2,0.0990316881161323,1
643,904,2,0.0974548917201945,1
643,905,2,0.0991910760396717,1
643,906,2,0.106381130559087,1
643,907,2,0.104915432517369,1
643,908,2,0.101818167573407,1
644,891,2,0.0945069458873148,1
644,892,2,0.0965967545671798,1
644,893,2,0.10271682555704,1
644,894,2,0.113508400252701,1
644,895,2,0.130247486498567,1
644,896,2,0.138823982351534,1
644,897,2,0.129316160279873,1
644,898,2,0.127899063275796,1
644,899,2,0.140044303253991,1
644,900,2,0.141602447489316,1
644,901,2,0.129335040051951,1
644,902,2,0.11760201641716,1
644,903,2,0.111636271990622,1
645,895,2,0.132285339866565,1
645,896,2,0.135303551754726,1
645,897,2,0.127817614309832,1
645,898,2,0.128610073575526,1
645,899,2,0.141750862144313,1
645,900,2,0.143806373370206,1
645,901,2,0.13196027475531,1
646,899,2,0.132631153559824,1
646,900,2,0.131269701569264,1
622,900,3,0.0938552283743232,1
622,907,3,0.166576408737674,1
623,899,3,0.0749304551136773,1
623,900,3,0.0875731698983981,1
623,901,3,0.108783569576464,1
623,904,3,0.111610300324464,1
623,905,3,0.114686433340796,1
623,906,3,0.125120945544987,1
623,907,3,0.141616775032086,1
623,908,3,0.154805601599625,1
624,898,3,0.0690807326367432,1
624,899,3,0.0766377028281707,1
624,900,3,0.0850672934495433,1
624,901,3,0.09509164979307,1
624,902,3,0.0963484963459495,1
624,903,3,0.0869628956414369,1
624,904,3,0.0781739544343889,1
624,905,3,0.0772576685417379,1
624,906,3,0.0860347200446061,1
624,907,3,0.101089894740958,1
624,908,3,0.116178881719474,1
624,909,3,0.130442741197234,1
625,898,3,0.0726628758895535,1
625,899,3,0.0761850674803305,1
625,900,3,0.0774381644338062,1
625,901,3,0.0778372032713182,1
625,902,3,0.0707313290554517,1
625,908,3,0.0740461426421407,1
625,909,3,0.0939025895284542,1
626,910,3,0.0922545207949668,1
627,911,3,0.0924043849756116,1
627,912,3,0.121837518381423,1
628,912,3,0.094067655759078,1
628,913,3,0.112643177195382,1
629,912,3,0.0702333211589152,1
629,913,3,0.0895838835940339,1
629,914,3,0.0987250715131265,1
629,915,3,0.104790330068251,1
629,918,3,0.117265762405448,1
629,919,3,0.102678514953546,1
630,892,3,0.0706627161781821,1
630,893,3,0.0741485857709004,1
630,913,3,0.0777787969713395,1
630,914,3,0.0894836926208267,1
630,915,3,0.0974747298563374,1
630,916,3,0.103368716773518,1
630,917,3,0.110731157029102,1
630,918,3,0.116636320867189,1
630,919,3,0.109256090978651,1
631,892,3,0.0804028456991688,1
631,893,3,0.0717245715825121,1
631,914,3,0.0747499053136304,1
631,915,3,0.0858969851591574,1
631,916,3,0.097618550353598,1
631,917,3,0.108488105935264,1
631,918,3,0.114443452111698,1
631,919,3,0.112219436524098,1
631,920,3,0.108544505660482,1
632,891,3,0.0780355906225226,1
632,892,3,0.0770936145831576,1
632,915,3,0.0731012256230516,1
632,916,3,0.0871704593285625,1
632,917,3,0.100929153128177,1
632,918,3,0.110746718465605,1
632,919,3,0.11387045821686,1
632,920,3,0.114531513789709,1
633,890,3,0.0749013388154313,1
633,891,3,0.0846170300527637,1
633,916,3,0.0749988403794815,1
633,917,3,0.091213911124,1
633,918,3,0.107937813289213,1
633,919,3,0.122129783482557,1
634,889,3,0.0680904191098561,1
634,890,3,0.0903449684161539,1
634,891,3,0.0831448930024856,1
634,917,3,0.0851460230574727,1
634,918,3,0.108959477300572,1
635,889,3,0.0812921177047411,1
635,890,3,0.0995986622866873,1
635,891,3,0.0773715761006236,1
635,917,3,0.0884972544786269,1
635,918,3,0.119682385210986,1
636,889,3,0.0897368325090125,1
636,890,3,0.103288669414999,1
636,891,3,0.0711713858749404,1
636,916,3,0.0706948034050292,1
636,917,3,0.101204551021769,1
636,918,3,0.134242331266589,1
637,889,3,0.0901160272206062,1
637,890,3,0.101195123115281,1
637,916,3,0.0846078297577409,1
637,917,3,0.116326781253786,1
637,918,3,0.143327586662946,1
637,919,3,0.161963203515893,1
638,889,3,0.0864735908885645,1
638,890,3,0.0963893585937656,1
638,915,3,0.0794088185115303,1
638,916,3,0.101709680761263,1
638,917,3,0.128658351165294,1
638,918,3,0.148634084428807,1
638,919,3,0.156540252536598,1
638,920,3,0.162282434585902,1
639,889,3,0.0898125672292392,1
639,891,3,0.0709370658610786,1
639,913,3,0.0737553270666546,1
639,914,3,0.0853069204044143,1
639,915,3,0.0997091556735919,1
639,916,3,0.121520120182687,1
639,917,3,0.151537460342895,1
639,918,3,0.164485929202963,1
639,919,3,0.158836480856486,1
640,888,3,0.0789473422551916,1
640,912,3,0.0753947705235581,1
640,913,3,0.0876006689572846,1
640,914,3,0.102145233269647,1
640,915,3,0.117064062708444,1
640,916,3,0.167863958879281,1
641,906,3,0.0682592049910067,1
641,907,3,0.0734155450772288,1
641,908,3,0.0718176347229868,1
641,909,3,0.0722066346969193,1
641,910,3,0.0772403700703669,1
641,911,3,0.0833954093690438,1
641,912,3,0.0915203001155404,1
641,913,3,0.103879249290427,1
641,914,3,0.116707060114728,1
641,915,3,0.135562070461226,1
642,892,3,0.0798818670139523,1
642,893,3,0.0801677530042797,1
642,894,3,0.0801121738782924,1
642,895,3,0.0815344340687691,1
642,896,3,0.0833783444989136,1
642,897,3,0.0742956227775537,1
642,898,3,0.0683355326989985,1
642,899,3,0.0722039093491098,1
642,900,3,0.0743082791729855,1
642,901,3,0.0718450079965898,1
642,902,3,0.0716546229853271,1
642,903,3,0.0757600449971096,1
642,904,3,0.0790539842165105,1
642,905,3,0.0853527781249185,1
642,906,3,0.0993950578411048,1
642,907,3,0.101521637752184,1
642,908,3,0.0927126427770784,1
642,909,3,0.0895410027919062,1
642,910,3,0.0944734031450442,1
642,911,3,0.0977163693757447,1
642,912,3,0.10396127327483,1
642,913,3,0.115049030384741,1
642,914,3,0.124157454232366,1
642,915,3,0.141952849350536,1
643,891,3,0.091093336945088,1
643,892,3,0.0919030647332758,1
643,893,3,0.0968031442583259,1
643,894,3,0.10395019219033,1
643,895,3,0.117339580397545,1
643,896,3,0.125155183101205,1
643,897,3,0.110094000660121,1
643,898,3,0.102681114516072,1
643,899,3,0.114479007418505,1
643,900,3,0.118852214319339,1
643,901,3,0.107449886184684,1
643,902,3,0.0974502915726831,1
643,903,3,0.0959347765689186,1
643,904,3,0.096027510271746,1
643,905,3,0.0992648101749129,1
643,906,3,0.108354450086866,1
643,907,3,0.105869999064637,1
643,908,3,0.0979050233419152,1
644,890,3,0.0993446598708432,1
644,891,3,0.0940157723245159,1
644,892,3,0.0980018899897723,1
644,893,3,0.106077964066714,1
644,894,3,0.11815687327207,1
644,895,3,0.134198821538044,1
644,896,3,0.138349100977838,1
644,897,3,0.123759745124994,1
644,898,3,0.122274724067818,1
644,899,3,0.142179957674809,1
644,900,3,0.148292679210247,1
644,901,3,0.130265491763436,1
644,902,3,0.112423112846985,1
645,894,3,0.122306889161746,1
645,895,3,0.134899541403628,1
645,896,3,0.13442552255759,1
645,897,3,0.123400670068987,1
645,898,3,0.123036743294902,1
645,899,3,0.137702348988658,1
645,900,3,0.141566197368562,1
645,901,3,0.127785868500183,1
646,900,3,0.12636913088263,1
621,900,4,0.106515936444362,1
622,899,4,0.0694724759278114,1
622,900,4,0.0883366087022524,1
622,907,4,0.168446847883089,1
623,900,4,0.08090638814818,1
623,901,4,0.104393591304494,1
623,903,4,0.120291581308374,1
623,904,4,0.112377183249176,1
623,905,4,0.116072203819502,1
623,906,4,0.127997475285707,1
623,907,4,0.14677676289153,1
623,908,4,0.164771629510253,1
624,899,4,0.0678991056834056,1
624,900,4,0.07812610810845,1
624,901,4,0.0914079738573617,1
624,902,4,0.0932134538885047,1
624,903,4,0.0831460969473421,1
624,904,4,0.0745051091825845,1
624,905,4,0.0743788566965881,1
624,906,4,0.086001243189865,1
624,907,4,0.103657088520639,1
624,908,4,0.12241450146668,1
625,899,4,0.0685406884964111,1
625,900,4,0.0720384717524109,1
625,901,4,0.0754374416835467,1
625,902,4,0.0684655108252971,1
625,908,4,0.0759232184587052,1
625,909,4,0.0969313733702061,1
626,909,4,0.0688094557086297,1
626,910,4,0.0977144466578395,1
627,911,4,0.0922682733192978,1
628,912,4,0.0933298352246329,1
628,913,4,0.114523451552013,1
629,913,4,0.0862554672273991,1
629,914,4,0.0990849491990377,1
629,918,4,0.124755928631778,1
629,919,4,0.106526789917397,1
630,914,4,0.0832915586430638,1
630,915,4,0.0983531304195488,1
630,916,4,0.112315129175976,1
630,917,4,0.123824901901854,1
630,918,4,0.128943632188306,1
630,919,4,0.118370732213146,1
631,892,4,0.0741642849722381,1
631,915,4,0.0830532254796804,1
631,916,4,0.102889414945573,1
631,917,4,0.116684526579652,1
631,918,4,0.122617638709781,1
631,919,4,0.118093142061755,1
631,920,4,0.109117463616667,1
632,891,4,0.0720381243454373,1
632,892,4,0.0689572414372088,1
632,916,4,0.0861138030492844,1
632,917,4,0.10230585508692,1
632,918,4,0.113589226282023,1
632,919,4,0.114863550999535,1
632,920,4,0.111334063862315,1
633,890,4,0.0724251536832614,1
633,891,4,0.0792059208594456,1
633,916,4,0.0708086031479576,1
633,917,4,0.0879565874016527,1
633,918,4,0.107254547629161,1
633,919,4,0.118792831685969,1
634,890,4,0.0884534213022098,1
634,891,4,0.0772071687452944,1
634,917,4,0.0802118736899163,1
634,918,4,0.108610584862755,1
635,889,4,0.0792513652854468,1
635,890,4,0.0983510819163601,1
635,891,4,0.0702488346772153,1
635,917,4,0.0853591392663991,1
636,889,4,0.0889497640411836,1
636,890,4,0.101319123445725,1
636,917,4,0.102140872713152,1
637,889,4,0.0895315209774393,1
637,890,4,0.0989438660291373,1
637,916,4,0.0827918376707613,1
637,917,4,0.119459781197817,1
637,918,4,0.152649450167369,1
638,889,4,0.085137134230771,1
638,890,4,0.0934718108710686,1
638,915,4,0.0766713114579708,1
638,916,4,0.102200447019334,1
638,917,4,0.131957543417726,1
638,918,4,0.154420171531834,1
638,919,4,0.158120499043169,1
639,889,4,0.087330026945364,1
639,913,4,0.0728674087503239,1
639,914,4,0.0851667716394772,1
639,915,4,0.0990861591336696,1
639,916,4,0.120097344871526,1
639,917,4,0.14650051444983,1
639,918,4,0.158450847136332,1
640,888,4,0.0708675485277228,1
640,912,4,0.072120609542546,1
640,913,4,0.0853836554171337,1
640,914,4,0.100662392490719,1
640,915,4,0.114576904307731,1
640,916,4,0.163865843693888,1
641,906,4,0.068827113566525,1
641,907,4,0.0736866063734277,1
641,908,4,0.0709372455543408,1
641,909,4,0.0699652787095206,1
641,910,4,0.0745148126187413,1
641,911,4,0.0805525062274497,1
641,912,4,0.0895211227273355,1
641,913,4,0.100747734810696,1
641,914,4,0.11171453439607,1
641,915,4,0.129742129147608,1
642,892,4,0.076002367350913,1
642,893,4,0.0782208423962628,1
642,894,4,0.0809800803549934,1
642,895,4,0.0825463826644208,1
642,896,4,0.081174778004548,1
642,897,4,0.0699218708071572,1
642,899,4,0.0682904416697462,1
642,900,4,0.0714207581943961,1
642,901,4,0.068107627734596,1
642,902,4,0.070047051123356,1
642,903,4,0.076902373034012,1
642,904,4,0.0821268647847974,1
642,905,4,0.0882489663085196,1
642,906,4,0.101508292532581,1
642,907,4,0.103190137609579,1
642,908,4,0.092876451154867,1
642,909,4,0.0871470393067271,1
642,910,4,0.090524146557633,1
642,911,4,0.0940830255227684,1
642,912,4,0.101251618676906,1
642,913,4,0.110319503724586,1
642,914,4,0.116944914096079,1
642,915,4,0.13487386922624,1
643,891,4,0.0892396811503589,1
643,892,4,0.0909734096619198,1
643,893,4,0.0978376024299513,1
643,894,4,0.109224884248788,1
643,895,4,0.122909951729119,1
643,896,4,0.125358883383194,1
643,897,4,0.104515567090851,1
643,898,4,0.096145646612068,1
643,899,4,0.110177725740739,1
643,900,4,0.118313182451051,1
643,901,4,0.103832229553494,1
643,902,4,0.0938186008977188,1
643,903,4,0.0950578554802324,1
643,904,4,0.098015756319836,1
643,905,4,0.101228725755306,1
643,906,4,0.109008545540694,1
643,907,4,0.105781242572678,1
643,908,4,0.0962773497936834,1
644,890,4,0.0998557434470899,1
644,891,4,0.0929076039767509,1
644,892,4,0.0985187417197345,1
644,893,4,0.108070151387021,1
644,894,4,0.122761477176368,1
644,895,4,0.137221010637074,1
644,896,4,0.136920719236897,1
644,897,4,0.117835785371684,1
644,898,4,0.116062967585827,1
644,899,4,0.138622965488927,1
644,900,4,0.148721642965684,1
644,901,4,0.126883149448826,1
644,902,4,0.107259027981164,1
645,894,4,0.123172938808071,1
645,895,4,0.132433982133027,1
645,896,4,0.129740368153639,1
645,897,4,0.116720716802652,1
645,898,4,0.115082716881621,1
645,899,4,0.128090340763594,1
645,900,4,0.134482485321696,1
645,901,4,0.120983939447492,1
646,900,4,0.121890599771066,1
621,898,5,0.0711956564448833,1
621,899,5,0.0834247412992043,1
621,900,5,0.105767394211941,1
622,899,5,0.067818674979261,1
622,900,5,0.086546456506372,1
622,901,5,0.121084831224421,1
622,907,5,0.167594838270314,1
623,900,5,0.0782422139149095,1
623,901,5,0.10068013420547,1
623,902,5,0.118139874289469,1
623,903,5,0.116609474693822,1
623,906,5,0.12743171703956,1
623,907,5,0.144661904970919,1
624,900,5,0.0739380511551737,1
624,901,5,0.0871977727044114,1
624,902,5,0.0896461892378016,1
624,903,5,0.080889976163569,1
624,904,5,0.0737802565118921,1
624,905,5,0.0751200854132389,1
624,906,5,0.0868324263535551,1
624,907,5,0.103260721122957,1
624,908,5,0.12144836267333,1
625,900,5,0.0681657884537831,1
625,901,5,0.0727074637776718,1
625,908,5,0.0781509417172811,1
625,909,5,0.102689524160741,1
626,909,5,0.0746282290160438,1
626,910,5,0.107304406519636,1
627,910,5,0.0699615111407906,1
627,911,5,0.0965788511284928,1
628,912,5,0.0954395239690686,1
629,913,5,0.0895884837415453,1
629,919,5,0.105149980142697,1
630,914,5,0.0854240564522436,1
630,915,5,0.104208734855931,1
630,918,5,0.133460042639534,1
630,919,5,0.119978076463652,1
631,915,5,0.083708237369145,1
631,916,5,0.107671088590407,1
631,917,5,0.121814302011951,1
631,918,5,0.125714628124075,1
631,919,5,0.119530472527152,1
632,916,5,0.0852019316211073,1
632,917,5,0.103844796102295,1
632,918,5,0.116403378501671,1
632,919,5,0.116762393659923,1
632,920,5,0.110080667420069,1
633,890,5,0.0710880800786012,1
633,891,5,0.0719725602638491,1
633,917,5,0.0866731282766467,1
633,918,5,0.107831351021156,1
633,919,5,0.117575218161996,1
634,890,5,0.0857566447214074,1
634,891,5,0.0706030460355929,1
634,917,5,0.0783103655794729,1
634,918,5,0.108529579140171,1
635,889,5,0.0800745101705428,1
635,890,5,0.0950403174178452,1
635,917,5,0.0847617430265597,1
636,889,5,0.0889103393394648,1
636,890,5,0.0968060732584992,1
636,917,5,0.103257306950976,1
637,889,5,0.0870496695177359,1
637,890,5,0.0920535638301135,1
637,916,5,0.0830144656430316,1
637,917,5,0.122368727603032,1
638,889,5,0.0818107424082232,1
638,890,5,0.0858778657960632,1
638,915,5,0.0763410052932364,1
638,916,5,0.102680815027302,1
638,917,5,0.136206558315303,1
639,889,5,0.0836292082724453,1
639,890,5,0.0903305090983251,1
639,913,5,0.0701878348044861,1
639,914,5,0.0833623278394794,1
639,915,5,0.0994202568262356,1
639,916,5,0.119292199261523,1
639,917,5,0.143783755978275,1
640,888,5,0.0682354016235454,1
640,891,5,0.0733384087495572,1
640,912,5,0.0682833437858907,1
640,913,5,0.0810360847550345,1
640,914,5,0.097034367558303,1
640,915,5,0.115419114647943,1
640,916,5,0.155576533612511,1
641,906,5,0.0679220405334331,1
641,907,5,0.0707438716451508,1
641,908,5,0.0686111701836072,1
641,910,5,0.0712975664836319,1
641,911,5,0.076991231352152,1
641,912,5,0.0852090894027168,1
641,913,5,0.0945166792723487,1
641,914,5,0.105676325666676,1
641,915,5,0.129605358616,1
642,892,5,0.0728808557961092,1
642,893,5,0.0775966299319332,1
642,894,5,0.0840201369540583,1
642,895,5,0.0861940061419636,1
642,896,5,0.0791182065884079,1
642,900,5,0.0699647935377128,1
642,902,5,0.0690259741099865,1
642,903,5,0.0772371595507496,1
642,904,5,0.0841591057332405,1
642,905,5,0.0894620036440835,1
642,906,5,0.0955149472209742,1
642,907,5,0.0945587754138983,1
642,908,5,0.0866539609953492,1
642,909,5,0.0826059330115019,1
642,910,5,0.0851054423291007,1
642,911,5,0.0894021238593551,1
642,912,5,0.0961104387122347,1
642,913,5,0.103426925410908,1
643,892,5,0.0894284968404653,1
643,893,5,0.100466167448436,1
643,894,5,0.116978133390477,1
643,895,5,0.129683944469319,1
643,896,5,0.122683286648225,1
643,897,5,0.099175023441585,1
643,898,5,0.0910546190368671,1
643,899,5,0.105026351178328,1
643,900,5,0.114771116785478,1
643,901,5,0.0996107376739047,1
643,902,5,0.0902470355882745,1
643,903,5,0.0931118613078526,1
643,904,5,0.0974870807732235,1
643,905,5,0.100074897349625,1
643,906,5,0.102109031067096,1
643,907,5,0.0978949185908062,1
644,891,5,0.0932090993217849,1
644,892,5,0.0978461438496794,1
644,893,5,0.109970874836886,1
644,894,5,0.127253221732477,1
644,895,5,0.139788444007771,1
644,896,5,0.133485055941627,1
644,897,5,0.112601356583501,1
644,898,5,0.109163728641898,1
644,899,5,0.128936684048835,1
644,900,5,0.140441161813255,1
644,901,5,0.11959263441631,1
645,893,5,0.109602455731247,1
645,894,5,0.120508566912212,1
645,895,5,0.126708343843393,1
645,896,5,0.122132982022624,1
645,897,5,0.109653596433659,1
645,898,5,0.106493702398057,1
645,899,5,0.115568439748801,1
645,900,5,0.122966051965566,1
622,901,6,0.121823358552364,1
622,902,6,0.148880982971021,1
623,900,6,0.0820524358356091,1
623,901,6,0.10351425633632,1
623,902,6,0.119244352935584,1
623,903,6,0.11985411207186,1
623,907,6,0.146993904229529,1
624,900,6,0.0765211537783312,1
624,901,6,0.089112859635699,1
624,902,6,0.0918175067813841,1
624,903,6,0.0843881846936225,1
624,904,6,0.078967276227741,1
624,905,6,0.0818431710522684,1
624,906,6,0.0926030179076076,1
624,907,6,0.107804864234313,1
624,908,6,0.12452255500243,1
625,900,6,0.0701810603685025,1
625,901,6,0.0745608799813847,1
625,902,6,0.0691626847438408,1
625,907,6,0.0705335346920125,1
625,908,6,0.0865140578112038,1
626,909,6,0.0856955969304749,1
627,910,6,0.0764223404534672,1
627,911,6,0.101289414159714,1
628,911,6,0.0725648172763907,1
628,912,6,0.0982745445662291,1
629,912,6,0.0684734772265864,1
629,913,6,0.0952350270469506,1
630,914,6,0.0916696970937035,1
630,919,6,0.117547820929291,1
631,915,6,0.0854072731015575,1
631,919,6,0.121152228177284,1
631,920,6,0.106910255338855,1
632,916,6,0.0853778333554396,1
632,917,6,0.109521557824621,1
632,918,6,0.124070674366291,1
632,919,6,0.122093892748327,1
632,920,6,0.111441520433089,1
633,917,6,0.0892126073655262,1
633,918,6,0.111910412031379,1
633,919,6,0.120526715931691,1
634,890,6,0.0790088332895041,1
634,917,6,0.0812198151258217,1
634,918,6,0.111832509012456,1
635,889,6,0.0781189742859421,1
635,890,6,0.0868180269334803,1
635,917,6,0.091365979541994,1
636,889,6,0.0858534574612859,1
636,890,6,0.0877919704041843,1
636,916,6,0.0730389798770381,1
636,917,6,0.110815529005463,1
637,889,6,0.0826765165248799,1
637,890,6,0.0824527924237104,1
637,916,6,0.0891958419841663,1
638,889,6,0.078211360581796,1
638,890,6,0.0776392531737184,1
638,914,6,0.0686503493045344,1
638,915,6,0.0815330803795275,1
638,916,6,0.107343927057761,1
639,889,6,0.0795592696901647,1
639,890,6,0.0811049012846679,1
639,913,6,0.0706484485331663,1
639,914,6,0.0861580674895308,1
639,915,6,0.103788995354618,1
639,916,6,0.124827087163595,1
640,889,6,0.0906581318436778,1
640,890,6,0.0945691556946759,1
640,912,6,0.0685416408707006,1
640,913,6,0.0808420519705499,1
640,914,6,0.097907724730623,1
640,915,6,0.118696863504423,1
640,916,6,0.154363723888413,1
641,891,6,0.0752876913086346,1
641,910,6,0.0695222150227784,1
641,911,6,0.0748570444263079,1
641,912,6,0.0830573464451593,1
641,913,6,0.0919027173263023,1
641,914,6,0.105059893920598,1
641,915,6,0.130707022067674,1
642,892,6,0.0725236016318257,1
642,893,6,0.0809898676480059,1
642,894,6,0.0930621461719872,1
642,895,6,0.0920294370147803,1
642,896,6,0.0777979882117387,1
642,903,6,0.0734869252307357,1
642,904,6,0.0803905786391384,1
642,905,6,0.0846722438024513,1
642,906,6,0.0857287024191409,1
642,907,6,0.0837307469451187,1
642,908,6,0.0804838993399555,1
642,909,6,0.0790166140077559,1
642,910,6,0.0818404157555819,1
642,911,6,0.0858531759418419,1
642,912,6,0.0918480726052782,1
642,913,6,0.0987062696081288,1
643,892,6,0.090765738158837,1
643,893,6,0.109096451484544,1
643,894,6,0.132488381273259,1
643,895,6,0.137295008322434,1
643,896,6,0.118401926963458,1
643,897,6,0.0937099044434358,1
643,898,6,0.0874058335428956,1
643,899,6,0.0990410740941926,1
643,900,6,0.107099304630202,1
643,901,6,0.0940447808068045,1
643,902,6,0.0864603295258168,1
643,903,6,0.0890033365924101,1
643,904,6,0.0927469522106009,1
643,905,6,0.094820911944743,1
643,906,6,0.0938055431873349,1
644,891,6,0.0941027977713819,1
644,892,6,0.0984282781417857,1
644,893,6,0.115137379571972,1
644,894,6,0.135692803299226,1
644,895,6,0.142271756972674,1
644,896,6,0.129262156464817,1
644,897,6,0.108721108198536,1
644,898,6,0.1044630966583,1
644,899,6,0.117896605551151,1
644,900,6,0.126989036698443,1
644,901,6,0.111201102827864,1
645,893,6,0.107480913221284,1
645,894,6,0.116607653802099,1
645,895,6,0.120134469499489,1
645,896,6,0.115110808928273,1
623,901,7,0.106385287463218,1
623,902,7,0.121537191042593,1
624,900,7,0.0784394691985623,1
624,901,7,0.091128347182333,1
624,902,7,0.0954850223030485,1
624,903,7,0.0897523580068634,1
624,904,7,0.0872543940513192,1
624,905,7,0.0910575600165912,1
624,906,7,0.100149266401059,1
624,907,7,0.114940375858886,1
625,900,7,0.0717052785159311,1
625,901,7,0.0762266365216445,1
625,902,7,0.0727803533545809,1
625,907,7,0.0797144348220433,1
625,908,7,0.102791422219939,1
626,908,7,0.0734861285906068,1
626,909,7,0.100014903759164,1
627,910,7,0.0867741757877369,1
628,911,7,0.0819160606291775,1
628,912,7,0.100079150090163,1
629,912,7,0.0696811297540608,1
629,913,7,0.0965405105761225,1
630,914,7,0.097698795374705,1
631,915,7,0.0912974804704571,1
632,916,7,0.0897061229305086,1
632,917,7,0.119815873345672,1
632,920,7,0.11494811464871,1
633,917,7,0.0940365508553974,1
633,918,7,0.118779821893789,1
634,890,7,0.0750166300124357,1
634,917,7,0.0846076620440295,1
635,889,7,0.0762170768400973,1
635,890,7,0.079617921570935,1
635,917,7,0.0960660904151326,1
636,889,7,0.0822804426261936,1
636,890,7,0.0788763993552893,1
636,916,7,0.0793440031518677,1
636,917,7,0.117095976231804,1
637,889,7,0.0794975869830393,1
637,890,7,0.0741855247158259,1
637,915,7,0.0712775127155744,1
637,916,7,0.0959169390177612,1
638,889,7,0.0778398687213737,1
638,890,7,0.0722359127191012,1
638,914,7,0.0749755281736034,1
638,915,7,0.0886661960939381,1
638,916,7,0.113723948310442,1
639,889,7,0.0795385270979356,1
639,890,7,0.075041924833973,1
639,913,7,0.0719362143066888,1
639,914,7,0.0896463509617375,1
639,915,7,0.108142400057962,1
639,916,7,0.130175429500439,1
640,889,7,0.0857350036628675,1
640,890,7,0.0824729899463776,1
640,912,7,0.06885968596518,1
640,913,7,0.0817910120880376,1
640,914,7,0.0989414701189752,1
640,915,7,0.121891162809954,1
641,910,7,0.0687626575933868,1
641,911,7,0.0731477242495243,1
641,912,7,0.0814709304699204,1
641,913,7,0.0911787211934929,1
641,914,7,0.104851928918521,1
642,893,7,0.0855222348609145,1
642,894,7,0.10645859033463,1
642,895,7,0.103543318726587,1
642,896,7,0.0812463019126647,1
642,900,7,0.0691652543574897,1
642,902,7,0.0693969867883763,1
642,903,7,0.0760778744596743,1
642,904,7,0.0809124977190935,1
642,905,7,0.0814691574964004,1
642,906,7,0.0787130282311053,1
642,907,7,0.0761730699601934,1
642,908,7,0.0767998280790704,1
642,909,7,0.0773588298585608,1
642,910,7,0.0799929114601942,1
642,911,7,0.0829277277053851,1
642,912,7,0.0886872801033653,1
643,893,7,0.120247903866117,1
643,894,7,0.152826483969253,1
643,895,7,0.150435269790985,1
643,896,7,0.11896494189247,1
643,897,7,0.0902373141827915,1
643,898,7,0.0853907533009892,1
643,899,7,0.0957281472867563,1
643,900,7,0.103777758535957,1
643,901,7,0.0948713338741062,1
643,902,7,0.087749982078592,1
643,903,7,0.0880937532584378,1
643,904,7,0.0894177092549601,1
644,892,7,0.100576235561287,1
644,893,7,0.12131555737304,1
644,894,7,0.14554413899039,1
644,895,7,0.146077995692729,1
644,896,7,0.125701810004707,1
644,899,7,0.108150977416342,1
644,900,7,0.115869545758434,1
645,893,7,0.107353007557276,1
645,894,7,0.11395406350197,1
645,895,7,0.113977004341773,1
623,901,8,0.112328282722766,1
623,902,8,0.125977854794044,1
624,899,8,0.0686083609789421,1
624,900,8,0.0827727003383408,1
624,901,8,0.0951516493733066,1
624,902,8,0.099575242264852,1
624,903,8,0.0947649075447019,1
624,904,8,0.0947324070233519,1
624,905,8,0.0997398772316466,1
624,906,8,0.108293282500426,1
625,900,8,0.0736489067270257,1
625,901,8,0.0783276460815177,1
625,902,8,0.0762097812936535,1
625,903,8,0.0682333770794584,1
625,906,8,0.0723792121059015,1
625,907,8,0.089504393284628,1
626,908,8,0.0836546168997152,1
627,909,8,0.0740676519256217,1
628,910,8,0.0758387805948144,1
628,911,8,0.0923262723145489,1
629,912,8,0.0716730535242497,1
629,913,8,0.0978834242118031,1
630,914,8,0.104886657636322,1
631,914,8,0.0677629341293377,1
631,915,8,0.101663020410855,1
632,915,8,0.0696141221365998,1
632,916,8,0.100835041777006,1
633,916,8,0.0720500200393926,1
633,917,8,0.0990992168440535,1
634,890,8,0.0711492596445926,1
634,917,8,0.0920106291200071,1
635,889,8,0.0740432196317429,1
635,890,8,0.0724189662452676,1
635,916,8,0.0763636286749428,1
635,917,8,0.105733707715061,1
636,889,8,0.077801863596426,1
636,890,8,0.0691380008793949,1
636,915,8,0.0694045039565102,1
636,916,8,0.0894632195684908,1
637,889,8,0.075788592266692,1
637,914,8,0.0725951554888193,1
637,915,8,0.0836498670078187,1
637,916,8,0.105675594914077,1
638,889,8,0.0764883956966387,1
638,913,8,0.0680855314531253,1
638,914,8,0.0849171717085561,1
638,915,8,0.0996463229295886,1
639,889,8,0.0787504403682878,1
639,890,8,0.0688531990384158,1
639,913,8,0.0768449610367506,1
639,914,8,0.0953369310959238,1
639,915,8,0.113604452291103,1
640,888,8,0.0696197285663794,1
640,889,8,0.0806626282482792,1
640,890,8,0.0721907378329932,1
640,912,8,0.0717337419286578,1
640,913,8,0.0866008256977274,1
640,914,8,0.102658545042344,1
640,915,8,0.125361662638982,1
641,910,8,0.0695180521288716,1
641,911,8,0.0737042762108738,1
641,912,8,0.0829084645876811,1
641,913,8,0.0945007105311177,1
641,914,8,0.107755304832608,1
642,892,8,0.0715715208413516,1
642,893,8,0.0884797403753414,1
642,894,8,0.115445182150508,1
642,895,8,0.114025677256717,1
642,896,8,0.0852340368172806,1
642,899,8,0.068769677610162,1
642,900,8,0.0742925260636691,1
642,901,8,0.0731938634894726,1
642,902,8,0.0743196717258067,1
642,903,8,0.0800109526637154,1
642,904,8,0.082502615375533,1
642,905,8,0.0806953503913192,1
642,906,8,0.0779243964318956,1
642,907,8,0.075401874397189,1
642,908,8,0.0761220790021667,1
642,909,8,0.077276135019313,1
642,910,8,0.0801930058973891,1
642,911,8,0.0824389859914008,1
643,893,8,0.12769865737028,1
643,894,8,0.165835377683611,1
643,895,8,0.161865318606217,1
643,896,8,0.120655795591679,1
643,897,8,0.0903124978436809,1
643,898,8,0.0864093864859933,1
643,899,8,0.0970217530912991,1
643,900,8,0.105985445995802,1
643,901,8,0.100524939124715,1
643,902,8,0.0917135242803453,1
644,892,8,0.100701877090192,1
644,893,8,0.124861240862957,1
644,894,8,0.149358332132184,1
644,895,8,0.146500538408932,1
644,896,8,0.120499690065061,1
644,899,8,0.103198942579425,1
644,900,8,0.110925273670442,1
645,894,8,0.110474411296122,1
645,895,8,0.107727188826855,1
623,899,9,0.0829068413585462,1
623,900,9,0.10420709365747,1
623,901,9,0.122836145716573,1
624,899,9,0.0736250494515858,1
624,900,9,0.0894800388578294,1
624,901,9,0.101832519075278,1
624,902,9,0.10456222744126,1
624,903,9,0.100973693098092,1
624,904,9,0.104526192952421,1
625,900,9,0.0767744194518004,1
625,901,9,0.0816902341168407,1
625,902,9,0.0800880530527346,1
625,903,9,0.0742534906973517,1
625,904,9,0.0730224960151222,1
625,905,9,0.0774040466730967,1
625,906,9,0.084838549916584,1
626,907,9,0.0729450003009263,1
628,910,9,0.0869398290163505,1
629,911,9,0.0735681286159076,1
629,912,9,0.0786470568447895,1
630,913,9,0.0742380790052334,1
631,914,9,0.0792821707003571,1
632,915,9,0.0858669703946007,1
633,916,9,0.0831805321661481,1
633,917,9,0.10764275695274,1
634,916,9,0.0793292263759425,1
634,917,9,0.103794134581916,1
635,889,9,0.0691673807277587,1
635,915,9,0.0698093289170639,1
635,916,9,0.0897269314102672,1
636,889,9,0.0712646526677789,1
636,914,9,0.069552433439699,1
636,915,9,0.0825366492793869,1
636,916,9,0.102083298991954,1
637,889,9,0.0716473334286586,1
637,914,9,0.0835899632639887,1
638,889,9,0.0751690937556064,1
638,913,9,0.0735780416942037,1
638,914,9,0.0933264569913042,1
639,889,9,0.0783626203801102,1
639,913,9,0.0825923062724545,1
639,914,9,0.100827985821579,1
639,915,9,0.118604249597104,1
640,888,9,0.0710050797608077,1
640,889,9,0.0780538474579585,1
640,912,9,0.0774449628288914,1
640,913,9,0.0930095259950502,1
640,914,9,0.108948036829548,1
641,889,9,0.082266887764451,1
641,890,9,0.074884124200916,1
641,903,9,0.0702606884427427,1
641,904,9,0.0728978427991591,1
641,905,9,0.0681242852999986,1
641,909,9,0.0685399457642608,1
641,910,9,0.0725830321833987,1
641,911,9,0.0767598343486881,1
641,912,9,0.0865143812590757,1
641,913,9,0.099323575861416,1
641,914,9,0.114114122280354,1
642,891,9,0.0821398266587749,1
642,892,9,0.0725904175764736,1
642,893,9,0.088518763762108,1
642,894,9,0.114383494459889,1
642,895,9,0.114892948817225,1
642,896,9,0.0858287855763908,1
642,899,9,0.0724733893446017,1
642,900,9,0.079774673993296,1
642,901,9,0.0797173518426657,1
642,902,9,0.0798263417959436,1
642,903,9,0.083575683639422,1
642,904,9,0.0841995726558798,1
642,905,9,0.0801642370061167,1
642,906,9,0.07747219833766,1
642,907,9,0.075714654479087,1
642,908,9,0.076498194969202,1
642,909,9,0.0781817471321914,1
642,910,9,0.0804943335287118,1
642,911,9,0.0820523519787534,1
643,892,9,0.096617838576607,1
643,893,9,0.126673866696159,1
643,894,9,0.16202964210469,1
643,895,9,0.159947596173751,1
643,896,9,0.118868817976763,1
643,897,9,0.0908889538287028,1
643,898,9,0.0872989579803359,1
643,899,9,0.0973649851913585,1
643,900,9,0.107238962233556,1
643,901,9,0.104033174538797,1
644,891,9,0.0943016822739449,1
644,892,9,0.100594851783247,1
644,893,9,0.12270034552858,1
644,894,9,0.14238692837417,1
644,895,9,0.138261075238479,1
644,896,9,0.112264791103468,1
645,894,9,0.105894233695927,1
645,895,9,0.101028811011373,1
622,897,10,0.0684505902947621,1
622,898,10,0.0899711225739972,1
623,898,10,0.0751989707553289,1
623,899,10,0.0985317095834873,1
623,900,10,0.122816870619318,1
624,899,10,0.0840786390904435,1
624,900,10,0.103123028165937,1
624,901,10,0.113635611102763,1
624,902,10,0.113238716604846,1
624,903,10,0.110531457917084,1
625,899,10,0.0742573541024882,1
625,900,10,0.0850071081862692,1
625,901,10,0.0891579866036038,1
625,902,10,0.0869284963612833,1
625,903,10,0.0828447573364686,1
625,904,10,0.0846664277305326,1
625,905,10,0.0931530170546636,1
626,901,10,0.0683924715040029,1
626,902,10,0.0680970138525775,1
626,905,10,0.0689552468419987,1
626,906,10,0.0756812674709769,1
628,909,10,0.0681620927623579,1
629,910,10,0.0683248409498998,1
630,913,10,0.0820739451190901,1
631,914,10,0.0948794021015774,1
632,914,10,0.072175577711442,1
632,915,10,0.102221986251692,1
633,915,10,0.0781443948927629,1
633,916,10,0.095977238086768,1
634,915,10,0.0742387738191805,1
634,916,10,0.0915812640496172,1
634,917,10,0.11389645384212,1
635,914,10,0.0684779396092635,1
635,915,10,0.083050176683999,1
636,914,10,0.0817367986308428,1
637,913,10,0.0729058750879778,1
638,889,10,0.0709089618348762,1
638,913,10,0.0802829663342038,1
639,889,10,0.0742574798877717,1
639,912,10,0.0724187685826792,1
639,913,10,0.0880340531669715,1
639,914,10,0.10646465198734,1
640,888,10,0.071554390083692,1
640,889,10,0.0741146057750252,1
640,911,10,0.0705482934986115,1
640,912,10,0.0832186570866039,1
640,913,10,0.0989425542683235,1
640,914,10,0.118154788830228,1
641,889,10,0.0786298901484774,1
641,890,10,0.0706557979875888,1
641,902,10,0.0686400349112862,1
641,903,10,0.075922535624309,1
641,904,10,0.0781878746724312,1
641,905,10,0.072766469055191,1
641,906,10,0.0687508697153889,1
641,907,10,0.0679651848856787,1
641,908,10,0.0702887325711911,1
641,909,10,0.0728480497962135,1
641,910,10,0.076835587038241,1
641,911,10,0.0810717179289216,1
641,912,10,0.0897121486445665,1
641,913,10,0.104597051995467,1
642,890,10,0.0890949861458891,1
642,891,10,0.0823016164822519,1
642,892,10,0.0742592289021901,1
642,893,10,0.0848388673746805,1
642,894,10,0.103222446458116,1
642,895,10,0.104117810065276,1
642,896,10,0.0826109883819441,1
642,897,10,0.0689422190804918,1
642,898,10,0.068113491724718,1
642,899,10,0.0741225422274374,1
642,900,10,0.0819260036563506,1
642,901,10,0.0851051608096566,1
642,902,10,0.0858512112955089,1
642,903,10,0.0879889082297406,1
642,904,10,0.0875962125643829,1
642,905,10,0.0828711243278034,1
642,906,10,0.0802200257742432,1
642,907,10,0.0781571171757241,1
642,908,10,0.0789058271218564,1
642,909,10,0.0798131223616237,1
642,910,10,0.0814867973849695,1
643,891,10,0.0954856811783431,1
643,892,10,0.0977823886802637,1
643,893,10,0.119586009724712,1
643,894,10,0.143895261637223,1
643,895,10,0.142105756337087,1
643,896,10,0.11173818202937,1
643,897,10,0.0913686569716002,1
643,898,10,0.0886713772496638,1
643,899,10,0.0956797439117048,1
644,892,10,0.101598905854914,1
644,893,10,0.11756095051698,1
644,894,10,0.129192926640681,1
644,895,10,0.123800667270564,1
644,896,10,0.104154766979528,1
624,899,11,0.0976222640143494,1
624,900,11,0.118332481507407,1
624,901,11,0.125124395655621,1
624,902,11,0.122721824863184,1
624,903,11,0.121707061073092,1
625,898,11,0.068445433098138,1
625,899,11,0.0807118222736842,1
625,900,11,0.0928782181386116,1
625,901,11,0.096365004166967,1
625,902,11,0.0947287173217021,1
625,903,11,0.0930969287977668,1
625,904,11,0.0989919219972154,1
626,900,11,0.0713726602978902,1
626,901,11,0.0731985594733904,1
626,902,11,0.0749492390493488,1
626,903,11,0.0730745411736203,1
626,904,11,0.0740435131307377,1
626,905,11,0.0830907214737186,1
627,907,11,0.0728892474714523,1
630,911,11,0.0717064824607876,1
630,912,11,0.0826191344764955,1
631,912,11,0.0695877491554896,1
631,913,11,0.0809647285606292,1
632,913,11,0.0724062619316326,1
632,914,11,0.0903288199816607,1
633,913,11,0.0681614219075125,1
633,914,11,0.0816511148936676,1
633,915,11,0.0954490177630863,1
634,914,11,0.0759285912872439,1
635,914,11,0.0823994834226018,1
636,913,11,0.072512969780481,1
637,913,11,0.0847265530960526,1
638,912,11,0.0727785983503871,1
638,913,11,0.0916554953362171,1
639,888,11,0.06780004677775,1
639,889,11,0.0696761582404742,1
639,911,11,0.0693500808571762,1
639,912,11,0.0814898342011,1
639,913,11,0.0973818404193494,1
640,888,11,0.0716001519677898,1
640,889,11,0.0697353012828278,1
640,910,11,0.0728614908522233,1
640,911,11,0.0804914284876402,1
640,912,11,0.0903455793732452,1
640,913,11,0.106325868891196,1
641,889,11,0.0738345298668411,1
641,901,11,0.070628382785558,1
641,902,11,0.0759192352580606,1
641,903,11,0.0799026155959568,1
641,904,11,0.079879351308282,1
641,905,11,0.0764763322889721,1
641,906,11,0.0740972174570231,1
641,907,11,0.0737809093974113,1
641,908,11,0.0760328073895236,1
641,909,11,0.0784074957774479,1
641,910,11,0.0830282301469134,1
641,911,11,0.0870846737652054,1
641,912,11,0.0938408888520025,1
642,890,11,0.0814571539864878,1
642,891,11,0.0772818013468465,1
642,892,11,0.0736572564739409,1
642,893,11,0.0778285180969803,1
642,894,11,0.0864576401166597,1
642,895,11,0.0867978593596901,1
642,896,11,0.0767911848331603,1
642,897,11,0.0698252856787441,1
642,898,11,0.070401771612643,1
642,899,11,0.0760768921365078,1
642,900,11,0.0837380305120118,1
642,901,11,0.0894534801936815,1
642,902,11,0.0900739190995058,1
642,903,11,0.0901255090350731,1
642,904,11,0.0883329190006026,1
642,905,11,0.0858548351096292,1
642,906,11,0.0838636361022643,1
642,907,11,0.0822769745462338,1
642,908,11,0.08317642318022,1
643,890,11,0.0894177212345109,1
643,892,11,0.096409735809695,1
643,893,11,0.108057345247204,1
643,894,11,0.118747848472674,1
643,895,11,0.115749941923138,1
643,896,11,0.0999957364778664,1
643,897,11,0.0889395394945665,1
625,899,12,0.0867003458160892,1
625,900,12,0.100067715608914,1
625,901,12,0.104564048332983,1
625,902,12,0.103082872711618,1
625,903,12,0.104405367202942,1
626,899,12,0.0700418759574057,1
626,900,12,0.0762862886949075,1
626,901,12,0.079753607953195,1
626,902,12,0.0825832377524906,1
626,903,12,0.081589534012724,1
626,904,12,0.0836107298153194,1
627,902,12,0.0679444722423266,1
627,905,12,0.0695365725144253,1
627,906,12,0.0793174145388429,1
631,911,12,0.0736154598211616,1
632,912,12,0.0776028533085794,1
633,912,12,0.0707128565881013,1
633,913,12,0.0823765964907775,1
633,914,12,0.0982913219271398,1
634,913,12,0.0749312397742554,1
635,913,12,0.0774660588178694,1
636,912,12,0.0707301790185739,1
636,913,12,0.0842619861156048,1
637,912,12,0.0758209969516356,1
638,911,12,0.0714144868995466,1
638,912,12,0.0816575778613301,1
639,888,12,0.0695810885252387,1
639,910,12,0.0711777889448488,1
640,888,12,0.0714699102913733,1
640,908,12,0.0717811330316659,1
640,909,12,0.0760597973175006,1
640,910,12,0.083385574157828,1
640,912,12,0.0968423353588038,1
641,889,12,0.0684241394465716,1
641,901,12,0.0785841102950535,1
641,902,12,0.0844545034869118,1
641,903,12,0.0841124274135057,1
641,904,12,0.0799589015154419,1
641,905,12,0.0786301956270231,1
641,906,12,0.0782571284556692,1
641,907,12,0.0790703482829183,1
641,908,12,0.0818780315451282,1
641,909,12,0.0848154533426205,1
641,910,12,0.0894938572696898,1
641,911,12,0.0928734802262659,1
642,890,12,0.0717282433148356,1
642,891,12,0.068435801539286,1
642,892,12,0.0677519608607949,1
642,894,12,0.068789102451802,1
642,895,12,0.0707688070801637,1
642,896,12,0.0696169553003666,1
642,897,12,0.0689812903854617,1
642,898,12,0.07113215883581,1
642,899,12,0.0770836595764337,1
642,900,12,0.0849244432958983,1
642,901,12,0.0920746598190915,1
642,902,12,0.0930281122681334,1
625,900,13,0.112469174219853,1
625,901,13,0.115001339792963,1
625,902,13,0.111153903397669,1
626,899,13,0.0756945527928262,1
626,900,13,0.0842141457794413,1
626,901,13,0.0892432750156022,1
626,902,13,0.0927582429372402,1
627,900,13,0.0688725160640985,1
627,901,13,0.0725871172102252,1
627,902,13,0.0784181216390172,1
628,906,13,0.0683422711963297,1
632,910,13,0.0680354509409602,1
632,911,13,0.0809644470411851,1
633,911,13,0.0751750715514611,1
633,912,13,0.0864772506413372,1
634,911,13,0.0735821926085597,1
634,912,13,0.081721069480628,1
634,913,13,0.0908360221834447,1
635,910,13,0.0683904649292421,1
635,911,13,0.0764805730499591,1
635,912,13,0.0842763735561287,1
635,913,13,0.0936030408604269,1
636,910,13,0.0703244376223831,1
636,911,13,0.0780594658672888,1
636,912,13,0.0861629731155879,1
636,913,13,0.100235411350941,1
637,910,13,0.0715848301223026,1
637,911,13,0.0782488146474064,1
637,912,13,0.0871904831477429,1
639,888,13,0.0677937335544726,1
640,888,13,0.0695015323283033,1
640,902,13,0.0689940965252786,1
640,903,13,0.0685342854265027,1
640,906,13,0.068784981486323,1
640,907,13,0.0741421886907673,1
640,908,13,0.0825532589265862,1
640,909,13,0.089318716236834,1
641,888,13,0.0756097016344324,1
641,900,13,0.0709034572312786,1
641,901,13,0.0823961351381501,1
641,902,13,0.0886833208618223,1
641,903,13,0.0859613812345416,1
641,904,13,0.0813522430702611,1
641,905,13,0.0815078634250705,1
641,906,13,0.0833225437512363,1
641,907,13,0.0851393624272218,1
641,908,13,0.0907479545156581,1
641,909,13,0.0949248944457819,1
641,910,13,0.0981044349447139,1
642,889,13,0.075379538524702,1
642,897,13,0.0684760288709091,1
642,898,13,0.0719649592388596,1
642,900,13,0.0840992798564907,1
643,889,13,0.0847239116050988,1
625,901,14,0.121499503375742,1
626,900,14,0.0918540983193361,1
626,901,14,0.0984121776254959,1
627,899,14,0.0717504474122637,1
627,900,14,0.0784066572088912,1
627,901,14,0.0846862119586968,1
628,901,14,0.0690181334939807,1
628,902,14,0.0763758717758716,1
631,909,14,0.0710587421586652,1
632,910,14,0.0816845977381841,1
632,911,14,0.0958993769962724,1
633,910,14,0.0788221140207896,1
633,911,14,0.0897138078123538,1
633,912,14,0.100486454817734,1
634,912,14,0.0961112593114653,1
634,913,14,0.101545728628865,1
635,909,14,0.0679504500381812,1
635,910,14,0.0813923206574991,1
635,911,14,0.0915365563659908,1
635,912,14,0.0989583193571907,1
635,913,14,0.104282792439044,1
636,909,14,0.0681475795365505,1
636,910,14,0.081241372327506,1
636,911,14,0.0915498117389631,1
636,912,14,0.100568999912597,1
637,909,14,0.0723798530118699,1
640,902,14,0.0720345843881727,1
640,903,14,0.0695553384807706,1
640,904,14,0.0685119735131173,1
640,905,14,0.0708185761240077,1
640,906,14,0.0748534026428614,1
640,907,14,0.0825018486842811,1
640,908,14,0.0938830149424291,1
641,900,14,0.0712312117516902,1
641,901,14,0.0822393827157891,1
641,902,14,0.0865262949223572,1
641,903,14,0.0823962309745566,1
641,904,14,0.0804367897563915,1
641,905,14,0.0823385973556052,1
641,906,14,0.0861169896098002,1
641,907,14,0.0895036924809056,1
642,888,14,0.0810716280822905,1
642,889,14,0.0707440992566162,1
643,888,14,0.0871780064455734,1
643,889,14,0.0772751706654727,1
627,900,15,0.0868370384806173,1
628,899,15,0.0702123389756698,1
628,900,15,0.0740799010163259,1
628,901,15,0.0793617568461695,1
629,902,15,0.0685828804743672,1
629,903,15,0.0694010957743045,1
629,905,15,0.0685510088794347,1
629,906,15,0.0733186365009438,1
630,907,15,0.0677460789013468,1
631,909,15,0.0804126449717321,1
632,909,15,0.0749235489026348,1
632,910,15,0.0910675749210691,1
632,911,15,0.104815091799777,1
633,909,15,0.07632303596702,1
633,912,15,0.10887597983142,1
635,909,15,0.07973624958407,1
635,912,15,0.108710194827747,1
636,909,15,0.0785283694451302,1
636,910,15,0.0911301261456284,1
636,912,15,0.109718789149172,1
637,908,15,0.0720363154332649,1
639,906,15,0.0677509905171793,1
639,907,15,0.0801672378835948,1
640,901,15,0.0708387976057766,1
640,902,15,0.0748303899257536,1
640,903,15,0.0734877278606401,1
640,904,15,0.074360743615762,1
640,905,15,0.0760642656899531,1
640,906,15,0.0817373496901801,1
640,907,15,0.0942298648668334,1
641,900,15,0.0721091391226445,1
641,901,15,0.0823580701154484,1
641,902,15,0.0854558741391974,1
641,903,15,0.0826097964166384,1
642,888,15,0.0757782718836684,1
642,889,15,0.0685504997485253,1
628,900,16,0.0843284187146268,1
628,901,16,0.0905988031182867,1
629,901,16,0.0722233222111989,1
629,902,16,0.0795507222806611,1
630,905,16,0.0707404454936188,1
630,906,16,0.0752943878775379,1
630,907,16,0.0835768995638293,1
631,907,16,0.0719379932699842,1
631,908,16,0.0798180878854349,1
631,909,16,0.0896538262014435,1
632,908,16,0.0717017445484419,1
632,909,16,0.0854412471076573,1
634,908,16,0.0742091603695759,1
635,908,16,0.0754151716985891,1
635,909,16,0.0919173024294146,1
636,908,16,0.077364741766886,1
636,909,16,0.0897712856971447,1
637,907,16,0.0695069530750453,1
637,908,16,0.0854296868411247,1
639,904,16,0.0683973352016321,1
639,905,16,0.0724648539146489,1
640,901,16,0.0708806242074329,1
640,902,16,0.0746057853275995,1
640,903,16,0.0762926198875111,1
640,906,16,0.090351425394041,1
630,907,17,0.0994140873575679,1
631,908,17,0.0932932317071301,1
631,909,17,0.0984882357935944,1
