x,y,z,signal,cytoplasm.p
574,665,1,0.0716816308826303,1
575,672,1,0.0728881273834514,1
575,673,1,0.0766841355671139,1
576,672,1,0.0737605800996852,1
576,673,1,0.0828612711472615,1
576,674,1,0.0710280385699368,1
577,673,1,0.0714995896285074,1
599,686,1,0.0677775372017763,1
627,683,1,0.0683657810647961,1
627,684,1,0.0777336460443332,1
627,685,1,0.0756005911860407,1
627,686,1,0.0742949459329329,1
627,687,1,0.0785658474698422,1
627,688,1,0.0800511919748893,1
627,689,1,0.079545031994026,1
627,690,1,0.0824278809477991,1
627,691,1,0.079940998076755,1
627,692,1,0.0724196969978671,1
628,683,1,0.0886205719746747,1
628,684,1,0.101299752512064,1
628,685,1,0.0916172865589057,1
628,686,1,0.0832778779960377,1
628,687,1,0.0849508102872332,1
628,688,1,0.0853910527897595,1
628,689,1,0.0842374939239718,1
628,690,1,0.0853629248044554,1
628,691,1,0.0816769128563389,1
628,692,1,0.0742993484178559,1
628,693,1,0.0692937050910599,1
628,694,1,0.0737874622117049,1
628,695,1,0.0789759494225282,1
628,696,1,0.0747400641126392,1
629,682,1,0.068500934357045,1
629,683,1,0.0932010251045384,1
629,684,1,0.106414829035518,1
629,685,1,0.0965279260579956,1
629,686,1,0.084469441986773,1
629,687,1,0.0811000256074878,1
629,688,1,0.0797094393493551,1
629,689,1,0.0781294264440246,1
629,690,1,0.0768329395575118,1
629,691,1,0.0726402644873979,1
629,692,1,0.0695178424867324,1
629,693,1,0.0704823820100498,1
629,694,1,0.0823387231408887,1
629,695,1,0.0914181744448772,1
629,696,1,0.083494522182678,1
629,697,1,0.0698407991970443,1
630,683,1,0.0755058928368803,1
630,684,1,0.0855374848290969,1
630,685,1,0.0847181614207096,1
630,686,1,0.0782210340690758,1
630,687,1,0.0729863836592027,1
630,688,1,0.0698202722367297,1
630,689,1,0.068872198606002,1
630,690,1,0.0684189822499475,1
630,693,1,0.0736347708570688,1
630,694,1,0.0861460400205167,1
630,695,1,0.0932730940822169,1
630,696,1,0.0835305446919665,1
630,697,1,0.0702617486329895,1
631,685,1,0.0700547839234045,1
631,686,1,0.0688751695346031,1
631,694,1,0.0824619088618775,1
631,695,1,0.0846207197544135,1
631,696,1,0.0776132455689079,1
632,695,1,0.0788058637601146,1
576,673,2,0.0716103585450807,1
627,688,2,0.0715549351532539,1
627,689,2,0.0721294564408199,1
627,690,2,0.0724304426549445,1
627,691,2,0.0683745920244176,1
628,683,2,0.0718785088104325,1
628,684,2,0.0824195371906593,1
628,685,2,0.0757581043098782,1
628,686,2,0.068848976246755,1
628,687,2,0.0714788530260537,1
628,688,2,0.0758357497684592,1
628,689,2,0.0776079685767757,1
628,690,2,0.0765740255258352,1
628,691,2,0.0705942949737255,1
628,694,2,0.0692253318048065,1
628,695,2,0.079842376424704,1
628,696,2,0.0731899341968066,1
629,683,2,0.0766800864789398,1
629,684,2,0.0877752409614768,1
629,685,2,0.0814727992798469,1
629,686,2,0.0715018897022631,1
629,687,2,0.0697228605193106,1
629,688,2,0.0705852564026386,1
629,689,2,0.0719430666097526,1
629,690,2,0.0696990092336461,1
629,694,2,0.088263168066006,1
629,695,2,0.109994211001866,1
629,696,2,0.0926839817017632,1
630,684,2,0.0702528058983091,1
630,685,2,0.0720108169593638,1
630,686,2,0.0680258433412098,1
630,693,2,0.0679694915341952,1
630,694,2,0.0956145032779884,1
630,695,2,0.116899463680302,1
630,696,2,0.0953124389042909,1
630,697,2,0.068160439584346,1
631,694,2,0.0831758541515565,1
631,695,2,0.092564186193654,1
631,696,2,0.0791329474256808,1
632,695,2,0.0744081886267486,1
581,663,3,0.0722630404119125,1
627,689,3,0.072105335615262,1
628,688,3,0.0713043409196155,1
628,689,3,0.0771516375375104,1
628,690,3,0.0716582647687736,1
628,695,3,0.0786408274783678,1
628,696,3,0.0711989987395596,1
629,684,3,0.070755737390229,1
629,685,3,0.0703525416485855,1
629,689,3,0.0686366387086313,1
629,694,3,0.0949316748715409,1
629,695,3,0.128989681581623,1
629,696,3,0.100843882685505,1
630,694,3,0.108412898315273,1
630,695,3,0.145261193979787,1
630,696,3,0.109467637866421,1
630,697,3,0.0680707067589967,1
631,694,3,0.0834906887264185,1
631,695,3,0.100887260638991,1
631,696,3,0.0804200183852562,1
632,695,3,0.068789797265749,1
581,663,4,0.0724581094275423,1
582,663,4,0.0678039521113144,1
627,689,4,0.0704163207771029,1
628,689,4,0.0726456253363858,1
628,695,4,0.073007970809764,1
629,694,4,0.0933377537077189,1
629,695,4,0.13283051724442,1
629,696,4,0.0974790065559769,1
630,694,4,0.114052379675475,1
630,695,4,0.159341874146098,1
630,696,4,0.113027816612819,1
631,694,4,0.0792493706902368,1
631,695,4,0.101770932204559,1
631,696,4,0.0763434970398051,1
627,689,5,0.0681030455564108,1
629,694,5,0.0823051624292919,1
629,695,5,0.116544785119443,1
629,696,5,0.0857159022690994,1
630,694,5,0.103368273530138,1
630,695,5,0.144120477192469,1
630,696,5,0.103123699020782,1
631,694,5,0.0705983320823488,1
631,695,5,0.092129592049335,1
629,695,6,0.084627847587146,1
630,694,6,0.0763660904726345,1
630,695,6,0.103994360794169,1
630,696,6,0.0801215898052298,1
631,695,6,0.0721685097764635,1
630,695,7,0.0681352885174185,1
596,696,30,0.0742110171999515,1
597,696,30,0.0767078790368211,1
596,695,31,0.117281419678358,1
596,696,31,0.15302203815669,1
597,695,31,0.116807664382438,1
597,696,31,0.150542247179726,1
598,696,31,0.0745324345379842,1
595,695,32,0.0722864544439725,1
595,696,32,0.102852326256262,1
596,695,32,0.167931200097983,1
596,696,32,0.230402580951096,1
596,697,32,0.119309749303461,1
597,695,32,0.162219661739653,1
597,696,32,0.22038961716039,1
597,697,32,0.112538368105337,1
598,695,32,0.0700411751536833,1
598,696,32,0.0945292757700264,1
595,695,33,0.0800151994144779,1
596,695,33,0.188412925628649,1
596,696,33,0.262190055477779,1
597,695,33,0.183627622179918,1
597,696,33,0.25371782963507,1
597,697,33,0.130842103482618,1
598,695,33,0.0802427629616823,1
598,696,33,0.110614404326899,1
595,695,34,0.0739947922975897,1
596,695,34,0.161610429703613,1
596,696,34,0.226060832350691,1
597,695,34,0.165480351715778,1
597,696,34,0.231810345885091,1
597,697,34,0.134644772296532,1
598,695,34,0.080057229668498,1
598,696,34,0.112380238034633,1
596,695,35,0.102954727456594,1
597,695,35,0.111800775182358,1
597,696,35,0.163840590800778,1
598,696,35,0.0965019963202653,1
579,675,36,0.0682056204602294,1
579,675,37,0.0704498814886997,1
615,681,45,0.0823578904221862,1
