x,y,z,signal,cytoplasm.p
479,311,1,0.0704437419689091,1
479,312,1,0.0703318649438859,1
479,313,1,0.07121215228635,1
479,314,1,0.0733873991225985,1
479,315,1,0.0755817593321659,1
479,316,1,0.0775814159024033,1
479,317,1,0.0800486642896682,1
480,309,1,0.0775896458538104,1
480,310,1,0.0790573923987163,1
480,311,1,0.0774335702760702,1
480,312,1,0.077436906580971,1
480,313,1,0.0790888207502687,1
480,314,1,0.0815917981478273,1
480,315,1,0.086327098951473,1
480,316,1,0.0910017113507106,1
480,317,1,0.0926600345796922,1
480,318,1,0.0910140263289443,1
481,308,1,0.0808702338638326,1
481,309,1,0.0863167306502462,1
481,310,1,0.0867853467188681,1
481,311,1,0.0856674509758446,1
481,312,1,0.0874773993794401,1
481,313,1,0.0897300221343764,1
481,314,1,0.0930145394370646,1
481,315,1,0.102658784633361,1
481,316,1,0.110730306480994,1
481,317,1,0.110831473787593,1
481,318,1,0.104395723664539,1
481,319,1,0.0981022127380385,1
482,307,1,0.0761278172070051,1
482,308,1,0.085432615841298,1
482,309,1,0.090240099428355,1
482,310,1,0.090961549906617,1
482,311,1,0.0920786669788378,1
482,312,1,0.0944465090534737,1
482,313,1,0.0955188705238648,1
482,314,1,0.100168942813266,1
482,315,1,0.11444245780898,1
482,316,1,0.124740762520451,1
482,317,1,0.124402639698813,1
482,318,1,0.11553355529684,1
482,319,1,0.105968111585778,1
482,320,1,0.0977677676384989,1
483,307,1,0.082951525083071,1
483,308,1,0.0910694557105464,1
483,309,1,0.0949338491600131,1
483,310,1,0.095412156685241,1
483,311,1,0.0970844301011419,1
483,312,1,0.0975647981091094,1
483,313,1,0.0973613434079119,1
483,314,1,0.102818855391296,1
483,315,1,0.117312782142381,1
483,316,1,0.12755344125535,1
483,317,1,0.128663514351694,1
483,318,1,0.120475814820295,1
483,319,1,0.109600239514347,1
483,320,1,0.098869658701639,1
484,306,1,0.0799865323493873,1
484,307,1,0.0921826075514488,1
484,308,1,0.0996057302216658,1
484,309,1,0.104340354180691,1
484,310,1,0.104493560656012,1
484,311,1,0.103005712424845,1
484,312,1,0.100828177494392,1
484,313,1,0.100162246244363,1
484,314,1,0.104022896084201,1
484,315,1,0.113889972905131,1
484,316,1,0.120987149967109,1
484,317,1,0.123322371724887,1
484,318,1,0.117024901556843,1
484,319,1,0.106532707815497,1
484,320,1,0.096108551932982,1
485,305,1,0.074423498492685,1
485,306,1,0.094618349720081,1
485,307,1,0.109065580182105,1
485,308,1,0.117499016239287,1
485,309,1,0.123064835341553,1
485,310,1,0.119988103347681,1
485,311,1,0.112562710552585,1
485,312,1,0.106181563222127,1
485,313,1,0.104821440961707,1
485,314,1,0.105697253941943,1
485,315,1,0.110944632624553,1
485,316,1,0.11417374450474,1
485,317,1,0.116927603645157,1
485,318,1,0.111972310370419,1
485,319,1,0.102356852034722,1
486,305,1,0.0824375184964265,1
486,306,1,0.108042814052071,1
486,307,1,0.130254135149267,1
486,308,1,0.140964344735821,1
486,309,1,0.14237274458601,1
486,310,1,0.13445920905447,1
486,311,1,0.122124332786938,1
486,312,1,0.111559710681389,1
486,313,1,0.108587895593519,1
486,314,1,0.107227330089718,1
486,315,1,0.108348927513942,1
486,316,1,0.106612803092219,1
486,317,1,0.106978239289707,1
486,318,1,0.103038129089339,1
486,319,1,0.0968582202431791,1
487,305,1,0.0879226373546545,1
487,306,1,0.117959378397401,1
487,307,1,0.148757449843058,1
487,308,1,0.161692489626667,1
487,309,1,0.15894674064215,1
487,310,1,0.146233106916628,1
487,311,1,0.131787266082499,1
487,312,1,0.117755019240117,1
487,313,1,0.112719834341021,1
487,314,1,0.109420917618258,1
487,315,1,0.10746090737143,1
487,316,1,0.102225160832657,1
487,317,1,0.101410383663803,1
487,318,1,0.098765304834525,1
487,319,1,0.0958412701850639,1
488,305,1,0.088924331454812,1
488,306,1,0.118340136440375,1
488,307,1,0.1489944293172,1
488,308,1,0.162794428608011,1
488,309,1,0.160996357929044,1
488,310,1,0.149709907989383,1
488,311,1,0.136727345327707,1
488,312,1,0.121667911901042,1
488,313,1,0.113057729551194,1
488,314,1,0.106691269150031,1
488,315,1,0.102204160680086,1
488,316,1,0.0976786038418132,1
488,317,1,0.0989601342591386,1
488,318,1,0.0991178270762382,1
489,306,1,0.114349436596934,1
489,307,1,0.143203155068673,1
489,308,1,0.156787857872309,1
489,309,1,0.159349648874574,1
489,310,1,0.153160174357091,1
489,311,1,0.143416103563888,1
489,312,1,0.127699220409168,1
489,313,1,0.114525931319031,1
489,314,1,0.103584492442724,1
490,307,1,0.132918938308955,1
490,308,1,0.146718781865605,1
490,309,1,0.155910140143494,1
490,310,1,0.156686103567721,1
490,311,1,0.149338386180084,1
490,312,1,0.132948240290239,1
490,313,1,0.116877960386596,1
490,314,1,0.103578430790014,1
491,307,1,0.126128557543245,1
491,308,1,0.141218395069869,1
491,309,1,0.154300771348901,1
491,310,1,0.15659153699362,1
491,311,1,0.149201579709823,1
491,312,1,0.135464820467743,1
491,313,1,0.121715578533718,1
491,314,1,0.107552730628395,1
491,315,1,0.0981969410360759,1
492,307,1,0.119543781808103,1
492,308,1,0.137352833614198,1
492,309,1,0.149878747778512,1
492,310,1,0.149667668093224,1
492,311,1,0.145287584930223,1
492,312,1,0.139468230614595,1
492,313,1,0.130434008104693,1
492,314,1,0.113999202449425,1
492,315,1,0.0994803522428786,1
493,307,1,0.11366747670792,1
493,308,1,0.135168913583162,1
493,309,1,0.14762898813622,1
493,310,1,0.1477476216279,1
493,311,1,0.147725687070365,1
493,312,1,0.14646283876253,1
493,313,1,0.138539144571903,1
493,314,1,0.119001767031663,1
493,315,1,0.100457110908023,1
493,316,1,0.0894946539098187,1
493,318,1,0.0897823428225432,1
493,319,1,0.0935882521049508,1
493,320,1,0.0938980013604936,1
494,307,1,0.110090826079156,1
494,308,1,0.132647505646681,1
494,309,1,0.147754893215242,1
494,310,1,0.151757548650393,1
494,311,1,0.154562464636366,1
494,312,1,0.153079468123278,1
494,313,1,0.145114576257412,1
494,314,1,0.125333031512544,1
494,315,1,0.105748777989981,1
494,316,1,0.0950323869552084,1
494,317,1,0.0939568688731785,1
494,318,1,0.0982717413513393,1
494,319,1,0.102236193998954,1
494,320,1,0.102865875128229,1
494,321,1,0.0975620667715245,1
495,307,1,0.109337587862817,1
495,308,1,0.128847472333946,1
495,309,1,0.146691384632901,1
495,310,1,0.156617472721125,1
495,311,1,0.162706307032246,1
495,312,1,0.162352694651409,1
495,313,1,0.156115254012479,1
495,314,1,0.137224185218039,1
495,315,1,0.11682513056752,1
495,316,1,0.105560591226292,1
495,317,1,0.106277866831096,1
495,318,1,0.11334381320411,1
495,319,1,0.119287766827723,1
495,320,1,0.118630233242813,1
495,321,1,0.108815255488359,1
495,322,1,0.0939414871299373,1
496,306,1,0.099748718140145,1
496,307,1,0.1134064542753,1
496,308,1,0.130371498808562,1
496,309,1,0.151288309645129,1
496,310,1,0.165206187715919,1
496,311,1,0.17312579687972,1
496,312,1,0.174793913391489,1
496,313,1,0.17057633283524,1
496,314,1,0.152912796632845,1
496,315,1,0.133054834333354,1
496,316,1,0.121706186565883,1
496,317,1,0.122942607984629,1
496,318,1,0.130958484818747,1
496,319,1,0.137509226650035,1
496,320,1,0.135132555646451,1
496,321,1,0.119475414511625,1
496,322,1,0.0969130925756686,1
496,323,1,0.0802469318453645,1
497,306,1,0.105939672132153,1
497,307,1,0.119670549414785,1
497,308,1,0.138168724881278,1
497,309,1,0.161490394604487,1
497,310,1,0.176926453129097,1
497,311,1,0.18680081351692,1
497,312,1,0.190897676139648,1
497,313,1,0.186598802351595,1
497,314,1,0.169041117460167,1
497,315,1,0.149711465330988,1
497,316,1,0.135844787860364,1
497,317,1,0.13188330614135,1
497,318,1,0.133281858800772,1
497,319,1,0.135763722240027,1
497,320,1,0.133802621854074,1
497,321,1,0.119248929123994,1
497,322,1,0.0924066191618378,1
498,307,1,0.123346965742701,1
498,308,1,0.146964494432288,1
498,309,1,0.171150129359981,1
498,310,1,0.188490421342844,1
498,311,1,0.205797062767479,1
498,312,1,0.214486621621,1
498,313,1,0.208647572923838,1
498,314,1,0.189677139605277,1
498,315,1,0.168215954020759,1
498,316,1,0.145590212342809,1
498,317,1,0.131531430795381,1
498,318,1,0.124981180125676,1
498,319,1,0.121402397136868,1
498,320,1,0.117596469885134,1
498,321,1,0.105803812046406,1
498,322,1,0.0818879566029751,1
499,307,1,0.125513958668441,1
499,308,1,0.154926307553596,1
499,309,1,0.180409160120401,1
499,310,1,0.19995080238073,1
499,311,1,0.220759473812127,1
499,312,1,0.228411196260693,1
499,313,1,0.21980240353874,1
499,314,1,0.201887081137402,1
499,315,1,0.178895615752745,1
499,316,1,0.146207542555198,1
499,317,1,0.121771067813075,1
499,318,1,0.11037052463149,1
499,319,1,0.103658801596405,1
499,320,1,0.0961139906490501,1
499,321,1,0.0849384833294488,1
500,307,1,0.127089952434475,1
500,308,1,0.160332666855017,1
500,309,1,0.186563223085687,1
500,310,1,0.203717268992092,1
500,311,1,0.216647804464596,1
500,312,1,0.215956153118977,1
500,313,1,0.204665378561473,1
500,314,1,0.187752253401426,1
500,315,1,0.165375027505049,1
500,316,1,0.132854883650769,1
500,317,1,0.107811956128393,1
500,318,1,0.0954594160131902,1
500,319,1,0.088195938826855,1
500,320,1,0.0796020187172335,1
501,306,1,0.090808313482419,1
501,307,1,0.124308815856862,1
501,308,1,0.156500300734644,1
501,309,1,0.179059484028288,1
501,310,1,0.190323556167034,1
501,311,1,0.193462006806685,1
501,312,1,0.185184580439713,1
501,313,1,0.168844413235851,1
501,314,1,0.147806105794959,1
501,315,1,0.127029060377703,1
501,316,1,0.10567564283228,1
501,317,1,0.0908186937631967,1
501,318,1,0.0810917417481021,1
501,319,1,0.0739900184465915,1
502,307,1,0.116021027178438,1
502,308,1,0.143182298670711,1
502,309,1,0.159998784794366,1
502,310,1,0.165826956059391,1
502,311,1,0.165321670585737,1
502,312,1,0.155718299616808,1
502,313,1,0.136506825756379,1
502,314,1,0.112968038654273,1
502,315,1,0.0949639238223239,1
502,316,1,0.0838728304075117,1
502,317,1,0.0772353566283526,1
502,318,1,0.0701037862759966,1
503,308,1,0.121675926220534,1
503,309,1,0.132752614225496,1
503,310,1,0.134823231664962,1
503,311,1,0.132348879404066,1
503,312,1,0.124392121653201,1
503,313,1,0.108628578148073,1
503,314,1,0.0909951525466417,1
503,315,1,0.0780251504439909,1
503,316,1,0.0708588393942832,1
504,309,1,0.106293907449632,1
504,310,1,0.105665759702861,1
504,311,1,0.100645800812846,1
504,312,1,0.0932723154114142,1
504,313,1,0.083581134335041,1
504,314,1,0.0743876856255357,1
505,309,1,0.0890462892718426,1
505,310,1,0.0872390901751583,1
505,311,1,0.0813214975531049,1
505,312,1,0.0742459675394424,1
505,313,1,0.067837333129649,1
506,308,1,0.0768726098400222,1
506,309,1,0.0762344711478748,1
506,310,1,0.0737732784235448,1
506,311,1,0.0684851153601992,1
531,335,1,0.0829237564842913,1
531,336,1,0.0813371967544426,1
532,335,1,0.080280827984384,1
532,336,1,0.0789479891509354,1
479,311,2,0.0697945401615878,1
479,312,2,0.0696217710797926,1
479,313,2,0.0681554501014333,1
479,314,2,0.0706575709611088,1
479,315,2,0.0734228765623251,1
479,316,2,0.0752654033543509,1
479,317,2,0.076265378388967,1
480,308,2,0.074260187266255,1
480,309,2,0.0763174894349945,1
480,310,2,0.0786458409203822,1
480,311,2,0.0776399419978901,1
480,312,2,0.0771620238080634,1
480,313,2,0.075983176110514,1
480,314,2,0.0787069006908655,1
480,315,2,0.0834572298410036,1
480,316,2,0.0884349548246347,1
480,317,2,0.0883243895604252,1
480,318,2,0.0884754277370494,1
480,319,2,0.0879379951387941,1
481,307,2,0.0726480152567726,1
481,308,2,0.082994292079466,1
481,309,2,0.0889138193989754,1
481,310,2,0.0882199338671293,1
481,311,2,0.0845435235289878,1
481,312,2,0.0855285361046411,1
481,313,2,0.0853839129774761,1
481,314,2,0.0882805683635589,1
481,315,2,0.0997897660709987,1
481,316,2,0.109926945824063,1
481,317,2,0.107355894629021,1
481,318,2,0.102426956366067,1
481,319,2,0.0980612666333667,1
481,320,2,0.0918124454211665,1
482,307,2,0.0751325321665315,1
482,308,2,0.0855153526089737,1
482,309,2,0.0912548033206931,1
482,310,2,0.0913546588664776,1
482,311,2,0.0903697660863325,1
482,312,2,0.0924061459695808,1
482,313,2,0.0911651244033225,1
482,314,2,0.0954343308337921,1
482,315,2,0.114555113504806,1
482,316,2,0.129092430188928,1
482,317,2,0.126023796371404,1
482,318,2,0.116826388420355,1
482,319,2,0.108170959307095,1
482,320,2,0.0963354566048918,1
482,321,2,0.091819734977835,1
483,307,2,0.0790270661658384,1
483,308,2,0.0865691877040357,1
483,309,2,0.0910090248664807,1
483,310,2,0.0925154833298321,1
483,311,2,0.0938927063990352,1
483,312,2,0.0938978336467823,1
483,313,2,0.0919610816978531,1
483,314,2,0.0972344859545996,1
483,315,2,0.115752409710605,1
483,316,2,0.129561729091946,1
483,317,2,0.130867572007642,1
483,318,2,0.122295197120154,1
483,319,2,0.111313003811989,1
483,320,2,0.0971126179842,1
483,321,2,0.0908635751503098,1
484,306,2,0.0765098151334886,1
484,307,2,0.0886554085084328,1
484,308,2,0.0939165636744752,1
484,309,2,0.0979579909258257,1
484,310,2,0.100450683879013,1
484,311,2,0.0988716832457261,1
484,312,2,0.0967212879876348,1
484,313,2,0.0958619708488652,1
484,314,2,0.100798156740059,1
484,315,2,0.111765399568813,1
484,316,2,0.118843421329044,1
484,317,2,0.122135102403117,1
484,318,2,0.115957140233964,1
484,319,2,0.105914982277932,1
484,320,2,0.0940546339873465,1
484,321,2,0.0875030056692985,1
485,305,2,0.0690025241392741,1
485,306,2,0.0933393889164046,1
485,307,2,0.108711548516989,1
485,308,2,0.114790236148572,1
485,309,2,0.119069930675777,1
485,310,2,0.117769167089625,1
485,311,2,0.108619425771253,1
485,312,2,0.102700641183894,1
485,313,2,0.102261602626224,1
485,314,2,0.104923135368541,1
485,315,2,0.110387343920828,1
485,316,2,0.111132100615193,1
485,317,2,0.113398499853562,1
485,318,2,0.108064401202632,1
485,319,2,0.100210350130644,1
485,320,2,0.0906818094258556,1
486,305,2,0.0766605658008934,1
486,306,2,0.104407715194901,1
486,307,2,0.128723747533171,1
486,308,2,0.139219798689878,1
486,309,2,0.140747574763897,1
486,310,2,0.134203529501513,1
486,311,2,0.119015555494646,1
486,312,2,0.109376701096215,1
486,313,2,0.107553545237851,1
486,314,2,0.10777187255138,1
486,315,2,0.109416257572993,1
486,316,2,0.10573030552263,1
486,317,2,0.104325667251397,1
486,318,2,0.0987101689519177,1
486,319,2,0.094003379479202,1
487,305,2,0.0839704577568454,1
487,306,2,0.114771643885714,1
487,307,2,0.147891124667064,1
487,308,2,0.160698642132291,1
487,309,2,0.157726168169126,1
487,310,2,0.144031205579826,1
487,311,2,0.127583126582259,1
487,312,2,0.116374387988708,1
487,313,2,0.113322896908394,1
487,314,2,0.110527959888247,1
487,315,2,0.108957249104121,1
487,316,2,0.102908402533608,1
487,317,2,0.100406671009334,1
487,318,2,0.0950357472192108,1
487,319,2,0.0925467679267749,1
488,305,2,0.0837487462202121,1
488,306,2,0.114772734024838,1
488,307,2,0.150428621140285,1
488,308,2,0.165573636477943,1
488,309,2,0.163753379670875,1
488,310,2,0.148521931874115,1
488,311,2,0.133760346019262,1
488,312,2,0.121655968288883,1
488,313,2,0.114940926918223,1
488,314,2,0.108523110182733,1
488,315,2,0.104104141397801,1
488,316,2,0.0984125310222448,1
488,317,2,0.0970743792580115,1
488,318,2,0.0944567036512138,1
488,319,2,0.0937743484370232,1
489,305,2,0.0775601581894893,1
489,306,2,0.109432286211978,1
489,307,2,0.146194952047296,1
489,308,2,0.161721611914689,1
489,309,2,0.16319623472176,1
489,310,2,0.151836146483264,1
489,311,2,0.141378310093644,1
489,312,2,0.129297160712287,1
489,313,2,0.11789081942811,1
489,314,2,0.106310894452682,1
489,315,2,0.0993250792950427,1
489,316,2,0.0939219484825647,1
489,317,2,0.0937700058498542,1
489,318,2,0.0941262058136664,1
490,306,2,0.0989995110426541,1
490,307,2,0.131760611581945,1
490,308,2,0.147675109406842,1
490,309,2,0.15706707724261,1
490,310,2,0.155036962664436,1
490,311,2,0.148878203715232,1
490,312,2,0.136573132570118,1
490,313,2,0.121683940540027,1
490,314,2,0.106716090779311,1
490,315,2,0.0973222661131667,1
491,307,2,0.120032236012868,1
491,308,2,0.136587520010642,1
491,309,2,0.150828510525904,1
491,310,2,0.15271004273537,1
491,311,2,0.146831545377388,1
491,312,2,0.138227077273278,1
491,313,2,0.127301199833475,1
491,314,2,0.111683543298122,1
491,315,2,0.0990348567073217,1
491,316,2,0.0896816726673035,1
492,306,2,0.089368485280678,1
492,307,2,0.110425906094889,1
492,308,2,0.12886524998735,1
492,309,2,0.144507512520068,1
492,310,2,0.144938824267465,1
492,311,2,0.141856078539085,1
492,312,2,0.140665071597463,1
492,313,2,0.136495541019515,1
492,314,2,0.120075386354889,1
492,315,2,0.102630824361768,1
492,316,2,0.0899699425882423,1
493,307,2,0.102796202060713,1
493,308,2,0.124797665386803,1
493,309,2,0.141378369991398,1
493,310,2,0.144323650374222,1
493,311,2,0.146392135453644,1
493,312,2,0.148486999503951,1
493,313,2,0.144631393055004,1
493,314,2,0.125709536814981,1
493,315,2,0.10586295508876,1
493,316,2,0.0922879437417293,1
493,317,2,0.086658345510946,1
493,318,2,0.0877904909296591,1
493,319,2,0.0908455219672377,1
493,320,2,0.090525566134404,1
493,321,2,0.0852915506407239,1
494,307,2,0.0995736669539203,1
494,308,2,0.122345020071977,1
494,309,2,0.141431499299244,1
494,310,2,0.149855866836463,1
494,311,2,0.156239577790795,1
494,312,2,0.156541630184941,1
494,313,2,0.149832147325858,1
494,314,2,0.130471132732656,1
494,315,2,0.111092508199763,1
494,316,2,0.0986019217307902,1
494,317,2,0.0945373979054762,1
494,318,2,0.0970481440417356,1
494,319,2,0.0995387166144294,1
494,320,2,0.0987492702057646,1
494,321,2,0.0934148780558397,1
494,322,2,0.0823543145262691,1
495,307,2,0.100692461163255,1
495,308,2,0.12017703284352,1
495,309,2,0.140526899458409,1
495,310,2,0.156242716433107,1
495,311,2,0.167476061024024,1
495,312,2,0.168958051254844,1
495,313,2,0.161543751523799,1
495,314,2,0.140989106467347,1
495,315,2,0.119700198803042,1
495,316,2,0.106725650460858,1
495,317,2,0.10456297017341,1
495,318,2,0.108349586389237,1
495,319,2,0.111738038274761,1
495,320,2,0.111172627435586,1
495,321,2,0.104620100651228,1
495,322,2,0.0898994848601478,1
495,323,2,0.0785733286993236,1
496,306,2,0.0911504434638037,1
496,307,2,0.107635748915515,1
496,308,2,0.124892172063151,1
496,309,2,0.147581968399287,1
496,310,2,0.166701307534428,1
496,311,2,0.179470214907391,1
496,312,2,0.182920984416234,1
496,313,2,0.176540064697241,1
496,314,2,0.155642756569394,1
496,315,2,0.133577202646465,1
496,316,2,0.12112632838843,1
496,317,2,0.120108222303662,1
496,318,2,0.124044463109117,1
496,319,2,0.127422289133072,1
496,320,2,0.126147185744756,1
496,321,2,0.11565616599939,1
496,322,2,0.0938757553346377,1
496,323,2,0.0764152305900609,1
497,306,2,0.0996912702042312,1
497,307,2,0.116567725959246,1
497,308,2,0.13516726040515,1
497,309,2,0.160927619266491,1
497,310,2,0.179659383994247,1
497,311,2,0.192246908988382,1
497,312,2,0.197373629635224,1
497,313,2,0.191725930303165,1
497,314,2,0.170226350258298,1
497,315,2,0.147966871366842,1
497,316,2,0.133129862260083,1
497,317,2,0.128639028149836,1
497,318,2,0.12750351048757,1
497,319,2,0.128216653147344,1
497,320,2,0.126669721771578,1
497,321,2,0.11524342255575,1
497,322,2,0.0889412645498832,1
498,306,2,0.09896229656806,1
498,307,2,0.121679172678804,1
498,308,2,0.147302413601563,1
498,309,2,0.175595620870409,1
498,310,2,0.193464498553254,1
498,311,2,0.21002100446521,1
498,312,2,0.219666483555239,1
498,313,2,0.213771658069502,1
498,314,2,0.188881002617484,1
498,315,2,0.161467262091871,1
498,316,2,0.138043814104972,1
498,317,2,0.127313023650125,1
498,318,2,0.121503133179637,1
498,319,2,0.117436734554621,1
498,320,2,0.112819863590292,1
498,321,2,0.101949331675236,1
498,322,2,0.0782279522596691,1
499,306,2,0.0963564867063404,1
499,307,2,0.12820579967431,1
499,308,2,0.163594075604191,1
499,309,2,0.194932688341539,1
499,310,2,0.211389955654578,1
499,311,2,0.226340051720992,1
499,312,2,0.232010260629024,1
499,313,2,0.223403001289575,1
499,314,2,0.198322374120797,1
499,315,2,0.168960818531081,1
499,316,2,0.13702018544728,1
499,317,2,0.119208438242253,1
499,318,2,0.109539215682516,1
499,319,2,0.101529400501109,1
499,320,2,0.0922287827300495,1
499,321,2,0.0813094461249891,1
500,306,2,0.0947665068147352,1
500,307,2,0.134199552290643,1
500,308,2,0.177093076701326,1
500,309,2,0.209141417926468,1
500,310,2,0.220929799065557,1
500,311,2,0.223655793770787,1
500,312,2,0.215401859302955,1
500,313,2,0.201901264925562,1
500,314,2,0.180494634215437,1
500,315,2,0.156266304168654,1
500,316,2,0.126500498636823,1
500,317,2,0.1073238253715,1
500,318,2,0.0956872850389403,1
500,319,2,0.0867935826600506,1
500,320,2,0.0772705705179613,1
501,306,2,0.0916476008122327,1
501,307,2,0.132774273253362,1
501,308,2,0.174626187700586,1
501,309,2,0.200860840937633,1
501,310,2,0.20674488482764,1
501,311,2,0.199503749503567,1
501,312,2,0.181387314403215,1
501,313,2,0.160639031887456,1
501,314,2,0.138356300687875,1
501,315,2,0.12013183399831,1
501,316,2,0.101680139188963,1
501,317,2,0.0893995542457061,1
501,318,2,0.0792851715778353,1
501,319,2,0.0714295871233438,1
502,306,2,0.0884605611144931,1
502,307,2,0.121731223827077,1
502,308,2,0.154872327697642,1
502,309,2,0.173269503571248,1
502,310,2,0.175672337913802,1
502,311,2,0.167891787375815,1
502,312,2,0.152426055503846,1
502,313,2,0.131105881211924,1
502,314,2,0.108639563396166,1
502,315,2,0.0933400477916992,1
502,316,2,0.0829435227431293,1
502,317,2,0.0757870469046374,1
503,307,2,0.106134950789922,1
503,308,2,0.126289071544561,1
503,309,2,0.139488811482888,1
503,310,2,0.140417406363997,1
503,311,2,0.131981861905872,1
503,312,2,0.120393036124192,1
503,313,2,0.105709257451856,1
503,314,2,0.0901480485599238,1
503,315,2,0.078261159574517,1
503,316,2,0.070376464811555,1
504,308,2,0.101622409733605,1
504,309,2,0.10983412826438,1
504,310,2,0.1094872723502,1
504,311,2,0.100612533600244,1
504,312,2,0.0906072606811592,1
504,313,2,0.0826712215634215,1
504,314,2,0.0743562333148816,1
505,309,2,0.0897454098673931,1
505,310,2,0.0885639326584406,1
505,311,2,0.0820979940673431,1
505,312,2,0.0738906900010427,1
505,313,2,0.0682065728345189,1
506,308,2,0.0771653062049856,1
506,309,2,0.074994312109275,1
506,310,2,0.0724346774261561,1
506,311,2,0.0678246647546665,1
507,308,2,0.0691596958459135,1
531,335,2,0.0691648171038851,1
531,336,2,0.0685024018520194,1
479,311,3,0.0691777490289855,1
479,312,3,0.0692483565014651,1
479,314,3,0.0678501572387921,1
479,315,3,0.0718522077066271,1
479,316,3,0.0736046422867793,1
479,317,3,0.0738083245994422,1
480,309,3,0.0728065586219798,1
480,310,3,0.0744726565794376,1
480,311,3,0.0779278705016307,1
480,312,3,0.0764563084697916,1
480,313,3,0.0739621420318545,1
480,314,3,0.0761980233645326,1
480,315,3,0.0818836499544585,1
480,316,3,0.0870805887383789,1
480,317,3,0.085763035811765,1
480,318,3,0.0873517937891875,1
480,319,3,0.086493231362119,1
481,308,3,0.0800117073754165,1
481,309,3,0.0885870232426286,1
481,310,3,0.085434670334262,1
481,311,3,0.082292356289475,1
481,312,3,0.0811288184578619,1
481,313,3,0.0806811666031591,1
481,314,3,0.083833908846927,1
481,315,3,0.0947553478631548,1
481,316,3,0.105368750699606,1
481,317,3,0.0997381222274528,1
481,318,3,0.0989117189045362,1
481,319,3,0.0955466870408478,1
481,320,3,0.089034639158679,1
482,307,3,0.0738254853059788,1
482,308,3,0.0832995010852515,1
482,309,3,0.0905677401430339,1
482,310,3,0.0886617397010364,1
482,311,3,0.0864337229434657,1
482,312,3,0.0876024539103554,1
482,313,3,0.0863957417776197,1
482,314,3,0.0914448409249823,1
482,315,3,0.11118183971016,1
482,316,3,0.128914533859386,1
482,317,3,0.121648001887594,1
482,318,3,0.11553770022142,1
482,319,3,0.106487616786245,1
482,320,3,0.0942920207662159,1
482,321,3,0.0874335721927983,1
483,307,3,0.0737867733875333,1
483,308,3,0.080101901413472,1
483,309,3,0.0853500168384566,1
483,310,3,0.0877654896071167,1
483,311,3,0.0886294368422747,1
483,312,3,0.088791274583955,1
483,313,3,0.086111742566545,1
483,314,3,0.0911701019066845,1
483,315,3,0.109218295495842,1
483,316,3,0.126028228805204,1
483,317,3,0.125754831496597,1
483,318,3,0.120882436713471,1
483,319,3,0.10910348348087,1
483,320,3,0.0938704064652006,1
483,321,3,0.0866108465919807,1
484,306,3,0.0709346998997935,1
484,307,3,0.082545070903607,1
484,308,3,0.0847298654418518,1
484,309,3,0.0875680246813248,1
484,310,3,0.0919818183003068,1
484,311,3,0.0909331044632165,1
484,312,3,0.0888238829212623,1
484,313,3,0.0868804104443282,1
484,314,3,0.0921407809497925,1
484,315,3,0.102451706118043,1
484,316,3,0.110843728868072,1
484,317,3,0.115653746130126,1
484,318,3,0.113389419354047,1
484,319,3,0.103196151344086,1
484,320,3,0.0903521681261912,1
484,321,3,0.0828968144745175,1
485,306,3,0.0887312270855152,1
485,307,3,0.103670529576648,1
485,308,3,0.105739050594722,1
485,309,3,0.10682893814795,1
485,310,3,0.107487969176712,1
485,311,3,0.0992970411563698,1
485,312,3,0.0937932521682029,1
485,313,3,0.0921947488261957,1
485,314,3,0.0960227424105233,1
485,315,3,0.100800013570435,1
485,316,3,0.100224491990376,1
485,317,3,0.101840281824204,1
485,318,3,0.0994526974498316,1
485,319,3,0.0945368408563635,1
485,320,3,0.0868530132116237,1
486,305,3,0.0678357458391666,1
486,306,3,0.0951797114710812,1
486,307,3,0.118156741497011,1
486,308,3,0.126458881677306,1
486,309,3,0.127778249505867,1
486,310,3,0.122696008931186,1
486,311,3,0.107637701582297,1
486,312,3,0.0993544232047541,1
486,313,3,0.0977154529401076,1
486,314,3,0.0990369651082645,1
486,315,3,0.101235985363097,1
486,316,3,0.098381629770928,1
486,317,3,0.0960049108491412,1
486,318,3,0.0913633260714894,1
486,319,3,0.0882841203003743,1
487,305,3,0.0754628862494691,1
487,306,3,0.103975241431075,1
487,307,3,0.13393831422611,1
487,308,3,0.144921429959687,1
487,309,3,0.142852202148116,1
487,310,3,0.129553043917608,1
487,311,3,0.112755940707165,1
487,312,3,0.105436998200576,1
487,313,3,0.10414061913002,1
487,314,3,0.101392677887704,1
487,315,3,0.0999027931328998,1
487,316,3,0.0969152189459375,1
487,317,3,0.0942605205373586,1
487,318,3,0.0891409157436982,1
487,319,3,0.0865740334323387,1
488,305,3,0.074025657610254,1
488,306,3,0.104863573041909,1
488,307,3,0.141415794108131,1
488,308,3,0.156328645751074,1
488,309,3,0.15563753348524,1
488,310,3,0.138477282171515,1
488,311,3,0.121942016003146,1
488,312,3,0.112533109082531,1
488,313,3,0.107130703032877,1
488,314,3,0.100445748304079,1
488,315,3,0.0962499884996312,1
488,316,3,0.0926469109817788,1
488,317,3,0.0897251644265226,1
488,318,3,0.0867865087352968,1
489,306,3,0.0978942597155116,1
489,307,3,0.136835137325904,1
489,308,3,0.154430366129574,1
489,309,3,0.157201871148335,1
489,310,3,0.144257187826323,1
489,311,3,0.132036967839602,1
489,312,3,0.121452435720605,1
489,313,3,0.110148819084632,1
489,314,3,0.0985790168296397,1
489,315,3,0.0923475420070137,1
489,316,3,0.0881133398240137,1
490,307,3,0.119534605472182,1
490,308,3,0.137564596133883,1
490,309,3,0.148433235279911,1
490,310,3,0.146050442725863,1
490,311,3,0.140239498054904,1
490,312,3,0.13042037537587,1
490,313,3,0.115511093639069,1
490,314,3,0.0997284247810713,1
490,315,3,0.0900214067385261,1
491,307,3,0.10477997973635,1
491,308,3,0.122009400976458,1
491,309,3,0.136838551497885,1
491,310,3,0.139123602896866,1
491,311,3,0.134173317074368,1
491,312,3,0.129618631958298,1
491,313,3,0.121015289931964,1
491,314,3,0.105900199512231,1
491,315,3,0.0916482896364043,1
492,307,3,0.0954221236715157,1
492,308,3,0.112256633029366,1
492,309,3,0.129868884774738,1
492,310,3,0.131912296654313,1
492,311,3,0.127663413531794,1
492,312,3,0.128954078356613,1
492,313,3,0.128692900189833,1
492,314,3,0.115716818465145,1
492,315,3,0.0972162231293884,1
492,316,3,0.0838844505717983,1
493,307,3,0.088388971318847,1
493,308,3,0.107530604398048,1
493,309,3,0.126489130043103,1
493,310,3,0.131329467548259,1
493,311,3,0.130840570100115,1
493,312,3,0.134597357234422,1
493,313,3,0.135480369924696,1
493,314,3,0.122634517896874,1
493,315,3,0.103349321880755,1
493,316,3,0.0886824703137147,1
493,318,3,0.0807944152867502,1
493,319,3,0.0838030495240381,1
493,320,3,0.0830287991755769,1
493,321,3,0.0779830423228905,1
494,308,3,0.104532913480426,1
494,309,3,0.124695731388953,1
494,310,3,0.134942224543167,1
494,311,3,0.141029429635377,1
494,312,3,0.143509723753475,1
494,313,3,0.140148094082217,1
494,314,3,0.12655231019408,1
494,315,3,0.108748864817765,1
494,316,3,0.0953973799093158,1
494,317,3,0.0892685159291608,1
494,318,3,0.0915983169401965,1
494,319,3,0.0935490550146975,1
494,320,3,0.0922772100642027,1
494,321,3,0.0880488359326722,1
494,322,3,0.0791031662623648,1
495,308,3,0.105997030221436,1
495,309,3,0.125677491516561,1
495,310,3,0.142389863364119,1
495,311,3,0.155145497394783,1
495,312,3,0.158330740159901,1
495,313,3,0.152897091441732,1
495,314,3,0.136358914242517,1
495,315,3,0.116677386767369,1
495,316,3,0.103553070080947,1
495,317,3,0.0993834616359198,1
495,318,3,0.101276164776517,1
495,319,3,0.10314626849451,1
495,320,3,0.107864534376902,1
495,321,3,0.108170048861233,1
495,322,3,0.0925822154176244,1
495,323,3,0.0729091634746754,1
496,307,3,0.0981860156857363,1
496,308,3,0.11530487765141,1
496,309,3,0.135935544937308,1
496,310,3,0.154426125368587,1
496,311,3,0.168624265030599,1
496,312,3,0.173895039775942,1
496,313,3,0.169703622558663,1
496,314,3,0.150720227366124,1
496,315,3,0.128550020087311,1
496,316,3,0.116263038063921,1
496,317,3,0.112426934323694,1
496,318,3,0.113003797613443,1
496,319,3,0.115533746969653,1
496,320,3,0.123468737876695,1
496,321,3,0.122596087497872,1
496,322,3,0.0993449773289397,1
496,323,3,0.0717474285654593,1
497,307,3,0.108751931582773,1
497,308,3,0.127056289896696,1
497,309,3,0.151109682562988,1
497,310,3,0.168427884254155,1
497,311,3,0.181721735543653,1
497,312,3,0.188961912503661,1
497,313,3,0.187009078007768,1
497,314,3,0.16649880520752,1
497,315,3,0.142811843041434,1
497,316,3,0.127971036417068,1
497,317,3,0.121348812606091,1
497,318,3,0.120731087068525,1
497,319,3,0.12453599605844,1
497,320,3,0.127891492199683,1
497,321,3,0.117623316058502,1
497,322,3,0.0906786887528693,1
498,307,3,0.116366181996403,1
498,308,3,0.14229282900255,1
498,309,3,0.171381682097606,1
498,310,3,0.186754141186961,1
498,311,3,0.199440617270794,1
498,312,3,0.210943286123042,1
498,313,3,0.210556035163528,1
498,314,3,0.18460338055257,1
498,315,3,0.152309362699397,1
498,316,3,0.129282809210415,1
498,317,3,0.11889772463287,1
498,318,3,0.115671511803979,1
498,319,3,0.115808725578967,1
498,320,3,0.111599985931216,1
498,321,3,0.0968494512119855,1
498,322,3,0.07514558388714,1
499,307,3,0.125356978634615,1
499,308,3,0.164764010515937,1
499,309,3,0.199766688664317,1
499,310,3,0.210500210456749,1
499,311,3,0.216055080249573,1
499,312,3,0.222361618937581,1
499,313,3,0.220752932977384,1
499,314,3,0.193245009223296,1
499,315,3,0.157226333391091,1
499,316,3,0.127837093059451,1
499,317,3,0.113777760452685,1
499,318,3,0.10471320572013,1
499,319,3,0.0976003893545686,1
499,320,3,0.0884833881485633,1
499,321,3,0.0756904378171227,1
500,307,3,0.134670360617064,1
500,308,3,0.184662894960998,1
500,309,3,0.22078374438207,1
500,310,3,0.225532797710047,1
500,311,3,0.2156226424244,1
500,312,3,0.202776203398589,1
500,313,3,0.191603199805107,1
500,314,3,0.170179462296424,1
500,315,3,0.144674806947143,1
500,316,3,0.120205053012867,1
500,317,3,0.105321754921774,1
500,318,3,0.0927960024813962,1
500,319,3,0.0823713734066239,1
500,320,3,0.0724230392925433,1
501,306,3,0.0894192965454426,1
501,307,3,0.134479310740731,1
501,308,3,0.183956808256651,1
501,309,3,0.21338045385822,1
501,310,3,0.213362796000325,1
501,311,3,0.19545771611493,1
501,312,3,0.170653265510547,1
501,313,3,0.148099317280607,1
501,314,3,0.129034916365485,1
501,315,3,0.11397460843161,1
501,316,3,0.0987419746593207,1
501,317,3,0.0869052859815871,1
501,318,3,0.0761490270017159,1
502,307,3,0.120595718144362,1
502,308,3,0.156785533839452,1
502,309,3,0.176115245866384,1
502,310,3,0.175799896170837,1
502,311,3,0.161145802825411,1
502,312,3,0.143179651189981,1
502,313,3,0.122112185522416,1
502,314,3,0.104256593161421,1
502,315,3,0.0919534746830882,1
502,316,3,0.0819506455923687,1
502,317,3,0.0722802550264278,1
503,307,3,0.103897733737329,1
503,308,3,0.121824209100472,1
503,309,3,0.136545004584814,1
503,310,3,0.138609692146628,1
503,311,3,0.124427281634831,1
503,312,3,0.111878558405773,1
503,313,3,0.100370600581842,1
503,314,3,0.0889442175091581,1
503,315,3,0.078247347152432,1
503,316,3,0.0703044677111813,1
504,308,3,0.0968857911793705,1
504,309,3,0.107681343085902,1
504,310,3,0.110985183404048,1
504,311,3,0.0977440421381179,1
504,312,3,0.086438616589972,1
504,313,3,0.0811372520616328,1
504,314,3,0.0744040377123926,1
505,309,3,0.085188867920948,1
505,310,3,0.0865223895887928,1
505,311,3,0.0792516468048909,1
505,312,3,0.0715345339782229,1
506,308,3,0.0747360150244651,1
506,309,3,0.0715656808103313,1
506,310,3,0.0697065443711062,1
507,308,3,0.0719153818678286,1
507,309,3,0.0683624267905691,1
479,315,4,0.0699398700822506,1
479,316,4,0.0725569886399357,1
480,311,4,0.0747446642601506,1
480,312,4,0.0745967767053897,1
480,313,4,0.0717099864793998,1
480,314,4,0.073873499345629,1
480,315,4,0.0820925254023979,1
480,316,4,0.0879453565727674,1
480,317,4,0.0868100605321911,1
480,318,4,0.0868205366493752,1
480,319,4,0.0851293894511717,1
481,309,4,0.0824485636422741,1
481,310,4,0.0790525945886165,1
481,311,4,0.0774107013135721,1
481,312,4,0.0766720661696718,1
481,313,4,0.077043761682458,1
481,314,4,0.0811977727523296,1
481,315,4,0.0926702112081061,1
481,316,4,0.103241422066601,1
481,317,4,0.0976740995307083,1
481,318,4,0.0978840711075468,1
481,319,4,0.094235339521554,1
481,320,4,0.087642142162192,1
482,308,4,0.0783393680719862,1
482,309,4,0.0852578042460895,1
482,310,4,0.0829151431872582,1
482,311,4,0.080509715271953,1
482,312,4,0.0829480570031112,1
482,313,4,0.083671040863877,1
482,314,4,0.0892846404045523,1
482,315,4,0.108769637358871,1
482,316,4,0.128215023928434,1
482,317,4,0.119864031139932,1
482,318,4,0.114968384048682,1
482,319,4,0.104637938202385,1
482,320,4,0.0927177520554992,1
482,321,4,0.0835617214729519,1
483,308,4,0.0720979562119625,1
483,309,4,0.077722726683769,1
483,310,4,0.0810759646796841,1
483,311,4,0.0820125259620825,1
483,312,4,0.0845731848967957,1
483,313,4,0.0839257261141174,1
483,314,4,0.0892993453031727,1
483,315,4,0.107648471198476,1
483,316,4,0.127579125412288,1
483,317,4,0.124756216140998,1
483,318,4,0.12052360124848,1
483,319,4,0.105988596617665,1
483,320,4,0.0905841221787679,1
483,321,4,0.0818941560205197,1
484,307,4,0.0740995894080837,1
484,308,4,0.0762741354406098,1
484,309,4,0.0789237365503187,1
484,310,4,0.0855045770030192,1
484,311,4,0.0863785271631044,1
484,312,4,0.0844158993844236,1
484,313,4,0.0813507875548376,1
484,314,4,0.086298306101099,1
484,315,4,0.0974801565928547,1
484,316,4,0.108220506729249,1
484,317,4,0.112150709841096,1
484,318,4,0.111884751833542,1
484,319,4,0.0995649997489086,1
484,320,4,0.085845407203141,1
485,306,4,0.078239368771592,1
485,307,4,0.095292468993089,1
485,308,4,0.097147406599755,1
485,309,4,0.0974967003525246,1
485,310,4,0.101454420492584,1
485,311,4,0.0974762093308625,1
485,312,4,0.0903377507367903,1
485,313,4,0.0849388487057485,1
485,314,4,0.0896118079269742,1
485,315,4,0.094811442109827,1
485,316,4,0.093923829272042,1
485,317,4,0.0933117820415608,1
485,318,4,0.0932261761714659,1
485,319,4,0.0885000936321691,1
486,306,4,0.0828608578527585,1
486,307,4,0.106738947762258,1
486,308,4,0.117289206386385,1
486,309,4,0.120301823824317,1
486,310,4,0.117098324223763,1
486,311,4,0.104364097650398,1
486,312,4,0.0945729292531814,1
486,313,4,0.0897112381987049,1
486,314,4,0.0918677669868114,1
486,315,4,0.0947145694721944,1
486,316,4,0.0922756407430465,1
486,317,4,0.0882804725271524,1
486,318,4,0.0843986787801329,1
487,306,4,0.091413400593879,1
487,307,4,0.120623331008981,1
487,308,4,0.134857565057586,1
487,309,4,0.135309996753063,1
487,310,4,0.12279696060587,1
487,311,4,0.105247026483816,1
487,312,4,0.0984270682071538,1
487,313,4,0.0961703783947172,1
487,314,4,0.093795558231734,1
487,315,4,0.0921854047765632,1
487,316,4,0.0907693380138556,1
487,317,4,0.0870218709700791,1
487,318,4,0.0819791509335233,1
488,306,4,0.096227442985005,1
488,307,4,0.133716381067786,1
488,308,4,0.151364451670084,1
488,309,4,0.151211221235661,1
488,310,4,0.13447427932939,1
488,311,4,0.114569872311405,1
488,312,4,0.105840110085363,1
488,313,4,0.100105708754311,1
488,314,4,0.093289404240646,1
488,315,4,0.0887126168533304,1
488,316,4,0.0863213427773084,1
488,317,4,0.082368228774536,1
489,306,4,0.0870122693601041,1
489,307,4,0.12533859002412,1
489,308,4,0.146369685775424,1
489,309,4,0.151331879271429,1
489,310,4,0.141501783323852,1
489,311,4,0.125582649412791,1
489,312,4,0.114353869030734,1
489,313,4,0.102094859258487,1
489,314,4,0.0912754620560666,1
490,307,4,0.104840224897378,1
490,308,4,0.125975422945229,1
490,309,4,0.137992433811544,1
490,310,4,0.138201884277923,1
490,311,4,0.130110320641782,1
490,312,4,0.12130182880781,1
490,313,4,0.106782146022482,1
490,314,4,0.0925843897060966,1
490,315,4,0.0832033711797692,1
491,308,4,0.106513049372617,1
491,309,4,0.120648020863202,1
491,310,4,0.124712658494249,1
491,311,4,0.119524446813094,1
491,312,4,0.117352182884998,1
491,313,4,0.110747856522933,1
491,314,4,0.0988749716324237,1
491,315,4,0.0851218483239363,1
492,308,4,0.0954918746061124,1
492,309,4,0.112274374744117,1
492,310,4,0.117431619286425,1
492,311,4,0.11186787264645,1
492,312,4,0.114298439649131,1
492,313,4,0.116364145472765,1
492,314,4,0.108923454791284,1
492,315,4,0.0918980093628336,1
492,316,4,0.0781966676627264,1
493,308,4,0.0890824016277622,1
493,309,4,0.108442907090054,1
493,310,4,0.11651844208721,1
493,311,4,0.113667907971749,1
493,312,4,0.118580841554819,1
493,313,4,0.123706999162773,1
493,314,4,0.118497200331057,1
493,315,4,0.100746524876064,1
493,316,4,0.0848795319599082,1
493,318,4,0.0737863121748271,1
493,319,4,0.0764983926317904,1
493,320,4,0.074779548712112,1
493,321,4,0.0698832906637706,1
494,308,4,0.0848632517503561,1
494,309,4,0.104707755024511,1
494,310,4,0.118096172888111,1
494,311,4,0.123048866600322,1
494,312,4,0.127626037333264,1
494,313,4,0.128854144943748,1
494,314,4,0.123047896256707,1
494,315,4,0.107091721574538,1
494,316,4,0.0925571062791247,1
494,317,4,0.08429419313796,1
494,318,4,0.0863794256294152,1
494,319,4,0.088599643699408,1
494,320,4,0.0873467384187453,1
494,321,4,0.0853202596342423,1
494,322,4,0.0752620131414714,1
495,308,4,0.0897552570581597,1
495,309,4,0.108407878883483,1
495,310,4,0.127265656506219,1
495,311,4,0.139644952948158,1
495,312,4,0.143217051347613,1
495,313,4,0.140766933718008,1
495,314,4,0.131325274705476,1
495,315,4,0.114666427490942,1
495,316,4,0.101758497430818,1
495,317,4,0.0954552591090588,1
495,318,4,0.0955131982065558,1
495,319,4,0.0978164465432192,1
495,320,4,0.10871008701179,1
495,321,4,0.11896065321328,1
495,322,4,0.0982407861920439,1
495,323,4,0.0682059439081013,1
496,308,4,0.103867054107702,1
496,309,4,0.121600946212009,1
496,310,4,0.140336029275339,1
496,311,4,0.153046668113158,1
496,312,4,0.158342587935653,1
496,313,4,0.156852068264656,1
496,314,4,0.14410970757629,1
496,315,4,0.124518793423476,1
496,316,4,0.113155985826946,1
496,317,4,0.106986397363809,1
496,318,4,0.10471187598999,1
496,319,4,0.109207501920562,1
496,320,4,0.125409101660193,1
496,321,4,0.136705422749723,1
496,322,4,0.108037770661179,1
496,323,4,0.068603515250639,1
497,308,4,0.115876314204642,1
497,309,4,0.137040562663209,1
497,310,4,0.153294776590003,1
497,311,4,0.165160473750025,1
497,312,4,0.17323776974115,1
497,313,4,0.174748115568739,1
497,314,4,0.15831299844515,1
497,315,4,0.135053227060981,1
497,316,4,0.121377108305106,1
497,317,4,0.114908833701601,1
497,318,4,0.116462940828303,1
497,319,4,0.125951379986752,1
497,320,4,0.129440160610317,1
497,321,4,0.119957926859188,1
497,322,4,0.09008683305528,1
498,308,4,0.133256222562037,1
498,309,4,0.160777898840456,1
498,310,4,0.172380920389847,1
498,311,4,0.179875051847496,1
498,312,4,0.191242339796029,1
498,313,4,0.195929518744068,1
498,314,4,0.172345161430677,1
498,315,4,0.139449183128806,1
498,316,4,0.119046295022027,1
498,317,4,0.112301724058618,1
498,318,4,0.11391403982271,1
498,319,4,0.12136889033325,1
498,320,4,0.112362711951797,1
498,321,4,0.0903032256713532,1
498,322,4,0.0678449760830664,1
499,307,4,0.117188889627894,1
499,308,4,0.161084144077387,1
499,309,4,0.197431071581362,1
499,310,4,0.201287241069197,1
499,311,4,0.197624193919985,1
499,312,4,0.202072620420361,1
499,313,4,0.205627312532489,1
499,314,4,0.178150691344669,1
499,315,4,0.140707383370927,1
499,316,4,0.116345229762034,1
499,317,4,0.108586937229454,1
499,318,4,0.101707392667058,1
499,319,4,0.0982974614469304,1
499,320,4,0.0864915122965776,1
500,307,4,0.128863465034279,1
500,308,4,0.186762718545341,1
500,309,4,0.226560499415015,1
500,310,4,0.224056581622717,1
500,311,4,0.202358668134625,1
500,312,4,0.183574193383301,1
500,313,4,0.172545519417989,1
500,314,4,0.151305404464136,1
500,315,4,0.128406924352874,1
500,316,4,0.111409283461856,1
500,317,4,0.103540874898222,1
500,318,4,0.0915735372393441,1
500,319,4,0.0820440920784693,1
500,320,4,0.0702673071445658,1
501,307,4,0.127890881242592,1
501,308,4,0.185545787855764,1
501,309,4,0.220351785738929,1
501,310,4,0.216042070457393,1
501,311,4,0.188525784976838,1
501,312,4,0.157347446649789,1
501,313,4,0.133053911907942,1
501,314,4,0.116463695540004,1
501,315,4,0.105327361351554,1
501,316,4,0.0939681296509408,1
501,317,4,0.0843901134013031,1
501,318,4,0.0739139243398405,1
502,307,4,0.111471313575955,1
502,308,4,0.151013630524585,1
502,309,4,0.175164357041216,1
502,310,4,0.175040488485831,1
502,311,4,0.154646740776321,1
502,312,4,0.134289255167116,1
502,313,4,0.113904779629933,1
502,314,4,0.0992335135984194,1
502,315,4,0.0892490072306652,1
502,316,4,0.0801527306475628,1
502,317,4,0.0697986072190882,1
503,308,4,0.111725543603265,1
503,309,4,0.129366989513964,1
503,310,4,0.135336830946879,1
503,311,4,0.119108061586008,1
503,312,4,0.108032847065796,1
503,313,4,0.0989467231520057,1
503,314,4,0.0882949797631844,1
503,315,4,0.0769352209623355,1
503,316,4,0.0695328588536739,1
504,309,4,0.103894379463101,1
504,310,4,0.11308380903331,1
504,311,4,0.0989700113987822,1
504,312,4,0.0882639587163595,1
504,313,4,0.0829297462596967,1
504,314,4,0.0745113744876586,1
505,309,4,0.0800678435505165,1
505,310,4,0.0858509537351664,1
505,311,4,0.0790427174489729,1
505,312,4,0.0722219924810589,1
506,308,4,0.0710147292889859,1
506,309,4,0.0682099750269492,1
506,310,4,0.0689394158656021,1
507,307,4,0.0747840051050137,1
507,308,4,0.0715425842363678,1
480,312,5,0.0692727348873654,1
480,315,5,0.0752241577609089,1
480,316,5,0.0798113374085529,1
480,317,5,0.0800955822004192,1
480,318,5,0.0799613513335828,1
481,310,5,0.0707810022628892,1
481,311,5,0.0711456178611461,1
481,312,5,0.071493408180289,1
481,313,5,0.0716900644864012,1
481,314,5,0.0753250375582877,1
481,315,5,0.0851444477465411,1
481,316,5,0.0917969977903958,1
481,317,5,0.0894151935492898,1
481,318,5,0.0898006895046101,1
481,319,5,0.0890309254979276,1
482,309,5,0.0747666167870116,1
482,310,5,0.0751921843397945,1
482,311,5,0.0742243564297795,1
482,312,5,0.0769587188512512,1
482,313,5,0.0802123948003766,1
482,314,5,0.0827745691482673,1
482,315,5,0.0973367434003217,1
482,316,5,0.110284439579363,1
482,317,5,0.105324737829926,1
482,318,5,0.101734358635934,1
482,319,5,0.0957679193954486,1
482,320,5,0.0875576503903225,1
483,309,5,0.0705926238263874,1
483,310,5,0.0744940640367368,1
483,311,5,0.0764414059085828,1
483,312,5,0.0795073503169502,1
483,313,5,0.0830800716530477,1
483,314,5,0.085272377369651,1
483,315,5,0.100443891473703,1
483,316,5,0.116212999480183,1
483,317,5,0.11315989116051,1
483,318,5,0.108013727702702,1
483,319,5,0.0955248722788211,1
483,320,5,0.0836305679514623,1
483,321,5,0.0763207718319167,1
484,308,5,0.0689541087846717,1
484,309,5,0.0730756612616211,1
484,310,5,0.0785027631552718,1
484,311,5,0.082054089013621,1
484,312,5,0.0796502423990229,1
484,313,5,0.0791951931716944,1
484,314,5,0.0806487379591139,1
484,315,5,0.0900939608880125,1
484,316,5,0.0988818299252629,1
484,317,5,0.100863337476022,1
484,318,5,0.100637043761203,1
484,319,5,0.0894809013854878,1
484,320,5,0.0781944214969493,1
485,307,5,0.0835869623865105,1
485,308,5,0.0868272631671556,1
485,309,5,0.0891309966756267,1
485,310,5,0.092610690809902,1
485,311,5,0.0945984157475316,1
485,312,5,0.0866341827569604,1
485,313,5,0.0815883120985413,1
485,314,5,0.0847148251158087,1
485,315,5,0.0895122159313075,1
485,316,5,0.0886285263964131,1
485,317,5,0.0857128894120705,1
485,318,5,0.0857380943869767,1
485,319,5,0.0800753427493242,1
486,306,5,0.0707355458573372,1
486,307,5,0.0932976641409301,1
486,308,5,0.10441759832432,1
486,309,5,0.110521826358232,1
486,310,5,0.10733267825955,1
486,311,5,0.10072341632255,1
486,312,5,0.0904151386350289,1
486,313,5,0.0854954605648521,1
486,314,5,0.0867049459636006,1
486,315,5,0.0886984929629243,1
486,316,5,0.0864421805063382,1
486,317,5,0.0809832968643861,1
486,318,5,0.0774675323026192,1
487,306,5,0.078399858813806,1
487,307,5,0.105726567902777,1
487,308,5,0.121614171636104,1
487,309,5,0.126565224149854,1
487,310,5,0.116013611836486,1
487,311,5,0.10117234998919,1
487,312,5,0.093250566536917,1
487,313,5,0.090781988419512,1
487,314,5,0.0879365096744936,1
487,315,5,0.0851673226988145,1
487,316,5,0.0840745360942908,1
487,317,5,0.0793132157062836,1
488,306,5,0.0852141807118115,1
488,307,5,0.120488549082807,1
488,308,5,0.138490076331781,1
488,309,5,0.141010633720155,1
488,310,5,0.128648060731147,1
488,311,5,0.109429375181131,1
488,312,5,0.100000989510897,1
488,313,5,0.0946178645482732,1
488,314,5,0.0873137107971596,1
488,315,5,0.0815246347962058,1
488,316,5,0.079349280144,1
489,306,5,0.0764713068674069,1
489,307,5,0.110216228017045,1
489,308,5,0.131635353398666,1
489,309,5,0.140240240787055,1
489,310,5,0.13626736651522,1
489,311,5,0.118890141577207,1
489,312,5,0.106585968898403,1
489,313,5,0.0953052272147027,1
489,314,5,0.0853193731474823,1
490,307,5,0.0905051469900468,1
490,308,5,0.110888568326758,1
490,309,5,0.124176956941086,1
490,310,5,0.126659742805753,1
490,311,5,0.117154328623805,1
490,312,5,0.109425014624636,1
490,313,5,0.0985549798609375,1
490,314,5,0.0868475984546571,1
490,315,5,0.0776085256258884,1
491,308,5,0.0922892614923185,1
491,309,5,0.1045968004249,1
491,310,5,0.108784623776936,1
491,311,5,0.10454937338324,1
491,312,5,0.104273783816834,1
491,313,5,0.100732365047006,1
491,314,5,0.0920275382559767,1
491,315,5,0.0799957206648593,1
492,309,5,0.0964979232729896,1
492,310,5,0.1022294854505,1
492,311,5,0.098586156641923,1
492,312,5,0.101337679769931,1
492,313,5,0.104567654177777,1
492,314,5,0.100559332415093,1
492,315,5,0.0871486505563112,1
492,316,5,0.0742909387731867,1
493,309,5,0.0948908665317034,1
493,310,5,0.103184842648121,1
493,311,5,0.100845428047559,1
493,312,5,0.106004757031709,1
493,313,5,0.113578420727191,1
493,314,5,0.112605501508082,1
493,315,5,0.097915170021452,1
493,316,5,0.0823573094139719,1
493,319,5,0.0727538785472888,1
493,320,5,0.0712212687245171,1
494,309,5,0.0923278895539084,1
494,310,5,0.105486521663628,1
494,311,5,0.10982749159323,1
494,312,5,0.115723503054498,1
494,313,5,0.120620396019032,1
494,314,5,0.119379937491662,1
494,315,5,0.105222360588696,1
494,316,5,0.0914799589781846,1
494,317,5,0.081966620323375,1
494,318,5,0.0821662954762916,1
494,319,5,0.0857958657707624,1
494,320,5,0.085276971527387,1
494,321,5,0.0855561369897095,1
494,322,5,0.0736605029322107,1
495,309,5,0.0962874365754662,1
495,310,5,0.114415396003699,1
495,311,5,0.126196721187359,1
495,312,5,0.130686644851745,1
495,313,5,0.1315752879309,1
495,314,5,0.127500731231781,1
495,315,5,0.113411305993379,1
495,316,5,0.102430442415353,1
495,317,5,0.0940498361772468,1
495,318,5,0.0910154578852662,1
495,319,5,0.0945159125810968,1
495,320,5,0.106669370531148,1
495,321,5,0.12339731579476,1
495,322,5,0.10045877007581,1
495,323,5,0.0677914813989202,1
496,309,5,0.107950379838013,1
496,310,5,0.125601756796335,1
496,311,5,0.137962844321041,1
496,312,5,0.144113840521319,1
496,313,5,0.146071191307868,1
496,314,5,0.140431817763623,1
496,315,5,0.123951537733477,1
496,316,5,0.113786134158702,1
496,317,5,0.104584509405768,1
496,318,5,0.0982839125749632,1
496,319,5,0.104045082212303,1
496,320,5,0.121208951350373,1
496,321,5,0.141313668437468,1
496,322,5,0.112121899021395,1
496,323,5,0.0701558314344947,1
497,309,5,0.122608031110031,1
497,310,5,0.138092391183511,1
497,311,5,0.15006780904941,1
497,312,5,0.159387252684569,1
497,313,5,0.164528348792385,1
497,314,5,0.154201017629299,1
497,315,5,0.132233336636495,1
497,316,5,0.118792831685969,1
497,317,5,0.11091075445486,1
497,318,5,0.109993480249267,1
497,319,5,0.121020884382193,1
497,320,5,0.120372143787577,1
497,321,5,0.11511563668725,1
497,322,5,0.0876549542917843,1
498,308,5,0.123783955797183,1
498,309,5,0.148712454650212,1
498,310,5,0.158089376170163,1
498,311,5,0.161415043229886,1
498,312,5,0.17199791019132,1
498,313,5,0.179740809001109,1
498,314,5,0.163333604230909,1
498,315,5,0.13305403170345,1
498,316,5,0.11459357984246,1
498,317,5,0.108075362491624,1
498,318,5,0.108910948140237,1
498,319,5,0.119218932328763,1
498,320,5,0.106279064786177,1
498,321,5,0.0842387098483791,1
499,308,5,0.156251725055317,1
499,309,5,0.191869660953795,1
499,310,5,0.192929467854936,1
499,311,5,0.182485336071443,1
499,312,5,0.183929998021937,1
499,313,5,0.188242804027582,1
499,314,5,0.165929249443765,1
499,315,5,0.131177890291849,1
499,316,5,0.110023117657973,1
499,317,5,0.103148257099944,1
499,318,5,0.0954659388786067,1
499,319,5,0.0944977995002706,1
499,320,5,0.0816235858859041,1
500,307,5,0.122578513496833,1
500,308,5,0.184516205361319,1
500,309,5,0.226270043226053,1
500,310,5,0.221602666475505,1
500,311,5,0.192778309882804,1
500,312,5,0.169750821988858,1
500,313,5,0.155732711016433,1
500,314,5,0.135978635381575,1
500,315,5,0.11532748306379,1
500,316,5,0.102595281034512,1
500,317,5,0.0966642952746518,1
500,318,5,0.0855528785518889,1
500,319,5,0.0778696199358126,1
501,307,5,0.11878708150158,1
501,308,5,0.179293600389786,1
501,309,5,0.218667173385693,1
501,310,5,0.213676612313368,1
501,311,5,0.182367828657539,1
501,312,5,0.148132907941081,1
501,313,5,0.123419322229599,1
501,314,5,0.106802583136166,1
501,315,5,0.0970388479103063,1
501,316,5,0.0871777488852309,1
501,317,5,0.0784350547340885,1
501,318,5,0.0689032735608055,1
502,307,5,0.100451672191955,1
502,308,5,0.138967521329351,1
502,309,5,0.166259621496029,1
502,310,5,0.16631252319241,1
502,311,5,0.145051599758799,1
502,312,5,0.123220210115571,1
502,313,5,0.106335272838582,1
502,314,5,0.0932314591533735,1
502,315,5,0.0855240258037608,1
502,316,5,0.0760241581538381,1
503,308,5,0.0985764472159907,1
503,309,5,0.115697016267655,1
503,310,5,0.122320042708536,1
503,311,5,0.109090246077224,1
503,312,5,0.100381795472075,1
503,313,5,0.0959236655355415,1
503,314,5,0.0853277169046221,1
503,315,5,0.0748930669355964,1
504,309,5,0.0937805119159154,1
504,310,5,0.104138235199409,1
504,311,5,0.093227212402611,1
504,312,5,0.0850727082065098,1
504,313,5,0.0816686170174024,1
504,314,5,0.073056691642912,1
505,308,5,0.0706923955153162,1
505,309,5,0.0737402687712853,1
505,310,5,0.0808601590616006,1
505,311,5,0.0759499448365644,1
505,312,5,0.0716086035408869,1
506,308,5,0.0687042393138573,1
507,307,5,0.0732904066894578,1
507,308,5,0.0710254150483092,1
480,316,6,0.0711984357006715,1
480,317,6,0.0714177633066934,1
481,314,6,0.0689369540679104,1
481,315,6,0.0774225850279766,1
481,316,6,0.0813573882873344,1
481,317,6,0.0807798481529641,1
481,318,6,0.0806877493663297,1
481,319,6,0.0829163111934623,1
482,312,6,0.0691453563235928,1
482,313,6,0.0737811429986522,1
482,314,6,0.0755822744528508,1
482,315,6,0.0856521111610312,1
482,316,6,0.0932155083814688,1
482,317,6,0.0921954675992444,1
482,318,6,0.0890394130096772,1
482,319,6,0.0872419532878021,1
482,320,6,0.0824205734218044,1
483,310,6,0.068263655394133,1
483,311,6,0.0701836180026006,1
483,312,6,0.0725872789341612,1
483,313,6,0.0790030351869117,1
483,314,6,0.0797936915302084,1
483,315,6,0.089957543753153,1
483,316,6,0.100378728707067,1
483,317,6,0.0999127062111958,1
483,318,6,0.0941614855908046,1
483,319,6,0.086224014916745,1
483,320,6,0.0781591117709341,1
484,309,6,0.0710174127083675,1
484,310,6,0.074234718741231,1
484,311,6,0.0769725911710902,1
484,312,6,0.0737314039036852,1
484,313,6,0.076097856350427,1
484,314,6,0.07626712141361,1
484,315,6,0.0831035096442093,1
484,316,6,0.0882792985311729,1
484,317,6,0.089308258088976,1
484,318,6,0.0878386487239191,1
484,319,6,0.0808551695786878,1
485,307,6,0.0743447868540818,1
485,308,6,0.0810619905336631,1
485,309,6,0.0860949232772064,1
485,310,6,0.0882861029160335,1
485,311,6,0.0904891003817356,1
485,312,6,0.0811223674697502,1
485,313,6,0.0776319875761516,1
485,314,6,0.0816867780164317,1
485,315,6,0.0875987881678073,1
485,316,6,0.0847354479125297,1
485,317,6,0.0790343018145282,1
485,318,6,0.0778919019003209,1
486,307,6,0.084159009896834,1
486,308,6,0.096661683732575,1
486,309,6,0.105159443987837,1
486,310,6,0.102031762964366,1
486,311,6,0.0974395578951565,1
486,312,6,0.0851468017282754,1
486,313,6,0.0805763455335634,1
486,314,6,0.0846398091686307,1
486,315,6,0.0896209063958151,1
486,316,6,0.0845858532717783,1
486,317,6,0.0752725132177572,1
486,318,6,0.071588513834177,1
487,306,6,0.0692877871929593,1
487,307,6,0.0961780812458886,1
487,308,6,0.11298394749775,1
487,309,6,0.120561169119823,1
487,310,6,0.111447210719724,1
487,311,6,0.099247763274109,1
487,312,6,0.0884640112251266,1
487,313,6,0.0843757798687578,1
487,314,6,0.0830587480526042,1
487,315,6,0.0829023250678905,1
487,316,6,0.0794755985175258,1
487,317,6,0.0724190441123479,1
488,306,6,0.0745653423640618,1
488,307,6,0.10693559208882,1
488,308,6,0.123610503880991,1
488,309,6,0.128708174117117,1
488,310,6,0.11963517380124,1
488,311,6,0.104483533771983,1
488,312,6,0.0937097726683769,1
488,313,6,0.0883696842420414,1
488,314,6,0.0810565458278195,1
488,315,6,0.076281377079075,1
488,316,6,0.0732096645169922,1
489,307,6,0.0962589312343116,1
489,308,6,0.114601498325546,1
489,309,6,0.126287741814421,1
489,310,6,0.125085737645154,1
489,311,6,0.1099156850463,1
489,312,6,0.0968012754483994,1
489,313,6,0.0888720407155223,1
489,314,6,0.0801266811143244,1
489,315,6,0.0733683097083813,1
490,308,6,0.0962691378116025,1
490,309,6,0.110915905661708,1
490,310,6,0.113260040205289,1
490,311,6,0.103353874110063,1
490,312,6,0.0948493454085928,1
490,313,6,0.0896074413807036,1
490,314,6,0.0813858217511842,1
490,315,6,0.0736653067320859,1
491,309,6,0.0930048479804586,1
491,310,6,0.0957882427033994,1
491,311,6,0.0922511365718627,1
491,312,6,0.0910376979213467,1
491,313,6,0.0904596187071899,1
491,314,6,0.0846312437898009,1
491,315,6,0.0764049461456897,1
492,310,6,0.0908856175238019,1
492,311,6,0.0899497869940029,1
492,312,6,0.0911081376801149,1
492,313,6,0.0942707331044249,1
492,314,6,0.0925395143087588,1
492,315,6,0.0854528672719439,1
492,316,6,0.0747592254041613,1
493,310,6,0.0932983649446526,1
493,311,6,0.0939248595134117,1
493,312,6,0.0977835926251202,1
493,313,6,0.106515421323677,1
493,314,6,0.109215324567241,1
493,315,6,0.100961953138297,1
493,316,6,0.0858253474453081,1
493,319,6,0.0717534422999664,1
493,320,6,0.0697312342253275,1
494,309,6,0.0843069633391244,1
494,310,6,0.0962688982205863,1
494,311,6,0.102603894331545,1
494,312,6,0.108415282245884,1
494,313,6,0.11756804241106,1
494,314,6,0.12069096755286,1
494,315,6,0.111315052315178,1
494,316,6,0.0971398774520703,1
494,317,6,0.0847894876662378,1
494,318,6,0.080608247077373,1
494,319,6,0.0827393852075357,1
494,320,6,0.0819140660339675,1
494,321,6,0.0816616509086058,1
494,322,6,0.0711272891484054,1
495,309,6,0.0878900050582455,1
495,310,6,0.103830444600424,1
495,311,6,0.116741896648486,1
495,312,6,0.120496383709038,1
495,313,6,0.125676245643277,1
495,314,6,0.126772650072146,1
495,315,6,0.119041371426644,1
495,316,6,0.108928294529811,1
495,317,6,0.0971061430369867,1
495,318,6,0.0892508281223885,1
495,319,6,0.0909843110531578,1
495,320,6,0.0994464680834099,1
495,321,6,0.11371150155715,1
495,322,6,0.09563373045704,1
496,309,6,0.0964324729971341,1
496,310,6,0.112348719836449,1
496,311,6,0.127411998698925,1
496,312,6,0.131848517525795,1
496,313,6,0.136995675286321,1
496,314,6,0.137002539568936,1
496,315,6,0.127689540932113,1
496,316,6,0.117795857528831,1
496,317,6,0.105347115630841,1
496,318,6,0.0953071139939554,1
496,319,6,0.0981306641712144,1
496,320,6,0.11015897774372,1
496,321,6,0.128275257109911,1
496,322,6,0.1067897889759,1
496,323,6,0.0699609960201057,1
497,309,6,0.10900952786386,1
497,310,6,0.123041774706242,1
497,311,6,0.137037627673261,1
497,312,6,0.143746691248066,1
497,313,6,0.151375221286263,1
497,314,6,0.146532152443522,1
497,315,6,0.130419800357431,1
497,316,6,0.117762698132187,1
497,317,6,0.109185687158535,1
497,318,6,0.105414249033586,1
497,319,6,0.112041767806021,1
497,320,6,0.107779168097824,1
497,321,6,0.103984657358013,1
497,322,6,0.0833146851659043,1
498,309,6,0.133994642074023,1
498,310,6,0.141601656838963,1
498,311,6,0.143591292514947,1
498,312,6,0.149063167979753,1
498,313,6,0.15766034053742,1
498,314,6,0.149438595122617,1
498,315,6,0.127209700024381,1
498,316,6,0.112567047149979,1
498,317,6,0.106391313177276,1
498,318,6,0.105392362394254,1
498,319,6,0.111808777522299,1
498,320,6,0.098569684759558,1
498,321,6,0.079033205685629,1
499,308,6,0.146046920737925,1
499,309,6,0.179845330581934,1
499,310,6,0.178657953444207,1
499,311,6,0.163490931671709,1
499,312,6,0.157466643180358,1
499,313,6,0.15880521422887,1
499,314,6,0.145353340684625,1
499,315,6,0.120868312823065,1
499,316,6,0.105987865865065,1
499,317,6,0.099210506871087,1
499,318,6,0.0918462097851271,1
499,319,6,0.0908107752801107,1
499,320,6,0.0790943972311712,1
500,308,6,0.176181061518539,1
500,309,6,0.218867687107167,1
500,310,6,0.211718482856017,1
500,311,6,0.178818239834057,1
500,312,6,0.152244337697596,1
500,313,6,0.135287415299784,1
500,314,6,0.118902025291611,1
500,315,6,0.103068389434688,1
500,316,6,0.0944688029975328,1
500,317,6,0.0882871091983016,1
500,318,6,0.0793034463825973,1
500,319,6,0.0737136202605064,1
501,307,6,0.106959838699661,1
501,308,6,0.167527513194756,1
501,309,6,0.209897375500841,1
501,310,6,0.203226131367946,1
501,311,6,0.169438215610447,1
501,312,6,0.135899690141731,1
501,313,6,0.113123832712569,1
501,314,6,0.0974497165542442,1
501,315,6,0.0891240305668302,1
501,316,6,0.0813834617796744,1
501,317,6,0.0727701288079638,1
502,308,6,0.124137376505207,1
502,309,6,0.153196017173117,1
502,310,6,0.152909657990533,1
502,311,6,0.132056458568771,1
502,312,6,0.111043284225481,1
502,313,6,0.0983081232471521,1
502,314,6,0.0868148942809433,1
502,315,6,0.0809142647028381,1
502,316,6,0.0719460375383537,1
503,309,6,0.101821893213709,1
503,310,6,0.107827900910523,1
503,311,6,0.0994785253613799,1
503,312,6,0.0928742409277424,1
503,313,6,0.0910164461982081,1
503,314,6,0.0810845300585139,1
503,315,6,0.0722241248411032,1
504,309,6,0.0819304720288031,1
504,310,6,0.0906165148841606,1
504,311,6,0.0859935044000411,1
504,312,6,0.0809238183946099,1
504,313,6,0.0785998454350436,1
504,314,6,0.0703593699925478,1
505,309,6,0.0688736361520993,1
505,310,6,0.0752423726679169,1
505,311,6,0.0736697211965597,1
505,312,6,0.0706122463306157,1
507,307,6,0.069460682060038,1
507,308,6,0.0683191506632646,1
481,316,7,0.0728817303033184,1
481,317,7,0.0735569996132043,1
481,318,7,0.0743419297312134,1
482,315,7,0.074119020239499,1
482,316,7,0.0797174836177247,1
482,317,7,0.0817692033157863,1
482,318,7,0.0806736254759236,1
482,319,7,0.0802361382700839,1
483,313,7,0.0691524601972237,1
483,314,7,0.0719189577637456,1
483,315,7,0.0771010958126391,1
483,316,7,0.0839622697338661,1
483,317,7,0.0871432058504676,1
483,318,7,0.0841308459728775,1
483,319,7,0.0786221753177552,1
484,310,7,0.069672121131851,1
484,311,7,0.0691107354217492,1
484,313,7,0.0697617401514675,1
484,314,7,0.0712376807091281,1
484,315,7,0.0753600957137359,1
484,316,7,0.0778544178858335,1
484,317,7,0.0797008320420975,1
484,318,7,0.0776581209662457,1
485,308,7,0.0736408145404529,1
485,309,7,0.0814537158554051,1
485,310,7,0.0848074270435772,1
485,311,7,0.0830398143725476,1
485,312,7,0.0733391215328305,1
485,313,7,0.0718591318869958,1
485,314,7,0.0764344158406846,1
485,315,7,0.0835120482655144,1
485,316,7,0.0781396150519893,1
485,317,7,0.0721197470148876,1
486,307,7,0.0768230025201141,1
486,308,7,0.088910297411037,1
486,309,7,0.0983908839739294,1
486,310,7,0.0980136838575457,1
486,311,7,0.0924311233330215,1
486,312,7,0.0801004998060271,1
486,313,7,0.0766664058319137,1
486,314,7,0.0826647945344114,1
486,315,7,0.0911932703579528,1
486,316,7,0.0815566980639512,1
486,317,7,0.0693747886807237,1
487,307,7,0.0879052071082246,1
487,308,7,0.104459155386083,1
487,309,7,0.113133512189624,1
487,310,7,0.107621181781729,1
487,311,7,0.0971116296712581,1
487,312,7,0.0853008467721532,1
487,313,7,0.0792848062015355,1
487,314,7,0.0782325164685281,1
487,315,7,0.0809008835445823,1
487,316,7,0.0734892552533685,1
488,307,7,0.0929907240900525,1
488,308,7,0.108704300888748,1
488,309,7,0.116009430973253,1
488,310,7,0.110821315128505,1
488,311,7,0.0999595163059896,1
488,312,7,0.0899646296574577,1
488,313,7,0.0839440488370827,1
488,314,7,0.0764185788745126,1
488,315,7,0.0717615644354162,1
489,307,7,0.0854753648683668,1
489,308,7,0.101343537770278,1
489,309,7,0.112952105851694,1
489,310,7,0.112958718563742,1
489,311,7,0.101204634878625,1
489,312,7,0.0902837589012854,1
489,313,7,0.084828061819849,1
489,314,7,0.0771683969290949,1
489,315,7,0.0688241366481485,1
490,308,7,0.0862338321586346,1
490,309,7,0.0994528891226445,1
490,310,7,0.10121208615923,1
490,311,7,0.0928056939380023,1
490,312,7,0.086289590977884,1
490,313,7,0.0852693285739696,1
490,314,7,0.0796084038178158,1
490,315,7,0.0707079389824934,1
491,309,7,0.0822148426059529,1
491,310,7,0.0849794414136713,1
491,311,7,0.0829129629090106,1
491,312,7,0.0831205924836656,1
491,313,7,0.0850690125150847,1
491,314,7,0.0814183881600637,1
491,315,7,0.0741298317841059,1
492,311,7,0.082191769991091,1
492,312,7,0.0845441404758546,1
492,313,7,0.0886461123770036,1
492,314,7,0.0892223527301109,1
492,315,7,0.0856722607654952,1
492,316,7,0.0758116888406555,1
493,311,7,0.0864131840036004,1
493,312,7,0.0911172121898542,1
493,313,7,0.102222213863158,1
493,314,7,0.109376509423402,1
493,315,7,0.105844973782993,1
493,316,7,0.0899024737580752,1
493,317,7,0.075812257869319,1
494,310,7,0.0865319073419121,1
494,311,7,0.0949985926423707,1
494,312,7,0.102051553182305,1
494,313,7,0.11570713898809,1
494,314,7,0.123284420507918,1
494,315,7,0.117897983199495,1
494,316,7,0.101967241103698,1
494,317,7,0.0875520379707676,1
494,318,7,0.0779380770789217,1
494,319,7,0.078205245021107,1
494,320,7,0.0779804427603645,1
494,321,7,0.0756436696507568,1
495,310,7,0.0932919738542949,1
495,311,7,0.108091151539593,1
495,312,7,0.112655599989573,1
495,313,7,0.119951038617472,1
495,314,7,0.123268224155221,1
495,315,7,0.12026877224363,1
495,316,7,0.110774391227979,1
495,317,7,0.0981469144318894,1
495,318,7,0.0864159033616345,1
495,319,7,0.0874059293793021,1
495,320,7,0.0922144671668305,1
495,321,7,0.0985497807358856,1
495,322,7,0.0865699424157368,1
496,310,7,0.100866739668452,1
496,311,7,0.120335486362096,1
496,312,7,0.124956322557743,1
496,313,7,0.127661952026595,1
496,314,7,0.127637849170363,1
496,315,7,0.123086482389869,1
496,316,7,0.115196965857705,1
496,317,7,0.103128598657064,1
496,318,7,0.0918342062752146,1
496,319,7,0.0926646586863052,1
496,320,7,0.0981085559101929,1
496,321,7,0.1070187661101,1
496,322,7,0.093975844481663,1
496,323,7,0.0677844074741663,1
497,310,7,0.109954127424853,1
497,311,7,0.126983993307552,1
497,312,7,0.132889420695757,1
497,313,7,0.137944827076622,1
497,314,7,0.134686952294937,1
497,315,7,0.121154863678462,1
497,316,7,0.110930760304714,1
497,317,7,0.103160847607847,1
497,318,7,0.0984580293562247,1
497,319,7,0.0999498667778113,1
497,320,7,0.0947652489619,1
497,321,7,0.0910444124595762,1
497,322,7,0.0771078343099702,1
498,310,7,0.127752205962405,1
498,311,7,0.130242191537109,1
498,312,7,0.132286945126374,1
498,313,7,0.138738915561226,1
498,314,7,0.135770646420395,1
498,315,7,0.117505161748853,1
498,316,7,0.106888632249641,1
498,317,7,0.101193589732777,1
498,318,7,0.0986435147312057,1
498,319,7,0.0985059475594684,1
498,320,7,0.0874612988631502,1
498,321,7,0.0733271659411212,1
499,309,7,0.161497666191829,1
499,310,7,0.16207587119127,1
499,311,7,0.145814241922524,1
499,312,7,0.13381039658255,1
499,313,7,0.131661169330663,1
499,314,7,0.124783505557745,1
499,315,7,0.107329312005772,1
499,316,7,0.098594075125009,1
499,317,7,0.0924844323341302,1
499,318,7,0.0866736553768824,1
499,319,7,0.0834901736057336,1
499,320,7,0.0738329964843373,1
500,308,7,0.15702867080271,1
500,309,7,0.199475980904788,1
500,310,7,0.194187176935474,1
500,311,7,0.162825263971798,1
500,312,7,0.135082373308104,1
500,313,7,0.117199850916886,1
500,314,7,0.103839165713414,1
500,315,7,0.0913144255450791,1
500,316,7,0.0860240402750582,1
500,317,7,0.0796838749879246,1
500,318,7,0.0729402563988052,1
500,319,7,0.0677851322369904,1
501,308,7,0.146505545861171,1
501,309,7,0.188860769156164,1
501,310,7,0.183679026432448,1
501,311,7,0.152321186516048,1
501,312,7,0.121790318951228,1
501,313,7,0.102195739055866,1
501,314,7,0.0897713695540004,1
501,315,7,0.0824464432617806,1
501,316,7,0.0766429259123243,1
502,309,7,0.134531337929903,1
502,310,7,0.135373799840682,1
502,311,7,0.117633127310616,1
502,312,7,0.0990203135326373,1
502,313,7,0.0891335782688265,1
502,314,7,0.0818827035699445,1
502,315,7,0.0767260160767489,1
502,316,7,0.068961691840335,1
503,310,7,0.0950299311472921,1
503,311,7,0.0908287985143057,1
503,312,7,0.0855882182267811,1
503,313,7,0.0838822942526524,1
503,314,7,0.0779446778114185,1
503,315,7,0.0697790026841861,1
504,309,7,0.0715645367632289,1
504,310,7,0.0789488217297168,1
504,311,7,0.0791803085798118,1
504,312,7,0.0766491073605427,1
504,313,7,0.0744978076463652,1
504,314,7,0.0685892715647248,1
505,310,7,0.0712641016084416,1
505,311,7,0.071608944958085,1
505,312,7,0.0691833494689896,1
482,316,8,0.0692462960187257,1
482,317,8,0.0736464868577619,1
482,318,8,0.0749963306635866,1
483,316,8,0.0714279758737597,1
483,317,8,0.0771057558579045,1
483,318,8,0.0777820374398339,1
484,315,8,0.0687624419614722,1
484,316,8,0.0696034064283995,1
484,317,8,0.0719002996133576,1
485,309,8,0.0778758732613359,1
485,310,8,0.0849681926154599,1
485,311,8,0.0791839863019107,1
485,312,8,0.0700998450037798,1
485,313,8,0.068030928660529,1
485,314,8,0.0730763500857927,1
485,315,8,0.0791731927266301,1
485,316,8,0.072325609605798,1
486,308,8,0.0835409010136425,1
486,309,8,0.0909146559549676,1
486,310,8,0.0947922508694279,1
486,311,8,0.0888053565459332,1
486,312,8,0.0787040675270987,1
486,313,8,0.0747972544882106,1
486,314,8,0.0820092136162833,1
486,315,8,0.0914246793409675,1
486,316,8,0.0788624431785946,1
487,307,8,0.0824786622636866,1
487,308,8,0.0966017919682958,1
487,309,8,0.102475018323921,1
487,310,8,0.100925391549222,1
487,311,8,0.0932526809276351,1
487,312,8,0.0836675787736927,1
487,313,8,0.0754452822995524,1
487,314,8,0.0746837242851754,1
487,315,8,0.0787733332898875,1
487,316,8,0.0693663311178512,1
488,307,8,0.0823126795974258,1
488,308,8,0.0960237546825668,1
488,309,8,0.102689667915351,1
488,310,8,0.101158297976088,1
488,311,8,0.0941195871118434,1
488,312,8,0.0862899323950821,1
488,313,8,0.0789247488223622,1
488,314,8,0.0728208921545251,1
488,315,8,0.0683972034265732,1
489,308,8,0.0914476141909951,1
489,309,8,0.100408030688351,1
489,310,8,0.102058836749198,1
489,311,8,0.0929038723466732,1
489,312,8,0.0846691890169945,1
489,313,8,0.0811086269249701,1
489,314,8,0.0769538311945203,1
490,309,8,0.0883499179832033,1
490,310,8,0.0914767903869951,1
490,311,8,0.0847179338092442,1
490,312,8,0.0803494947696323,1
490,313,8,0.082662764000549,1
490,314,8,0.0809025427123696,1
490,315,8,0.0707082863894669,1
491,310,8,0.0763230120079184,1
491,311,8,0.0762414252771206,1
491,312,8,0.0786825822027193,1
491,313,8,0.0825460292676718,1
491,314,8,0.0810825294735285,1
491,315,8,0.0736384485791678,1
492,311,8,0.077547567681587,1
492,312,8,0.0821906858417427,1
492,313,8,0.0864478827725242,1
492,314,8,0.0887801875096795,1
492,315,8,0.0864767355206524,1
492,316,8,0.0768162220943552,1
493,311,8,0.0821225162078531,1
493,312,8,0.0891633115139392,1
493,313,8,0.101606836317551,1
493,314,8,0.113709716604079,1
493,315,8,0.112092285571791,1
493,316,8,0.094181611236167,1
493,317,8,0.0762567291532815,1
494,311,8,0.0875117926698183,1
494,312,8,0.0979918511261928,1
494,313,8,0.115883202446358,1
494,314,8,0.130904984144825,1
494,315,8,0.126555245184029,1
494,316,8,0.106635851747979,1
494,317,8,0.0875577102880766,1
494,318,8,0.073107155500703,1
494,319,8,0.0722776794230035,1
494,320,8,0.0736805626900436,1
494,321,8,0.0709084826528437,1
495,310,8,0.0813980708418883,1
495,311,8,0.0980074784502256,1
495,312,8,0.107212667119526,1
495,313,8,0.116174760753995,1
495,314,8,0.124450593840709,1
495,315,8,0.122686880513468,1
495,316,8,0.111936323799783,1
495,317,8,0.0963863936549399,1
495,318,8,0.0827592473027802,1
495,319,8,0.0847262356379561,1
495,320,8,0.0891710622833139,1
495,321,8,0.0894783916695929,1
495,322,8,0.0805635513732974,1
496,310,8,0.0892916544315521,1
496,311,8,0.112371157535118,1
496,312,8,0.121201056826389,1
496,313,8,0.119794070563196,1
496,314,8,0.120506362674863,1
496,315,8,0.117066147150285,1
496,316,8,0.111283414321486,1
496,317,8,0.0984771008011157,1
496,318,8,0.0887600379052155,1
496,319,8,0.090874967703131,1
496,320,8,0.0941668524295679,1
496,321,8,0.0951625567543199,1
496,322,8,0.0857116255694599,1
497,310,8,0.0961033288488284,1
497,311,8,0.115936834895339,1
497,312,8,0.124981743164564,1
497,313,8,0.126141543376324,1
497,314,8,0.125100364676694,1
497,315,8,0.112552635750353,1
497,316,8,0.105375495186712,1
497,317,8,0.0972538688678117,1
497,318,8,0.0940667572927672,1
497,319,8,0.0936854541802307,1
497,320,8,0.0901085280217986,1
497,321,8,0.0853106460447165,1
498,310,8,0.110204428159496,1
498,311,8,0.114251360014444,1
498,312,8,0.116782088041457,1
498,313,8,0.121715770206531,1
498,314,8,0.12425457245079,1
498,315,8,0.109085298522739,1
498,316,8,0.101749991949742,1
498,317,8,0.0963030459301728,1
498,318,8,0.0946574809228049,1
498,319,8,0.0915118365628925,1
498,320,8,0.0827106941833435,1
498,321,8,0.0716573423433611,1
499,310,8,0.136388048510089,1
499,311,8,0.12248436620701,1
499,312,8,0.110448739118734,1
499,313,8,0.107450077857497,1
499,314,8,0.10576944271513,1
499,315,8,0.0939909027770324,1
499,316,8,0.08998187422085,1
499,317,8,0.0860431296892754,1
499,318,8,0.083866511194459,1
499,319,8,0.0801712570228919,1
499,320,8,0.0716184926600813,1
500,309,8,0.165762865462553,1
500,310,8,0.162879112052693,1
500,311,8,0.137185922532749,1
500,312,8,0.114104095396326,1
500,313,8,0.0991638465206784,1
500,314,8,0.0894599611306703,1
500,315,8,0.0808574397035665,1
500,316,8,0.0784039737895095,1
500,317,8,0.0734368806572231,1
500,318,8,0.0694111705765365,1
501,309,8,0.155402614493838,1
501,310,8,0.152037618568802,1
501,311,8,0.126652770707181,1
501,312,8,0.103440342507816,1
501,313,8,0.0897117952478176,1
501,314,8,0.0820369163275336,1
501,315,8,0.0771182325600741,1
501,316,8,0.0732965282399222,1
502,310,8,0.112563249632372,1
502,311,8,0.0997589247174359,1
502,312,8,0.0865915175867473,1
502,313,8,0.0803187312831498,1
502,314,8,0.0780817178829201,1
502,315,8,0.0745379750802342,1
502,316,8,0.0683011993063744,1
503,309,8,0.0759207686405644,1
503,310,8,0.0815470066073452,1
503,311,8,0.0815988541032549,1
503,312,8,0.0790780750931913,1
503,313,8,0.077558277400012,1
503,314,8,0.075388978410741,1
503,315,8,0.0687672876897752,1
504,310,8,0.0692954780645799,1
504,311,8,0.0738256170810377,1
504,312,8,0.0740115576789496,1
504,313,8,0.0714337260581489,1
505,311,8,0.0700907165860619,1
505,312,8,0.0678636042845774,1
485,310,9,0.0791421597002544,1
485,311,9,0.0724169716500576,1
485,315,9,0.0708420680231479,1
486,309,9,0.0817475802265726,1
486,310,9,0.0865138122304122,1
486,311,9,0.0821822941663996,1
486,312,9,0.0749394038381331,1
486,313,9,0.0696706356675504,1
486,314,9,0.0747476052398747,1
486,315,9,0.0821614078195607,1
486,316,9,0.0729716967299085,1
487,308,9,0.0901575663130431,1
487,309,9,0.0923086563850814,1
487,310,9,0.092007688140283,1
487,311,9,0.0881864510226128,1
487,312,9,0.0809324436711937,1
487,313,9,0.0706142529053765,1
487,314,9,0.0680889635944326,1
487,315,9,0.0710353341163807,1
488,308,9,0.0893741935366394,1
488,309,9,0.0956697889049809,1
488,310,9,0.0946843510552738,1
488,311,9,0.0904280346214769,1
488,312,9,0.0825812251879544,1
488,313,9,0.0736708892027638,1
488,314,9,0.0681303709118106,1
489,308,9,0.0879577434283059,1
489,309,9,0.0950316981310367,1
489,310,9,0.0944367876479906,1
489,311,9,0.0867968650569728,1
489,312,9,0.0793692740143034,1
489,313,9,0.0771212514068784,1
489,314,9,0.0754576092573369,1
490,309,9,0.0832008554740989,1
490,310,9,0.0837912496664893,1
490,311,9,0.0780506069894641,1
490,312,9,0.0750394091283027,1
490,313,9,0.0805793404212662,1
490,314,9,0.0821154003546714,1
490,315,9,0.0718373350942954,1
491,311,9,0.0717194323552142,1
491,312,9,0.0753271938774337,1
491,313,9,0.0822305597766168,1
491,314,9,0.0822726439386156,1
491,315,9,0.0739962957312165,1
492,311,9,0.0752821028481813,1
492,312,9,0.0810165760565389,1
492,313,9,0.0877238546782733,1
492,314,9,0.0898692424841257,1
492,315,9,0.08582722224501,1
492,316,9,0.0754079300601239,1
493,311,9,0.0805301763447381,1
493,312,9,0.0881285538535436,1
493,313,9,0.101136051950233,1
493,314,9,0.112183018689633,1
493,315,9,0.109374796347636,1
493,316,9,0.0927387222591938,1
493,317,9,0.0753209046132579,1
494,311,9,0.0818825118971315,1
494,312,9,0.0938240515933378,1
494,313,9,0.112838048548423,1
494,314,9,0.128682238389611,1
494,315,9,0.124488149732501,1
494,316,9,0.10575926009694,1
494,317,9,0.0860411770224932,1
494,318,9,0.0697897663105897,1
494,320,9,0.0713115226603266,1
494,321,9,0.0683410612616978,1
495,311,9,0.0878457226486729,1
495,312,9,0.100196699432495,1
495,313,9,0.110001147161786,1
495,314,9,0.119864630117472,1
495,315,9,0.118840761868764,1
495,316,9,0.108908887657498,1
495,317,9,0.092481784853401,1
495,318,9,0.0790670958348731,1
495,319,9,0.0819554913206717,1
495,320,9,0.088897431373466,1
495,321,9,0.0848929310874902,1
495,322,9,0.0747211843405612,1
496,310,9,0.0786926270560743,1
496,311,9,0.102409298508172,1
496,312,9,0.114175709151073,1
496,313,9,0.111257059309702,1
496,314,9,0.111326193297432,1
496,315,9,0.10808209499918,1
496,316,9,0.103721191097028,1
496,317,9,0.0919001537024287,1
496,318,9,0.0844598643358997,1
496,319,9,0.0892425023345749,1
496,320,9,0.0946018119501865,1
496,321,9,0.0895174929234397,1
496,322,9,0.0780878454231599,1
497,311,9,0.103043400091696,1
497,312,9,0.113060976009464,1
497,313,9,0.11280387088996,1
497,314,9,0.112275980003925,1
497,315,9,0.101712495955704,1
497,316,9,0.0965618401663413,1
497,317,9,0.0902264068017781,1
497,318,9,0.0885061552848795,1
497,319,9,0.0894845850973621,1
497,320,9,0.0884810401566044,1
497,321,9,0.0811790726735137,1
498,311,9,0.0991278659398178,1
498,312,9,0.102111127488488,1
498,313,9,0.107254942954337,1
498,314,9,0.110741052138072,1
498,315,9,0.0981631107845858,1
498,316,9,0.0919168292371575,1
498,317,9,0.0886090236876929,1
498,318,9,0.0882099668808546,1
498,319,9,0.0845773178418255,1
498,320,9,0.0771322246754213,1
499,313,9,0.0903142887865271,1
499,314,9,0.0901107023102708,1
499,315,9,0.0815626159620518,1
499,316,9,0.0794893390623059,1
499,317,9,0.0789454974043668,1
499,318,9,0.0795050382636436,1
499,319,9,0.0746969616888215,1
500,310,9,0.127428482560841,1
500,311,9,0.110261007577976,1
500,312,9,0.0936420103392149,1
500,313,9,0.0836562580981764,1
500,314,9,0.0771761357189187,1
500,315,9,0.071346347214534,1
500,316,9,0.0701962923673586,1
501,310,9,0.117701818054966,1
501,311,9,0.100419602934434,1
501,312,9,0.0843211710863862,1
501,313,9,0.0761726027577118,1
501,314,9,0.0729358000059035,1
501,315,9,0.0707440213895359,1
501,316,9,0.0679463290727023,1
502,310,9,0.0899960280601331,1
502,311,9,0.0819827148498895,1
502,312,9,0.0734491716763551,1
502,313,9,0.0700573834859304,1
502,314,9,0.0710334653064542,1
502,315,9,0.0697167569381725,1
503,310,9,0.068142667920718,1
503,311,9,0.0702005391181211,1
503,312,9,0.069761141173927,1
503,313,9,0.0691752692619677,1
503,314,9,0.0694268697778742,1
504,312,9,0.0678408850664645,1
508,307,9,0.0688581226337991,1
508,308,9,0.0678888631674622,1
509,307,9,0.0716103585450807,1
486,310,10,0.0741703885533763,1
486,311,10,0.0730933730274951,1
486,312,10,0.0682409421657954,1
486,315,10,0.0693080086747282,1
487,309,10,0.0796515841087138,1
487,310,10,0.0815951883607068,1
487,311,10,0.0819827687578682,1
487,312,10,0.0759951436817741,1
488,308,10,0.0815975303628903,1
488,309,10,0.0884360928819617,1
488,310,10,0.0892868326623507,1
488,311,10,0.0873845638504308,1
488,312,10,0.0782360863746697,1
488,313,10,0.0685510148692101,1
489,309,10,0.0880607495959537,1
489,310,10,0.0860162655465819,1
489,311,10,0.0803546040480531,1
489,312,10,0.0735549511100156,1
489,313,10,0.0726885420771659,1
490,310,10,0.074558579907629,1
490,312,10,0.0697592843435513,1
492,311,10,0.0714173979303936,1
492,316,10,0.0714728931995253,1
493,311,10,0.0771877079650021,1
493,312,10,0.0832427359837339,1
493,317,10,0.0722465924886491,1
494,312,10,0.0849542663876422,1
495,312,10,0.0883973270555376,1
495,313,10,0.0988020041884343,1
495,318,10,0.0755887913284919,1
495,319,10,0.0771957103049438,1
495,320,10,0.0837807016720003,1
495,321,10,0.0781496419360181,1
496,311,10,0.0859111270188897,1
496,312,10,0.0988721564379831,1
496,313,10,0.0985255640739213,1
496,314,10,0.0981343898115166,1
496,317,10,0.085186651704048,1
496,319,10,0.0852074721633574,1
496,320,10,0.0908394004167734,1
496,321,10,0.0825982960478599,1
497,311,10,0.0836511607993063,1
497,312,10,0.0938272261743027,1
497,313,10,0.0943833708309246,1
497,314,10,0.0935988599971939,1
497,315,10,0.088463130728142,1
497,316,10,0.0855235046933005,1
497,317,10,0.0835337372422576,1
497,318,10,0.0829176169645007,1
497,319,10,0.0844166361267985,1
497,320,10,0.0846138375024726,1
497,321,10,0.0756927678397554,1
498,312,10,0.0820292613945654,1
498,313,10,0.0874969140677111,1
498,314,10,0.0902331632684355,1
498,315,10,0.0834052026518317,1
498,316,10,0.0800665078306011,1
498,317,10,0.0820815820827321,1
498,318,10,0.0839857077250277,1
498,319,10,0.0795563766286439,1
498,320,10,0.0722723125842402,1
499,314,10,0.0740042321836287,1
499,315,10,0.0699061117080654,1
499,316,10,0.0700574134348075,1
499,317,10,0.0742051412302788,1
499,318,10,0.0776948562588074,1
499,319,10,0.0712366025495551,1
500,313,10,0.0693160170044453,1
502,315,10,0.0678542961735973,1
508,307,10,0.0771208201430493,1
508,308,10,0.0825684190481375,1
508,309,10,0.0688546545538394,1
509,307,10,0.0848929071283886,1
509,308,10,0.0880780840059771,1
509,309,10,0.0693318120421895,1
487,310,11,0.0715528986296161,1
487,311,11,0.0746816098944573,1
487,312,11,0.0695742901301535,1
488,309,11,0.0781432628252113,1
488,310,11,0.0822052230266517,1
488,311,11,0.0823888695405833,1
488,312,11,0.0735815636821421,1
489,310,11,0.0773139903998755,1
489,311,11,0.0736017312559323,1
489,313,11,0.0679514203817969,1
495,320,11,0.0734248112597811,1
496,312,11,0.081417226143635,1
496,313,11,0.0847895535537673,1
496,319,11,0.0757905988414529,1
496,320,11,0.0798015201666634,1
497,312,11,0.0745415689454775,1
497,317,11,0.0774642139670445,1
497,318,11,0.0764364463745471,1
497,319,11,0.0749515511026554,1
497,320,11,0.0751149342063902,1
498,315,11,0.0706675079985065,1
498,316,11,0.0711888221111457,1
498,317,11,0.0757293773470336,1
498,318,11,0.0772905883473663,1
498,319,11,0.0697072631441548,1
499,317,11,0.0690395948592585,1
499,318,11,0.072017363783882,1
508,307,11,0.0778500034213597,1
508,308,11,0.0897005763984832,1
508,309,11,0.0704068030239836,1
509,307,11,0.0898731058892622,1
509,308,11,0.102728469680428,1
509,309,11,0.0756104144177057,1
510,308,11,0.0727308298915285,1
488,310,12,0.0700434812172144,1
488,311,12,0.0713046943163644,1
496,318,12,0.0684060263657455,1
497,316,12,0.0687490128850132,1
497,317,12,0.0704908635320239,1
497,318,12,0.0693484636178167,1
498,317,12,0.0690689447587453,1
498,318,12,0.0698338510575739,1
508,307,12,0.071892447017801,1
508,308,12,0.0873621620904144,1
508,309,12,0.0709667092595603,1
509,307,12,0.0861528983133559,1
509,308,12,0.105429463063116,1
509,309,12,0.0797320028333075,1
510,308,12,0.0720757041963312,1
508,308,13,0.0756489047144612,1
508,309,13,0.0691409837875468,1
509,307,13,0.0753031089905283,1
509,308,13,0.0899877861291752,1
509,309,13,0.0752230137138064,1
509,308,14,0.0700200432260528,1
504,308,28,0.0694008322241867,1
505,307,28,0.0691332090590705,1
505,308,28,0.0680164154347216,1
506,307,28,0.0686751290053868,1
507,306,28,0.0692819651312652,1
507,307,28,0.0689224648012046,1
504,309,29,0.0713921330577334,1
505,308,29,0.0729081691719581,1
505,309,29,0.0702141658571685,1
506,307,29,0.0735169879134958,1
506,308,29,0.0705120074392052,1
507,306,29,0.0747696715724684,1
507,307,29,0.0723955941416355,1
508,305,29,0.0780334462829275,1
508,306,29,0.0686424428009992,1
509,305,29,0.070165600758181,1
504,309,30,0.0751783479586079,1
504,310,30,0.0685362740319373,1
505,308,30,0.0774803624015377,1
505,309,30,0.0732450580998631,1
506,307,30,0.0778656726738204,1
506,308,30,0.0731651125675263,1
506,309,30,0.0681050701004979,1
507,306,30,0.0807420167315032,1
507,307,30,0.0748526599107111,1
507,308,30,0.0679459337475255,1
508,306,30,0.0731400273881282,1
503,311,31,0.0711395322493341,1
504,310,31,0.0723349536554306,1
504,311,31,0.0678787584163532,1
505,309,31,0.076478871953744,1
505,310,31,0.0690840150336654,1
506,308,31,0.075545449313658,1
506,309,31,0.0697023874669748,1
507,307,31,0.0772111759050407,1
507,308,31,0.068590559366437,1
508,306,31,0.0784599063122457,1
508,307,31,0.0689455853342697,1
509,305,31,0.0798192918302914,1
509,306,31,0.0687043111911622,1
504,310,32,0.0772058450049298,1
504,311,32,0.0724966716016027,1
505,309,32,0.0808172543003712,1
505,310,32,0.0725264647444695,1
506,308,32,0.0789608132600785,1
506,309,32,0.0725824092467565,1
507,307,32,0.0807948285812532,1
507,308,32,0.0702737940713299,1
508,306,32,0.0840729547935837,1
508,307,32,0.0719495595262921,1
509,306,32,0.0727666786973302,1
502,313,33,0.0703142370348676,1
503,312,33,0.0786224628269746,1
503,313,33,0.0693577178208181,1
504,311,33,0.0789198431963052,1
504,312,33,0.0705239270922621,1
505,310,33,0.0782446098250717,1
505,311,33,0.0706693408697806,1
506,309,33,0.0774367867854629,1
506,310,33,0.0698590141040523,1
507,308,33,0.0751364375000958,1
507,309,33,0.0690051356813508,1
508,307,33,0.0767403256501925,1
503,313,34,0.0731893591783676,1
504,311,34,0.0846781676903273,1
504,312,34,0.0749254057330105,1
505,310,34,0.0839502063261995,1
505,311,34,0.0747613996926335,1
506,309,34,0.0817172000857161,1
506,310,34,0.0752924292209804,1
507,308,34,0.079733206778164,1
507,309,34,0.0738402501023533,1
507,310,34,0.0685761539565869,1
508,307,34,0.0809782834223717,1
508,308,34,0.0704411783450356,1
509,306,34,0.0826999365467153,1
509,307,34,0.0718063020679196,1
510,306,34,0.0709706744908787,1
504,312,35,0.0792665014478964,1
504,313,35,0.0711050610918757,1
505,310,35,0.0894710541947212,1
505,311,35,0.0795753821860054,1
505,312,35,0.0703469112597044,1
506,309,35,0.0846795633079967,1
506,310,35,0.0795356879443934,1
506,311,35,0.0719379693108826,1
507,308,35,0.0830477867636122,1
507,309,35,0.0772635325318599,1
507,310,35,0.0737603464984444,1
508,307,35,0.0831700979773918,1
508,308,35,0.0741441173984479,1
508,309,35,0.0716576837605593,1
508,310,35,0.0705643101580457,1
509,307,35,0.0755669166687112,1
509,308,35,0.0683736336603527,1
510,306,35,0.076194986548402,1
510,307,35,0.0688381287634957,1
511,305,35,0.0784587862242449,1
511,306,35,0.0682234280625099,1
522,301,35,0.0714424471711393,1
523,301,35,0.0685921047284916,1
504,313,36,0.073583055136218,1
504,314,36,0.0686205262127906,1
505,311,36,0.0821690627525289,1
505,312,36,0.0731315159172771,1
505,313,36,0.0679612975214405,1
506,310,36,0.081051101121976,1
506,311,36,0.0749843511127757,1
506,312,36,0.068858829427297,1
507,309,36,0.0792319164847053,1
507,310,36,0.0778736151160081,1
507,311,36,0.0732295924997662,1
508,308,36,0.0766564148865374,1
508,309,36,0.0740434172943312,1
508,310,36,0.0759438172963246,1
508,311,36,0.0710479126447321,1
509,307,36,0.0780394600174346,1
509,308,36,0.0726000431455502,1
509,309,36,0.0700712558057695,1
509,310,36,0.0711954288334179,1
510,306,36,0.080090556778854,1
510,307,36,0.0732702750543201,1
510,308,36,0.0690942395802825,1
511,305,36,0.0819534188583814,1
511,306,36,0.07279777162146,1
512,305,36,0.0714702217596944,1
523,301,36,0.0733357792381542,1
524,301,36,0.0708132931421001,1
525,301,36,0.0680194762099538,1
504,314,37,0.0708795700069616,1
504,315,37,0.0681773008021124,1
505,311,37,0.0834648608148701,1
505,312,37,0.075014018470359,1
505,313,37,0.0705692696920815,1
505,314,37,0.0682480460394263,1
506,310,37,0.0813969807027645,1
506,311,37,0.0770901345236471,1
506,312,37,0.07151026340828,1
506,313,37,0.0679897489546165,1
507,309,37,0.0799684971356415,1
507,310,37,0.0792753303768441,1
507,311,37,0.077381183700374,1
507,312,37,0.070768531550495,1
508,308,37,0.0778937287818196,1
508,309,37,0.0757345285538823,1
508,310,37,0.078097345206953,1
508,311,37,0.0771698524445184,1
508,312,37,0.0687920194724244,1
509,307,37,0.0796067745989055,1
509,308,37,0.0748325582244504,1
509,309,37,0.0722075391530055,1
509,310,37,0.0724463634779722,1
509,311,37,0.0689592480119696,1
510,306,37,0.0823496484912283,1
510,307,37,0.0760278358759371,1
510,308,37,0.0722718094431061,1
511,306,37,0.0755053058388906,1
511,307,37,0.0701816833051447,1
513,305,37,0.0682696870979663,1
519,305,37,0.0706789963877342,1
521,302,37,0.0682548084958591,1
505,313,38,0.0710765737200473,1
505,314,38,0.0687535351654443,1
506,311,38,0.0768996596657533,1
506,312,38,0.0717726035914885,1
506,313,38,0.0689474900828487,1
507,310,38,0.079349753336257,1
507,311,38,0.0789166087175862,1
507,312,38,0.0721304806924142,1
508,309,38,0.0767404993536793,1
508,310,38,0.0781579617340563,1
508,311,38,0.0791828542343591,1
508,312,38,0.0711154533522042,1
509,308,38,0.075715984209227,1
509,309,38,0.07326340478193,1
509,310,38,0.0715179363105744,1
509,311,38,0.0691963712407211,1
510,307,38,0.0766519285447587,1
510,308,38,0.0727222525331479,1
510,309,38,0.0688850107355942,1
511,306,38,0.0768082377237397,1
511,307,38,0.0716103944837331,1
512,305,38,0.0767004996335216,1
512,306,38,0.069583987576535,1
513,305,38,0.0717399653053041,1
519,305,38,0.0729055875787584,1
520,302,38,0.0702536744157429,1
521,302,38,0.0716580131982066,1
522,302,38,0.070464628315748,1
523,302,38,0.0691529453690315,1
506,313,39,0.0682471056446877,1
507,311,39,0.0770208567813074,1
507,312,39,0.0714460709852596,1
508,310,39,0.0761797605393213,1
508,311,39,0.076457200946327,1
508,312,39,0.0703502535543806,1
509,308,39,0.0762089786637491,1
509,309,39,0.0738884618045919,1
509,310,39,0.0704746132713489,1
509,311,39,0.0680117014814775,1
510,307,39,0.0776268183999767,1
510,308,39,0.0736651150592729,1
510,309,39,0.0703553149145983,1
511,307,39,0.0744043192318367,1
511,308,39,0.0694982499313811,1
512,306,39,0.073790594864242,1
512,307,39,0.0686726911667968,1
513,305,39,0.0762631681618424,1
513,306,39,0.0694303198885078,1
514,305,39,0.0702003893737359,1
519,305,39,0.0680253102511987,1
521,302,39,0.0754496428560476,1
521,303,39,0.0682951676025411,1
522,302,39,0.0744555797297567,1
523,302,39,0.0726204383308058,1
524,302,39,0.0702070739630884,1
525,302,39,0.0683843853072055,1
526,302,39,0.0681616016007747,1
527,302,39,0.0685183047057209,1
507,311,40,0.0725734665120761,1
507,312,40,0.0693171550617723,1
508,310,40,0.0730342479544677,1
508,311,40,0.0727533274879514,1
508,312,40,0.0691564733467453,1
509,309,40,0.0741468247769312,1
509,310,40,0.07066408783675,1
509,311,40,0.068285164677614,1
510,308,40,0.0739295876025258,1
510,309,40,0.0720239165981756,1
511,307,40,0.0758145399737485,1
511,308,40,0.0718835342319977,1
511,309,40,0.0685722606025733,1
512,306,40,0.0760734899440775,1
512,307,40,0.0722207585873254,1
512,308,40,0.0677683968045075,1
513,305,40,0.0794209597862771,1
513,306,40,0.0731922761989901,1
513,307,40,0.0691356588772113,1
514,305,40,0.0757840160782822,1
514,306,40,0.070478943878967,1
515,304,40,0.0761702367964266,1
515,305,40,0.0722941572951439,1
516,304,40,0.0717815642954951,1
516,305,40,0.0698260643495468,1
517,303,40,0.0752612165013425,1
517,304,40,0.0694122547258849,1
517,305,40,0.0686368543405459,1
518,303,40,0.0724762464674701,1
519,303,40,0.0711412273557739,1
520,303,40,0.0702192272173861,1
521,302,40,0.0795768077525519,1
521,303,40,0.071737820965709,1
522,302,40,0.0792628776337761,1
522,303,40,0.0716316821455241,1
523,302,40,0.0767482261639523,1
523,303,40,0.0698284482801582,1
524,302,40,0.0738431731127512,1
525,302,40,0.072395306632416,1
526,302,40,0.072362171194873,1
508,311,41,0.0680674063927483,1
509,310,41,0.068955797901336,1
510,309,41,0.0716170371446578,1
510,310,41,0.0684434564722542,1
511,308,41,0.0721997644245292,1
511,309,41,0.0695772191303268,1
512,307,41,0.0734721724139121,1
512,308,41,0.0702439290511582,1
513,306,41,0.074961428242299,1
513,307,41,0.0719735246176894,1
513,308,41,0.0679114685798425,1
514,305,41,0.0798195733497354,1
514,306,41,0.0743010734731727,1
514,307,41,0.0697160321753484,1
515,305,41,0.0771030544691966,1
515,306,41,0.0715994391845165,1
516,304,41,0.0770214377895218,1
516,305,41,0.0768853680616358,1
516,306,41,0.0713385125883037,1
517,304,41,0.0748658853348064,1
517,305,41,0.0781396150519893,1
517,306,41,0.0728820956796181,1
518,303,41,0.076883361486875,1
518,304,41,0.0711898343831892,1
518,305,41,0.072456198689188,1
519,303,41,0.0751798454024592,1
519,304,41,0.067992061007923,1
520,303,41,0.0740487182455651,1
521,303,41,0.0746971593514099,1
522,302,41,0.0831645274862647,1
522,303,41,0.0749413744742415,1
523,302,41,0.0804838454319769,1
523,303,41,0.0731318513446998,1
524,302,41,0.0774337080409045,1
524,303,41,0.0707407988903677,1
525,302,41,0.0757731206768197,1
525,303,41,0.0688186679832033,1
526,302,41,0.0748539776613003,1
526,303,41,0.0679111631012968,1
511,308,42,0.0691951852651908,1
512,307,42,0.0707349588593474,1
512,308,42,0.0692457749082654,1
513,306,42,0.0726870266639884,1
513,307,42,0.071026756758,1
513,308,42,0.0684226779413726,1
514,305,42,0.0783081673318991,1
514,306,42,0.0730199443707995,1
514,307,42,0.06949195467743,1
515,305,42,0.0772883242122631,1
515,306,42,0.0720581002464146,1
516,304,42,0.077212583502261,1
516,305,42,0.0787446123168183,1
516,306,42,0.0746933618338028,1
517,304,42,0.0763844371547014,1
517,305,42,0.0842262031973325,1
517,306,42,0.0819412356552067,1
518,303,42,0.0760251524565554,1
518,304,42,0.0714033578968432,1
518,305,42,0.0761176405785912,1
518,306,42,0.0736241390057241,1
519,303,42,0.074702346496911,1
519,304,42,0.0679499349174964,1
520,303,42,0.0737744763786259,1
521,303,42,0.0745016890208279,1
522,303,42,0.0753833001036567,1
523,303,42,0.0738982850362568,1
524,303,42,0.0717352094236322,1
525,303,42,0.0701673497725994,1
526,303,42,0.0686960872295305,1
513,307,43,0.0684784726992746,1
514,306,43,0.0709726271576609,1
514,307,43,0.0682276568439461,1
515,305,43,0.0756312648258921,1
515,306,43,0.0712885698409729,1
516,304,43,0.0760870927240234,1
516,305,43,0.077134836217498,1
516,306,43,0.0748689041816108,1
517,304,43,0.0759634398005529,1
517,305,43,0.0832413822944922,1
517,306,43,0.0841179979046328,1
518,304,43,0.0712094868362945,1
518,305,43,0.0754120570153783,1
518,306,43,0.0762588016155718,1
519,303,43,0.0735529565148056,1
519,304,43,0.0685898885115916,1
520,303,43,0.0733571747159026,1
520,304,43,0.0678584410981779,1
521,303,43,0.0737472708187343,1
522,303,43,0.0740848306014846,1
523,303,43,0.0723500299201261,1
524,303,43,0.0699996001225939,1
525,303,43,0.0680337857833975,1
515,305,44,0.0700349877156894,1
516,304,44,0.0713611838882133,1
516,305,44,0.0716968748610372,1
516,306,44,0.069813156383548,1
517,304,44,0.0709411688572314,1
517,305,44,0.0754718589330265,1
517,306,44,0.0767368875191098,1
518,304,44,0.0679869696988283,1
518,305,44,0.0704698034816983,1
518,306,44,0.0719312847215301,1
520,303,44,0.0701350409240623,1
521,303,44,0.0704896715667182,1
522,303,44,0.0704697795225967,1
523,303,44,0.0690808584220267,1
