x,y,z,signal,cytoplasm.p
158,816,22,0.149280860377089,1
158,817,22,0.129244055363542,1
159,816,22,0.132991342714056,1
159,817,22,0.114347843316676,1
159,818,22,0.0697626446075537,1
171,816,22,0.290641608449244,1
173,805,22,0.102791829524667,1
174,806,22,0.0984916319962493,1
154,798,23,0.0815120922065068,1
154,799,23,0.0734410974591085,1
155,797,23,0.0724302210332545,1
155,798,23,0.0845181747994719,1
155,799,23,0.0779132734189676,1
157,816,23,0.0878499095016814,1
157,817,23,0.08629551486576,1
158,815,23,0.0784051957036922,1
158,816,23,0.127862274075255,1
158,817,23,0.121371262284311,1
158,818,23,0.076918180051307,1
159,815,23,0.0695669885939342,1
159,816,23,0.110500790267008,1
159,817,23,0.105283803704805,1
159,818,23,0.0713908811946736,1
169,809,23,0.0700768981742015,1
169,810,23,0.0811959159219539,1
169,811,23,0.0776063213885392,1
169,816,23,0.0754571001264274,1
170,810,23,0.0769893146240223,1
170,811,23,0.0765145171071819,1
170,812,23,0.0681879865614357,1
170,814,23,0.0691792404830615,1
170,815,23,0.108698299133792,1
170,816,23,0.150434850506706,1
170,817,23,0.11234917505938,1
171,811,23,0.0680109527595518,1
171,814,23,0.0732383435616335,1
171,815,23,0.13831190447257,1
171,816,23,0.204993977640216,1
171,817,23,0.15345236758092,1
171,818,23,0.075867507557659,1
172,815,23,0.0974156586912887,1
172,816,23,0.144231707321748,1
172,817,23,0.111408432913749,1
173,802,23,0.0812243314164774,1
173,804,23,0.0854868532575945,1
173,805,23,0.0888787552537518,1
173,806,23,0.081833503554764,1
173,816,23,0.0730580932503569,1
174,801,23,0.0748716534885219,1
174,802,23,0.115820621272922,1
174,803,23,0.120313515865909,1
174,805,23,0.100242527204122,1
174,806,23,0.0905731369306742,1
174,807,23,0.0690837634630984,1
175,801,23,0.0772192980404905,1
175,802,23,0.11983091966149,1
175,803,23,0.119940628387817,1
175,804,23,0.0934495648452127,1
175,806,23,0.0701146397490313,1
176,802,23,0.0880357542631867,1
176,803,23,0.0928151158547151,1
176,804,23,0.0808501920753259,1
154,797,24,0.0767397087033257,1
154,798,24,0.0915965918848798,1
154,799,24,0.0788672110398174,1
155,794,24,0.107589891195011,1
155,796,24,0.0704221069001446,1
155,797,24,0.0753480862140479,1
155,798,24,0.0881380955657645,1
155,799,24,0.0760139455867718,1
156,794,24,0.123657954881753,1
156,795,24,0.104423300590506,1
156,796,24,0.0702358428543609,1
157,794,24,0.110272304294391,1
157,795,24,0.0975254153358184,1
157,816,24,0.0715575167464537,1
157,817,24,0.0738249282568661,1
158,794,24,0.0783181582772754,1
158,795,24,0.0715421649520895,1
158,816,24,0.0950622160367276,1
158,817,24,0.0987214956172095,1
158,818,24,0.0705316299434335,1
159,816,24,0.0825041966762401,1
159,817,24,0.087535985372681,1
170,815,24,0.073928910757905,1
170,816,24,0.0932679308958174,1
170,817,24,0.0777890095384059,1
171,815,24,0.0931252484558838,1
171,816,24,0.128113125869236,1
171,817,24,0.103716291460746,1
172,815,24,0.0757768762659989,1
172,816,24,0.104378197581702,1
172,817,24,0.0858585966885838,1
173,802,24,0.0896163122380791,1
173,803,24,0.0956756648746536,1
173,804,24,0.0801600561428836,1
173,805,24,0.0728819279659068,1
173,806,24,0.0723467714823055,1
174,801,24,0.0842241007861652,1
174,802,24,0.152992820032262,1
174,803,24,0.159894095499829,1
174,804,24,0.108858190198466,1
174,805,24,0.0782112946942665,1
174,806,24,0.0761691885857306,1
175,801,24,0.0893839508807749,1
175,802,24,0.163902896444546,1
175,803,24,0.168650500246875,1
175,804,24,0.108770547804733,1
176,802,24,0.10648783241816,1
176,803,24,0.117701470647992,1
176,804,24,0.0947330778781973,1
177,803,24,0.0787088054394444,1
177,804,24,0.0809522937868874,1
178,807,24,0.0770867742596446,1
178,808,24,0.093935647098917,1
178,809,24,0.0726259249650772,1
179,807,24,0.0849335477545147,1
179,808,24,0.107483081519981,1
179,809,24,0.0835399725984547,1
180,808,24,0.0696265389410154,1
154,794,25,0.118563063901416,1
154,795,25,0.0847745731254782,1
154,796,25,0.0743522441244616,1
154,797,25,0.0801872197743474,1
154,798,25,0.0954209796244133,1
154,799,25,0.0865324584012494,1
155,793,25,0.177922696533636,1
155,794,25,0.171676175395191,1
155,795,25,0.110135246253563,1
155,796,25,0.0780602984460702,1
155,797,25,0.0780268096117782,1
155,798,25,0.0927169074971671,1
155,799,25,0.0844630209475384,1
156,792,25,0.100880432295029,1
156,793,25,0.173813411116716,1
156,794,25,0.200447067252623,1
156,795,25,0.134622682004836,1
156,796,25,0.072626068719687,1
156,798,25,0.0679518935740539,1
157,792,25,0.0701996466415856,1
157,793,25,0.141268709183274,1
157,794,25,0.195339897232705,1
157,795,25,0.14672904834065,1
157,796,25,0.0685755010710677,1
158,793,25,0.0973561502726354,1
158,794,25,0.135589060389203,1
158,795,25,0.10408684292643,1
158,817,25,0.0752096205759998,1
159,817,25,0.0696186024886031,1
171,816,25,0.0769961309884337,1
172,816,25,0.072395719926919,1
173,802,25,0.0935244490173318,1
173,803,25,0.0974379166966954,1
173,804,25,0.0714898742127998,1
174,801,25,0.0932765981008291,1
174,802,25,0.174533825363833,1
174,803,25,0.179694783566893,1
174,804,25,0.106126684899862,1
175,801,25,0.101115746611608,1
175,802,25,0.193072240141501,1
175,803,25,0.20031834697916,1
175,804,25,0.117328235762927,1
176,801,25,0.0685719730933539,1
176,802,25,0.117461580143003,1
176,803,25,0.132512436211288,1
176,804,25,0.099430559239933,1
177,803,25,0.0879307055821257,1
177,804,25,0.0884112353140291,1
179,808,25,0.0740723359299888,1
153,794,26,0.0712988842342211,1
154,793,26,0.182989207958102,1
154,794,26,0.149144089845481,1
154,795,26,0.0903899097010211,1
154,796,26,0.0809986067303225,1
154,797,26,0.0833089230019643,1
154,798,26,0.0925001015865909,1
154,799,26,0.0905841221787679,1
155,792,26,0.179004545808269,1
155,793,26,0.289265493488491,2
155,794,26,0.249083564362964,1
155,795,26,0.129684040305726,1
155,796,26,0.0867095221520103,1
155,797,26,0.0850032328015818,1
155,798,26,0.0979484492136048,1
155,799,26,0.0976301106201306,1
155,800,26,0.0722470237524783,1
156,792,26,0.144366644982082,1
156,793,26,0.265659069842506,2
156,794,26,0.281087868759325,2
156,795,26,0.156034679553724,1
156,796,26,0.0770822939076413,1
156,798,26,0.0727460199619568,1
156,799,26,0.0729824783256383,1
157,792,26,0.0935934811788798,1
157,793,26,0.210823466655831,1
157,794,26,0.290094334649998,2
157,795,26,0.189468276136888,1
157,796,26,0.0736223121242254,1
158,793,26,0.133794978900657,1
158,794,26,0.200089573497323,1
158,795,26,0.134734211622886,1
159,794,26,0.0830457981581776,1
173,802,26,0.09071821528077,1
173,803,26,0.0881168618119521,1
174,801,26,0.0972894241746185,1
174,802,26,0.172285694940451,1
174,803,26,0.169426954832685,1
174,804,26,0.0967634859553663,1
175,801,26,0.105600099784866,1
175,802,26,0.19519698119153,1
175,803,26,0.198558155639858,1
175,804,26,0.114509782884538,1
176,801,26,0.0705550739243705,1
176,802,26,0.119466334012111,1
176,803,26,0.133950461490632,1
176,804,26,0.0966592339144342,1
177,803,26,0.0884884135701285,1
177,804,26,0.0854278419902998,1
153,793,27,0.0871688540687538,1
153,794,27,0.0762465465350922,1
154,792,27,0.132763815105504,1
154,793,27,0.213703039202457,2
154,794,27,0.165774833033813,1
154,795,27,0.0939672970721595,1
154,796,27,0.0813210602995003,1
154,797,27,0.0793103466038644,1
154,798,27,0.0809117549869433,1
154,799,27,0.0820056676692433,1
155,791,27,0.0810456084979292,1
155,792,27,0.220075153951603,2
155,793,27,0.370862718372836,2
155,794,27,0.30339637995225,2
155,795,27,0.147141839702493,1
155,796,27,0.0925834013931547,1
155,797,27,0.0878254951771287,1
155,798,27,0.093919456735996,1
155,799,27,0.0970516241012462,1
155,800,27,0.0753025938698434,1
156,791,27,0.0729999385209452,1
156,792,27,0.177870789139972,2
156,793,27,0.335104549852565,2
156,794,27,0.333810159387444,2
156,795,27,0.173795897013431,2
156,796,27,0.087023685872027,1
156,797,27,0.0687280606506449,1
156,798,27,0.0746128772216796,1
156,799,27,0.0767431348548577,1
157,792,27,0.120402499969332,1
157,793,27,0.265731833634132,2
157,794,27,0.352849810550592,2
157,795,27,0.219397255130315,2
157,796,27,0.0859568170256826,1
158,792,27,0.0772933256747266,1
158,793,27,0.166448155666692,1
158,794,27,0.252141752012181,2
158,795,27,0.165743530467544,1
158,796,27,0.0692701892328181,1
159,793,27,0.0781547092860111,1
159,794,27,0.109842609786354,1
159,795,27,0.0787588739720587,1
173,802,27,0.0777041943186645,1
173,803,27,0.0709685061921819,1
174,801,27,0.0896775217529475,1
174,802,27,0.137798029660984,1
174,803,27,0.130431803867344,1
174,804,27,0.0782119296104595,1
175,801,27,0.0974842116708042,1
175,802,27,0.159174447943964,1
175,803,27,0.158937384612967,1
175,804,27,0.0961617411385825,1
176,801,27,0.0691050091964616,1
176,802,27,0.106133788773493,1
176,803,27,0.116679974350344,1
176,804,27,0.0843338214920425,1
177,803,27,0.0790315165689646,1
177,804,27,0.0725013855548468,1
150,807,28,0.0681719159940229,1
151,806,28,0.0682944488294925,1
151,807,28,0.0731008183183241,1
151,808,28,0.0704209628530422,1
152,807,28,0.0692485721333797,1
153,792,28,0.0746196756167648,1
153,793,28,0.0893825133346776,1
153,794,28,0.0789987465077213,1
154,791,28,0.0718351608058232,1
154,792,28,0.130115208298513,1
154,793,28,0.210193366242277,2
154,794,28,0.166983270221865,1
154,795,28,0.0941856483447903,1
154,796,28,0.0732926468654595,1
154,797,28,0.0700528132872961,1
154,798,28,0.0691052248283762,1
154,799,28,0.0685075350895419,1
155,790,28,0.0834076524699725,1
155,791,28,0.0861251237248008,1
155,792,28,0.221149983209462,2
155,793,28,0.384848484558071,2
155,794,28,0.324560173187887,2
155,795,28,0.161274091835045,1
155,796,28,0.0912007575772096,1
155,797,28,0.0818626857405394,1
155,798,28,0.0826598769288035,1
155,799,28,0.0834216565648705,1
155,800,28,0.0703866354501934,1
156,790,28,0.0862791448095769,1
156,791,28,0.0820255956520172,1
156,792,28,0.19305036548172,2
156,793,28,0.370930115325698,2
156,794,28,0.36833577588388,2
156,795,28,0.196819683226175,2
156,796,28,0.0944615254204152,1
156,797,28,0.0700929328029619,1
156,798,28,0.0717432177533493,1
156,799,28,0.0724734133037033,1
157,789,28,0.0896957366599556,1
157,790,28,0.0815945474547384,1
157,791,28,0.078379900882155,1
157,792,28,0.1393154074849,1
157,793,28,0.290610509535339,2
157,794,28,0.366711061284699,2
157,795,28,0.227898447526884,2
157,796,28,0.0946458787278445,1
158,790,28,0.0745264807012311,1
158,791,28,0.0719801852479403,1
158,792,28,0.092105231632761,1
158,793,28,0.183608395000866,1
158,794,28,0.266076030088031,2
158,795,28,0.179639521899002,1
158,796,28,0.0794128196815011,1
159,793,28,0.0907903441562026,1
159,794,28,0.1266198149629,1
159,795,28,0.0925712361593062,1
174,801,28,0.0743668771457771,1
174,802,28,0.0947001760418951,1
174,803,28,0.0873333512707141,1
175,801,28,0.081363971050505,1
175,802,28,0.111666664111029,1
175,803,28,0.110046058497776,1
175,804,28,0.0731315818048065,1
176,802,28,0.0850439213459112,1
176,803,28,0.0908823710655322,1
176,804,28,0.0683147122396892,1
150,806,29,0.0707905978830888,1
150,807,29,0.0760843314375614,1
150,808,29,0.0715623325258797,1
151,805,29,0.067917961496382,1
151,806,29,0.082841247328081,1
151,807,29,0.0901833223472866,1
151,808,29,0.0803530646757739,1
152,806,29,0.0808511204905137,1
152,807,29,0.0857502895697022,1
152,808,29,0.0739728218014024,1
153,791,29,0.0696345472707325,1
153,792,29,0.0740022675372957,1
153,793,29,0.0848505234776195,1
153,794,29,0.0776572883874643,1
154,790,29,0.0987391295160032,1
154,791,29,0.0779721708805296,1
154,792,29,0.115877560077927,1
154,793,29,0.171871801459933,1
154,794,29,0.14574991173467,1
154,795,29,0.0899907570577763,1
155,790,29,0.10477627805515,1
155,791,29,0.0905484890048808,1
155,792,29,0.184339566884611,1
155,793,29,0.310250815376146,2
155,794,29,0.278204822142963,2
155,795,29,0.150682947004001,1
155,796,29,0.0844866625910638,1
155,797,29,0.0714384879295963,1
155,798,29,0.0690566956680411,1
156,789,29,0.144641324102626,1
156,790,29,0.105513487632503,1
156,791,29,0.0942699304745205,1
156,792,29,0.181652960942448,2
156,793,29,0.330989454353503,2
156,794,29,0.334590195858947,2
156,795,29,0.190075184140071,2
156,796,29,0.0942213114675544,1
157,789,29,0.104707898779121,1
157,790,29,0.10824651433406,1
157,791,29,0.103499569407026,1
157,792,29,0.146093509211029,1
157,793,29,0.264617711449614,2
157,794,29,0.313125667979753,2
157,795,29,0.198668870648452,1
157,796,29,0.0936153019306819,1
158,789,29,0.0890259120559133,1
158,790,29,0.112050476939461,1
158,791,29,0.104545599824734,1
158,792,29,0.108541139406704,1
158,793,29,0.176664412434659,1
158,794,29,0.232918502253306,1
158,795,29,0.16336035456787,1
158,796,29,0.0824263894937231,1
159,790,29,0.0839454923729554,1
159,791,29,0.0780829937050815,1
159,792,29,0.0738511095651634,1
159,793,29,0.0985529672964013,1
159,794,29,0.12703803306126,1
159,795,29,0.0963301436741072,1
175,802,29,0.0706339772357867,1
175,803,29,0.0681127070641399,1
150,806,30,0.076205696266827,1
150,807,30,0.0816495755213884,1
150,808,30,0.0729635146967046,1
151,805,30,0.0736737942438354,1
151,806,30,0.0980608892775162,1
151,807,30,0.105542897429744,1
151,808,30,0.0861951561788415,1
151,809,30,0.0678008374281035,1
152,805,30,0.0706717068310657,1
152,806,30,0.0944547150457791,1
152,807,30,0.100322203196566,1
152,808,30,0.080833013399463,1
153,790,30,0.0823314515535465,1
153,791,30,0.0699581089483603,1
153,792,30,0.0702685530178501,1
153,793,30,0.0770724347373239,1
153,794,30,0.0723107729321187,1
153,806,30,0.0693260498782494,1
153,807,30,0.0730239455407703,1
154,789,30,0.152971999572953,1
154,790,30,0.111075485258061,1
154,791,30,0.0846052721236428,1
154,792,30,0.0949600963558398,1
154,793,30,0.12246546247583,1
154,794,30,0.110261414882704,1
154,795,30,0.0791645375011692,1
155,789,30,0.182178240286405,1
155,790,30,0.130421082169368,1
155,791,30,0.0989038962578567,1
155,792,30,0.133089263562385,1
155,793,30,0.201779480812018,1
155,794,30,0.192503666700912,1
155,795,30,0.120364033631678,1
155,796,30,0.0733322093320126,1
156,788,30,0.134168980476974,1
156,789,30,0.156988251798274,1
156,790,30,0.129141893754226,1
156,791,30,0.105433919456017,1
156,792,30,0.146068831336358,1
156,793,30,0.239898291696887,2
156,794,30,0.247791737521717,2
156,795,30,0.1552971704876,1
156,796,30,0.0841021669282362,1
157,788,30,0.0878007753740303,1
157,789,30,0.119926264906395,1
157,790,30,0.136548742204667,1
157,791,30,0.120145742256802,1
157,792,30,0.133929269665247,1
157,793,30,0.204458419841663,1
157,794,30,0.224771688928825,1
157,795,30,0.148858880699774,1
157,796,30,0.0811764371723353,1
158,789,30,0.108810415749832,1
158,790,30,0.146873545682532,1
158,791,30,0.129534427695648,1
158,792,30,0.11494531143382,1
158,793,30,0.148276363062042,1
158,794,30,0.171016533409338,1
158,795,30,0.123872963859708,1
158,796,30,0.0734076864918968,1
159,789,30,0.0793531016207086,1
159,790,30,0.106852106599218,1
159,791,30,0.096302782380055,1
159,792,30,0.0844866146728605,1
159,793,30,0.0972854529535247,1
159,794,30,0.110235754684867,1
159,795,30,0.0855222228813637,1
166,823,30,0.0738233828948115,1
167,823,30,0.0832564944978402,1
167,824,30,0.0729629756169181,1
168,823,30,0.0705308153339784,1
181,796,30,0.0685608081519981,1
150,806,31,0.0800485804328125,1
150,807,31,0.0822024018424357,1
150,808,31,0.0710956571444891,1
151,805,31,0.0786519385117449,1
151,806,31,0.107519750925013,1
151,807,31,0.111205954545942,1
151,808,31,0.0864566757628195,1
151,809,31,0.0681232969870567,1
152,805,31,0.0723619375936322,1
152,806,31,0.0987851669297695,1
152,807,31,0.10346875800234,1
152,808,31,0.0817655136141366,1
152,823,31,0.0944631905779779,1
153,789,31,0.0850152962092484,1
153,790,31,0.0778533696751376,1
153,791,31,0.0698539168051822,1
153,793,31,0.069563424677568,1
153,806,31,0.0697534203534293,1
153,807,31,0.0745893793327639,1
154,788,31,0.11366895019267,1
154,789,31,0.135262162406675,1
154,790,31,0.110508253527163,1
154,791,31,0.086624485310579,1
154,792,31,0.0796946925223069,1
154,793,31,0.0878750186401811,1
154,794,31,0.0838268828403764,1
154,795,31,0.0715388106778624,1
155,788,31,0.134842961985148,1
155,789,31,0.167085108383309,1
155,790,31,0.135793000262208,1
155,791,31,0.100477685786541,1
155,792,31,0.095227911193769,1
155,793,31,0.119645464235386,1
155,794,31,0.12012015393627,1
155,795,31,0.0929876633148203,1
156,788,31,0.112281143190325,1
156,789,31,0.151774415857935,1
156,790,31,0.140407451357274,1
156,791,31,0.107528759547223,1
156,792,31,0.10775681425601,1
156,793,31,0.149851590136824,1
156,794,31,0.156842748174125,1
156,795,31,0.115465978650715,1
156,796,31,0.0732839377320199,1
157,788,31,0.084971001820125,1
157,789,31,0.133287453251001,1
157,790,31,0.151515477867157,1
157,791,31,0.120238308245918,1
157,792,31,0.108907438131849,1
157,793,31,0.141452331738104,1
157,794,31,0.144739161094099,1
157,795,31,0.105370763264142,1
157,796,31,0.0682096575688527,1
158,788,31,0.0711724221060855,1
158,789,31,0.123585466619796,1
158,790,31,0.158509522976203,1
158,791,31,0.131701193009923,1
158,792,31,0.106537104310645,1
158,793,31,0.116382737735623,1
158,794,31,0.114834620384327,1
158,795,31,0.0867448738064534,1
159,789,31,0.0874275884071683,1
159,790,31,0.112958059688447,1
159,791,31,0.101503153305283,1
159,792,31,0.0873317939291087,1
159,793,31,0.0896759704011175,1
159,794,31,0.0858652453392839,1
159,795,31,0.0678927685010266,1
160,790,31,0.073552297639511,1
160,791,31,0.0736667143293062,1
160,792,31,0.0685726619175255,1
166,823,31,0.0858884796780817,1
166,824,31,0.0730859576855431,1
167,822,31,0.079500551921865,1
167,823,31,0.10390425061297,1
167,824,31,0.0864463374104696,1
168,822,31,0.0689167026372646,1
168,823,31,0.0853966412502128,1
168,824,31,0.0723608893829362,1
180,796,31,0.0795084943640526,1
181,795,31,0.0706627341475083,1
181,796,31,0.088480489097267,1
181,797,31,0.0696589855543868,1
185,809,31,0.0965856794724551,1
150,806,32,0.0795463257855135,1
150,807,32,0.0782192431262296,1
151,805,32,0.0780705289824627,1
151,806,32,0.103960865970102,1
151,807,32,0.103487505999359,1
151,808,32,0.0805207723973515,1
151,823,32,0.0855097341996433,1
152,805,32,0.0696663589679109,1
152,806,32,0.0938669563545671,1
152,807,32,0.0963636325083991,1
152,808,32,0.0770271939636864,1
152,822,32,0.0761379998251944,1
152,823,32,0.119513856890178,1
152,824,32,0.103515514189155,1
153,789,32,0.0754323563642274,1
153,790,32,0.0742337663669415,1
153,791,32,0.068091125903354,1
153,807,32,0.0699550002549248,1
153,823,32,0.0913133413957308,1
153,824,32,0.0826997508636777,1
154,788,32,0.0918324452812453,1
154,789,32,0.114480145475832,1
154,790,32,0.105134382767541,1
154,791,32,0.0837777007945221,1
154,792,32,0.0710482001539516,1
154,793,32,0.070957473025885,1
154,794,32,0.0695111938360323,1
155,788,32,0.11053731591743,1
155,789,32,0.150598167722912,1
155,790,32,0.136227139183596,1
155,791,32,0.097425428014975,1
155,792,32,0.0758118565543668,1
155,793,32,0.0782293658466648,1
155,794,32,0.0801184751220189,1
155,795,32,0.073536298949403,1
156,788,32,0.103847287848864,1
156,789,32,0.15952347215684,1
156,790,32,0.155773357632335,1
156,791,32,0.108829678867536,1
156,792,32,0.0841258385206386,1
156,793,32,0.0930170791018365,1
156,794,32,0.0975522734887365,1
156,795,32,0.0849248266415243,1
157,788,32,0.0903948093373027,1
157,789,32,0.154977831601633,1
157,790,32,0.16743716342254,1
157,791,32,0.120711991664533,1
157,792,32,0.0913554794657082,1
157,793,32,0.0966980656283878,1
157,794,32,0.0942414670617938,1
157,795,32,0.0778461579855494,1
158,788,32,0.0750837035174261,1
158,789,32,0.133582186139602,1
158,790,32,0.156424398300706,1
158,791,32,0.123767915178647,1
158,792,32,0.095981005655498,1
158,793,32,0.0916690322286335,1
158,794,32,0.0813728239385543,1
159,789,32,0.0922470156063838,1
159,790,32,0.109491417274781,1
159,791,32,0.0984153402269099,1
159,792,32,0.0855379819804555,1
159,793,32,0.0803461045567528,1
159,794,32,0.0688491439604663,1
160,790,32,0.0762065288456083,1
160,791,32,0.0774246275413898,1
160,792,32,0.0717210975127769,1
166,822,32,0.0693824975216705,1
166,823,32,0.0881565440740133,1
166,824,32,0.0725302083540979,1
167,822,32,0.0868719049632525,1
167,823,32,0.112953243909021,1
167,824,32,0.0906494885977677,1
168,822,32,0.0743044936349292,1
168,823,32,0.0941000604440216,1
168,824,32,0.0778109860243685,1
180,796,32,0.087716876589926,1
180,797,32,0.0710602695513936,1
181,795,32,0.0738163868371379,1
181,796,32,0.0959091942381619,1
181,797,32,0.0752085424164268,1
184,805,32,0.068232766122367,1
184,806,32,0.0749013987131854,1
185,806,32,0.0896161505141432,1
185,807,32,0.0766683345395942,1
185,808,32,0.0731112824559574,1
185,809,32,0.0804411802617637,1
185,810,32,0.0818824280402758,1
186,809,32,0.0807307319946393,1
150,806,33,0.0718527168375366,1
150,807,33,0.0693310154020606,1
151,805,33,0.0677441442038908,1
151,806,33,0.0834424350957521,1
151,807,33,0.0821779994974339,1
151,823,33,0.0870836015954078,1
151,824,33,0.0736226295823219,1
152,806,33,0.0767144438306655,1
152,807,33,0.0785573240194402,1
152,822,33,0.0756260657008401,1
152,823,33,0.117751593088585,1
152,824,33,0.104315245042191,1
153,823,33,0.0974274046408588,1
153,824,33,0.0907522312152976,1
154,788,33,0.0763332305647601,1
154,789,33,0.0971576311463721,1
154,790,33,0.0930289987548934,1
154,791,33,0.0756403692845084,1
155,788,33,0.0979468140049191,1
155,789,33,0.135867153681728,1
155,790,33,0.126280769715849,1
155,791,33,0.089090715436025,1
156,788,33,0.103409591000885,1
156,789,33,0.155941298955153,1
156,790,33,0.150742042128151,1
156,791,33,0.102246508392202,1
156,792,33,0.0736417788942932,1
156,793,33,0.0682839607327575,1
156,794,33,0.0678240777566767,1
157,788,33,0.0905951972734926,1
157,789,33,0.147365485936582,1
157,790,33,0.155016717223566,1
157,791,33,0.111883254389691,1
157,792,33,0.0833288929131661,1
157,793,33,0.0743518907277127,1
158,788,33,0.0724910891309248,1
158,789,33,0.119892039329728,1
158,790,33,0.135187985028053,1
158,791,33,0.109760394129138,1
158,792,33,0.0877261487622536,1
158,793,33,0.0753143278398627,1
159,789,33,0.0876776435610202,1
159,790,33,0.101789332794605,1
159,791,33,0.0926706544514861,1
159,792,33,0.0804757053272008,1
159,793,33,0.0680564451037563,1
160,790,33,0.0768013554717988,1
160,791,33,0.0757529590928049,1
160,792,33,0.0680765228309154,1
166,823,33,0.0787376042795939,1
167,822,33,0.0829027503419443,1
167,823,33,0.102613406094889,1
167,824,33,0.0836659795036594,1
168,822,33,0.0736725783194281,1
168,823,33,0.0909167643559103,1
168,824,33,0.0761623063337898,1
180,796,33,0.0791649567854476,1
180,797,33,0.0686459048911835,1
181,796,33,0.082512468556075,1
181,797,33,0.0710364901430339,1
184,805,33,0.0723550733110175,1
184,806,33,0.0709570777007083,1
185,805,33,0.0829962627155744,1
185,806,33,0.0837977365932534,1
185,807,33,0.0713828728649565,1
185,808,33,0.0685967587839817,1
185,809,33,0.0715829133941728,1
185,810,33,0.0681215719317399,1
186,809,33,0.0728689541123785,1
146,797,34,0.0740627822382171,1
146,799,34,0.0755907020668463,1
147,798,34,0.0715820927949423,1
147,799,34,0.0710151905016921,1
148,799,34,0.0682055665522508,1
151,823,34,0.0797768123431158,1
151,824,34,0.0696577816095303,1
152,822,34,0.0691270036517504,1
152,823,34,0.0988125342135971,1
152,824,34,0.0909582195914916,1
153,823,34,0.0922905972122339,1
153,824,34,0.088831220396134,1
154,788,34,0.0758096343476914,1
154,789,34,0.0943511158903662,1
154,790,34,0.0878989358133751,1
154,791,34,0.0711777829550734,1
154,823,34,0.067900249730508,1
155,788,34,0.100565861270285,1
155,789,34,0.134186266968794,1
155,790,34,0.120380373738985,1
155,791,34,0.084087509947819,1
156,788,34,0.101669046124912,1
156,789,34,0.143063174017447,1
156,790,34,0.133709085521342,1
156,791,34,0.0937833151308052,1
156,792,34,0.0693792630429516,1
157,788,34,0.0809509760362982,1
157,789,34,0.119176584616647,1
157,790,34,0.125206239946761,1
157,791,34,0.0998637397972562,1
157,792,34,0.0798300973851228,1
158,789,34,0.0935275696903181,1
158,790,34,0.10974534781332,1
158,791,34,0.0988858071361322,1
158,792,34,0.0829840315941965,1
159,789,34,0.0766549713506646,1
159,790,34,0.0927368654288181,1
159,791,34,0.0867624537972684,1
159,792,34,0.0731455559508275,1
160,790,34,0.0699953653513823,1
167,822,34,0.072539768035645,1
167,823,34,0.0847051516285289,1
167,824,34,0.0736036659533882,1
168,823,34,0.0799987754503161,1
168,824,34,0.0706351272726645,1
185,805,34,0.0680799010642441,1
185,806,34,0.0703579623953275,1
185,807,34,0.0725066266083266,1
185,808,34,0.071227737681955,1
186,807,34,0.0683541788698358,1
186,808,34,0.0692724893065738,1
146,797,35,0.070882708649274,1
146,798,35,0.0745116260582256,1
146,799,35,0.0741040517907608,1
146,800,35,0.068928616300546,1
147,798,35,0.0729398730531792,1
147,799,35,0.0759155635257371,1
147,800,35,0.0694180228796003,1
148,799,35,0.0709704648487395,1
151,823,35,0.0716180673860275,1
152,823,35,0.0799719891747029,1
152,824,35,0.0745012817161004,1
153,823,35,0.0817701976185036,1
153,824,35,0.0778709077375248,1
154,788,35,0.0711596578946965,1
154,789,35,0.0842641124858737,1
154,790,35,0.0790918455868485,1
154,823,35,0.0703511520206915,1
155,788,35,0.0895284362431055,1
155,789,35,0.113411509645743,1
155,790,35,0.102926216125664,1
155,791,35,0.0778460561593675,1
156,788,35,0.0862887524093273,1
156,789,35,0.111793012433432,1
156,790,35,0.10458291612551,1
156,791,35,0.0812811803748507,1
157,788,35,0.0703277679375085,1
157,789,35,0.08904972141315,1
157,790,35,0.0925051928956855,1
157,791,35,0.0818451476781522,1
157,792,35,0.0713517559817251,1
158,789,35,0.0714725817312042,1
158,790,35,0.0842810575604958,1
158,791,35,0.0804130163378072,1
158,792,35,0.0708748141252896,1
159,790,35,0.0774896705125178,1
159,791,35,0.0724612061414269,1
167,823,35,0.071717863034058,1
167,824,35,0.0698166663919356,1
168,823,35,0.0684877328920514,1
185,807,35,0.0727830667228396,1
185,808,35,0.0698588344107901,1
186,807,35,0.0729176090579971,1
186,808,35,0.0710489488758773,1
145,797,36,0.0692330226764272,1
146,798,36,0.0709571555677885,1
146,799,36,0.0732977022359017,1
146,800,36,0.0701275057866022,1
147,798,36,0.0735387188186668,1
147,799,36,0.0808910243742649,1
147,800,36,0.0767709633513915,1
148,798,36,0.067874589532671,1
148,799,36,0.0742848411818239,1
148,800,36,0.071305383140536,1
151,822,36,0.06787826725477,1
152,823,36,0.0714889038691841,1
153,823,36,0.0746206759092575,1
153,824,36,0.0690393432886915,1
154,789,36,0.0711132251557533,1
154,790,36,0.0688533008645977,1
154,823,36,0.0695822984598706,1
155,788,36,0.0728558544735668,1
155,789,36,0.0867398423951128,1
155,790,36,0.0822848630804428,1
155,791,36,0.0689671365461786,1
156,788,36,0.0720259111933856,1
156,789,36,0.0844535271535207,1
156,790,36,0.0800421953322303,1
157,789,36,0.0732528328283394,1
157,790,36,0.0724686514322559,1
167,824,36,0.0684062659567617,1
172,784,36,0.077667980136563,1
172,785,36,0.0695089356907045,1
173,784,36,0.0692166945486719,1
185,807,36,0.0692138733644559,1
186,807,36,0.0721678988193721,1
186,808,36,0.0688166494288917,1
146,799,37,0.0713949003339707,1
146,800,37,0.0725784679745397,1
147,798,37,0.0705713122054947,1
147,799,37,0.0807739122855373,1
147,800,37,0.0825357508130761,1
147,801,37,0.0706852557030329,1
148,799,37,0.074410734281296,1
148,800,37,0.0747568893917532,1
158,818,37,0.0758166723337928,1
171,784,37,0.0704121399138699,1
172,783,37,0.0700912556658484,1
172,784,37,0.0945965229785035,1
172,785,37,0.0809036747799213,1
173,784,37,0.0823007539545935,1
173,785,37,0.0716699029023864,1
146,800,38,0.0710457563255862,1
147,799,38,0.0756612316722456,1
147,800,38,0.0811692614213996,1
147,801,38,0.0750143658773325,1
148,799,38,0.072355169147424,1
148,800,38,0.0740439324150161,1
148,801,38,0.0681210328519535,1
152,821,38,0.0706908321839354,1
153,821,38,0.0698701371169802,1
157,818,38,0.0839747464360357,1
158,817,38,0.0886477056572614,1
158,818,38,0.131266419172341,1
158,819,38,0.0947441469831466,1
159,817,38,0.0682860092359462,1
159,818,38,0.10379376321584,1
159,819,38,0.0756786858777772,1
171,784,38,0.0693518238818191,1
172,783,38,0.0691571142527137,1
172,784,38,0.0939116939870705,1
172,785,38,0.0791338399022162,1
173,784,38,0.0900580162458043,1
173,785,38,0.075652654313865,1
174,784,38,0.0731147265768156,1
147,799,39,0.0685912841292611,1
147,800,39,0.0729064081779889,1
147,801,39,0.0734118853244561,1
147,802,39,0.0710860854833912,1
148,799,39,0.0690046265504414,1
148,800,39,0.0701517164587911,1
148,801,39,0.0694253843135737,1
148,802,39,0.0686707624591162,1
152,821,39,0.0770740579664588,1
153,821,39,0.0759266745591142,1
157,817,39,0.0702450611187099,1
157,818,39,0.105019223345595,1
157,819,39,0.0724673696203192,1
158,817,39,0.115284847842454,1
158,818,39,0.176804525260943,1
158,819,39,0.119626213097233,1
159,817,39,0.0861523951722219,1
159,818,39,0.138165825829982,1
159,819,39,0.0937602844443712,1
172,784,39,0.0802551558069962,1
172,785,39,0.0687651792888325,1
173,784,39,0.0873727280542296,1
173,785,39,0.0736440909475997,1
174,784,39,0.0836666982767081,1
174,785,39,0.0725494774615773,1
147,801,40,0.0687338407839111,1
147,802,40,0.0728105717715015,1
148,802,40,0.0723245613951021,1
152,821,40,0.0721195253931976,1
153,821,40,0.0706617997425451,1
157,817,40,0.0723799967664796,1
157,818,40,0.10818728743485,1
157,819,40,0.0745407243871453,1
158,817,40,0.12002591081004,1
158,818,40,0.188614757100711,1
158,819,40,0.128721579234474,1
159,817,40,0.0946731381957148,1
159,818,40,0.158162391532355,1
159,819,40,0.111322779125451,1
160,818,40,0.0765295993616529,1
164,823,40,0.0685621618412397,1
164,824,40,0.0743204563863848,1
164,825,40,0.0705843219976754,1
165,822,40,0.0679510070872939,1
165,823,40,0.0803265958582572,1
165,824,40,0.0860914372279204,1
165,825,40,0.0807884554602218,1
165,826,40,0.0718968015845208,1
166,822,40,0.0704948766815456,1
166,823,40,0.0805537341314078,1
166,824,40,0.086274700396226,1
166,825,40,0.082703404626675,1
166,826,40,0.0751886204234282,1
167,823,40,0.0691565811627026,1
167,824,40,0.0735938966297019,1
167,825,40,0.0727854686227772,1
167,826,40,0.068312537951217,1
173,784,40,0.0769306747228028,1
174,784,40,0.0804332917275547,1
174,785,40,0.0716053331235155,1
147,802,41,0.0689958874681248,1
148,802,41,0.0682829364811632,1
157,817,41,0.0697125341465116,1
157,818,41,0.0973359527499682,1
157,819,41,0.0738009691552442,1
158,817,41,0.105481286599924,1
158,818,41,0.160878886453792,1
158,819,41,0.119609142237328,1
159,817,41,0.0944976557456609,1
159,818,41,0.153574966303919,1
159,819,41,0.120994792920526,1
160,818,41,0.0897862781049846,1
160,819,41,0.0791614048486321,1
164,823,41,0.0834170923560116,1
164,824,41,0.0884947627320583,1
164,825,41,0.0783469391480987,1
165,822,41,0.0908881691681247,1
165,823,41,0.12634874168715,1
165,824,41,0.123317220518038,1
165,825,41,0.104434896795691,1
165,826,41,0.0853514723538801,1
166,822,41,0.103219763038735,1
166,823,41,0.137580049754429,1
166,824,41,0.132912301637806,1
166,825,41,0.116715086413771,1
166,826,41,0.100737983456336,1
167,822,41,0.0812114593891311,1
167,823,41,0.0991818398059964,1
167,824,41,0.0958597905706176,1
167,825,41,0.0919472992246451,1
168,825,41,0.069542580259157,1
152,789,42,0.0690409425587247,1
152,790,42,0.0708904234799963,1
153,784,42,0.0691918669296162,1
153,785,42,0.0696968469247247,1
154,784,42,0.0711570703117213,1
154,785,42,0.0696268204604594,1
157,818,42,0.0806367524185276,1
157,819,42,0.0681670882350461,1
158,817,42,0.0838695719696912,1
158,818,42,0.119193787251611,1
158,819,42,0.0988954446847596,1
159,817,42,0.0845830740159901,1
159,818,42,0.128912617131256,1
159,819,42,0.112836611002326,1
159,820,42,0.070587832006063,1
160,818,42,0.0877057775360997,1
160,819,42,0.0823672224922679,1
163,824,42,0.0705870832841373,1
164,823,42,0.101838389055176,1
164,824,42,0.109250712160337,1
164,825,42,0.0934410473845861,1
165,822,42,0.115871007263633,1
165,823,42,0.183721853326597,1
165,824,42,0.168337139156762,1
165,825,42,0.13586703388622,1
166,821,42,0.0683977724552367,1
166,822,42,0.149267934441764,1
166,823,42,0.223531374156065,1
166,824,42,0.199980930951019,1
166,825,42,0.165794431578939,1
166,826,42,0.134747592781142,1
167,822,42,0.107835340211576,1
167,823,42,0.150268131098071,1
167,824,42,0.132101537618473,1
167,825,42,0.121181985381498,1
168,823,42,0.0764757512807577,1
168,824,42,0.0782759423402177,1
150,791,43,0.0696931632128504,1
151,790,43,0.072043628949035,1
151,791,43,0.0757051367259677,1
151,792,43,0.0682114125730465,1
152,788,43,0.0707907476274739,1
152,789,43,0.0745533688030263,1
152,790,43,0.0758175648103283,1
152,791,43,0.069668694980319,1
153,785,43,0.0691886683895497,1
153,788,43,0.0699123770131396,1
153,789,43,0.0701203420152173,1
154,784,43,0.0680829438701501,1
154,785,43,0.0696536905929283,1
158,818,43,0.0853716039890179,1
158,819,43,0.0793355935071985,1
159,817,43,0.0720386754047746,1
159,818,43,0.0987634659734755,1
159,819,43,0.0945908326918683,1
159,820,43,0.0712468810041509,1
160,818,43,0.0782193209933098,1
160,819,43,0.0775735453375205,1
163,824,43,0.0731584579270509,1
164,822,43,0.073293155996369,1
164,823,43,0.113942742826453,1
164,824,43,0.124133567008049,1
165,822,43,0.128107016298323,1
165,823,43,0.215097051612122,1
165,824,43,0.193869682900332,1
165,825,43,0.162295013114254,1
166,785,43,0.068198139230748,1
166,821,43,0.0762168492286319,1
166,822,43,0.177645262116405,1
166,823,43,0.283164643687908,1
166,824,43,0.24676420353046,1
166,825,43,0.20174833397991,1
166,826,43,0.158959271252298,1
167,821,43,0.0682737781145682,1
167,822,43,0.125979675685767,1
167,823,43,0.191984760477986,1
167,824,43,0.162964442393119,1
167,825,43,0.144647972753326,1
168,822,43,0.0744728003340474,1
168,823,43,0.0929876273761679,1
150,790,44,0.0742797618522801,1
150,791,44,0.0890620244118328,1
150,792,44,0.078783695601339,1
151,790,44,0.081640572888954,1
151,791,44,0.0928962054341542,1
151,792,44,0.0803907283835235,1
152,787,44,0.0827668483277697,1
152,788,44,0.0858253234862065,1
152,789,44,0.0810744312971803,1
152,790,44,0.0781598005951057,1
152,791,44,0.0763670668060256,1
153,786,44,0.0693301828232792,1
153,787,44,0.0877316533658513,1
153,788,44,0.0960670547689729,1
153,789,44,0.0878062200798739,1
153,790,44,0.069913329387429,1
154,787,44,0.0738354642718043,1
154,788,44,0.0825725939215951,1
154,789,44,0.0777609234815296,1
159,818,44,0.0748617404102258,1
159,819,44,0.0766384275909947,1
164,823,44,0.117522903463604,1
164,824,44,0.128683819690318,1
165,823,44,0.209811482121527,1
165,824,44,0.194804842575285,1
165,825,44,0.17282857224455,1
166,785,44,0.0686591123459526,1
166,821,44,0.0763871804718371,1
166,822,44,0.172438805579366,1
166,823,44,0.279939269427573,1
166,824,44,0.246988700312657,1
166,825,44,0.199951760744795,1
166,826,44,0.161554604996834,1
167,822,44,0.1255842546726,1
167,823,44,0.19722171695139,1
167,824,44,0.171422700079583,1
167,825,44,0.145053133141303,1
149,791,45,0.0688953670572703,1
150,790,45,0.0827820803266258,1
150,791,45,0.0983351670831078,1
150,792,45,0.0827050997331148,1
151,787,45,0.0681094126876668,1
151,789,45,0.0699232424657251,1
151,790,45,0.0902241067280224,1
151,791,45,0.104659908698572,1
151,792,45,0.0872930460720107,1
152,786,45,0.0689138814530486,1
152,787,45,0.0914952508747947,1
152,788,45,0.0967762980849586,1
152,789,45,0.0862293098782034,1
152,790,45,0.0811415107919461,1
152,791,45,0.0828209899076597,1
152,792,45,0.0710574723262793,1
153,786,45,0.0701070387240418,1
153,787,45,0.102391748466234,1
153,788,45,0.120503259971203,1
153,789,45,0.103716243542543,1
153,790,45,0.077100119479248,1
154,787,45,0.0837664819451877,1
154,788,45,0.103621772804848,1
154,789,45,0.0942050132886761,1
154,790,45,0.0712232094117485,1
155,788,45,0.0709469430007222,1
155,789,45,0.0693283799008822,1
155,802,45,0.0689302455194563,1
165,824,45,0.174263902124961,1
166,823,45,0.222473795451374,1
166,824,45,0.204019297427138,1
166,825,45,0.170260731569126,1
150,790,46,0.083027145997565,1
150,791,46,0.094821708584872,1
150,792,46,0.0777763052247709,1
151,789,46,0.0716812235779027,1
151,790,46,0.0937061308849304,1
151,791,46,0.106682368343778,1
151,792,46,0.0864365680867833,1
151,803,46,0.0732246748941583,1
151,804,46,0.068675973563719,1
152,787,46,0.0857788488188355,1
152,788,46,0.0961814534894419,1
152,789,46,0.0877046394787726,1
152,790,46,0.0845070877251964,1
152,791,46,0.0879845356936946,1
152,792,46,0.0743631994236782,1
152,798,46,0.0734535202532995,1
152,799,46,0.0741526108999729,1
152,803,46,0.0772025446386814,1
152,804,46,0.0732412066742774,1
153,786,46,0.0684943096654466,1
153,787,46,0.103226591382697,1
153,788,46,0.130639253748737,1
153,789,46,0.113068019985341,1
153,790,46,0.0842034240814655,1
153,791,46,0.0756856340172475,1
153,798,46,0.0748878678105445,1
153,799,46,0.0754468695900349,1
154,787,46,0.0867795665856018,1
154,788,46,0.115134803968547,1
154,789,46,0.104770911216386,1
154,790,46,0.0787847557915857,1
154,791,46,0.0703875099574026,1
155,788,46,0.0748243702014711,1
155,789,46,0.0734079560317901,1
157,789,46,0.0698369657407848,1
157,800,46,0.0716145693571907,1
158,788,46,0.081994376942604,1
158,789,46,0.0988310486093754,1
158,790,46,0.0732206138264334,1
158,800,46,0.0725548922185438,1
159,788,46,0.0806321163323637,1
159,789,46,0.0987319357957412,1
159,790,46,0.0721720197848511,1
166,808,46,0.0689402963625867,1
166,809,46,0.073734991779153,1
150,791,47,0.0790119419829396,1
151,789,47,0.0693558370313408,1
151,790,47,0.0856257142208194,1
151,791,47,0.0938897594295357,1
151,792,47,0.0780124820690083,1
151,803,47,0.080907082962127,1
151,804,47,0.074096594520381,1
152,788,47,0.085965598036427,1
152,789,47,0.0845586417221112,1
152,790,47,0.0848623413044945,1
152,791,47,0.0863210013601103,1
152,792,47,0.0734068419335647,1
152,798,47,0.0767452612251266,1
152,799,47,0.0788155671962714,1
152,803,47,0.0893944868957131,1
152,804,47,0.0833629088476937,1
153,787,47,0.0888622893611622,1
153,788,47,0.114860496214079,1
153,789,47,0.109725078413348,1
153,790,47,0.0912631650471592,1
153,791,47,0.0818054234876632,1
153,792,47,0.0703426106009633,1
153,798,47,0.078134853180542,1
153,799,47,0.080294358887025,1
153,803,47,0.0710925364715028,1
154,787,47,0.0790949003723053,1
154,788,47,0.106106631131805,1
154,789,47,0.104848167339566,1
154,790,47,0.0866576267378974,1
154,791,47,0.0760443916151578,1
155,788,47,0.0727542379338131,1
155,789,47,0.074499089458302,1
155,790,47,0.06790500561218,1
157,788,47,0.0682503820518345,1
157,789,47,0.0801439855754708,1
157,800,47,0.070553648357824,1
158,788,47,0.0992730041876676,1
158,789,47,0.126597245489172,1
158,790,47,0.0867917977069798,1
158,800,47,0.0714992721704109,1
158,808,47,0.0726374373134065,1
159,788,47,0.0978890725700104,1
159,789,47,0.127355167709878,1
159,790,47,0.0880528430924185,1
159,808,47,0.0695509000571952,1
160,789,47,0.0789217958630873,1
166,808,47,0.0702953572627896,1
166,809,47,0.0768818340941466,1
167,808,47,0.0700183121809606,1
167,809,47,0.0792086761561321,1
151,791,48,0.0773516840565021,1
151,792,48,0.0688907130017803,1
151,803,48,0.0768462847771152,1
151,804,48,0.0693803651616262,1
152,790,48,0.0822855339352882,1
152,791,48,0.0821067571087613,1
152,792,48,0.0722317078967666,1
152,798,48,0.0721100735276078,1
152,799,48,0.0746652877564774,1
152,802,48,0.068292358397876,1
152,803,48,0.0850863589046589,1
152,804,48,0.0790284378244062,1
153,789,48,0.0964357673736071,1
153,790,48,0.0981803134195503,1
153,791,48,0.0886445011274195,1
153,792,48,0.0747888568230921,1
153,798,48,0.0723610451170968,1
153,799,48,0.0754770041500998,1
153,803,48,0.069895366050988,1
154,788,48,0.0846690452623848,1
154,789,48,0.09467373118348,1
154,790,48,0.0941959028402844,1
154,791,48,0.0816835255683866,1
154,792,48,0.0695509539651738,1
155,789,48,0.0703095769896021,1
155,790,48,0.0704101752675369,1
157,788,48,0.0695315710519617,1
157,789,48,0.0809002665977156,1
158,787,48,0.0693436178895137,1
158,788,48,0.104572062652476,1
158,789,48,0.131116614889451,1
158,790,48,0.087722578856112,1
158,808,48,0.0708757006120496,1
159,785,48,0.0766084847037428,1
159,786,48,0.0708517055717753,1
159,787,48,0.0692303692059225,1
159,788,48,0.1019414251717,1
159,789,48,0.131006822306269,1
159,790,48,0.0895616195988518,1
159,793,48,0.0695405796741716,1
159,808,48,0.0680635549671626,1
160,785,48,0.0766558458578738,1
160,786,48,0.0696152901428039,1
160,789,48,0.0811526937026281,1
160,793,48,0.0719508533177797,1
160,794,48,0.068662250988265,1
167,808,48,0.0694522544460426,1
167,809,48,0.0837215646194221,1
168,809,48,0.084916165426288,1
168,810,48,0.07290760613307,1
152,790,49,0.0738624242509043,1
152,791,49,0.0736245523002271,1
152,803,49,0.0736468761931633,1
152,804,49,0.069211555321374,1
153,789,49,0.0782288627055308,1
153,790,49,0.0932631570448192,1
153,791,49,0.0867271201121516,1
153,792,49,0.0740960075223912,1
153,803,49,0.0680194043326489,1
154,789,49,0.0774136183341946,1
154,790,49,0.0913867281239985,1
154,791,49,0.0824220648758804,1
155,790,49,0.069357316505866,1
167,809,49,0.0758498856384161,1
167,810,49,0.0681071725116652,1
168,808,49,0.06824071455433,1
168,809,49,0.0933362502740921,1
168,810,49,0.0848814546778133,1
169,809,49,0.0806438443126076,1
169,810,49,0.0766529288372514,1
153,790,50,0.081133089167726,1
153,791,50,0.0800353430291665,1
154,790,50,0.0812342624640997,1
168,809,50,0.0849975125660696,1
168,810,50,0.0831904152955671,1
169,809,50,0.0803749153764531,1
169,810,50,0.0812729384438928,1
168,809,51,0.0702218088105859,1
168,810,51,0.071446490269538,1
169,809,51,0.0693178618552702,1
169,810,51,0.0724673576407684,1
