x,y,z,signal,cytoplasm.p
523,499,1,0.0735815217537142,1
523,500,1,0.070194112089111,1
523,501,1,0.0683246732361884,1
524,498,1,0.0728160584057729,1
524,499,1,0.0755383454400271,1
524,500,1,0.0727896075575823,1
524,501,1,0.0696964635790988,1
525,497,1,0.0760067578562853,1
525,498,1,0.0760786351611508,1
525,499,1,0.0765827346592747,1
525,500,1,0.0739779430593741,1
525,501,1,0.0698886934411864,1
526,496,1,0.0945387815435948,1
526,497,1,0.0903958156195709,1
526,498,1,0.0851312043531196,1
526,499,1,0.0788133389998206,1
526,500,1,0.0724482203083479,1
527,496,1,0.0983237685405112,1
527,497,1,0.0969941162675783,1
527,498,1,0.0894742826836647,1
527,499,1,0.0794589110032462,1
527,500,1,0.0694542789901296,1
528,495,1,0.0865985855217257,1
528,496,1,0.0898585507350269,1
528,497,1,0.0883725952728884,1
528,498,1,0.0818955396586384,1
528,499,1,0.0739999614737646,1
529,494,1,0.0892971410658235,1
529,495,1,0.089288491830138,1
529,496,1,0.088306569978594,1
529,497,1,0.0832782014439096,1
529,498,1,0.0754673186832691,1
530,494,1,0.0995397169069221,1
530,495,1,0.0954626744510107,1
530,496,1,0.0904811040315693,1
530,497,1,0.0829970952943558,1
530,498,1,0.0721298457762212,1
531,493,1,0.100133962524898,1
531,494,1,0.0977858567602234,1
531,495,1,0.0925731648669867,1
531,496,1,0.0850100731250949,1
531,497,1,0.077194236820194,1
532,493,1,0.0950336627773697,1
532,494,1,0.097213204282584,1
532,495,1,0.0981366779057215,1
532,496,1,0.0848342013396396,1
532,497,1,0.0709768739084233,1
533,491,1,0.134025010235328,1
533,493,1,0.100396644125305,1
533,494,1,0.105928878556872,1
533,495,1,0.111935413353922,1
533,496,1,0.0912690290372811,1
533,535,1,0.0786036429526507,1
533,536,1,0.147460807222385,1
534,492,1,0.12238494791483,1
534,493,1,0.101082659092268,1
534,494,1,0.103432052658655,1
534,495,1,0.107865708372882,1
534,496,1,0.0871258953995458,1
534,535,1,0.0864161788913031,1
534,536,1,0.18241837038241,1
534,537,1,0.295566809092345,1
535,492,1,0.100519356654037,1
535,493,1,0.0920203804743672,1
535,494,1,0.0908358125413055,1
535,495,1,0.0894326118161689,1
535,496,1,0.0746339312822298,1
535,535,1,0.0791487963714036,1
535,536,1,0.147782206591091,1
535,537,1,0.228011270936421,1
535,538,1,0.217725796323869,1
536,492,1,0.0834324142014987,1
536,493,1,0.0838641751820508,1
536,494,1,0.0813977833326689,1
536,495,1,0.076870597275486,1
536,536,1,0.0926071209037603,1
536,537,1,0.12364032098296,1
536,538,1,0.120924508895919,1
536,539,1,0.0901569853048288,1
537,492,1,0.0794812408859577,1
537,493,1,0.0797322244549975,1
537,494,1,0.0792852194960385,1
537,495,1,0.0752896799140692,1
537,537,1,0.0725767548987738,1
537,538,1,0.0718518543098782,1
538,492,1,0.08391387234859,1
538,493,1,0.0812330345601416,1
538,494,1,0.083325287068372,1
538,495,1,0.08101688752486,1
539,492,1,0.0898341903184529,1
539,493,1,0.0829330226668435,1
539,494,1,0.0839296014988047,1
539,495,1,0.0825045680423152,1
539,496,1,0.0684799821226767,1
540,493,1,0.0800647827752843,1
540,494,1,0.0792189486209524,1
540,495,1,0.0777285427556877,1
541,493,1,0.0769413904310031,1
541,494,1,0.0745991786053273,1
541,495,1,0.0721411904108392,1
542,493,1,0.0731876221435001,1
542,494,1,0.0697962352680276,1
544,494,1,0.0714124383963579,1
544,495,1,0.0728245578970732,1
544,496,1,0.0708687105441514,1
545,495,1,0.0845879077647423,1
545,496,1,0.0831711461880878,1
545,497,1,0.0755890069604065,1
546,496,1,0.0919307015569966,1
546,497,1,0.0854645892624123,1
546,498,1,0.0714386676228584,1
547,495,1,0.0910530377361601,1
547,496,1,0.097811037776028,1
547,497,1,0.0924649116560838,1
547,498,1,0.0783475560949655,1
548,495,1,0.0986748113076993,1
548,496,1,0.107362986523101,1
548,497,1,0.0977239224825309,1
548,498,1,0.0840372317730655,1
548,499,1,0.0754085949251939,1
549,495,1,0.109671565759875,1
549,496,1,0.119479655272612,1
549,497,1,0.104321450449511,1
549,498,1,0.0882392868314644,1
549,499,1,0.0818498736109471,1
549,500,1,0.0746152132340877,1
550,495,1,0.106866529978395,1
550,496,1,0.117980977527513,1
550,497,1,0.103536394546218,1
550,498,1,0.087434794106981,1
550,499,1,0.0796883074217247,1
550,500,1,0.0735774067780107,1
551,499,1,0.0753698290987698,1
551,500,1,0.0692833667387101,1
553,495,1,0.149689686507614,1
555,512,1,0.0768059915579626,1
555,513,1,0.0726579163555178,1
556,510,1,0.0684516265259073,1
556,511,1,0.0796735486151256,1
556,512,1,0.0952418314318113,1
556,513,1,0.0884896714229636,1
557,510,1,0.0690515264918662,1
557,511,1,0.078678263574652,1
557,512,1,0.0898457505849854,1
557,513,1,0.0823505289882129,1
558,509,1,0.0680790325468103,1
558,510,1,0.0708664763579252,1
558,511,1,0.0749228001807091,1
558,512,1,0.0784925266291039,1
558,513,1,0.0734679376427004,1
559,509,1,0.067845473234425,1
559,510,1,0.071806056487128,1
559,511,1,0.07364549854482,1
559,512,1,0.0744539385312956,1
559,513,1,0.0726891051160541,1
560,510,1,0.0714384819398209,1
560,511,1,0.0748280359440193,1
560,512,1,0.0769373892610323,1
560,513,1,0.0783099642645207,1
560,514,1,0.0791034957000121,1
560,515,1,0.0770348009784514,1
560,516,1,0.0684857203275152,1
561,510,1,0.0695931100044775,1
561,511,1,0.0746832810417954,1
561,512,1,0.0793440031518677,1
561,513,1,0.0866910257255583,1
561,514,1,0.103517167367167,1
561,515,1,0.119788164644646,1
561,516,1,0.112170068795206,1
561,517,1,0.0881020251382728,1
561,518,1,0.0717151077373714,1
562,512,1,0.0811713159143636,1
562,513,1,0.0944748406911415,1
562,514,1,0.128719363017574,1
562,515,1,0.164905992152148,1
562,516,1,0.159295453386705,1
562,517,1,0.124385401125196,1
562,518,1,0.106969745788182,1
562,519,1,0.0946603799741012,1
562,520,1,0.0696181951838756,1
562,537,1,0.0717103219068225,1
562,538,1,0.0751142633515448,1
563,513,1,0.0967094521914336,1
563,514,1,0.127447781617197,1
563,515,1,0.16050421402263,1
563,516,1,0.16036018388323,1
563,517,1,0.148005745009223,1
563,518,1,0.160395283967106,1
563,519,1,0.153057006465507,1
563,520,1,0.102697670255293,1
563,536,1,0.0727049780208785,1
563,537,1,0.078329365147059,1
564,514,1,0.107902281941508,1
564,515,1,0.121159104439449,1
564,516,1,0.127006466944873,1
564,517,1,0.146248452721217,1
564,518,1,0.185139561287765,1
564,519,1,0.181829707235112,1
564,520,1,0.121853966304686,1
564,521,1,0.076486598764017,1
565,515,1,0.0921877527685221,1
565,516,1,0.0966729325307865,1
565,517,1,0.115087293070031,1
565,518,1,0.139904513875578,1
565,519,1,0.13590382308676,1
565,520,1,0.0996810097189617,1
565,521,1,0.0739485272723579,1
565,527,1,0.0686186034948854,1
565,528,1,0.0759331734654291,1
565,529,1,0.0784130003810456,1
565,530,1,0.0716658598039877,1
523,499,2,0.0698185531711884,1
524,498,2,0.0691289563185326,1
524,499,2,0.0720078340512119,1
524,500,2,0.0685874985912048,1
525,497,2,0.069471553502399,1
525,498,2,0.0696534809507892,1
525,499,2,0.0712762908013917,1
525,500,2,0.0700941786762462,1
525,501,2,0.0678851495067108,1
526,497,2,0.0796310511586238,1
526,498,2,0.0747222205717063,1
526,499,2,0.0718752084441841,1
526,500,2,0.0691238230810101,1
527,496,2,0.0889592638249767,1
527,497,2,0.086404211320043,1
527,498,2,0.0806986926859955,1
527,499,2,0.0752447745678545,1
528,495,2,0.0823203105712923,1
528,496,2,0.0816608243195999,1
528,497,2,0.080258623886956,1
528,498,2,0.0766619913674399,1
528,499,2,0.0730398483944718,1
529,494,2,0.0878655308359388,1
529,495,2,0.0847465050379282,1
529,496,2,0.0821261460117488,1
529,497,2,0.0790926542065282,1
529,498,2,0.0739373084230234,1
529,499,2,0.0682939756372354,1
530,494,2,0.101209378780746,1
530,495,2,0.093652708078089,1
530,496,2,0.0861568994833268,1
530,497,2,0.0810953955110994,1
530,498,2,0.0722801711695722,1
531,493,2,0.10179399283987,1
531,494,2,0.098893072733699,1
531,495,2,0.0902268200962811,1
531,496,2,0.0805551417286281,1
531,497,2,0.076157670247626,1
532,491,2,0.123858193073558,1
532,493,2,0.0937585174606266,1
532,494,2,0.0896882075122709,1
532,495,2,0.089065336757632,1
532,496,2,0.0782429626368352,1
532,497,2,0.0705089286946468,1
533,490,2,0.130060964892441,1
533,491,2,0.172703481774982,1
533,492,2,0.150238637443974,1
533,493,2,0.104311878788413,1
533,494,2,0.0951007482619109,1
533,495,2,0.101004792011997,1
533,496,2,0.0870146952191434,1
533,497,2,0.0692846725097485,1
533,536,2,0.117781529986062,1
534,491,2,0.166102940950973,1
534,493,2,0.106834832086949,1
534,494,2,0.095279896454513,1
534,495,2,0.101470125683697,1
534,496,2,0.0873492541244156,1
534,535,2,0.069834605769275,1
534,536,2,0.149867211471081,1
534,537,2,0.25891911100616,1
535,493,2,0.0901501330017649,1
535,494,2,0.0848969562165627,1
535,495,2,0.0866766742236868,1
535,496,2,0.0759137366442384,1
535,536,2,0.119953266813923,1
535,537,2,0.196878670534368,1
535,538,2,0.196913447170373,1
536,492,2,0.0791367569228387,1
536,493,2,0.0781849516620333,1
536,494,2,0.0761560530082665,1
536,495,2,0.0742114304944545,1
536,536,2,0.0771027669599772,1
536,537,2,0.107247803142054,1
536,538,2,0.112998682345247,1
536,539,2,0.0908597297144995,1
537,492,2,0.074228159937162,1
537,493,2,0.0738211786574623,1
537,494,2,0.072919172389378,1
537,495,2,0.0706902152370686,1
537,538,2,0.0687259103212743,1
538,493,2,0.0762888343494548,1
538,494,2,0.0767999418848031,1
538,495,2,0.076467527319126,1
539,493,2,0.0787363823654112,1
539,494,2,0.0788581005914256,1
539,495,2,0.0799315222520636,1
539,496,2,0.0686136499506251,1
540,493,2,0.0771661327939916,1
540,494,2,0.0766045374417506,1
540,495,2,0.0771421437434927,1
541,493,2,0.0757574574141344,1
541,494,2,0.074341923741438,1
541,495,2,0.0736757708697192,1
542,494,2,0.0707496457886416,1
542,495,2,0.0702623356309792,1
543,494,2,0.06818280540571,1
544,495,2,0.0733666984587972,1
544,496,2,0.0704555597957841,1
545,495,2,0.0922518433653606,1
545,496,2,0.0890317041687303,1
545,497,2,0.0784228475718121,1
546,495,2,0.102364662701851,1
546,496,2,0.104655045000943,1
546,497,2,0.0917682408786742,1
546,498,2,0.0725025894997033,1
547,494,2,0.0860870527123236,1
547,495,2,0.102152061613609,1
547,496,2,0.112006979190466,1
547,497,2,0.0992439417974003,1
547,498,2,0.0787292185940262,1
548,494,2,0.0837776708456451,1
548,495,2,0.104337335333886,1
548,496,2,0.117675978163866,1
548,497,2,0.100958610843621,1
548,498,2,0.0850623638643846,1
548,499,2,0.0827747248824279,1
548,500,2,0.0791459871667385,1
549,494,2,0.0879748921552918,1
549,495,2,0.115260960618137,1
549,496,2,0.129143463075383,1
549,497,2,0.106432031670482,1
549,498,2,0.0908610534548641,1
549,499,2,0.0934426825932718,1
549,500,2,0.0910836814271344,1
549,501,2,0.0708044702029278,1
550,494,2,0.0809671124912406,1
550,495,2,0.105957964906241,1
550,496,2,0.118779917730195,1
550,497,2,0.0992489492496393,1
550,498,2,0.0858243651221416,1
550,499,2,0.0851598294897823,1
550,500,2,0.0828535922551916,1
550,501,2,0.0700847627493088,1
551,495,2,0.105711785137077,1
551,496,2,0.11070837192346,1
551,497,2,0.0962848130538386,1
551,498,2,0.0835010630174208,1
551,499,2,0.0763267675970976,1
551,500,2,0.0716804389173246,1
552,495,2,0.139231275099555,1
552,500,2,0.0679695993501525,1
553,494,2,0.114585230095545,1
553,495,2,0.183498219072058,1
553,496,2,0.153563525832895,1
554,495,2,0.14746502402427,1
556,512,2,0.0784708316625853,1
556,513,2,0.0710588200257455,1
557,511,2,0.0701282904471803,1
557,512,2,0.0770044208375949,1
557,513,2,0.06815074812774,1
558,510,2,0.0687837655619157,1
558,511,2,0.0703059531754818,1
558,512,2,0.0721344758726097,1
559,510,2,0.0706160737970998,1
559,511,2,0.0713210284338951,1
559,512,2,0.0721484200697536,1
559,513,2,0.0701233728415725,1
560,510,2,0.0711557286020305,1
560,511,2,0.0734949395502282,1
560,512,2,0.0758843088776713,1
560,513,2,0.0778237382562068,1
560,514,2,0.0806781297870285,1
560,515,2,0.0822458995914302,1
560,516,2,0.0712735834229084,1
561,511,2,0.073517670747892,1
561,512,2,0.0782645138487441,1
561,513,2,0.0882263668859148,1
561,514,2,0.119705757314618,1
561,515,2,0.156975086271933,1
561,516,2,0.143207599482023,1
561,517,2,0.0946098083003528,1
562,512,2,0.0797735119768674,1
562,513,2,0.09759590301279,1
562,514,2,0.160228133294641,1
562,515,2,0.236605448606385,1
562,516,2,0.22290302275693,1
562,517,2,0.142298123964008,1
562,518,2,0.0968916671490433,1
562,519,2,0.0786776346482344,1
562,537,2,0.0725439429091026,1
563,513,2,0.0993784961121087,1
563,514,2,0.150411214852956,1
563,515,2,0.216882555742287,1
563,516,2,0.210074984321164,1
563,517,2,0.156233024976501,1
563,518,2,0.140451440267851,1
563,519,2,0.125049415647095,1
563,520,2,0.0799117320341239,1
564,513,2,0.0991169046508258,1
564,514,2,0.111957898970794,1
564,515,2,0.133314610892689,1
564,516,2,0.135604561927952,1
564,517,2,0.137676305445195,1
564,518,2,0.163803921395746,1
564,519,2,0.154558199916277,1
564,520,2,0.0996864723941314,1
565,514,2,0.092087873263636,1
565,515,2,0.0881166761289145,1
565,516,2,0.0881647740254204,1
565,517,2,0.099224924260488,1
565,518,2,0.116904207582423,1
565,519,2,0.109960213036665,1
565,520,2,0.0801924668176026,1
565,528,2,0.0687589858610633,1
565,529,2,0.0721391478974259,1
524,499,3,0.0692685240752553,1
525,498,3,0.0684492246259697,1
525,499,3,0.0679735466121447,1
526,497,3,0.0723673044323955,1
526,498,3,0.0694381664942889,1
526,499,3,0.0679547506969223,1
527,496,3,0.0812275119872177,1
527,497,3,0.078253492661998,1
527,498,3,0.0763056356694671,1
527,499,3,0.0738798245484572,1
528,494,3,0.0922003312968736,1
528,495,3,0.0855216778118018,1
528,496,3,0.0783613205988472,1
528,497,3,0.0768895010066656,1
528,498,3,0.0776803490227753,1
528,499,3,0.0759054048666494,1
529,494,3,0.0943393699407961,1
529,495,3,0.0852221171642237,1
529,496,3,0.078693405726877,1
529,497,3,0.078376888025126,1
529,498,3,0.0779157412064347,1
529,499,3,0.071972662090031,1
530,494,3,0.103002609721185,1
530,495,3,0.0911049810684763,1
530,496,3,0.0816794285620092,1
530,497,3,0.0806922656569854,1
530,498,3,0.0772624304131852,1
531,491,3,0.106731017299621,1
531,494,3,0.104371201524029,1
531,495,3,0.0935116308979641,1
531,496,3,0.0814321227150684,1
531,497,3,0.0786686200362492,1
531,498,3,0.071992308553361,1
532,490,3,0.138689332200419,1
532,491,3,0.173619761677858,1
532,492,3,0.135271434579002,1
532,493,3,0.0948216426973425,1
532,494,3,0.0928852740940393,1
532,495,3,0.0884689408102853,1
532,496,3,0.079324063189543,1
532,497,3,0.0737482531419008,1
533,489,3,0.0923083149678833,1
533,490,3,0.167804121022981,1
533,491,3,0.221569339365149,1
533,492,3,0.174971210743491,1
533,493,3,0.107446196483034,1
533,494,3,0.0934305173594233,1
533,495,3,0.0959431502749355,1
533,496,3,0.0916583644386363,1
533,497,3,0.077177764937829,1
533,536,3,0.0927934388575227,1
533,537,3,0.141997161708985,1
534,490,3,0.136917460799076,1
534,491,3,0.184653131627088,1
534,492,3,0.160239813356682,1
534,493,3,0.109759052419448,1
534,494,3,0.0962473170598004,1
534,495,3,0.102622869940029,1
534,496,3,0.100534966008743,1
534,497,3,0.079346710530351,1
534,536,3,0.112854472512585,1
534,537,3,0.184387185599085,1
534,538,3,0.186123705345985,1
535,491,3,0.106857964599565,1
535,493,3,0.0881979573811667,1
535,494,3,0.0861230632420613,1
535,495,3,0.0912758993096712,1
535,496,3,0.0876607763534784,1
535,536,3,0.0936856578325945,1
535,537,3,0.144877429069559,1
535,538,3,0.156139440725566,1
535,539,3,0.119516420514051,1
536,493,3,0.0740019680485254,1
536,494,3,0.0751116997276713,1
536,495,3,0.0759548145239691,1
536,496,3,0.0704386386802637,1
536,537,3,0.0888168149862839,1
536,538,3,0.101712040732773,1
536,539,3,0.091719118730574,1
537,493,3,0.0713105103882831,1
537,494,3,0.0701692066029751,1
537,495,3,0.068988370299991,1
538,493,3,0.0741209908756074,1
538,494,3,0.0727395809533959,1
538,495,3,0.0728526559335003,1
539,493,3,0.0766554804815741,1
539,494,3,0.0765558465574796,1
539,495,3,0.0785767368815293,1
539,496,3,0.0716497652774732,1
540,493,3,0.0750468544191317,1
540,494,3,0.0758376724863644,1
540,495,3,0.0775707481124061,1
540,496,3,0.070943468930987,1
541,493,3,0.0728853900560911,1
541,494,3,0.0732203143376631,1
541,495,3,0.0750971984814146,1
541,496,3,0.0699639310100544,1
542,494,3,0.0706353488943545,1
542,495,3,0.0741788101775964,1
542,496,3,0.0716186963124451,1
543,495,3,0.0687862093902811,1
543,496,3,0.0682113826241695,1
544,495,3,0.0706758277965447,1
545,495,3,0.0915699493638763,1
545,496,3,0.0860707006254667,1
545,497,3,0.0761598205769965,1
546,495,3,0.108260206960637,1
546,496,3,0.108588590407466,1
546,497,3,0.0917926671827777,1
546,498,3,0.0731437350591042,1
547,494,3,0.085644809624812,1
547,495,3,0.111015144260626,1
547,496,3,0.123214244299267,1
547,497,3,0.103568799231162,1
547,498,3,0.0784645304188588,1
548,494,3,0.0845976591191024,1
548,495,3,0.115501509998421,1
548,496,3,0.135760607556816,1
548,497,3,0.111451463460262,1
548,498,3,0.0877996373167033,1
548,499,3,0.0864260620207221,1
548,500,3,0.0875493665309368,1
549,494,3,0.0900704150808936,1
549,495,3,0.122771072796568,1
549,496,3,0.141186337791899,1
549,497,3,0.113747296454973,1
549,498,3,0.0947502865029372,1
549,499,3,0.102883065783643,1
549,500,3,0.10901454729565,1
549,501,3,0.0853331017127116,1
550,494,3,0.0823773512024786,1
550,495,3,0.106094208337614,1
550,496,3,0.117769790026267,1
550,497,3,0.0963319106578518,1
550,498,3,0.0860025908893312,1
550,499,3,0.0932555979482575,1
550,500,3,0.100039695439567,1
550,501,3,0.0866873839421117,1
551,495,3,0.11742518626764,1
551,496,3,0.123501849355136,1
551,498,3,0.0811173180890834,1
551,499,3,0.0786952984959051,1
551,500,3,0.0796166098101212,1
551,501,3,0.077543830061734,1
551,502,3,0.0723368883528865,1
552,494,3,0.0939417985982584,1
552,495,3,0.169325308344054,1
552,496,3,0.162575574194246,1
552,500,3,0.0702439889489123,1
552,501,3,0.0691815705056942,1
552,502,3,0.0710376521594626,1
553,494,3,0.111343264157337,1
553,495,3,0.210271592709073,1
553,496,3,0.189896233610058,1
554,495,3,0.145692194258863,1
558,510,3,0.0706585233353983,1
558,511,3,0.0721993331607,1
558,512,3,0.0711820596547129,1
559,510,3,0.0717860266781721,1
559,511,3,0.0741675973180373,1
559,512,3,0.075281360116031,1
559,513,3,0.0722942291724488,1
560,510,3,0.0716963777096786,1
560,511,3,0.0750661175368357,1
560,512,3,0.0787225879126524,1
560,513,3,0.0823844251272324,1
560,514,3,0.0866269291389444,1
560,515,3,0.0903521741159666,1
560,516,3,0.0779084157111138,1
561,511,3,0.0741116588055257,1
561,512,3,0.078546536433935,1
561,513,3,0.0933018509939385,1
561,514,3,0.142079640916319,1
561,515,3,0.20169368326911,1
561,516,3,0.181895906232893,1
561,517,3,0.108602211156738,1
561,518,3,0.0680473765837925,1
562,513,3,0.104498005069363,1
562,514,3,0.202169055804389,1
562,515,3,0.323139326584406,2
562,516,3,0.300705820758319,2
562,517,3,0.174706055365842,1
562,518,3,0.10321630094855,1
562,519,3,0.0754821014489698,1
562,536,3,0.0686953744462572,1
562,537,3,0.0754988548507789,1
563,513,3,0.107380165198964,1
563,514,3,0.183076299292497,1
563,515,3,0.285299184010501,2
563,516,3,0.270636932590972,1
563,517,3,0.176053922545783,1
563,518,3,0.132499713928327,1
563,519,3,0.106826015137552,1
563,520,3,0.0730276891503988,1
564,514,3,0.121995995859101,1
564,515,3,0.150948641461436,1
564,516,3,0.14799092630487,1
564,517,3,0.132057141403168,1
564,518,3,0.141498920211208,1
564,519,3,0.126052930638976,1
564,520,3,0.0873950160085133,1
565,515,3,0.0876393808757301,1
565,516,3,0.0835341804856376,1
565,517,3,0.090903257412371,1
565,518,3,0.103506122221319,1
565,519,3,0.094581919906065,1
527,494,4,0.0837486384042548,1
527,496,4,0.0725136705842034,1
527,497,4,0.0695529425706084,1
527,498,4,0.070470138909121,1
527,499,4,0.0712056953084629,1
528,493,4,0.0919265985608439,1
528,494,4,0.0991251885102116,1
528,495,4,0.0871713697744241,1
528,496,4,0.0747593511894448,1
528,497,4,0.0737486903955053,1
528,498,4,0.077252720987253,1
528,499,4,0.077165090573071,1
529,493,4,0.0970799677184648,1
529,494,4,0.101534923074033,1
529,495,4,0.0861668544900507,1
529,496,4,0.0752655590885114,1
529,497,4,0.0777240683934598,1
529,498,4,0.0802950956293998,1
529,499,4,0.0738419631781192,1
530,493,4,0.0972626977967593,1
530,494,4,0.102083418787462,1
530,495,4,0.0874220718240198,1
530,496,4,0.0771975551557687,1
530,497,4,0.0802949339054639,1
530,498,4,0.0800748995059442,1
531,490,4,0.120322823976889,1
531,491,4,0.139942105706023,1
531,492,4,0.107436564924182,1
531,494,4,0.104161834914506,1
531,495,4,0.0927705579154738,1
531,496,4,0.0794199475142336,1
531,497,4,0.0780810709871763,1
531,498,4,0.0732144263884395,1
532,489,4,0.108104580616052,1
532,490,4,0.200632522678727,1
532,491,4,0.236397435686104,1
532,492,4,0.156422577408982,1
532,493,4,0.0988509825819248,1
532,494,4,0.0953657299360733,1
532,495,4,0.0872437921488516,1
532,496,4,0.0767635839480919,1
532,497,4,0.072390460904113,1
533,489,4,0.111457189685549,1
533,490,4,0.206157335778567,1
533,491,4,0.252096708901132,1
533,492,4,0.175952503668618,1
533,493,4,0.106252266531013,1
533,494,4,0.0903618895316743,1
533,495,4,0.0899912422295842,1
533,496,4,0.0902017409066584,1
533,497,4,0.0793922507927588,1
533,536,4,0.069340712848442,1
533,537,4,0.092489541612551,1
534,490,4,0.136053567471897,1
534,491,4,0.171118371570782,1
534,492,4,0.141256945264378,1
534,493,4,0.104680741137432,1
534,494,4,0.0942300026316677,1
534,495,4,0.10326976568382,1
534,496,4,0.109410794897823,1
534,497,4,0.0900550513069786,1
534,536,4,0.071788446547436,1
534,537,4,0.103465751135086,1
534,538,4,0.112908284654828,1
535,493,4,0.0835241835504859,1
535,494,4,0.0852095805643001,1
535,495,4,0.0958482123347589,1
535,496,4,0.0976686188862123,1
535,497,4,0.0767093764806725,1
535,537,4,0.0862756108420877,1
535,538,4,0.103708133386644,1
535,539,4,0.0950938001224406,1
536,493,4,0.0705769246250497,1
536,494,4,0.0750327425082764,1
536,495,4,0.0804160651334886,1
536,496,4,0.0771727335264884,1
536,538,4,0.0803008158649121,1
536,539,4,0.0805226352175026,1
537,493,4,0.0681723712169537,1
537,494,4,0.0683868471048972,1
537,495,4,0.0694996275797244,1
538,493,4,0.0702873609126233,1
538,494,4,0.0684428215560612,1
538,495,4,0.0688531451304372,1
539,493,4,0.0730771826645741,1
539,494,4,0.0728777231435721,1
539,495,4,0.0747039397771689,1
539,496,4,0.0703612028638218,1
540,493,4,0.0726100221113757,1
540,494,4,0.0728682892473085,1
540,495,4,0.0743222892576589,1
540,496,4,0.0693836116198959,1
541,494,4,0.0694754947746158,1
541,495,4,0.0725161683205475,1
541,496,4,0.0687763202710867,1
542,495,4,0.0736353997834864,1
542,496,4,0.0719459357121718,1
543,495,4,0.0679905276254192,1
543,496,4,0.0680759058840487,1
545,495,4,0.0878470583685883,1
545,496,4,0.0812408032988425,1
545,497,4,0.073391807597297,1
546,495,4,0.111019995978704,1
546,496,4,0.109677855024051,1
546,497,4,0.0907895115774213,1
546,498,4,0.0730550863831033,1
547,494,4,0.0840232097088413,1
547,495,4,0.117297088930818,1
547,496,4,0.131481512007152,1
547,497,4,0.106296614828115,1
547,498,4,0.0781001364422919,1
548,494,4,0.0857967103290946,1
548,495,4,0.12560907630188,1
548,496,4,0.153457506808218,1
548,497,4,0.123309062443936,1
548,498,4,0.090620450166602,1
548,499,4,0.086693577369881,1
548,500,4,0.0906556760357616,1
548,501,4,0.0702256003384175,1
549,494,4,0.0885559902162529,1
549,495,4,0.121933618338028,1
549,496,4,0.146684568268489,1
549,497,4,0.120037063771845,1
549,498,4,0.0977569501041167,1
549,499,4,0.106743967194048,1
549,500,4,0.120975433966416,1
549,501,4,0.097860776870995,1
550,494,4,0.0806311040603202,1
550,495,4,0.100758911731603,1
550,496,4,0.113171870711321,1
550,497,4,0.094128194419101,1
550,498,4,0.0865564234926467,1
550,499,4,0.0986978300145825,1
550,500,4,0.114648002941794,1
550,501,4,0.10208426933557,1
550,502,4,0.0728272832448827,1
551,494,4,0.0834681252424661,1
551,495,4,0.13025638730482,1
551,496,4,0.139580467026143,1
551,497,4,0.0972413921656421,1
551,498,4,0.0761379039887879,1
551,499,4,0.0791276524642223,1
551,500,4,0.0869170199516064,1
551,501,4,0.0859019267238669,1
551,502,4,0.0785316278829508,1
552,494,4,0.0989775645055685,1
552,495,4,0.199880710028935,1
552,496,4,0.206730389571159,1
552,497,4,0.120635861619129,1
552,499,4,0.06998698565559,1
552,500,4,0.0705637171702806,1
552,501,4,0.0701564364018106,1
552,502,4,0.0736657320061397,1
552,503,4,0.0694486486012485,1
553,494,4,0.0999964911895675,1
553,495,4,0.210831540873077,1
553,496,4,0.211267836113611,1
554,495,4,0.121329573447489,1
558,510,4,0.0696121574902668,1
558,511,4,0.0708048655281046,1
559,510,4,0.0705875564763943,1
559,511,4,0.0752048766738787,1
559,512,4,0.0757307010873982,1
559,513,4,0.0714215308754234,1
560,510,4,0.0689674540042751,1
560,511,4,0.0740991821033561,1
560,512,4,0.0788436951815755,1
560,513,4,0.0839693316790692,1
560,514,4,0.0885521387906672,1
560,515,4,0.0951413828982616,1
560,516,4,0.0822355013413263,1
561,511,4,0.0701901109191401,1
561,512,4,0.0742493218136695,1
561,513,4,0.094368174770721,1
561,514,4,0.155213577182042,1
561,515,4,0.231892214135333,2
561,516,4,0.209004132274175,2
561,517,4,0.120136613839084,1
561,518,4,0.0680182363264449,1
562,513,4,0.107226251930145,1
562,514,4,0.230442257223382,2
562,515,4,0.384756026384913,2
562,516,4,0.357662619047984,2
562,517,4,0.200617236771892,2
562,518,4,0.104134689252369,1
562,536,4,0.0696484734985502,1
563,513,4,0.112026230328619,1
563,514,4,0.204024879897815,2
563,515,4,0.332317076092573,2
563,516,4,0.313127776380696,2
563,517,4,0.188657476178903,1
563,518,4,0.118176855162822,1
563,519,4,0.0844206432865447,1
564,514,4,0.129264432579471,1
564,515,4,0.164815546543526,2
564,516,4,0.157374328761809,1
564,517,4,0.121331262564153,1
564,518,4,0.109611116946483,1
564,519,4,0.0908379508911252,1
564,520,4,0.0693153102109474,1
565,515,4,0.0859754871556215,1
565,516,4,0.0786739030181568,1
565,517,4,0.0783139893935932,1
527,494,5,0.0779171847423074,1
527,499,5,0.0689489635675984,1
528,493,5,0.0911450646454896,1
528,494,5,0.0986884560160729,1
528,495,5,0.0851428185276308,1
528,496,5,0.0723451961713739,1
528,497,5,0.0710412999326845,1
528,498,5,0.0756353378731678,1
528,499,5,0.0752084405902449,1
529,492,5,0.0761073920728725,1
529,493,5,0.0983898836814367,1
529,494,5,0.103704407746342,1
529,495,5,0.0862206486629671,1
529,496,5,0.07369498606922,1
529,497,5,0.0755604656805995,1
529,498,5,0.079295863326934,1
529,499,5,0.0728792265771989,1
530,491,5,0.0782436454712314,1
530,493,5,0.0922856137190966,1
530,494,5,0.0972215001215206,1
530,495,5,0.0832959551382114,1
530,496,5,0.0746871504367073,1
530,497,5,0.0780595497241445,1
530,498,5,0.0787841088958419,1
531,490,5,0.140268728158883,1
531,491,5,0.152409427887321,1
531,492,5,0.106819749832478,1
531,494,5,0.0984917278326558,1
531,495,5,0.0891917809164414,1
531,496,5,0.078288502899243,1
531,497,5,0.0764057727346957,1
531,498,5,0.0713987337902302,1
532,489,5,0.127271095222287,1
532,490,5,0.228963956694211,1
532,491,5,0.249035813873432,1
532,492,5,0.152910820006962,1
532,493,5,0.0981708735335113,1
532,494,5,0.0966641694893683,1
532,495,5,0.0889819351248863,1
532,496,5,0.0787481642536337,1
532,497,5,0.072915273045589,1
533,489,5,0.116393339638091,1
533,490,5,0.204206585724516,1
533,491,5,0.227415815383813,1
533,492,5,0.1478104064537,1
533,493,5,0.0991680453532377,1
533,494,5,0.0908380047991039,1
533,495,5,0.0897350176070646,1
533,496,5,0.0896392111494542,1
533,497,5,0.0801785465795603,1
533,538,5,0.0700883865634291,1
534,490,5,0.117206583424442,1
534,491,5,0.133216845778521,1
534,492,5,0.108771817637119,1
534,493,5,0.0941951960467866,1
534,494,5,0.0920881907217325,1
534,495,5,0.102513448722922,1
534,496,5,0.111438477627183,1
534,497,5,0.0959616167525105,1
534,538,5,0.0780925234377516,1
534,539,5,0.0748241725388828,1
535,493,5,0.0789840236397747,1
535,494,5,0.0834307909723638,1
535,495,5,0.09571261579913,1
535,496,5,0.100262497115324,1
535,497,5,0.0834390329033218,1
535,538,5,0.0785512683565053,1
535,539,5,0.082960018584596,1
536,493,5,0.0695273482603009,1
536,494,5,0.0763219637972224,1
536,495,5,0.0846345441560493,1
536,496,5,0.0826491252819507,1
536,539,5,0.0708918730056444,1
537,494,5,0.0697841059728315,1
537,495,5,0.0729091395155738,1
537,496,5,0.0682623316537684,1
538,493,5,0.0684242233034273,1
538,494,5,0.0678071326820547,1
538,495,5,0.0684859060105527,1
539,493,5,0.0705902818242038,1
539,494,5,0.070277489762755,1
539,495,5,0.0711607180849433,1
540,494,5,0.069703040352494,1
540,495,5,0.0703502655339314,1
541,495,5,0.0685143694232795,1
542,495,5,0.0691268059891621,1
542,496,5,0.0682755690574144,1
545,495,5,0.0808600392660925,1
545,496,5,0.0769157062740645,1
545,497,5,0.0720427005338471,1
545,498,5,0.0679661073110911,1
546,495,5,0.101658168692776,1
546,496,5,0.10264164189615,1
546,497,5,0.0872869963988512,1
546,498,5,0.0746978721346831,1
547,494,5,0.078790757546542,1
547,495,5,0.109284686166436,1
547,496,5,0.124608580156804,1
547,497,5,0.103524103527086,1
547,498,5,0.0812537052750658,1
547,499,5,0.0700211812833798,1
548,494,5,0.083294811091109,1
548,495,5,0.120667475653719,1
548,496,5,0.150750906995751,1
548,497,5,0.125867966374455,1
548,498,5,0.0951202509706311,1
548,499,5,0.0870446321166199,1
548,500,5,0.0871055900609213,1
548,501,5,0.0696878922104936,1
549,494,5,0.0828954308363988,1
549,495,5,0.109174773787746,1
549,496,5,0.135702890081009,1
549,497,5,0.119209204933505,1
549,498,5,0.100079755057479,1
549,499,5,0.105429295349404,1
549,500,5,0.117940558523077,1
549,501,5,0.100157747923033,1
550,494,5,0.0757339655149942,1
550,495,5,0.0874737875448706,1
550,496,5,0.0992592876019891,1
550,497,5,0.089517954136146,1
550,498,5,0.0877363792986462,1
550,499,5,0.102067162537012,1
550,500,5,0.119779994590993,1
550,501,5,0.109900578832728,1
550,502,5,0.0755332002229538,1
551,494,5,0.0785813310392653,1
551,495,5,0.120433083762553,1
551,496,5,0.130006925138733,1
551,498,5,0.073101333439009,1
551,499,5,0.0814505951824188,1
551,500,5,0.0927709951690784,1
551,501,5,0.0918080549157943,1
551,502,5,0.0796713144288994,1
552,494,5,0.0957507047809333,1
552,495,5,0.192429645056451,1
552,496,5,0.207486898204869,1
552,497,5,0.117350218238665,1
552,499,5,0.0679292462332459,1
552,500,5,0.0725069320868723,1
552,501,5,0.0729955300462468,1
552,502,5,0.0753054749518135,1
552,503,5,0.0718669964621032,1
552,542,5,0.072914578231642,1
553,495,5,0.17596716663881,1
553,496,5,0.191187916696695,1
553,497,5,0.107915399549646,1
553,503,5,0.0687015798535773,1
553,542,5,0.0678543081531481,1
554,496,5,0.100050135618099,1
558,511,5,0.0679575359424859,1
559,511,5,0.0731761038053954,1
559,512,5,0.073366045573278,1
559,513,5,0.0689701194543305,1
560,511,5,0.0706931442372419,1
560,512,5,0.077096250084336,1
560,513,5,0.0842406625151613,1
560,514,5,0.0911947618120288,1
560,515,5,0.0984615932725909,1
560,516,5,0.0857871386679966,1
561,512,5,0.0711501101927002,1
561,513,5,0.09418224615236,1
561,514,5,0.154689220263496,1
561,515,5,0.229192071300753,2
561,516,5,0.208210391196544,2
561,517,5,0.124982473917164,1
561,518,5,0.0708520769378505,1
562,513,5,0.106662410412127,1
562,514,5,0.226026067694237,2
562,515,5,0.376108156368214,2
562,516,5,0.353796722164891,2
562,517,5,0.204807479993192,2
562,518,5,0.10336963919893,1
563,513,5,0.111782805856141,1
563,514,5,0.198527991130916,1
563,515,5,0.322043581030832,2
563,516,5,0.30660158064902,2
563,517,5,0.185814944403384,1
563,518,5,0.107260285833999,1
563,519,5,0.0735127771013857,1
564,514,5,0.133572890008173,1
564,515,5,0.163351777209489,1
564,516,5,0.15542450113317,1
564,517,5,0.113150331478963,1
564,518,5,0.0896329997523587,1
564,519,5,0.0727897752712937,1
565,515,5,0.086368919563354,1
565,516,5,0.0777446013435498,1
565,517,5,0.0721770272370901,1
527,494,6,0.0700234334389323,1
528,493,6,0.0826928147037582,1
528,494,6,0.0877287004065764,1
528,495,6,0.0773644003496879,1
528,496,6,0.0695810585763617,1
528,497,6,0.0693846298817149,1
528,498,6,0.0732901670984416,1
528,499,6,0.0717540652366086,1
529,492,6,0.0760907764358977,1
529,493,6,0.0918953918309814,1
529,494,6,0.0948553591430999,1
529,495,6,0.0805788672290091,1
529,496,6,0.0715384752504397,1
529,497,6,0.0731252865508554,1
529,498,6,0.07689828201741,1
529,499,6,0.0711496250208923,1
530,490,6,0.077080221445351,1
530,491,6,0.0813738661594749,1
530,492,6,0.0808262749021319,1
530,493,6,0.0860475381639738,1
530,494,6,0.0882692476880425,1
530,495,6,0.0774297188504845,1
530,496,6,0.0721960507637778,1
530,497,6,0.0747764699675536,1
530,498,6,0.0764722592416963,1
531,489,6,0.0867912885760703,1
531,490,6,0.133851618216891,1
531,491,6,0.137198656795261,1
531,492,6,0.0980914431218594,1
531,493,6,0.0848780464956076,1
531,494,6,0.0891671569497495,1
531,495,6,0.0834100184312577,1
531,496,6,0.0769297882360428,1
531,497,6,0.0744269066748907,1
531,498,6,0.0693533153358951,1
532,489,6,0.120858154163977,1
532,490,6,0.203362123228752,1
532,491,6,0.203857813082206,1
532,492,6,0.126993349336735,1
532,493,6,0.090159602836681,1
532,494,6,0.0929947072906971,1
532,495,6,0.0895316587422737,1
532,496,6,0.081717493584711,1
532,497,6,0.0730928638965856,1
533,489,6,0.101308761134274,1
533,490,6,0.159829310089044,1
533,491,6,0.161365663521444,1
533,492,6,0.10762651268184,1
533,494,6,0.0897874820498411,1
533,495,6,0.0916199699782873,1
533,496,6,0.0900237906691375,1
533,497,6,0.0782666222496868,1
534,490,6,0.0904609484373299,1
534,491,6,0.0923507704959572,1
534,494,6,0.0877778704728798,1
534,495,6,0.0996981764152737,1
534,496,6,0.107895537454401,1
534,497,6,0.0936281859375791,1
534,538,6,0.0707058844895293,1
534,539,6,0.0727028636301604,1
535,494,6,0.0813046602944401,1
535,495,6,0.0944048681348549,1
535,496,6,0.100321586249699,1
535,497,6,0.085574196162557,1
535,538,6,0.0748244540583268,1
535,539,6,0.0809405957555206,1
536,493,6,0.0682806423971829,1
536,494,6,0.0782046640128927,1
536,495,6,0.0891401610319971,1
536,496,6,0.0888753231124445,1
536,497,6,0.0729162014607768,1
537,494,6,0.0727964299117692,1
537,495,6,0.0785239549806564,1
537,496,6,0.0742303282358588,1
538,493,6,0.0679060178842235,1
538,494,6,0.069201732089709,1
538,495,6,0.070451259137043,1
539,493,6,0.0695234608960627,1
539,494,6,0.0688191591447866,1
539,495,6,0.0681588702631898,1
545,496,6,0.0743604261576655,1
545,497,6,0.0724892802187524,1
545,498,6,0.0700563652241115,1
546,495,6,0.0911407939356255,1
546,496,6,0.0967972563091023,1
546,497,6,0.0871756884024914,1
546,498,6,0.0786700575823465,1
547,494,6,0.0752927466790768,1
547,495,6,0.104149879322797,1
547,496,6,0.120570022007872,1
547,497,6,0.105638578102071,1
547,498,6,0.0900183339837431,1
547,499,6,0.0787652171442131,1
548,494,6,0.0802149584242501,1
548,495,6,0.112635893628489,1
548,496,6,0.13857249564136,1
548,497,6,0.122752384697303,1
548,498,6,0.100534894131438,1
548,499,6,0.0900935056650817,1
548,500,6,0.0829508482384502,1
549,494,6,0.0777699081446378,1
549,495,6,0.0962679458462968,1
549,496,6,0.117651491962009,1
549,497,6,0.111456470912501,1
549,498,6,0.0987318459491101,1
549,499,6,0.102380439770269,1
549,500,6,0.111312225141186,1
549,501,6,0.0961521395286075,1
550,494,6,0.0716472555615783,1
550,495,6,0.0781699352950918,1
550,496,6,0.0867613337092676,1
550,497,6,0.0839977172247157,1
550,498,6,0.0852176248326696,1
550,499,6,0.105629569479861,1
550,500,6,0.127792133805257,1
550,501,6,0.116124506538343,1
550,502,6,0.0756713004847022,1
550,541,6,0.0703545362437955,1
550,542,6,0.0725221221573005,1
551,494,6,0.0740610991113282,1
551,495,6,0.10604022848166,1
551,496,6,0.113581475512648,1
551,498,6,0.0701717282984208,1
551,499,6,0.0879288667210762,1
551,500,6,0.107148852052356,1
551,501,6,0.101337739667685,1
551,502,6,0.078477785791831,1
551,541,6,0.0784731976238705,1
551,542,6,0.0781452693999721,1
552,494,6,0.0851534923074033,1
552,495,6,0.158271848688115,1
552,496,6,0.174316971535054,1
552,497,6,0.104316526854128,1
552,499,6,0.0686961471272845,1
552,500,6,0.0787817129856797,1
552,501,6,0.0771277203643164,1
552,502,6,0.0735372573134679,1
552,503,6,0.0710242350625543,1
552,540,6,0.0714869631819527,1
552,541,6,0.08375720977286,1
552,542,6,0.0810195589646908,1
553,495,6,0.127423990229287,1
553,496,6,0.145839363040575,1
553,541,6,0.0715959531352305,1
553,542,6,0.0689943660651718,1
559,511,6,0.0678999562315132,1
559,512,6,0.0686867252105718,1
560,512,6,0.0711337880547203,1
560,513,6,0.0781048683648622,1
560,514,6,0.0880567663953091,1
560,515,6,0.0960113618372529,1
560,516,6,0.0858666229876271,1
561,513,6,0.0852871900842287,1
561,514,6,0.136828356900145,1
561,515,6,0.198579239649285,1
561,516,6,0.186653261389582,1
561,517,6,0.12072731351002,1
561,518,6,0.0727245406273528,1
562,513,6,0.0977138716394006,1
562,514,6,0.193657105771192,1
562,515,6,0.316654747812247,2
562,516,6,0.308570827129523,2
562,517,6,0.189886841642222,1
562,518,6,0.0999964013429364,1
563,513,6,0.104454076056539,1
563,514,6,0.173943077774694,1
563,515,6,0.275486781859472,1
563,516,6,0.270795493925505,1
563,517,6,0.171537655849164,1
563,518,6,0.0992943517472127,1
563,519,6,0.0708228108952194,1
564,514,6,0.13461726724787,1
564,515,6,0.1541138783767,1
564,516,6,0.149251294845688,1
564,517,6,0.10852128929101,1
564,518,6,0.0819202654515121,1
565,515,6,0.0889676674798705,1
565,516,6,0.0809245910756372,1
565,517,6,0.0724659799924251,1
527,499,7,0.0690006493395722,1
527,500,7,0.0678161952122431,1
528,493,7,0.0747630289115438,1
528,494,7,0.0762911763516383,1
528,495,7,0.0698517724655871,1
528,498,7,0.0722058799852182,1
528,499,7,0.0715148695455668,1
529,491,7,0.070459117722375,1
529,492,7,0.0773932770569176,1
529,493,7,0.0843095209732225,1
529,494,7,0.0832069111370338,1
529,495,7,0.0740885322826852,1
529,496,7,0.0689541686824258,1
529,497,7,0.0717637447136638,1
529,498,7,0.0765447534934287,1
529,499,7,0.0727529261729993,1
530,490,7,0.0825294076409217,1
530,491,7,0.0881564482376068,1
530,492,7,0.0860071730675164,1
530,493,7,0.0846613484009887,1
530,494,7,0.081460244710597,1
530,495,7,0.0736429708595989,1
530,496,7,0.071371725892927,1
530,497,7,0.0742228589859281,1
530,498,7,0.0779687387392222,1
530,499,7,0.0720221735735326,1
531,489,7,0.0820259969669694,1
531,490,7,0.115284248864914,1
531,491,7,0.117117144098087,1
531,492,7,0.093624639990539,1
531,493,7,0.0843864117201025,1
531,494,7,0.0828790727597665,1
531,495,7,0.0792810745714579,1
531,496,7,0.0772387408514566,1
531,497,7,0.0758562946981,1
531,498,7,0.0737261209217776,1
532,489,7,0.103004490510662,1
532,490,7,0.152718979480275,1
532,491,7,0.148881653825866,1
532,492,7,0.106153914418856,1
532,493,7,0.087778936652902,1
532,494,7,0.0885532948173205,1
532,495,7,0.0878850395344344,1
532,496,7,0.0843223630516919,1
532,497,7,0.0755496721053188,1
533,490,7,0.113578037381565,1
533,491,7,0.112086858835273,1
533,492,7,0.0880548017489761,1
533,494,7,0.0869797927978557,1
533,495,7,0.0907543036775879,1
533,496,7,0.0897280035800648,1
533,497,7,0.0777795696523668,1
534,491,7,0.0789960211599119,1
534,494,7,0.0850807165362269,1
534,495,7,0.0957009776655171,1
534,496,7,0.101966797860318,1
534,497,7,0.0887649555108234,1
535,494,7,0.0816744211097703,1
535,495,7,0.0944275633938662,1
535,496,7,0.100196933033736,1
535,497,7,0.08568843315909,1
535,539,7,0.0699495435695305,1
536,494,7,0.0799868198586068,1
536,495,7,0.092901889731014,1
536,496,7,0.0944724687400809,1
536,497,7,0.0768007744635845,1
537,494,7,0.0741988339967768,1
537,495,7,0.0817426147027615,1
537,496,7,0.0790641668346998,1
538,494,7,0.0702735125518858,1
538,495,7,0.0717992401227166,1
539,494,7,0.0688842081056899,1
545,496,7,0.0737185079172372,1
545,497,7,0.0735553524249678,1
545,498,7,0.0714637707715827,1
546,495,7,0.0871148143150457,1
546,496,7,0.0965947599719698,1
546,497,7,0.0886103414382821,1
546,498,7,0.0814125541188187,1
546,499,7,0.0720736976215704,1
547,494,7,0.0767756054273307,1
547,495,7,0.106686992450391,1
547,496,7,0.124189703183149,1
547,497,7,0.108804018669699,1
547,498,7,0.0956153178874436,1
547,499,7,0.085357498067938,1
547,500,7,0.0685034800115924,1
548,494,7,0.078693405726877,1
548,495,7,0.107269761658691,1
548,496,7,0.127614524984935,1
548,497,7,0.115276557993293,1
548,498,7,0.101968187488212,1
548,499,7,0.092654284395303,1
548,500,7,0.0814102001370844,1
549,493,7,0.0688259156114439,1
549,494,7,0.0753804908989915,1
549,495,7,0.0871587732767464,1
549,496,7,0.102026971144041,1
549,497,7,0.100891357645368,1
549,498,7,0.096279116777428,1
549,499,7,0.100519368633588,1
549,500,7,0.108388268358805,1
549,501,7,0.092788700945177,1
549,541,7,0.0756324687707486,1
549,542,7,0.0763477677496692,1
550,493,7,0.0725049794200901,1
550,494,7,0.0736729796343803,1
550,495,7,0.0752701712155737,1
550,496,7,0.0821433486467133,1
550,497,7,0.0823102717077128,1
550,498,7,0.0860314735863363,1
550,499,7,0.110300228627331,1
550,500,7,0.138599222019219,1
550,501,7,0.121103938607965,1
550,502,7,0.077021617482784,1
550,540,7,0.0822531232605692,1
550,541,7,0.105841224183589,1
550,542,7,0.102709326358232,1
550,543,7,0.0753300869389545,1
551,494,7,0.0752825880199892,1
551,495,7,0.094634821602446,1
551,496,7,0.103130203916872,1
551,498,7,0.0731505214746386,1
551,499,7,0.0938123655415217,1
551,500,7,0.121326374907422,1
551,501,7,0.108920507821784,1
551,502,7,0.0774812968065009,1
551,540,7,0.0990626133265507,1
551,541,7,0.126128353890881,1
551,542,7,0.113588663243135,1
551,543,7,0.0762001137961491,1
552,494,7,0.076513558743117,1
552,495,7,0.120658287338247,1
552,496,7,0.136904295272735,1
552,499,7,0.0686965125035843,1
552,500,7,0.0821641631162473,1
552,501,7,0.0784319041122252,1
552,502,7,0.0704224243582411,1
552,503,7,0.0684500691843018,1
552,540,7,0.0994011254835905,1
552,541,7,0.123298724091586,1
552,542,7,0.105993292601583,1
552,543,7,0.0691706451553546,1
553,495,7,0.0927342179480889,1
553,540,7,0.0764290969201246,1
553,541,7,0.0899019646271657,1
553,542,7,0.0780546560776382,1
559,512,7,0.0683463801822578,1
560,512,7,0.0678954159817558,1
560,513,7,0.0739337385168818,1
560,514,7,0.0827526525600588,1
560,515,7,0.0896842542605033,1
560,516,7,0.0831290141078857,1
560,517,7,0.0683313039175623,1
561,513,7,0.0786391383617035,1
561,514,7,0.113787296175131,1
561,515,7,0.156434185593718,1
561,516,7,0.154939257448022,1
561,517,7,0.112604087921086,1
561,518,7,0.0755919179912536,1
562,514,7,0.152513314551953,1
562,515,7,0.237006068744604,1
562,516,7,0.243647220245863,1
562,517,7,0.16574480029993,1
562,518,7,0.0964908134095833,1
563,514,7,0.14587695487102,1
563,515,7,0.216255689807453,1
563,516,7,0.22283227152984,1
563,517,7,0.153661290947063,1
563,518,7,0.0946277776265692,1
564,514,7,0.134358484991252,1
564,515,7,0.139984153929369,1
564,516,7,0.140284972429783,1
564,517,7,0.107402171633804,1
564,518,7,0.0805303799971019,1
565,515,7,0.090706972472334,1
565,516,7,0.0855148434780642,1
565,517,7,0.0767453151331053,1
526,500,8,0.0709823246040423,1
527,499,8,0.0714559361453524,1
527,500,8,0.0709857208066972,1
528,493,8,0.0691557066554934,1
528,494,8,0.0682152280599798,1
528,498,8,0.0723557202067613,1
528,499,8,0.0731267121174019,1
529,491,8,0.0738655209647889,1
529,492,8,0.0775639497173209,1
529,493,8,0.0782726839023971,1
529,494,8,0.0741137432473668,1
529,495,8,0.0688164877049557,1
529,497,8,0.0698965220776413,1
529,498,8,0.0750382291425478,1
529,499,8,0.073655633244806,1
530,489,8,0.0693828329490932,1
530,490,8,0.0825998593792408,1
530,491,8,0.0904191757436522,1
530,492,8,0.0881102670692307,1
530,493,8,0.0831315777317593,1
530,494,8,0.0764660478446009,1
530,495,8,0.0708439488126253,1
530,496,8,0.0708153476350642,1
530,497,8,0.0738198489273223,1
530,498,8,0.0782946963270122,1
530,499,8,0.0760888237691155,1
531,489,8,0.0746452519577461,1
531,490,8,0.0954012912326555,1
531,491,8,0.10059800240511,1
531,492,8,0.0903947374599979,1
531,493,8,0.0839156992300886,1
531,494,8,0.0791154992099247,1
531,495,8,0.0765708988630735,1
531,496,8,0.0777898181580856,1
531,497,8,0.0777155269737316,1
531,498,8,0.0784056688959493,1
531,499,8,0.0735550289770959,1
532,490,8,0.106109985406032,1
532,491,8,0.10802315560919,1
532,492,8,0.09263112193381,1
532,493,8,0.0851040407216558,1
532,494,8,0.084027725999497,1
532,495,8,0.0847200841386147,1
532,496,8,0.0845554371922693,1
532,497,8,0.0772086961380228,1
532,498,8,0.0711037433412865,1
533,490,8,0.0833489107425711,1
533,491,8,0.087403018348455,1
533,492,8,0.0815095345724086,1
533,493,8,0.0799413993917072,1
533,494,8,0.0816381530196902,1
533,495,8,0.0858066174176152,1
533,496,8,0.0859187400234301,1
533,497,8,0.076175693481821,1
534,491,8,0.076359687402726,1
534,492,8,0.0766125577510186,1
534,494,8,0.0802878240420576,1
534,495,8,0.0882898525154373,1
534,496,8,0.0930619604889497,1
534,497,8,0.0826471067276391,1
535,494,8,0.0791635851268797,1
535,495,8,0.0906099141516638,1
535,496,8,0.0966716267597481,1
535,497,8,0.0835983369700055,1
536,494,8,0.0789918163375772,1
536,495,8,0.0927807405336631,1
536,496,8,0.0962442443050174,1
536,497,8,0.0778929561007923,1
537,494,8,0.0734294593254957,1
537,495,8,0.0823112839797563,1
537,496,8,0.0813620303632736,1
538,494,8,0.0705758284961504,1
538,495,8,0.0726933219179395,1
538,496,8,0.0688879397357675,1
539,494,8,0.0688827645698172,1
545,496,8,0.0719869716634747,1
545,497,8,0.0722471135991094,1
545,498,8,0.0702886846529879,1
546,495,8,0.0839643541757072,1
546,496,8,0.0970064552049136,1
546,497,8,0.0897467755361855,1
546,498,8,0.0821573527416112,1
546,499,8,0.0738499175998577,1
547,494,8,0.0763396875426472,1
547,495,8,0.107310216601779,1
547,496,8,0.128928322322369,1
547,497,8,0.113953153056108,1
547,498,8,0.100134837032108,1
547,499,8,0.089936477713052,1
547,500,8,0.073178817173654,1
548,494,8,0.0748388055601983,1
548,495,8,0.10119968732414,1
548,496,8,0.120906731242515,1
548,497,8,0.111376136044762,1
548,498,8,0.103803298938286,1
548,499,8,0.0967113210013601,1
548,500,8,0.0835424942939004,1
549,493,8,0.070055766246571,1
549,494,8,0.0718915725105918,1
549,495,8,0.0811797914465624,1
549,496,8,0.0921330002315408,1
549,497,8,0.0917340212917827,1
549,498,8,0.0927027955863118,1
549,499,8,0.0987409384281756,1
549,500,8,0.104983751895644,1
549,501,8,0.0882943268776652,1
549,540,8,0.076174393700558,1
549,541,8,0.104059841018902,1
549,542,8,0.0988142592689139,1
549,543,8,0.0704735111526743,1
550,492,8,0.0699631523392517,1
550,493,8,0.0788134228566763,1
550,494,8,0.0764459042299123,1
550,495,8,0.0772941223148556,1
550,496,8,0.0827224401329136,1
550,497,8,0.0797716671260425,1
550,498,8,0.0836676746100992,1
550,499,8,0.108835285297315,1
550,500,8,0.139648307222385,1
550,501,8,0.11866963398543,1
550,502,8,0.0776848533338802,1
550,540,8,0.125500673346592,1
550,541,8,0.185006288784994,1
550,542,8,0.163582251787541,1
550,543,8,0.0966862717606145,1
551,493,8,0.0705203332270188,1
551,494,8,0.0775883939907506,1
551,495,8,0.090643864198662,1
551,496,8,0.0989907240421343,1
551,497,8,0.0825504916503489,1
551,498,8,0.0730768532269268,1
551,499,8,0.093577248887531,1
551,500,8,0.125436522851999,1
551,501,8,0.109421840043671,1
551,502,8,0.0762810835800801,1
551,540,8,0.158052155705793,1
551,541,8,0.233380936873709,3
551,542,8,0.193484480444006,1
551,543,8,0.102561642455835,1
552,494,8,0.0715131624595762,1
552,495,8,0.0960588188277904,1
552,496,8,0.11074885082565,1
552,500,8,0.0826597032253168,1
552,501,8,0.0775992354842345,1
552,540,8,0.139423558869621,1
552,541,8,0.198856314679991,1
552,542,8,0.158633762897664,1
552,543,8,0.0848455759231346,1
553,495,8,0.0717811809498691,1
553,540,8,0.0887295798972787,1
553,541,8,0.115751906569471,1
553,542,8,0.0937165351248097,1
554,541,8,0.068714781318571,1
559,512,8,0.0679576138095662,1
560,513,8,0.0701587185062401,1
560,514,8,0.076855928315518,1
560,515,8,0.0836506516683968,1
560,516,8,0.0806904447652621,1
560,517,8,0.0705099170075887,1
561,514,8,0.0947445542878742,1
561,515,8,0.123718008369968,1
561,516,8,0.129284845734053,1
561,517,8,0.105216119242724,1
561,518,8,0.0771242403048058,1
561,535,8,0.0687424301218426,1
562,514,8,0.119626967808934,1
562,515,8,0.175036750865978,1
562,516,8,0.19059841498084,1
562,517,8,0.146314831412261,1
562,518,8,0.0951118592952881,1
563,514,8,0.122654080503348,1
563,515,8,0.171431301397065,1
563,516,8,0.186752020806467,1
563,517,8,0.144662084664182,1
563,518,8,0.0965997075264547,1
564,514,8,0.12773707578973,1
564,515,8,0.129144121950677,1
564,516,8,0.137438116036421,1
564,517,8,0.115477838406018,1
564,518,8,0.08676247775637,1
565,515,8,0.0938955755014544,1
565,516,8,0.0928493653904835,1
565,517,8,0.0867342659142103,1
565,518,8,0.0727059423747188,1
566,516,8,0.068878404013322,1
566,517,8,0.0684211205997672,1
526,500,9,0.0686159799732578,1
527,499,9,0.0685838508179829,1
527,500,9,0.0697229204170647,1
528,498,9,0.0693504282641497,1
528,499,9,0.071238094003631,1
529,491,9,0.0750949343463114,1
529,492,9,0.0778524771986022,1
529,493,9,0.0759094060366202,1
529,494,9,0.0699065669309963,1
529,498,9,0.071383633566433,1
529,499,9,0.0713377099583993,1
530,489,9,0.0680792122400725,1
530,490,9,0.0783627401756183,1
530,491,9,0.0870320116598406,1
530,492,9,0.0865298348796218,1
530,493,9,0.0811261709771327,1
530,494,9,0.0730475871842957,1
530,495,9,0.0694425210610087,1
530,496,9,0.0708653862188014,1
530,497,9,0.0727611321653048,1
530,498,9,0.0757497066447597,1
530,499,9,0.0744092847556478,1
531,489,9,0.069171417836382,1
531,490,9,0.0807787520240649,1
531,491,9,0.0883747815409114,1
531,492,9,0.0867664310081377,1
531,493,9,0.0822891038414298,1
531,494,9,0.075816822078178,1
531,495,9,0.0744842108561948,1
531,496,9,0.0779467502737088,1
531,497,9,0.0784267768644781,1
531,498,9,0.0787064694270363,1
531,499,9,0.0753780231115244,1
532,490,9,0.0786286322956423,1
532,491,9,0.0854899020532758,1
532,492,9,0.0839986875683314,1
532,493,9,0.0801075497716793,1
532,494,9,0.0774823510069723,1
532,495,9,0.0793873631360279,1
532,496,9,0.0826594396751989,1
532,497,9,0.0783385654420818,1
532,498,9,0.0749196495588458,1
533,490,9,0.0709931840668524,1
533,491,9,0.0790541698995481,1
533,492,9,0.0795736870795657,1
533,493,9,0.0758847042028481,1
533,494,9,0.0749679630872663,1
533,495,9,0.078938794845688,1
533,496,9,0.0808565532168065,1
533,497,9,0.0758042076111741,1
533,498,9,0.0705579849552176,1
534,490,9,0.0686555364500355,1
534,491,9,0.075843841955032,1
534,492,9,0.0770785562877883,1
534,493,9,0.0738295823123561,1
534,495,9,0.07949538274569,1
534,496,9,0.0831103379881715,1
534,497,9,0.0776470518612963,1
534,498,9,0.0689683165319335,1
535,492,9,0.0690889565983749,1
535,494,9,0.0752520461551967,1
535,495,9,0.0840242399502111,1
535,496,9,0.0889925969251081,1
535,497,9,0.0799726001317942,1
536,494,9,0.0755438560334001,1
536,495,9,0.087462862194531,1
536,496,9,0.0910982545506959,1
536,497,9,0.0757935098722999,1
537,494,9,0.0719920569827939,1
537,495,9,0.0805308052711557,1
537,496,9,0.080185854105555,1
538,494,9,0.070388120914494,1
538,495,9,0.0726275242351105,1
538,496,9,0.0690342160409444,1
545,497,9,0.0698043993319052,1
545,498,9,0.0678224365582156,1
546,496,9,0.0909760032346704,1
546,497,9,0.0877218181546355,1
546,498,9,0.0799904915909303,1
546,499,9,0.0729391542801306,1
547,495,9,0.0985317515119151,1
547,496,9,0.121187232424753,1
547,497,9,0.112138670392531,1
547,498,9,0.0979866340318146,1
547,499,9,0.089252121913876,1
547,500,9,0.0775212306391292,1
548,494,9,0.0710683437686402,1
548,495,9,0.0926305469153711,1
548,496,9,0.110355789783992,1
548,497,9,0.104100894939531,1
548,498,9,0.0992607550969634,1
548,499,9,0.0966828935272858,1
548,500,9,0.0870632842772325,1
548,501,9,0.0714628064177425,1
549,494,9,0.0727581252980512,1
549,495,9,0.0843983433527102,1
549,496,9,0.0922097891522388,1
549,497,9,0.0873656122010479,1
549,498,9,0.08749394313911,1
549,499,9,0.0938572648979611,1
549,500,9,0.0975355380562537,1
549,501,9,0.0827841527889161,1
549,540,9,0.103311718070759,1
549,541,9,0.149080658123937,1
549,542,9,0.124837880738876,1
549,543,9,0.0753377778105751,1
550,493,9,0.0821811022010939,1
550,494,9,0.0836877822861353,1
550,495,9,0.0911431838560123,1
550,496,9,0.0932239958932183,1
550,497,9,0.0813655463614367,1
550,498,9,0.0789354944794396,1
550,499,9,0.0974156886401657,1
550,500,9,0.121091360079613,1
550,501,9,0.104773462860709,1
550,502,9,0.0746787048533856,1
550,539,9,0.0742941073643762,1
550,540,9,0.205361941522925,1
550,541,9,0.319547881210391,3
550,542,9,0.250430928401771,3
550,543,9,0.11545466995475,1
551,493,9,0.073302464107349,1
551,494,9,0.0848145608660851,1
551,495,9,0.0987180754554529,1
551,496,9,0.101284802032652,1
551,497,9,0.0827335152276383,1
551,498,9,0.0712382677071178,1
551,499,9,0.086316742629797,1
551,500,9,0.112894268580379,1
551,501,9,0.101200669647307,1
551,502,9,0.07386206486438,1
551,539,9,0.0863594557182134,1
551,540,9,0.257048504147033,3
551,541,9,0.40413412381757,3
551,542,9,0.308004625639996,3
551,543,9,0.131824929790249,1
552,494,9,0.0741617632767924,1
552,495,9,0.0894702815136939,1
552,496,9,0.0956956886938341,1
552,500,9,0.0806708162712584,1
552,501,9,0.0775312215845055,1
552,539,9,0.0742193909059684,1
552,540,9,0.1901982141269,1
552,541,9,0.293639898344407,3
552,542,9,0.220994656353647,1
553,540,9,0.0956488845888158,1
553,541,9,0.134033946980233,1
553,542,9,0.105706861541693,1
554,541,9,0.0737541470808997,1
560,514,9,0.0725132153612726,1
560,515,9,0.0803372816175805,1
560,516,9,0.0821490329435731,1
560,517,9,0.0754077863055142,1
561,514,9,0.0814509785280448,1
561,515,9,0.101459176374256,1
561,516,9,0.110385283438089,1
561,517,9,0.0992192459534036,1
561,518,9,0.0781887012614371,1
562,514,9,0.0945785296931855,1
562,515,9,0.128807017390858,1
562,516,9,0.146366738805924,1
562,517,9,0.127784838258814,1
562,518,9,0.0924391975502681,1
563,514,9,0.101231732622559,1
563,515,9,0.134751725726172,1
563,516,9,0.15500244957855,1
563,517,9,0.137528849154263,1
563,518,9,0.0988870110809887,1
564,514,9,0.111690479458041,1
564,515,9,0.117276903387702,1
564,516,9,0.134561514418396,1
564,517,9,0.126421265887759,1
564,518,9,0.095152955144345,1
564,519,9,0.0696010584364405,1
565,515,9,0.0965702018928074,1
565,516,9,0.100236974682321,1
565,517,9,0.0986327870434545,1
565,518,9,0.0802056742723717,1
566,516,9,0.0743268894051703,1
566,517,9,0.0743415583651382,1
529,490,10,0.0695053478152366,1
529,491,10,0.0771080499418848,1
529,492,10,0.0777419838116976,1
529,493,10,0.0720618678151446,1
530,489,10,0.0696239214091632,1
530,490,10,0.0774039807855672,1
530,491,10,0.08511429521715,1
530,492,10,0.0843022613654311,1
530,493,10,0.0772984708917999,1
530,494,10,0.0698579898524579,1
530,495,10,0.0689652557567013,1
530,496,10,0.0713817108485279,1
530,497,10,0.070865853421283,1
530,498,10,0.071574569637033,1
530,499,10,0.0697701438063614,1
531,490,10,0.0746083010332698,1
531,491,10,0.0827531676807436,1
531,492,10,0.0846799346740719,1
531,493,10,0.0807948944687826,1
531,494,10,0.0739930971911499,1
531,495,10,0.0736312788180074,1
531,496,10,0.0784781451783554,1
531,497,10,0.0784016557464276,1
531,498,10,0.0758475256669064,1
531,499,10,0.0718638518300154,1
532,491,10,0.0788667258680095,1
532,492,10,0.0834137859999877,1
532,493,10,0.0804800539041452,1
532,494,10,0.0752621928347336,1
532,495,10,0.0760035952548712,1
532,496,10,0.0832114453970157,1
532,497,10,0.082586064926482,1
532,498,10,0.0776301067866743,1
532,499,10,0.0698457048231013,1
533,490,10,0.0703714693388668,1
533,491,10,0.0807443227950343,1
533,492,10,0.084968725705471,1
533,493,10,0.0798710375000192,1
533,494,10,0.0743366168004287,1
533,495,10,0.0744383770947922,1
533,496,10,0.0804798203029044,1
533,497,10,0.0819258359426392,1
533,498,10,0.0775186310766032,1
534,490,10,0.0711360102613957,1
534,491,10,0.0792648123312321,1
534,492,10,0.0822157770109161,1
534,493,10,0.077368760906183,1
534,494,10,0.0738072524296446,1
534,495,10,0.0735422168475036,1
534,496,10,0.0783597153390385,1
534,497,10,0.0803609891486354,1
534,498,10,0.0764535411935543,1
535,491,10,0.0697862922408545,1
535,492,10,0.0722047598972174,1
535,493,10,0.071867230063344,1
535,495,10,0.0778023008500306,1
535,496,10,0.081963325946902,1
535,497,10,0.0796849112190698,1
535,498,10,0.0707546173022282,1
536,494,10,0.07277369272433,1
536,495,10,0.0812728426074863,1
536,496,10,0.0846768858783905,1
536,497,10,0.0757108210228275,1
537,494,10,0.0709584972774794,1
537,495,10,0.0786711417316949,1
537,496,10,0.0795046369486915,1
537,497,10,0.0683487581230938,1
538,494,10,0.0700376891043973,1
538,495,10,0.072340691860269,1
538,496,10,0.0700949154186211,1
545,497,10,0.0681984506990691,1
546,496,10,0.0806064441549759,1
546,497,10,0.0832282287477018,1
546,498,10,0.0777250507166263,1
546,499,10,0.072185329065802,1
547,495,10,0.0859093660249205,1
547,496,10,0.105050933216592,1
547,497,10,0.103639394724091,1
547,498,10,0.0920581400185233,1
547,499,10,0.0861861355770808,1
547,500,10,0.0804988917477954,1
548,494,10,0.0745801970070674,1
548,495,10,0.0945449809611395,1
548,496,10,0.106832867440616,1
548,497,10,0.0992273501195272,1
548,498,10,0.0922340417528555,1
548,499,10,0.0937460886766602,1
548,500,10,0.09005699199421,1
548,501,10,0.0757393682924099,1
549,493,10,0.0737426107734688,1
549,494,10,0.0866831012526968,1
549,495,10,0.106169691487274,1
549,496,10,0.108405399116465,1
549,497,10,0.0915945014532633,1
549,498,10,0.0836065908805142,1
549,499,10,0.0887852608494479,1
549,500,10,0.090863976465262,1
549,501,10,0.0788511105235275,1
549,540,10,0.117157587061625,1
549,541,10,0.17850066194206,3
549,542,10,0.135884643825912,3
550,493,10,0.0811976469670461,1
550,494,10,0.0971888019375821,1
550,495,10,0.116146728605097,1
550,496,10,0.113692370214505,1
550,497,10,0.0900752608091966,1
550,498,10,0.0777748856479998,1
550,499,10,0.0860646689216334,1
550,500,10,0.0991432596626099,1
550,501,10,0.0896432063296496,1
550,502,10,0.0719209643385064,1
550,539,10,0.0862555211353777,1
550,540,10,0.273616438550463,3
550,541,10,0.439042103616789,3
550,542,10,0.316323129886698,3
550,543,10,0.121674105328811,3
551,493,10,0.0728840423566249,1
551,494,10,0.0933017371882058,1
551,495,10,0.110675068772205,1
551,496,10,0.105958144599503,1
551,497,10,0.083852698772374,1
551,498,10,0.0709351191840718,1
551,499,10,0.0784660877604642,1
551,500,10,0.0959393707266546,1
551,501,10,0.0910011063833947,1
551,502,10,0.0722726899400907,1
551,539,10,0.102796801038253,3
551,540,10,0.34764687600149,3
551,541,10,0.56219183803494,3
551,542,10,0.404114525272444,3
551,543,10,0.147808909009849,3
552,494,10,0.0777122805154619,1
552,495,10,0.089947409053167,1
552,496,10,0.086741795061895,1
552,497,10,0.0740981997801896,1
552,500,10,0.0780214008445871,1
552,501,10,0.0777329452406107,1
552,539,10,0.0789354585407872,1
552,540,10,0.225172860126381,3
552,541,10,0.364895392645591,3
552,542,10,0.263525919147807,3
553,540,10,0.0925088586382337,1
553,541,10,0.136319309847536,3
558,512,10,0.068803669585588,1
559,515,10,0.0717588330978313,1
559,516,10,0.077463674887258,1
559,517,10,0.0704776500874795,1
560,514,10,0.0728149802461999,1
560,515,10,0.0883504510732144,1
560,516,10,0.100201119886744,1
560,517,10,0.0895632428279867,1
560,518,10,0.0702564896101835,1
561,514,10,0.0771297449084034,1
561,515,10,0.0961261858317757,1
561,516,10,0.11122660729154,1
561,517,10,0.102498270632045,1
561,518,10,0.079933996029306,1
562,515,10,0.104129753677435,1
562,516,10,0.122553931458569,1
562,517,10,0.117125278213088,1
562,518,10,0.0905553233386184,1
563,514,10,0.0898196890721962,1
563,515,10,0.113246551231076,1
563,516,10,0.137417894554652,1
563,517,10,0.13586068472429,1
563,518,10,0.101981209259944,1
564,514,10,0.101920832323857,1
564,515,10,0.112425616573105,1
564,516,10,0.137363699066783,1
564,517,10,0.139798087546174,1
564,518,10,0.105028172070051,1
564,519,10,0.0729763567751739,1
565,515,10,0.101273349582077,1
565,516,10,0.108802976448778,1
565,517,10,0.110775169898781,1
565,518,10,0.0892837179791399,1
565,519,10,0.0699961260528588,1
566,516,10,0.0815980215244736,1
566,517,10,0.0814192626672729,1
566,518,10,0.073762305155002,1
523,496,11,0.0678403879151058,1
528,496,11,0.0679145772732779,1
529,490,11,0.0700033437322223,1
529,491,11,0.0761560050900632,1
529,492,11,0.0751506452473576,1
529,493,11,0.0681360312495687,1
530,489,11,0.0691840802215891,1
530,490,11,0.0744335253767137,1
530,491,11,0.0802065008613776,1
530,492,11,0.0792894243183731,1
530,493,11,0.0726600307462359,1
530,494,11,0.0677977347244435,1
530,495,11,0.0686965484422367,1
530,496,11,0.0710858339128241,1
530,497,11,0.0686968659003332,1
531,490,11,0.0688248075029939,1
531,491,11,0.0757277840667757,1
531,492,11,0.0793249676456292,1
531,493,11,0.0775318325415968,1
531,494,11,0.0727051637039161,1
531,495,11,0.0728176456962553,1
531,496,11,0.0765089585956056,1
531,497,11,0.0756284616110023,1
531,498,11,0.0709001029570515,1
531,499,11,0.0682251231689496,1
532,491,11,0.0740153252476796,1
532,492,11,0.0824719297561309,1
532,493,11,0.0833786260183577,1
532,494,11,0.0762175560221298,1
532,495,11,0.0745713800576705,1
532,496,11,0.0814857791231506,1
532,497,11,0.0839979628055073,1
532,498,11,0.0769095128462953,1
532,499,11,0.0703672525369814,1
533,491,11,0.0793066449226639,1
533,492,11,0.0904803433300928,1
533,493,11,0.0912647703069678,1
533,494,11,0.0800916768668549,1
533,495,11,0.0740385595864774,1
533,496,11,0.080661813638824,1
533,497,11,0.0873082720810914,1
533,498,11,0.0806219816323777,1
533,499,11,0.0688104140726946,1
534,490,11,0.0701598625533425,1
534,491,11,0.0792701552108938,1
534,492,11,0.0881248581621184,1
534,493,11,0.0885756486591337,1
534,494,11,0.0793346351431336,1
534,495,11,0.0727341362475523,1
534,496,11,0.0770478227501829,1
534,497,11,0.0844822541163653,1
534,498,11,0.0807451374044894,1
535,491,11,0.072203292402243,1
535,492,11,0.0756539361258018,1
535,493,11,0.0765781824299666,1
535,494,11,0.0749396494189247,1
535,495,11,0.0748364276193623,1
535,496,11,0.0775241296904254,1
535,497,11,0.0803950290422646,1
535,498,11,0.0757752889755165,1
536,495,11,0.0774552053448347,1
536,496,11,0.0790113969133777,1
536,497,11,0.0760471229527427,1
536,498,11,0.0703024311875434,1
537,494,11,0.0723638303626603,1
537,495,11,0.0779927577385982,1
537,496,11,0.0781069288476017,1
537,497,11,0.0721260242995125,1
538,495,11,0.0735344540985781,1
538,496,11,0.0708762396918361,1
546,497,11,0.0759478364356217,1
546,498,11,0.0757698921878762,1
546,499,11,0.0724537967892504,1
546,500,11,0.0690031231168146,1
547,495,11,0.0753049179027007,1
547,496,11,0.0884031491172317,1
547,497,11,0.089612898066098,1
547,498,11,0.0853364679664895,1
547,499,11,0.0825646035612042,1
547,500,11,0.0814230002871259,1
547,501,11,0.0710422103785461,1
548,494,11,0.0819211758973738,1
548,495,11,0.0976169391040139,1
548,496,11,0.10356122815505,1
548,497,11,0.0921917719078192,1
548,498,11,0.0856958485010419,1
548,499,11,0.0885287427279335,1
548,500,11,0.0903239562840315,1
548,501,11,0.0792281788648523,1
549,493,11,0.0771509487133387,1
549,494,11,0.102277463551498,1
549,495,11,0.119459337954437,1
549,496,11,0.114758813786795,1
549,497,11,0.090936524624973,1
549,498,11,0.0801196850566508,1
549,499,11,0.0835590380535702,1
549,500,11,0.0862773239178536,1
549,501,11,0.0777458052884062,1
549,540,11,0.116133083896724,1
549,541,11,0.182790407312394,3
549,542,11,0.133907239271306,3
550,493,11,0.0789566084377439,1
550,494,11,0.105511582883924,1
550,495,11,0.122609288962866,1
550,496,11,0.115461654032873,1
550,497,11,0.090819304720288,1
550,498,11,0.0773106540949746,1
550,499,11,0.0782730912071247,1
550,500,11,0.0834053164575644,1
550,501,11,0.0789918043580264,1
550,502,11,0.0693047142982552,1
550,539,11,0.0906424566014417,1
550,540,11,0.300691517174651,3
550,541,11,0.495244980855719,3
550,542,11,0.344984037488135,3
550,543,11,0.125153446066337,3
551,493,11,0.0702540877102459,1
551,494,11,0.0930109635411476,1
551,495,11,0.105985481934454,1
551,496,11,0.0990275851199795,1
551,497,11,0.0826120785210679,1
551,498,11,0.0731833394540852,1
551,499,11,0.073792337888885,1
551,500,11,0.0821460380558703,1
551,501,11,0.081724303959347,1
551,502,11,0.0706917845582248,1
551,539,11,0.113157351495738,3
551,540,11,0.398119430946419,3
551,541,11,0.653492115730511,3
551,542,11,0.458011722325896,3
551,543,11,0.159024775436132,3
552,494,11,0.0766290176538328,1
552,495,11,0.0860447409388594,1
552,496,11,0.0806349015779273,1
552,497,11,0.0727695477997495,1
552,498,11,0.0685608381008751,1
552,499,11,0.0685896788694524,1
552,500,11,0.075833707255046,1
552,501,11,0.0767984743898288,1
552,502,11,0.067929114458187,1
552,539,11,0.0830570229972874,1
552,540,11,0.244645476214937,3
552,541,11,0.403020744365203,3
552,542,11,0.285863013548968,3
553,541,11,0.135193004459843,3
558,512,11,0.0691168090540103,1
559,514,11,0.0711735242247601,1
559,515,11,0.0848961356173321,1
559,516,11,0.0964644464182485,1
559,517,11,0.0840365309693431,1
560,514,11,0.0786918124466191,1
560,515,11,0.103315072344987,1
560,516,11,0.124462070250386,1
560,517,11,0.106913933060953,1
560,518,11,0.0763812146555333,1
561,514,11,0.0793010744315368,1
561,515,11,0.100090344980396,1
561,516,11,0.120515443174378,1
561,517,11,0.109189520614794,1
561,518,11,0.0821597965699767,1
562,515,11,0.0950252231838234,1
562,516,11,0.113586734535454,1
562,517,11,0.112388132558617,1
562,518,11,0.0893988234931067,1
563,515,11,0.103846712830425,1
563,516,11,0.12992754863506,1
563,517,11,0.135783440580661,1
563,518,11,0.104236707107075,1
564,514,11,0.098077816382812,1
564,515,11,0.112255578828894,1
564,516,11,0.140892251799041,1
564,517,11,0.149203807906274,1
564,518,11,0.113256685931062,1
564,519,11,0.0777597255264486,1
565,515,11,0.10491159906111,1
565,516,11,0.115146795498909,1
565,517,11,0.119261807141116,1
565,518,11,0.0971488082071998,1
565,519,11,0.0754025871804622,1
566,516,11,0.0894594280406592,1
566,517,11,0.0888840801640873,1
566,518,11,0.0810229252184687,1
522,496,12,0.0712878810168013,1
523,496,12,0.0708870392568922,1
529,490,12,0.069418993223216,1
529,491,12,0.0730510792233571,1
529,492,12,0.0706604819919559,1
530,489,12,0.069649401913738,1
530,490,12,0.0717403246918284,1
530,491,12,0.075178881048619,1
530,492,12,0.0735352687080332,1
530,493,12,0.068081554242256,1
530,496,12,0.06935981424221,1
531,491,12,0.0686487799833781,1
531,492,12,0.0717794079763491,1
531,493,12,0.0717413249843212,1
531,494,12,0.0703113499631221,1
531,495,12,0.0704729001955829,1
531,496,12,0.0727232947540684,1
531,497,12,0.071083467951539,1
532,492,12,0.076366437879608,1
532,493,12,0.082177011184492,1
532,494,12,0.0768363357601667,1
532,495,12,0.07315290540525,1
532,496,12,0.0775370316666488,1
532,497,12,0.0809646686628751,1
532,498,12,0.0746242997233778,1
532,499,12,0.069795576392733,1
532,500,12,0.0688880415619494,1
533,491,12,0.0721053835334653,1
533,492,12,0.0883337635589348,1
533,493,12,0.0979126303566801,1
533,494,12,0.0852743240466578,1
533,495,12,0.0743029303035484,1
533,496,12,0.0789635505874388,1
533,497,12,0.0873250254829005,1
533,498,12,0.0801383551865897,1
533,499,12,0.0697681911395792,1
534,491,12,0.0747693720836981,1
534,492,12,0.0881746032468608,1
534,493,12,0.0965205047262682,1
534,494,12,0.0842675985351597,1
534,495,12,0.0739163322295535,1
534,496,12,0.0781118943714128,1
534,497,12,0.0873865404763146,1
534,498,12,0.0826813382940813,1
534,499,12,0.0686719484346465,1
535,492,12,0.0747709773435068,1
535,493,12,0.0782330375789884,1
535,494,12,0.0754601069936809,1
535,496,12,0.0799427291218472,1
535,497,12,0.0856770406062688,1
535,498,12,0.0826450342653488,1
535,499,12,0.0683227804671603,1
536,495,12,0.0784643387460458,1
536,496,12,0.0825740374574678,1
536,497,12,0.0839811734650458,1
536,498,12,0.0812856966655064,1
537,495,12,0.0797683188415909,1
537,496,12,0.0831438687508913,1
537,497,12,0.082181221996602,1
537,498,12,0.078582714677384,1
538,496,12,0.0750745391610558,1
538,497,12,0.0720264023549688,1
538,498,12,0.0678708339434918,1
546,499,12,0.0725259076953568,1
546,500,12,0.069039780542296,1
547,495,12,0.0687079889132612,1
547,496,12,0.0771063009274664,1
547,497,12,0.0777800308650731,1
547,498,12,0.0801841290502382,1
547,499,12,0.0804031092492866,1
547,500,12,0.0792617395764491,1
547,501,12,0.0715314672132153,1
548,494,12,0.0866475519356654,1
548,495,12,0.0993775617071454,1
548,496,12,0.101581691240399,1
548,497,12,0.0876328340512119,1
548,498,12,0.0833855382191756,1
548,499,12,0.085607966516293,1
548,500,12,0.0874667495587692,1
548,501,12,0.0796318178498757,1
548,509,12,0.0723985171520333,1
549,493,12,0.0806221253869874,1
549,494,12,0.11577125354403,1
549,495,12,0.12835973690223,1
549,496,12,0.118829800579772,1
549,497,12,0.092810371952594,1
549,498,12,0.0824985483180327,1
549,499,12,0.0831410236075737,1
549,500,12,0.0846857627255414,1
549,501,12,0.0784791514606235,1
549,502,12,0.0679798119172188,1
549,541,12,0.15907068107484,3
549,542,12,0.119161370587117,3
550,493,12,0.0811328495767098,1
550,494,12,0.114762263897429,1
550,495,12,0.125116944375016,1
550,496,12,0.115706348337737,1
550,497,12,0.0953913362259316,1
550,498,12,0.0843162834296553,1
550,499,12,0.0794577789356945,1
550,500,12,0.0785186719987488,1
550,502,12,0.0680958518361489,1
550,539,12,0.0877549535921785,1
550,540,12,0.268153092525834,3
550,541,12,0.450513386045913,3
550,542,12,0.31553916412253,3
550,543,12,0.122158151058877,3
551,493,12,0.0689432433320862,1
551,494,12,0.0904046625178447,1
551,495,12,0.098286272546473,1
551,496,12,0.0960987227115416,1
551,497,12,0.0888913936798573,1
551,498,12,0.0821414139492573,1
551,499,12,0.0757357025498618,1
551,500,12,0.0764419389985939,1
551,501,12,0.076374709759443,1
551,539,12,0.115712290194939,3
551,540,12,0.378702639564642,3
551,541,12,0.627748971483686,3
551,542,12,0.442983950852024,3
551,543,12,0.164113484968251,3
552,494,12,0.0702058101204779,1
552,495,12,0.0779624135363941,1
552,496,12,0.0787818327811878,1
552,497,12,0.0778569276017284,1
552,498,12,0.074842848658597,1
552,499,12,0.0712278994058909,1
552,500,12,0.0745077087451104,1
552,501,12,0.07511685093452,1
552,502,12,0.0694322965143916,1
552,540,12,0.23562372441743,3
552,541,12,0.390678356919312,3
552,542,12,0.279393457133525,3
553,541,12,0.137012997716793,3
554,532,12,0.0679125766882925,1
558,512,12,0.0694734402816517,1
558,515,12,0.0694323444325948,1
558,516,12,0.0747334514005916,1
558,517,12,0.070526910000414,1
559,514,12,0.0744209408585869,1
559,515,12,0.0943642514678304,1
559,516,12,0.1125304376427,1
559,517,12,0.0981049620449496,1
559,518,12,0.0722434837952137,1
560,514,12,0.0821197728907174,1
560,515,12,0.114132678604561,1
560,516,12,0.142220987636337,1
560,517,12,0.121893414965507,1
560,518,12,0.0821840851092458,1
561,514,12,0.079880902660112,1
561,515,12,0.102342404696444,1
561,516,12,0.125185467405655,1
561,517,12,0.113354043740503,1
561,518,12,0.0836052312014972,1
562,515,12,0.0897511121335791,1
562,516,12,0.106407102225245,1
562,517,12,0.107160723787209,1
562,518,12,0.0871908964422459,1
563,515,12,0.0965765690240634,1
563,516,12,0.120941903203696,1
563,517,12,0.129752898763787,1
563,518,12,0.102724157042136,1
564,515,12,0.108019286214278,1
564,516,12,0.135881181735728,1
564,517,12,0.146851754879606,1
564,518,12,0.11559619636803,1
564,519,12,0.0804970828356229,1
565,515,12,0.103482582403976,1
565,516,12,0.115539065890213,1
565,517,12,0.121033343115036,1
565,518,12,0.102707241916391,1
565,519,12,0.0797892411270821,1
566,516,12,0.0946989661072632,1
566,517,12,0.0942666001593951,1
566,518,12,0.0881926504401574,1
522,496,13,0.070016515248339,1
523,495,13,0.0684795149201951,1
523,496,13,0.0693094522106009,1
529,490,13,0.0678793334347921,1
529,491,13,0.0685931649187384,1
530,490,13,0.0692236426881422,1
530,491,13,0.0705497430242596,1
531,494,13,0.0698639017607831,1
531,495,13,0.0720910679702462,1
531,496,13,0.0716437755020678,1
532,492,13,0.0691152037942017,1
532,493,13,0.0776535268085097,1
532,494,13,0.0775223986453332,1
532,495,13,0.075348870874626,1
532,496,13,0.0759075132675921,1
532,497,13,0.0755988421716223,1
532,498,13,0.0713739181507254,1
532,499,13,0.0694597536448502,1
532,500,13,0.0696276829881178,1
532,535,13,0.0727270982614509,1
533,492,13,0.0814514936487297,1
533,493,13,0.0954959177045111,1
533,494,13,0.0869405358098483,1
533,495,13,0.0763889474555817,1
533,496,13,0.0780776807742968,1
533,497,13,0.0822787594993046,1
533,498,13,0.0772420172586034,1
533,499,13,0.0710464152008808,1
533,535,13,0.0682957845494079,1
533,536,13,0.0683259610379006,1
534,491,13,0.0704635920846028,1
534,492,13,0.0841003280671867,1
534,493,13,0.0961286116908149,1
534,494,13,0.0858777699596567,1
534,495,13,0.0763757879190159,1
534,496,13,0.0802925799237296,1
534,497,13,0.0857177231608227,1
534,498,13,0.0820415823625744,1
534,499,13,0.0724652492398256,1
535,492,13,0.0729413525277044,1
535,493,13,0.0776033504599381,1
535,494,13,0.0765336185009499,1
535,496,13,0.0864699071766901,1
535,497,13,0.0899700144655472,1
535,498,13,0.0878752282823203,1
535,499,13,0.0779232463950177,1
536,496,13,0.0916161604811294,1
536,497,13,0.0935050062063657,1
536,498,13,0.0908864321332571,1
536,499,13,0.0799880058341371,1
537,496,13,0.0917269174181519,1
537,497,13,0.0929842850814916,1
537,498,13,0.087463467161847,1
537,499,13,0.073555783688797,1
538,496,13,0.0824912527715889,1
538,497,13,0.083259327661607,1
538,498,13,0.0778839654479087,1
539,496,13,0.0692543462768706,1
539,497,13,0.069799505685399,1
547,499,13,0.0765597638705948,1
547,500,13,0.0749306168376133,1
547,501,13,0.0711453243621512,1
547,508,13,0.0684375805025814,1
547,509,13,0.0818627755871705,1
547,510,13,0.0686324458658474,1
548,494,13,0.0838001025545386,1
548,495,13,0.0926207236837061,1
548,496,13,0.0912701191764049,1
548,497,13,0.0808472870342542,1
548,499,13,0.0820682668120058,1
548,500,13,0.0828146826741578,1
548,501,13,0.078420541508281,1
548,502,13,0.0688640165727981,1
548,508,13,0.0786666853387932,1
548,509,13,0.0937039565964582,1
548,510,13,0.0785610017415392,1
549,493,13,0.0807759727682768,1
549,494,13,0.112853202680199,1
549,495,13,0.119614545014743,1
549,496,13,0.107965066767308,1
549,497,13,0.0900305111971424,1
549,498,13,0.0833719294494543,1
549,499,13,0.081938522286948,1
549,500,13,0.0820131608782755,1
549,502,13,0.0679816867169207,1
549,509,13,0.0743445592426164,1
549,541,13,0.122052539338928,3
550,493,13,0.0829974846297571,1
550,494,13,0.113387766176035,1
550,495,13,0.117211123674199,1
550,496,13,0.108626841113205,1
550,497,13,0.0987739780293121,1
550,498,13,0.0913966831307224,1
550,499,13,0.0814526975935862,1
550,540,13,0.195271122631499,3
550,541,13,0.325766202486226,3
550,542,13,0.240118020617861,3
551,494,13,0.0856660074399719,1
551,495,13,0.0903363012111422,1
551,496,13,0.0947177440531593,1
551,497,13,0.0973285733466687,1
551,498,13,0.0919067364655993,1
551,499,13,0.0790117982283298,1
551,501,13,0.0715138812326249,1
551,540,13,0.289712761997568,3
551,541,13,0.478241973125938,3
551,542,13,0.354267231002541,3
551,543,13,0.151978271874085,3
552,495,13,0.0705494255661632,1
552,496,13,0.0786984191688914,1
552,497,13,0.0842515698961747,1
552,498,13,0.0811499204366153,1
552,500,13,0.0727897692815183,1
552,501,13,0.0723325996736962,1
552,502,13,0.0688503239462212,1
552,541,13,0.312263236157773,3
552,542,13,0.236737271583509,3
554,532,13,0.0704529123150549,1
558,515,13,0.0738088576894532,1
558,516,13,0.079596825581957,1
558,517,13,0.0755820468413854,1
559,514,13,0.0778226241579813,1
559,515,13,0.0990887287473185,1
559,516,13,0.118045715020095,1
559,517,13,0.104722022669527,1
559,518,13,0.0767265910951878,1
560,514,13,0.086960607547232,1
560,515,13,0.118523962647569,1
560,516,13,0.144200584448741,1
560,517,13,0.125345298572574,1
560,518,13,0.0866208614964587,1
561,514,13,0.0876928635803255,1
561,515,13,0.109354083704284,1
561,516,13,0.127225536990553,1
561,517,13,0.115029443819165,1
561,518,13,0.0870430987341161,1
562,515,13,0.0952561050666025,1
562,516,13,0.104900410160652,1
562,517,13,0.103348387475792,1
563,516,13,0.112429737538584,1
563,517,13,0.11778253626833,1
564,515,13,0.106065744924887,1
564,516,13,0.122714984539671,1
564,517,13,0.129931873252902,1
564,518,13,0.108769936847642,1
565,515,13,0.105052490558197,1
565,516,13,0.111887315457416,1
565,517,13,0.114704702155782,1
565,518,13,0.102339182197276,1
565,519,13,0.0825359844143169,1
566,516,13,0.0985617542969211,1
566,517,13,0.0965068300690175,1
566,518,13,0.0922966948035967,1
517,506,14,0.0733619845055531,1
518,506,14,0.0684184192110594,1
520,505,14,0.0697940190511276,1
523,494,14,0.0714927912334222,1
523,495,14,0.0705868616624473,1
531,495,14,0.070565969325833,1
532,494,14,0.0722295755367222,1
532,495,14,0.072510843410212,1
532,496,14,0.0703739970240879,1
532,497,14,0.0679924563330997,1
533,493,14,0.0800736236837828,1
533,494,14,0.0785549041501764,1
533,495,14,0.0719337824578741,1
533,496,14,0.072202184293793,1
533,497,14,0.0733763539767509,1
533,498,14,0.0708696748979917,1
533,499,14,0.0685749619912812,1
533,534,14,0.0708176417190445,1
533,535,14,0.0802126403811682,1
534,492,14,0.0707847578520685,1
534,493,14,0.0814849225852676,1
534,494,14,0.0776129400903622,1
534,496,14,0.0763357582499812,1
534,497,14,0.0791789489007948,1
534,498,14,0.0784628173430928,1
534,499,14,0.0742530714130733,1
534,533,14,0.0713046463981612,1
534,534,14,0.0693651810809733,1
535,496,14,0.0868597217600778,1
535,497,14,0.0911468495985605,1
535,498,14,0.0925051090388298,1
535,499,14,0.0866520143183425,1
535,500,14,0.0680764030354073,1
536,496,14,0.101024210863862,1
536,497,14,0.106872735385715,1
536,498,14,0.105393716083496,1
536,499,14,0.0934243299214295,1
536,500,14,0.0691088666118227,1
537,496,14,0.106557002344542,1
537,497,14,0.109489823994523,1
537,498,14,0.0999136705650361,1
537,499,14,0.0823982555186436,1
538,496,14,0.100155369982197,1
538,497,14,0.100310319482161,1
538,498,14,0.0885903775168557,1
538,499,14,0.0721390221121424,1
539,496,14,0.0806886298633143,1
539,497,14,0.0817789906087989,1
539,498,14,0.0752343703279752,1
540,497,14,0.0692244872464744,1
547,501,14,0.0690050997426984,1
547,502,14,0.0689457350786549,1
547,508,14,0.0738758293682617,1
547,509,14,0.0910872693026023,1
547,510,14,0.0782674248795911,1
548,494,14,0.0770876307975276,1
548,495,14,0.0825212675361457,1
548,496,14,0.0787902663849587,1
548,500,14,0.0762385621644767,1
548,502,14,0.0688102343794324,1
548,508,14,0.0827246443702628,1
548,509,14,0.102982520014475,1
548,510,14,0.0881644925059764,1
549,493,14,0.0769120824599442,1
549,494,14,0.100539386462993,1
549,495,14,0.104575908088286,1
549,496,14,0.0939652904973986,1
549,497,14,0.0842606204468123,1
549,498,14,0.079768217015409,1
549,508,14,0.0684911231049309,1
549,509,14,0.0802659973004801,1
549,510,14,0.0711543150150348,1
550,493,14,0.0792159836821267,1
550,494,14,0.10258889593393,1
550,495,14,0.104768766876791,1
550,496,14,0.0996739357942078,1
550,497,14,0.09875215727751,1
550,498,14,0.092596524991068,1
550,499,14,0.0781503187806389,1
550,541,14,0.198795829927946,3
551,494,14,0.0772544759914468,1
551,495,14,0.0815758413861471,1
551,496,14,0.0905351617546036,1
551,497,14,0.100575900133864,1
551,498,14,0.0950733809780834,1
551,499,14,0.0774593263103137,1
551,541,14,0.300658094227888,3
551,542,14,0.245311227771704,3
552,496,14,0.072520223398497,1
552,497,14,0.0834850463579866,1
552,498,14,0.0815239160231571,1
552,501,14,0.0701324413615363,1
558,515,14,0.0740034355434998,1
558,516,14,0.0788351537618473,1
558,517,14,0.0754836288416982,1
559,514,14,0.0786792219387168,1
559,515,14,0.0961404594665669,1
559,516,14,0.112448497515154,1
559,517,14,0.102481619056418,1
559,518,14,0.0785427508958787,1
560,514,14,0.0886844649089247,1
560,515,14,0.113286299380667,1
560,516,14,0.132722437737003,1
560,517,14,0.118067817291341,1
560,518,14,0.0875975003660951,1
561,515,14,0.114615622215952,1
561,516,14,0.125112464023013,1
561,517,14,0.111289943176678,1
561,518,14,0.0882266004871556,1
562,516,14,0.107539313531487,1
562,517,14,0.100078706846783,1
563,517,14,0.105635343623352,1
564,516,14,0.107734735943866,1
564,517,14,0.111435386903073,1
564,518,14,0.100657313161175,1
565,515,14,0.103923573628428,1
565,516,14,0.106114214187468,1
565,517,14,0.106998412853272,1
565,518,14,0.0992857324604042,1
566,516,14,0.0989283585006126,1
566,517,14,0.0959587536398667,1
517,505,15,0.0699460635100199,1
517,506,15,0.0781145418521421,1
518,506,15,0.071273739157069,1
520,505,15,0.0745535305269622,1
520,506,15,0.0704980512625105,1
523,494,15,0.0733382709847229,1
523,495,15,0.0691998333309055,1
527,525,15,0.0741053096435959,1
532,495,15,0.067899968211064,1
533,534,15,0.0729477256487358,1
534,497,15,0.0736547826966985,1
534,498,15,0.0746175432567204,1
534,499,15,0.0738196991829371,1
534,532,15,0.0730702944228578,1
534,533,15,0.0753404193015289,1
534,534,15,0.075468085374521,1
534,535,15,0.0703010475494247,1
535,497,15,0.0874957820001595,1
535,498,15,0.0923521721034021,1
535,499,15,0.0901742717966489,1
535,500,15,0.0726783894078537,1
535,532,15,0.0706604460533034,1
536,496,15,0.108637299261063,1
536,497,15,0.119944354028119,1
536,498,15,0.118277675062447,1
536,499,15,0.10345147151052,1
536,500,15,0.0774277781632531,1
537,496,15,0.132622252753572,1
537,497,15,0.136158089052722,1
537,498,15,0.118269109683617,1
537,499,15,0.0938902446013436,1
537,500,15,0.0690946289156839,1
538,496,15,0.13940714688501,1
538,497,15,0.133007706780464,1
538,498,15,0.105971010637074,1
538,499,15,0.0823717208135974,1
539,497,15,0.10341173534048,1
539,498,15,0.0879918851481171,1
539,499,15,0.0747861554343843,1
540,497,15,0.0839990888832835,1
540,498,15,0.0811311424907192,1
540,499,15,0.0713593450271639,1
541,498,15,0.0689825721973985,1
547,502,15,0.0689141509929418,1
547,503,15,0.0694878876199297,1
547,508,15,0.0709010313722393,1
547,509,15,0.086362552432098,1
547,510,15,0.0797081335783167,1
548,508,15,0.0777151436281057,1
548,509,15,0.0959161363878568,1
548,510,15,0.0874102959255727,1
548,511,15,0.0696657060823917,1
549,494,15,0.0831023895562084,1
549,495,15,0.0844831765417778,1
549,496,15,0.0788719729112647,1
549,497,15,0.0763468333447059,1
549,498,15,0.0745355432314196,1
549,508,15,0.0690161628578723,1
549,509,15,0.0799818603245711,1
549,510,15,0.073871474801542,1
550,494,15,0.0837607197812476,1
550,495,15,0.0861335154001438,1
550,496,15,0.0872863854417598,1
550,497,15,0.0928139718076126,1
550,498,15,0.0885772000109637,1
550,499,15,0.0745172085289035,1
550,505,15,0.0677920564173591,1
551,496,15,0.0835763065760642,1
551,497,15,0.0964430868791526,1
551,498,15,0.0917885222581971,1
551,499,15,0.0745405986018618,1
551,506,15,0.0689572354474333,1
552,497,15,0.0779642763565452,1
552,498,15,0.0774744744523141,1
552,507,15,0.0703116374723416,1
558,516,15,0.072890277712822,1
558,517,15,0.0698912989934877,1
559,515,15,0.0877636387665165,1
559,516,15,0.0964540122294922,1
559,517,15,0.0899504638386238,1
559,518,15,0.0746037787528387,1
560,515,15,0.102551304103485,1
560,516,15,0.111757804533599,1
560,517,15,0.1015573368136,1
560,518,15,0.0825750617090621,1
561,516,15,0.114577503285272,1
561,517,15,0.0993223539472332,1
564,517,15,0.0965047456271764,1
565,516,15,0.0988265203391689,1
565,517,15,0.0984038638172331,1
517,506,16,0.0708161083365407,1
520,505,16,0.0717697883970479,1
520,506,16,0.0685891817180938,1
522,494,16,0.0681533237311643,1
523,494,16,0.0707796785225246,1
523,495,16,0.0678499296273267,1
525,521,16,0.0689834167557306,1
533,534,16,0.0722119596072547,1
534,498,16,0.0681271603921932,1
534,499,16,0.067778507545392,1
534,531,16,0.0715217158588552,1
534,532,16,0.077952087163595,1
534,533,16,0.0770431746844682,1
534,534,16,0.0775976122550996,1
534,535,16,0.0718746873337238,1
535,498,16,0.0863414444635691,1
535,499,16,0.0836033444222445,1
535,500,16,0.0700639243206732,1
535,531,16,0.0804716981674546,1
535,532,16,0.080863237806159,1
535,533,16,0.0722583803666471,1
535,534,16,0.0713327624039144,1
536,496,16,0.119549280421926,1
536,497,16,0.130326827063588,1
536,498,16,0.122432650486159,1
536,499,16,0.101819197814777,1
536,500,16,0.0787282961686138,1
536,531,16,0.068523845247971,1
537,495,16,0.121312933851412,1
537,496,16,0.172272936718837,1
537,497,16,0.171986757229515,1
537,498,16,0.140138163034595,1
537,499,16,0.102944437022447,1
537,500,16,0.0779261514360894,1
538,496,16,0.185967240432843,1
538,497,16,0.173382650428657,1
538,498,16,0.128481820504544,1
538,499,16,0.0905506752729038,1
538,500,16,0.0728788791702254,1
539,497,16,0.134316077381381,1
539,498,16,0.108599719410169,1
539,499,16,0.0814156089042755,1
539,500,16,0.069007220123192,1
540,498,16,0.0952989499300778,1
540,499,16,0.0772116550870731,1
543,538,16,0.0714341153935503,1
544,537,16,0.0696034064283995,1
544,538,16,0.0732231355218791,1
547,503,16,0.0685242705220247,1
547,509,16,0.0751166233230546,1
547,510,16,0.0761501051612888,1
547,511,16,0.068730809957556,1
548,508,16,0.0694084272594008,1
548,509,16,0.0811428045834336,1
548,510,16,0.0803926690707549,1
548,511,16,0.069832036155626,1
549,497,16,0.0726350893214476,1
549,498,16,0.0731953848924256,1
549,499,16,0.0688162121752871,1
549,509,16,0.0737094154381717,1
549,510,16,0.0717801986267026,1
550,496,16,0.0765321030877723,1
550,497,16,0.0845469197316427,1
550,498,16,0.0822143694136959,1
550,499,16,0.0709566344573283,1
551,497,16,0.0851912219026823,1
551,498,16,0.081401035780714,1
551,507,16,0.0729409092843244,1
559,516,16,0.0820554007744348,1
559,517,16,0.0782219145660604,1
560,516,16,0.0930304422907661,1
560,517,16,0.0862586897265672,1
520,495,17,0.0683627382588902,1
521,494,17,0.0732852075644059,1
521,495,17,0.0830556213898426,1
521,496,17,0.0689989123047046,1
522,494,17,0.0760034814491385,1
522,495,17,0.0848110568474729,1
522,496,17,0.0705702639947988,1
523,495,17,0.070695641973586,1
525,520,17,0.0687467607294607,1
525,521,17,0.0706381580990197,1
534,531,17,0.0739718634373376,1
534,532,17,0.0771467259216779,1
534,533,17,0.0752316270108395,1
534,534,17,0.0750545572703031,1
535,499,17,0.0709993175968676,1
535,531,17,0.0816394288418515,1
535,532,17,0.0809960970144276,1
535,533,17,0.0743188750856777,1
535,534,17,0.0742886866176342,1
535,535,17,0.0681565941485357,1
536,497,17,0.140078684564818,1
536,498,17,0.11756892889782,1
536,499,17,0.0942948659095335,1
536,500,17,0.075706957617691,1
537,496,17,0.223963236962799,1
537,497,17,0.221772296914988,1
537,498,17,0.164009550385416,1
537,499,17,0.114634561885784,1
537,500,17,0.0887084779185252,1
538,496,17,0.230500166372002,1
538,497,17,0.228573782724299,1
538,498,17,0.160056634045232,1
538,499,17,0.106974190201532,1
538,500,17,0.0860618776862945,1
539,497,17,0.176646323312934,1
539,499,17,0.0932390122601598,1
539,500,17,0.0764253173718437,1
542,538,17,0.0712141648508862,1
543,537,17,0.0688505036394834,1
543,538,17,0.0738861856899378,1
544,537,17,0.0711618441627195,1
544,538,17,0.0758899153074509,1
548,498,17,0.0689633869467748,1
548,510,17,0.0686756081874192,1
549,497,17,0.0728948479114564,1
549,498,17,0.075499699409111,1
549,499,17,0.0696422740810055,1
550,496,17,0.0686501636214968,1
550,497,17,0.0762549082615583,1
550,498,17,0.0766988165066326,1
550,499,17,0.0694945901786084,1
551,497,17,0.0726546818767989,1
551,498,17,0.0706789844081834,1
520,495,18,0.0769550291496014,1
521,494,18,0.0865497149441925,1
521,495,18,0.112475223893013,1
521,496,18,0.0883998786998603,1
522,494,18,0.0892182137953057,1
522,495,18,0.11535539541718,1
522,496,18,0.0908834312557789,1
523,494,18,0.0686265099984206,1
523,495,18,0.0798717682526186,1
523,496,18,0.0679049816530783,1
534,531,18,0.0678274320309038,1
534,532,18,0.0725806841914397,1
534,533,18,0.0716360247326931,1
535,531,18,0.0695704626636694,1
535,532,18,0.0725430983507705,1
535,533,18,0.0702905414833636,1
535,534,18,0.0727561187232904,1
536,497,18,0.147014065813544,1
537,496,18,0.250990684892962,1
537,497,18,0.270357785097975,1
537,498,18,0.189883547265749,1
537,500,18,0.0992375087786148,1
538,496,18,0.256384381809177,1
538,497,18,0.293738082742853,1
538,498,18,0.206605754324522,1
539,497,18,0.216379893790261,1
543,538,18,0.0681716704132312,1
544,538,18,0.0693585384200487,1
548,497,18,0.0688058917922635,1
548,498,18,0.0702185084443375,1
549,497,18,0.0727125610765419,1
549,498,18,0.0771142613389803,1
549,499,18,0.0692628697272726,1
550,497,18,0.069182600747064,1
550,498,18,0.0728423654993537,1
550,499,18,0.0677852520324985,1
520,495,19,0.079223003698902,1
520,496,19,0.0678709657185507,1
521,494,19,0.0925737878036289,1
521,495,19,0.12798568740771,1
521,496,19,0.098357964168301,1
522,494,19,0.0984562563827047,1
522,495,19,0.135666891530822,1
522,496,19,0.103600365347549,1
523,494,19,0.0719319376070493,1
523,495,19,0.0876969306378258,1
523,496,19,0.071782834127881,1
537,497,19,0.2775730925105,1
538,497,19,0.316691069810305,1
548,497,19,0.0691439786752495,1
548,498,19,0.0701060983293031,1
549,497,19,0.0723399012099155,1
549,498,19,0.0772383634956061,1
549,499,19,0.0691987731406587,1
550,498,19,0.0723849383311892,1
550,499,19,0.0678180999608221,1
520,495,20,0.074322247329231,1
521,494,20,0.0880982875184198,1
521,495,20,0.121789360587163,1
521,496,20,0.0945192069575698,1
522,494,20,0.0966138134475346,1
522,495,20,0.133431902674679,1
522,496,20,0.10236819666934,1
523,494,20,0.070506478876506,1
523,495,20,0.0863505728812871,1
523,496,20,0.0705399078130439,1
548,498,20,0.0685701701709568,1
549,497,20,0.0703995014877644,1
549,498,20,0.0750856561842083,1
549,499,20,0.0683949931994486,1
550,498,20,0.0715925150041478,1
520,495,21,0.0682320353697675,1
521,494,21,0.0778957413463558,1
521,495,21,0.100161599348619,1
521,496,21,0.0820066200435327,1
522,494,21,0.0858319062493771,1
522,495,21,0.110135006662547,1
522,496,21,0.0884025441499157,1
523,495,21,0.0762228809324652,1
549,498,21,0.0701028638505841,1
550,498,21,0.0683902552871029,1
521,495,22,0.075821859479294,1
522,495,22,0.0811902316250941,1
522,496,22,0.0698804634897792,1
