x,y,z,signal,cytoplasm.p
234,675,1,0.0682271357334858,1
235,675,1,0.0706233214253404,1
235,676,1,0.0706685082909992,1
236,677,1,0.0678238261861097,1
236,680,1,0.0679136308887638,1
236,681,1,0.0726056675446559,1
236,682,1,0.0738034549120375,1
236,683,1,0.0685033003183302,1
237,680,1,0.0749788345296273,1
237,681,1,0.0824785364784031,1
237,682,1,0.0839816107186504,1
237,683,1,0.0770680023035239,1
238,680,1,0.0826355764099835,1
238,681,1,0.0911688859822772,1
238,682,1,0.0920615661700552,1
238,683,1,0.0849619812183644,1
238,684,1,0.075764453471808,1
238,685,1,0.0694032760525521,1
239,682,1,0.0922960179589759,1
239,683,1,0.0870721910732604,1
239,684,1,0.0803742804602601,1
239,685,1,0.0760945739535048,1
239,686,1,0.0720184599127812,1
239,687,1,0.0701603237660488,1
239,688,1,0.068443186932361,1
240,685,1,0.077715251444063,1
240,686,1,0.0745552495925036,1
240,687,1,0.0738329904945619,1
240,688,1,0.070909225384994,1
241,686,1,0.0737008680286681,1
241,687,1,0.0725357668656742,1
241,688,1,0.0685414372183368,1
242,687,1,0.071015040757307,1
192,680,2,0.0730647898192602,1
192,681,2,0.0716152462018115,1
231,672,2,0.0698055793176601,1
232,672,2,0.0755057131436181,1
232,673,2,0.0693917038064687,1
235,676,2,0.0678846703246784,1
237,680,2,0.0700640261468551,1
237,681,2,0.0776963417231079,1
237,682,2,0.0771289482682745,1
237,683,2,0.0683962091238559,1
238,680,2,0.0745334527998031,1
238,681,2,0.0839482237105403,1
238,682,2,0.0841404475828525,1
238,683,2,0.0763063005345371,1
238,684,2,0.0684213122725802,1
239,682,2,0.082956370811374,1
239,683,2,0.0785053447484716,1
239,684,2,0.0733311132031134,1
239,685,2,0.0702659414757733,1
240,684,2,0.0748039570468893,1
240,685,2,0.0728119494198447,1
240,686,2,0.0715370137452408,1
240,687,2,0.07173192702671,1
240,688,2,0.0698874236088004,1
241,685,2,0.0707123414674164,1
241,686,2,0.06905616257803,1
241,687,2,0.069895114480421,1
241,688,2,0.0679166377560174,1
242,686,2,0.0704027359664833,1
242,687,2,0.0680962471613256,1
191,681,3,0.0758981212997563,1
192,680,3,0.0868812130742326,1
192,681,3,0.0963916946061737,1
192,682,3,0.0697866336580526,1
193,680,3,0.0688456639009558,1
193,681,3,0.0744693442336384,1
227,670,3,0.0691440026343511,1
227,671,3,0.0683789166422603,1
228,670,3,0.0732073824125627,1
228,671,3,0.0749666573162279,1
231,671,3,0.0690357194745712,1
231,672,3,0.0806178187384709,1
231,673,3,0.068530302225858,1
232,671,3,0.0754872286967169,1
232,672,3,0.0901269286118442,1
232,673,3,0.0778492067812308,1
233,672,3,0.071146162930708,1
237,681,3,0.0754703375300735,1
237,682,3,0.0720806098223883,1
238,680,3,0.0677854197462099,1
238,681,3,0.0771471931241595,1
238,682,3,0.0753979570840738,1
239,681,3,0.0739312288009869,1
239,682,3,0.0735305188161367,1
239,683,3,0.069148608771638,1
240,686,3,0.0679029331498897,1
240,687,3,0.0697650285381651,1
240,688,3,0.0709681108670051,1
241,687,3,0.0700594799073224,1
241,688,3,0.0722465565499967,1
191,680,4,0.069274753441677,1
191,681,4,0.0834061310670196,1
192,679,4,0.070033711893528,1
192,680,4,0.0957671586939721,1
192,681,4,0.11484884011114,1
192,682,4,0.0773102587697979,1
193,678,4,0.0687738704529459,1
193,680,4,0.0728268220321765,1
193,681,4,0.0841806928838018,1
223,708,4,0.0689564388073044,1
227,670,4,0.0747537747085423,1
227,671,4,0.0758045729874738,1
228,670,4,0.0796002157948365,1
228,671,4,0.0834114919160074,1
231,671,4,0.0700804800598939,1
231,672,4,0.0855740703772734,1
231,673,4,0.0718880984408567,1
232,671,4,0.0791551036049056,1
232,672,4,0.0980039983907151,1
232,673,4,0.0832690909955179,1
233,672,4,0.0722216330945346,1
236,681,4,0.0740087963924877,1
237,680,4,0.0688218605334944,1
237,681,4,0.0809077657965232,1
237,682,4,0.0711908526450081,1
238,681,4,0.0733246202865739,1
238,682,4,0.067765359988377,1
240,688,4,0.0698633447116704,1
241,687,4,0.0705741453692615,1
241,688,4,0.075127590601822,1
242,687,4,0.0681247105740524,1
242,688,4,0.0693640909418495,1
191,681,5,0.0758515567857543,1
192,680,5,0.0887750782312586,1
192,681,5,0.107196135339407,1
192,682,5,0.0753998139144495,1
193,677,5,0.0734768624080546,1
193,678,5,0.0736245103717993,1
193,680,5,0.0723858487770508,1
193,681,5,0.0814562255713,1
227,670,5,0.0754356986589037,1
227,671,5,0.077044043201902,1
228,670,5,0.0773012920760159,1
228,671,5,0.080237779468545,1
231,672,5,0.0762416588783614,1
232,671,5,0.0709144963873508,1
232,672,5,0.086190466184699,1
232,673,5,0.07618446850279,1
236,680,5,0.068859080997864,1
236,681,5,0.0846095248641806,1
236,682,5,0.0680514077026403,1
237,680,5,0.0732972170640939,1
237,681,5,0.0916494456630576,1
237,682,5,0.0740906886018312,1
238,681,5,0.0731845134500646,1
241,687,5,0.0677595439164582,1
241,688,5,0.0725346527674487,1
242,687,5,0.0678553623536195,1
242,688,5,0.0686619215506177,1
192,680,6,0.0727198985514135,1
192,681,6,0.0800113240297906,1
193,677,6,0.0768122029550581,1
193,678,6,0.0742324546061277,1
194,677,6,0.0715387986983116,1
227,670,6,0.0690354918631057,1
227,671,6,0.070846943700328,1
228,671,6,0.0678606752844041,1
236,680,6,0.0679070241664916,1
236,681,6,0.0870443865358282,1
237,680,6,0.0732557258898602,1
237,681,6,0.0953515102092607,1
237,682,6,0.0722653644447699,1
238,681,6,0.0720097088509138,1
241,688,6,0.0689129949662886,1
242,688,6,0.0691708488077184,1
193,677,7,0.0720850003277605,1
193,678,7,0.0699355634337341,1
194,677,7,0.0749685860239085,1
194,678,7,0.0681943417131409,1
199,684,7,0.0712958294487643,1
226,673,7,0.0690971506111296,1
236,680,7,0.0710635818971928,1
236,681,7,0.0921255788998134,1
237,680,7,0.0722969006122796,1
237,681,7,0.0946974626736364,1
237,682,7,0.0716054708883498,1
242,688,7,0.0700027986626604,1
194,677,8,0.0734011396673787,1
194,678,8,0.0688035438003045,1
195,677,8,0.0681801579249808,1
199,684,8,0.078231701859073,1
199,685,8,0.0767561925652416,1
200,684,8,0.0706797510994353,1
200,685,8,0.0754178611077462,1
226,673,8,0.0713290906715909,1
226,674,8,0.0697537318217504,1
236,680,8,0.0778028698786941,1
236,681,8,0.104978804341159,1
236,682,8,0.07867062661101,1
237,680,8,0.0723030581013965,1
237,681,8,0.0973052731203414,1
237,682,8,0.076133459575437,1
199,684,9,0.0821998741572146,1
199,685,9,0.0863905007241399,1
200,684,9,0.075844285198412,1
200,685,9,0.0848668216564978,1
201,685,9,0.0734362217819285,1
226,673,9,0.0692887515467996,1
226,674,9,0.0716307776894379,1
227,672,9,0.0692724294088197,1
235,681,9,0.0687265991454459,1
236,680,9,0.0830508774877214,1
236,681,9,0.114384464803505,1
236,682,9,0.0873805986191124,1
237,680,9,0.0714998531786253,1
237,681,9,0.0985028508455838,1
237,682,9,0.0796896970496187,1
199,684,10,0.0817994397020331,1
199,685,10,0.0893271318712787,1
200,684,10,0.0806573572459224,1
200,685,10,0.0925402031329305,1
200,686,10,0.0706961391249446,1
201,684,10,0.067886185737856,1
201,685,10,0.0777131789817727,1
226,674,10,0.0686964945342581,1
236,680,10,0.0837073568721604,1
236,681,10,0.110440389371819,1
236,682,10,0.0863661103586888,1
237,680,10,0.0712420652247249,1
237,681,10,0.0948883687953594,1
237,682,10,0.080135258472705,1
194,678,11,0.0681186968395453,1
199,684,11,0.06970563991502,1
199,685,11,0.0760633492543161,1
200,684,11,0.0746046652395987,1
200,685,11,0.0858477551950999,1
201,685,11,0.0729035211062435,1
206,688,11,0.0680137499846662,1
236,680,11,0.0792522218233298,1
236,681,11,0.091380516726903,1
236,682,11,0.072877381726374,1
237,680,11,0.0701043493148847,1
237,681,11,0.082134304085851,1
237,682,11,0.0717739093625269,1
200,684,12,0.0677702416553324,1
200,685,12,0.074202499739325,1
201,685,12,0.0683382101286048,1
236,680,12,0.0739186562624108,1
236,681,12,0.0723718267128266,1
237,680,12,0.0682724963026314,1
237,681,12,0.0685038933060954,1
236,680,13,0.0682739458282796,1
239,691,13,0.0698942998709659,1
202,685,14,0.076341634219654,1
202,686,14,0.0689354386547329,1
203,685,14,0.0682338203228384,1
238,691,14,0.0740234893115573,1
238,692,14,0.0687430770175864,1
239,691,14,0.0715022610683383,1
201,685,15,0.0710934469173645,1
202,684,15,0.0739797040533433,1
202,685,15,0.0923080274586638,1
202,686,15,0.082817420001518,1
203,685,15,0.0818759710623887,1
203,686,15,0.0750394031385273,1
238,691,15,0.0742991327859413,1
238,692,15,0.072411718617027,1
239,691,15,0.0682222001585518,1
201,685,16,0.0740918266591582,1
201,686,16,0.0696819563430667,1
202,684,16,0.0793581090729476,1
202,685,16,0.0992391020588727,1
202,686,16,0.0893204532717016,1
203,684,16,0.0689998467096678,1
203,685,16,0.0874666537223627,1
203,686,16,0.0800090958333397,1
238,691,16,0.0677488581571349,1
238,692,16,0.0691060633969329,1
201,685,17,0.0678380578924731,1
202,684,17,0.0704089533533542,1
202,685,17,0.0885885446455816,1
202,686,17,0.0810469082791922,1
203,685,17,0.0781838854820111,1
203,686,17,0.0723861362862702,1
202,685,18,0.0714291079413113,1
219,698,24,0.0733662312563156,1
219,699,24,0.0702489544727234,1
219,698,25,0.0739330796415872,1
219,699,25,0.071007020448039,1
219,698,26,0.0690755395014667,1
