x,y,z,signal,cytoplasm.p
445,646,1,0.0693673374001193,1
445,647,1,0.0724862134537447,1
445,648,1,0.0713456703699132,1
446,645,1,0.0704434604494651,1
446,646,1,0.0789650779801672,1
446,647,1,0.086593787711626,1
446,648,1,0.0857974590510202,1
446,649,1,0.0761312553380878,1
447,645,1,0.0893681079248275,1
447,646,1,0.104999696677773,1
447,647,1,0.115484115690643,1
447,648,1,0.108605218023991,1
447,649,1,0.0839253188093898,1
448,644,1,0.0840354228608931,1
448,645,1,0.114222836703964,1
448,646,1,0.13077859988377,1
448,647,1,0.132897135526479,1
448,648,1,0.118623931999086,1
448,649,1,0.0920559178118478,1
448,650,1,0.0785546525796094,1
448,651,1,0.0761151069035947,1
448,652,1,0.0684169636956358,1
448,659,1,0.0733633801232226,1
449,641,1,0.105283612031992,1
449,642,1,0.105165062397168,1
449,644,1,0.0916394726870075,1
449,645,1,0.114171456410536,1
449,646,1,0.121884645934313,1
449,647,1,0.113778730796301,1
449,648,1,0.100925595201586,1
449,649,1,0.0915166882809709,1
449,650,1,0.0922458775490567,1
449,651,1,0.0909832448731356,1
449,652,1,0.0804138668859148,1
449,653,1,0.0766788406056554,1
449,654,1,0.0829307166033124,1
449,655,1,0.0820063025854362,1
449,656,1,0.0755273362328319,1
449,657,1,0.0730538524893698,1
449,658,1,0.0785091242967525,1
449,659,1,0.0899395324985088,1
449,660,1,0.0889352987335794,1
449,661,1,0.0721353982980221,1
450,640,1,0.150632740706552,1
450,641,1,0.19096270114145,1
450,642,1,0.176212999001001,1
450,643,1,0.12094801277461,1
450,644,1,0.0895766838839965,1
450,645,1,0.0932754420741758,1
450,646,1,0.094042408855744,1
450,647,1,0.0855665711784658,1
450,648,1,0.0784991573104778,1
450,649,1,0.0809267473947831,1
450,650,1,0.0883497263103904,1
450,651,1,0.0888695669382798,1
450,652,1,0.0823680850199263,1
450,653,1,0.0826705986267793,1
450,654,1,0.0893285813969268,1
450,655,1,0.0866436705612027,1
450,656,1,0.0800060769865354,1
450,657,1,0.0818368218903386,1
450,658,1,0.0922964492228051,1
450,659,1,0.101967324960554,1
450,660,1,0.0952568717578544,1
450,661,1,0.0790006692256265,1
451,639,1,0.132206574319983,1
451,640,1,0.230107117309895,1
451,641,1,0.281334911056148,2
451,642,1,0.235661196452366,1
451,643,1,0.139338108733687,1
451,644,1,0.0853309274242394,1
451,645,1,0.0793741496914834,1
451,646,1,0.0785509568881842,1
451,647,1,0.0741043093511032,1
451,648,1,0.0703848385175718,1
451,649,1,0.0718456788514352,1
451,650,1,0.0742037516023847,1
451,651,1,0.0741109939404557,1
451,652,1,0.0741066633328375,1
451,653,1,0.0782144093774774,1
451,654,1,0.0851189672419662,1
451,655,1,0.0861898132991798,1
451,656,1,0.087286786756712,1
451,657,1,0.0943193640909419,1
451,658,1,0.104511506023126,1
451,659,1,0.108411352953218,1
451,660,1,0.0991281235001602,1
451,661,1,0.088207888428789,1
451,662,1,0.0763645810492323,1
452,639,1,0.147158000116537,1
452,640,1,0.251919028203504,2
452,641,1,0.294428679888002,2
452,642,1,0.230429630776827,1
452,643,1,0.127864550189909,1
452,644,1,0.07741029999862,1
452,645,1,0.0718977958872381,1
452,646,1,0.0728246836823567,1
452,647,1,0.0737636468646928,1
452,648,1,0.0720775190982791,1
452,649,1,0.0686491273903516,1
452,654,1,0.0753440371258738,1
452,655,1,0.0809399009415735,1
452,656,1,0.0894104556369441,1
452,657,1,0.0962768945707526,1
452,658,1,0.099822817651686,1
452,659,1,0.101771183775126,1
452,660,1,0.098637417139843,1
452,661,1,0.0936837830328926,1
452,662,1,0.0820609473064603,1
453,639,1,0.120039663334371,1
453,640,1,0.187633020932205,1
453,641,1,0.212514068784472,1
453,642,1,0.166053225815108,1
453,643,1,0.098403330727222,1
453,646,1,0.0704800879260695,1
453,647,1,0.0761887631717557,1
453,648,1,0.0761323933954149,1
453,649,1,0.0698808767842822,1
453,654,1,0.0685246957960785,1
453,655,1,0.0741189124235417,1
453,656,1,0.0846060507944455,1
453,657,1,0.088282934324844,1
453,658,1,0.0845372881727907,1
453,659,1,0.0846944778487563,1
453,660,1,0.0873724585143364,1
453,661,1,0.085012409137503,1
453,662,1,0.0748699703616329,1
454,640,1,0.108332791059,1
454,641,1,0.121692745509873,1
454,642,1,0.105210812301714,1
454,646,1,0.0716924603965634,1
454,647,1,0.0785375877094792,1
454,648,1,0.0797620774956184,1
454,649,1,0.0748983678868302,1
454,655,1,0.0692448464930775,1
454,656,1,0.0784051837241414,1
454,657,1,0.0798959968941337,1
454,660,1,0.0748123846608848,1
454,661,1,0.0748605065164923,1
454,662,1,0.0680312940368288,1
455,644,1,0.0691025893271978,1
455,645,1,0.0723298683361113,1
455,646,1,0.0814197658084069,1
455,647,1,0.0893444003937726,1
455,648,1,0.090050019895638,1
455,649,1,0.0846184196806578,1
455,650,1,0.0699696752046682,1
455,656,1,0.0729654014759573,1
455,657,1,0.074331184074136,1
455,660,1,0.0712154346832722,1
455,661,1,0.0728338600182779,1
455,662,1,0.0677966745341967,1
455,664,1,0.0690513288292778,1
455,665,1,0.0766219796677313,1
455,666,1,0.0819607323741515,1
455,667,1,0.0805688163858788,1
455,668,1,0.0753797122281888,1
456,643,1,0.0794928730297952,1
456,644,1,0.077646632577018,1
456,645,1,0.083996716932223,1
456,646,1,0.104699740705019,1
456,647,1,0.117834036357266,1
456,648,1,0.109971461834876,1
456,649,1,0.0929949528714887,1
456,650,1,0.0726027684933597,1
456,660,1,0.0679123311075008,1
456,661,1,0.0700232058274669,1
456,665,1,0.07239137733975,1
456,666,1,0.0798607650351988,1
456,667,1,0.0778769933493367,1
457,642,1,0.0797414606886727,1
457,643,1,0.0885268858975578,1
457,644,1,0.0886684901779184,1
457,645,1,0.102902221085389,1
457,646,1,0.14042114398385,1
457,647,1,0.159122720243562,1
457,648,1,0.137087474584185,1
457,649,1,0.104810096327089,1
457,650,1,0.0793014517873873,1
458,642,1,0.0752174372329039,1
458,643,1,0.0852490172455697,1
458,644,1,0.0899270258474622,1
458,645,1,0.110854234934134,1
458,646,1,0.151528068375059,1
458,647,1,0.167001562995953,1
458,648,1,0.139292370808691,1
458,649,1,0.103899027528816,1
458,650,1,0.0796041151386254,1
459,643,1,0.0779221981843218,1
459,644,1,0.0844435421979198,1
459,645,1,0.0995711272891484,1
459,646,1,0.123288553452947,1
459,647,1,0.129712084434174,1
459,648,1,0.107922144036752,1
459,649,1,0.0817730787004737,1
460,643,1,0.0763372017858539,1
460,644,1,0.0834333545962374,1
460,645,1,0.0886821588453936,1
460,646,1,0.0952221789787059,1
460,647,1,0.095053950146668,1
460,648,1,0.0794068478754219,1
460,678,1,0.0764026580514849,1
460,679,1,0.0823584295019727,1
460,680,1,0.0792941143125156,1
460,681,1,0.0709450502316941,1
461,642,1,0.0712515111005393,1
461,643,1,0.0788534645052618,1
461,644,1,0.0859045023272913,1
461,645,1,0.0856656121147951,1
461,646,1,0.082805542276889,1
461,647,1,0.0778740583593881,1
461,678,1,0.0964181334748134,1
461,679,1,0.125672663757584,1
461,680,1,0.123288325841482,1
461,681,1,0.093651096828505,1
461,682,1,0.0694516195298496,1
462,641,1,0.0713481022187278,1
462,642,1,0.0791912039812743,1
462,643,1,0.0829840855021751,1
462,644,1,0.0853084537869181,1
462,645,1,0.0811709086096361,1
462,646,1,0.0721116248794378,1
462,678,1,0.120385153579758,1
462,679,1,0.179381290701722,1
462,680,1,0.177301197437565,1
462,681,1,0.121199966687265,1
462,682,1,0.0760123762656156,1
463,641,1,0.0795438819571481,1
463,642,1,0.0892806272550307,1
463,643,1,0.0864720395367345,1
463,644,1,0.0789055096637599,1
463,645,1,0.0689750789883662,1
463,678,1,0.117848902979822,1
463,679,1,0.18157292556348,1
463,680,1,0.180794182883464,1
463,681,1,0.122669582042097,1
463,682,1,0.0753319976773088,1
464,640,1,0.0777138558263935,1
464,641,1,0.0874693730803968,1
464,642,1,0.0951881870032799,1
464,643,1,0.0883595315727291,1
464,644,1,0.0728733026893229,1
464,678,1,0.0811089863114944,1
464,679,1,0.120918435263657,1
464,680,1,0.123314117814378,1
464,681,1,0.0915642650670165,1
465,640,1,0.0853360247231095,1
465,641,1,0.0966726390317916,1
465,642,1,0.0999908548109109,1
465,643,1,0.0885119354181457,1
466,639,1,0.072346394126455,1
466,640,1,0.0853270819884291,1
466,641,1,0.0979025435748973,1
466,642,1,0.0978959787810529,1
466,643,1,0.0824382312796997,1
467,640,1,0.0721893062766713,1
467,641,1,0.0801706280964743,1
467,642,1,0.0780742246738879,1
476,697,1,0.0802143714262604,1
476,698,1,0.0882154774742277,1
477,697,1,0.0910299531417474,1
477,698,1,0.102672177771167,1
478,697,1,0.0721426099876103,1
478,698,1,0.0801754917941035,1
484,702,1,0.0946481668220494,1
485,702,1,0.0697455677578728,1
494,656,1,0.0955224284504557,1
494,657,1,0.0901629810700096,1
494,702,1,0.0727474095898508,1
495,655,1,0.0762885228811337,1
495,656,1,0.107518744642745,1
495,657,1,0.100433223683706,1
495,701,1,0.0693723987603369,1
495,702,1,0.10097735884064,1
496,656,1,0.0797908763357678,1
496,657,1,0.0732694005471109,1
496,701,1,0.0789511817012266,1
496,702,1,0.115518856387995,1
497,701,1,0.0728385500124204,1
445,646,2,0.0787239056632416,1
445,647,2,0.0831078582211536,1
445,648,2,0.0746294030120233,1
446,645,2,0.0691736580123836,1
446,646,2,0.0884668144400164,1
446,647,2,0.100340262369413,1
446,648,2,0.0923877333999844,1
446,649,2,0.0738100316854327,1
447,645,2,0.0843856629981768,1
447,646,2,0.110452452779486,1
447,647,2,0.127872205122878,1
447,648,2,0.117613385010879,1
447,649,2,0.0834662384632134,1
448,644,2,0.074555447255092,1
448,645,2,0.107051793731686,1
448,646,2,0.13056543575664,1
448,647,2,0.136312529421777,1
448,648,2,0.120607158615386,1
448,649,2,0.0869184335386021,1
448,650,2,0.0748017108811123,1
448,651,2,0.0717039308164649,1
449,640,2,0.0920179126869002,1
449,641,2,0.116815355254058,1
449,642,2,0.116925986405797,1
449,643,2,0.0885036275996584,1
449,644,2,0.0821755137406406,1
449,645,2,0.103968269332503,1
449,646,2,0.11500322058244,1
449,647,2,0.107771956408235,1
449,648,2,0.0949803238273841,1
449,649,2,0.082127715332905,1
449,650,2,0.0852242734833697,1
449,651,2,0.0835987442747331,1
449,652,2,0.0735122020829468,1
449,653,2,0.0755518643631172,1
449,654,2,0.0895496879662441,1
449,655,2,0.0848040068818207,1
449,656,2,0.073072852056956,1
449,657,2,0.071482033596794,1
449,658,2,0.0750517061372101,1
449,659,2,0.0817174636358339,1
449,660,2,0.0788061452795586,1
450,639,2,0.101088385317556,1
450,640,2,0.186975235776727,1
450,641,2,0.244759497579556,2
450,642,2,0.220627411243987,1
450,643,2,0.131538331016648,1
450,644,2,0.0832599386186984,1
450,645,2,0.083204239697203,1
450,646,2,0.0860410811860867,1
450,647,2,0.078765762213775,1
450,648,2,0.0735798146677237,1
450,649,2,0.0735411866061338,1
450,650,2,0.0806098703065078,1
450,651,2,0.0795064398710885,1
450,652,2,0.0755410108900825,1
450,653,2,0.0879779469407486,1
450,654,2,0.107303040850843,1
450,655,2,0.0967189340059005,1
450,656,2,0.0777046255824937,1
450,657,2,0.0765107854771043,1
450,658,2,0.0874363933770143,1
450,659,2,0.0943797410270289,1
450,660,2,0.0833151463786105,1
450,661,2,0.0703243118370996,1
451,639,2,0.154423525806061,1
451,640,2,0.308495691386837,2
451,641,2,0.379810915728364,2
451,642,2,0.302611551660423,2
451,643,2,0.153233597024011,1
451,644,2,0.0805843239144035,1
451,645,2,0.0717768024240477,1
451,646,2,0.0724747550133941,1
451,647,2,0.0700021218180396,1
451,648,2,0.0703129971513586,1
451,649,2,0.0716799058273135,1
451,650,2,0.0710163045999175,1
451,652,2,0.0681183614121226,1
451,653,2,0.0821063258449321,1
451,654,2,0.0997307727730303,1
451,655,2,0.0966326512911847,1
451,656,2,0.0905223436352359,1
451,657,2,0.0931140475758756,1
451,658,2,0.104314095005313,1
451,659,2,0.107337482059425,1
451,660,2,0.090829511297579,1
451,661,2,0.0791640283702597,1
451,662,2,0.0741424282817836,1
452,638,2,0.0698333598959907,1
452,639,2,0.173124562985986,2
452,640,2,0.337897366492219,2
452,641,2,0.392647866949934,2
452,642,2,0.286997836397287,2
452,643,2,0.135965338080174,1
452,644,2,0.0730281563528804,1
452,646,2,0.0687321876058992,1
452,647,2,0.0711081158773325,1
452,648,2,0.0738382495173679,1
452,649,2,0.0731921683830328,1
452,653,2,0.070682997557705,1
452,654,2,0.0821614138093362,1
452,655,2,0.0906433430882017,1
452,656,2,0.10103024855747,1
452,657,2,0.101785882683971,1
452,658,2,0.0994621373358706,1
452,659,2,0.0986441316780725,1
452,660,2,0.0893041730621495,1
452,661,2,0.0818213742595679,1
452,662,2,0.0766547497289746,1
453,639,2,0.124705207213645,1
453,640,2,0.221462338017306,2
453,641,2,0.24973644988216,2
453,642,2,0.182388505362239,1
453,643,2,0.0963936352934051,1
453,646,2,0.0690166300603539,1
453,647,2,0.0747690845744787,1
453,648,2,0.076796276142255,1
453,649,2,0.0740398054597617,1
453,654,2,0.0743620553765757,1
453,655,2,0.0842171346773687,1
453,656,2,0.097207118670772,1
453,657,2,0.0945392247869748,1
453,658,2,0.082009710767642,1
453,659,2,0.0792801641255963,1
453,660,2,0.0791524261752994,1
453,661,2,0.0732619732256081,1
454,639,2,0.076909464928092,1
454,640,2,0.105272267397375,1
454,641,2,0.119957938838739,1
454,642,2,0.102406147886309,1
454,643,2,0.0738885157125705,1
454,646,2,0.0709913811444554,1
454,647,2,0.077441943982087,1
454,648,2,0.0785072974152538,1
454,649,2,0.0757795237467281,1
454,654,2,0.0688718871376809,1
454,655,2,0.0746690972536353,1
454,656,2,0.0826119946642122,1
454,657,2,0.0794938853018387,1
454,660,2,0.0712466414131347,1
454,661,2,0.0684071943719495,1
455,641,2,0.0783975707196011,1
455,642,2,0.0792944138012859,1
455,643,2,0.070691137662481,1
455,645,2,0.068796577691508,1
455,646,2,0.0779617965895273,1
455,647,2,0.0906256852303064,1
455,648,2,0.0965944185547717,1
455,649,2,0.0925539676368122,1
455,650,2,0.0720226168169126,1
455,656,2,0.0731187816547651,1
455,657,2,0.0725295195299263,1
455,660,2,0.0740574273790046,1
455,661,2,0.0726516570402191,1
455,666,2,0.0730624298477505,1
455,667,2,0.0750832003762921,1
455,668,2,0.0743735737146805,1
456,642,2,0.0754843236556452,1
456,643,2,0.0776077469550857,1
456,644,2,0.0756619145066419,1
456,645,2,0.0779779270546942,1
456,646,2,0.0967195689220934,1
456,647,2,0.119420128884633,1
456,648,2,0.128310704600761,1
456,649,2,0.114687882866444,1
456,650,2,0.0808890597279319,1
456,660,2,0.0705690241112898,1
456,661,2,0.0718189285144744,1
456,666,2,0.0746275102429951,1
456,667,2,0.0741076576355549,1
457,642,2,0.0820786590723342,1
457,643,2,0.0959399038166657,1
457,644,2,0.0949082788088071,1
457,645,2,0.0996435197146989,1
457,646,2,0.13090934470132,1
457,647,2,0.158681417550789,1
457,648,2,0.158593020445356,1
457,649,2,0.131851931697776,1
457,650,2,0.0903728747797679,1
458,642,2,0.0791066463218754,1
458,643,2,0.0978394951989794,1
458,644,2,0.100765404648142,1
458,645,2,0.110883453058561,1
458,646,2,0.144411460481666,1
458,647,2,0.162959506818185,1
458,648,2,0.149489424356708,1
458,649,2,0.119099112861552,1
458,650,2,0.0864124292918993,1
459,642,2,0.0699623437195719,1
459,643,2,0.0843207218532308,1
459,644,2,0.0901929658856894,1
459,645,2,0.0996058799660509,1
459,646,2,0.119652184763391,1
459,647,2,0.125994087085393,1
459,648,2,0.106733533005292,1
459,649,2,0.0830263253983344,1
460,643,2,0.0763679353234594,1
460,644,2,0.0858783928962989,1
460,645,2,0.0920083290462514,1
460,646,2,0.0999793065239292,1
460,647,2,0.101776203206916,1
460,648,2,0.0812253556680717,1
460,678,2,0.0747546911441794,1
460,679,2,0.0865215150815836,1
460,680,2,0.0849397292027331,1
460,681,2,0.0730148590514803,1
461,643,2,0.0784941019400355,1
461,644,2,0.0896360784969171,1
461,645,2,0.0910891620716304,1
461,646,2,0.0898303269133164,1
461,647,2,0.087569090861347,1
461,678,2,0.0997720003971461,1
461,679,2,0.156071169265494,1
461,680,2,0.159402011491168,1
461,681,2,0.110769599407654,1
461,682,2,0.0699801333525262,1
462,642,2,0.0763198673758305,1
462,643,2,0.0827927361370721,1
462,644,2,0.0880463381963282,1
462,645,2,0.0837527953083862,1
462,646,2,0.0745014015116085,1
462,678,2,0.138944580489548,1
462,679,2,0.256473341953499,3
462,680,2,0.261103869605752,3
462,681,2,0.15943409272824,1
462,682,2,0.0776137067816141,1
463,641,2,0.0773230289709623,1
463,642,2,0.0903262922964396,1
463,643,2,0.0889767240202836,1
463,644,2,0.0812763885545263,1
463,645,2,0.0689209074595992,1
463,678,2,0.140693570948842,1
463,679,2,0.26451749052753,3
463,680,2,0.265414806801471,3
463,681,2,0.157789671767975,1
463,682,2,0.0752880387156081,1
464,640,2,0.0761841210958165,1
464,641,2,0.0872194916300316,1
464,642,2,0.100492091196391,1
464,643,2,0.096082730011209,1
464,644,2,0.0782533069789605,1
464,678,2,0.0862525382272258,1
464,679,2,0.155112481752748,1
464,680,2,0.155564482184395,1
464,681,2,0.100807944033072,1
465,640,2,0.0876542355187356,1
465,641,2,0.0992410966540827,1
465,642,2,0.107198375515408,1
465,643,2,0.0981637576803296,1
465,644,2,0.0724066872056864,1
466,640,2,0.0910288270639712,1
466,641,2,0.102824845166702,1
466,642,2,0.102723306494028,1
466,643,2,0.0880754305354725,1
467,640,2,0.0785812531721851,1
467,641,2,0.0867020888407322,1
467,642,2,0.0811375755095047,1
476,697,2,0.0809733478474376,1
477,697,2,0.0948678178759432,1
477,698,2,0.114052930734812,1
478,697,2,0.0692928665225032,1
478,698,2,0.0827690705344451,1
484,702,2,0.11035102192277,1
485,702,2,0.0702760342473315,1
494,656,2,0.0797688100031741,1
494,657,2,0.0737865697351695,1
495,656,2,0.0900880609592381,1
495,657,2,0.0832364167706811,1
495,702,2,0.0759075072778167,1
444,647,3,0.069225649262903,1
445,646,3,0.0857313079714423,1
445,647,3,0.0933379633498581,1
445,648,3,0.0778387666026991,1
446,645,3,0.069107704595394,1
446,646,3,0.0992709676640298,1
446,647,3,0.112917449011198,1
446,648,3,0.0973904477266071,1
446,649,3,0.0770705479580712,1
446,650,3,0.0693275533118762,1
447,645,3,0.0793029312619125,1
447,646,3,0.110502084058495,1
447,647,3,0.127005556499012,1
447,648,3,0.116886190338004,1
447,649,3,0.0928536181310214,1
447,650,3,0.0811023735994468,1
448,644,3,0.0711197659904961,1
448,645,3,0.0966471225885643,1
448,646,3,0.122863542949277,1
448,647,3,0.127860453183532,1
448,648,3,0.115324200666868,1
448,649,3,0.0921551743800918,1
448,650,3,0.0842168411783738,1
448,651,3,0.072003138067294,1
449,640,3,0.0964545093808508,1
449,641,3,0.120864587182762,1
449,642,3,0.118762499463316,1
449,643,3,0.0846650860208417,1
449,644,3,0.0757504074484822,1
449,645,3,0.0919796739607117,1
449,646,3,0.107849068776805,1
449,647,3,0.103508661886091,1
449,648,3,0.0909376267436476,1
449,649,3,0.0776870935098819,1
449,650,3,0.0796656720604674,1
449,651,3,0.0736579572776634,1
449,653,3,0.070742398160401,1
449,654,3,0.0879426491942842,1
449,655,3,0.0806063902469973,1
449,656,3,0.0721044072000742,1
449,657,3,0.0788128837768898,1
449,658,3,0.0828552454332036,1
449,659,3,0.0793879740931192,1
449,660,3,0.0707114969090842,1
450,639,3,0.112812472207442,1
450,640,3,0.223874779959611,2
450,641,3,0.290859612314902,2
450,642,3,0.25171302784776,2
450,643,3,0.135640500580385,1
450,644,3,0.0808438788520485,1
450,645,3,0.0783532403918252,1
450,646,3,0.0852968515919577,1
450,647,3,0.0807473356520632,1
450,648,3,0.0748228727576198,1
450,649,3,0.0689777923566249,1
450,650,3,0.0709087102643091,1
450,652,3,0.0686174294989059,1
450,653,3,0.092756955135528,1
450,654,3,0.121605474482215,1
450,655,3,0.103895146154353,1
450,656,3,0.0792544500197806,1
450,657,3,0.0796570467838835,1
450,658,3,0.0895673338445886,1
450,659,3,0.0906913571278519,1
450,660,3,0.0761392097598263,1
451,639,3,0.170595140730013,2
451,640,3,0.369794310154212,2
451,641,3,0.455066190372505,2
451,642,3,0.349412398240904,2
451,643,3,0.160061605558818,2
451,644,3,0.0774991643065354,1
451,646,3,0.0698344620146653,1
451,647,3,0.0688107914285451,1
451,648,3,0.0716320714809255,1
451,649,3,0.0724601818898326,1
451,653,3,0.089879928243449,1
451,654,3,0.117258191329335,1
451,655,3,0.107881126054775,1
451,656,3,0.0936955050233611,1
451,657,3,0.090294079284309,1
451,658,3,0.0980082691005792,1
451,659,3,0.101735281061346,1
451,660,3,0.0845463447132038,1
451,661,3,0.0761597187508146,1
451,662,3,0.0766161516162618,1
452,639,3,0.182726951631749,2
452,640,3,0.384089915441622,2
452,641,3,0.444849118995082,2
452,642,3,0.314004823254666,2
452,643,3,0.137062377425236,2
452,644,3,0.0698493525963233,1
452,647,3,0.0680209017765003,1
452,648,3,0.0741875552496883,1
452,649,3,0.077531185645853,1
452,650,3,0.069463724865944,1
452,653,3,0.079638646193838,1
452,654,3,0.100318920799644,1
452,655,3,0.106338651071911,1
452,656,3,0.111051346463177,1
452,657,3,0.10200258077859,1
452,658,3,0.093382605145955,1
452,659,3,0.0929524194763345,1
452,660,3,0.0813596763815393,1
452,661,3,0.0748344989116818,1
452,662,3,0.0750486932801812,1
453,639,3,0.113932584167366,1
453,640,3,0.216996601066008,2
453,641,3,0.241956354567103,2
453,642,3,0.171228044358456,2
453,643,3,0.0882046898887224,1
453,646,3,0.0686839878832115,1
453,647,3,0.071256249012885,1
453,648,3,0.0727948546008375,1
453,649,3,0.0739144035218729,1
453,653,3,0.0754779145959614,1
453,654,3,0.0938476932368631,1
453,655,3,0.101828781455425,1
453,656,3,0.107287012211858,1
453,657,3,0.0954624947577486,1
453,658,3,0.0783689815215908,1
453,659,3,0.0746085885424893,1
453,660,3,0.0714098867520352,1
454,640,3,0.0917660546106512,1
454,641,3,0.103408464923109,1
454,642,3,0.0898211745364968,1
454,643,3,0.0681226500913129,1
454,646,3,0.0693624916718163,1
454,647,3,0.0731417584332204,1
454,648,3,0.0727685175583797,1
454,649,3,0.0705144931959985,1
454,654,3,0.0802095975752622,1
454,655,3,0.083341537329047,1
454,656,3,0.0839232403573241,1
454,657,3,0.0774146905039922,1
454,660,3,0.0678158957234729,1
455,641,3,0.0705584761168008,1
455,642,3,0.0714322286142976,1
455,646,3,0.0724783908070652,1
455,647,3,0.0877066879819613,1
455,648,3,0.100539949501881,1
455,649,3,0.0959283914683364,1
455,650,3,0.0710915062301331,1
455,656,3,0.070740876757448,1
455,657,3,0.0710508476346808,1
455,660,3,0.0724585766300239,1
455,661,3,0.0680302578056836,1
455,667,3,0.0708027032191832,1
456,643,3,0.0710068826832047,1
456,644,3,0.0718550049317415,1
456,645,3,0.0785869494485956,1
456,646,3,0.0911229923231205,1
456,647,3,0.119630980958456,1
456,648,3,0.151911533796517,1
456,649,3,0.143720983132026,1
456,650,3,0.0924331478771086,1
456,660,3,0.0695920857528831,1
456,661,3,0.0692668948563451,1
456,666,3,0.0686416880892981,1
456,667,3,0.0685672531503344,1
457,642,3,0.0800940488179154,1
457,643,3,0.0903715031212001,1
457,644,3,0.0970422680720628,1
457,645,3,0.108814297124294,1
457,646,3,0.126235031790853,1
457,647,3,0.151833403166128,1
457,648,3,0.17961998325163,1
457,649,3,0.165462621980578,1
457,650,3,0.104719303311493,1
458,642,3,0.0768829422025966,1
458,643,3,0.0975674455898386,1
458,644,3,0.109356647328158,1
458,645,3,0.124118724344594,1
458,646,3,0.141815755371056,1
458,647,3,0.148452606213573,1
458,648,3,0.149685553562584,1
458,649,3,0.131748368481016,1
458,650,3,0.0917037489668835,1
458,679,3,0.0684893740905125,1
458,680,3,0.0708606902348835,1
459,643,3,0.083670154377117,1
459,644,3,0.0965730230770233,1
459,645,3,0.11189845643967,1
459,646,3,0.126134487420897,1
459,647,3,0.121791133560683,1
459,648,3,0.103471165892053,1
459,649,3,0.086147537464368,1
459,650,3,0.068794834666865,1
459,678,3,0.0691442122764903,1
459,679,3,0.0717278300203327,1
459,680,3,0.0714830698279391,1
460,643,3,0.0731033519933206,1
460,644,3,0.0887382830409428,1
460,645,3,0.104114887054878,1
460,646,3,0.116163811444554,1
460,647,3,0.113169522719362,1
460,648,3,0.0879521489780772,1
460,678,3,0.0768448532207933,1
460,679,3,0.0900454916254315,1
460,680,3,0.0907290507844785,1
461,643,3,0.0761430192569842,1
461,644,3,0.0925302361466558,1
461,645,3,0.10171642524837,1
461,646,3,0.10598291831058,1
461,647,3,0.101860371530914,1
461,648,3,0.075253262079604,1
461,678,3,0.106408000691556,1
461,679,3,0.188133430728679,3
461,680,3,0.201981575834198,3
461,681,3,0.132406309370654,1
462,642,3,0.0718267870998063,1
462,643,3,0.0809485022590558,1
462,644,3,0.0880438464497595,1
462,645,3,0.0849518644877046,1
462,646,3,0.078933979066262,1
462,647,3,0.0723961991089514,1
462,678,3,0.16228564510552,3
462,679,3,0.346612657420881,3
462,680,3,0.36747748898648,3
462,681,3,0.210448051492518,3
462,682,3,0.0826984211335377,1
463,641,3,0.0768305735962267,1
463,642,3,0.0911965707242012,1
463,643,3,0.0923674879591139,1
463,644,3,0.0827216075541322,1
463,645,3,0.0687622502886593,1
463,678,3,0.167431521054108,3
463,679,3,0.360068256605428,3
463,680,3,0.371231808333321,3
463,681,3,0.203276325685844,3
463,682,3,0.0779361723303427,1
464,641,3,0.0956930472028803,1
464,642,3,0.116378305301823,1
464,643,3,0.110729264260074,1
464,644,3,0.0845741971688392,1
464,678,3,0.0911681911683301,1
464,679,3,0.187735601825799,3
464,680,3,0.189437320977593,3
464,681,3,0.110857661085665,1
465,640,3,0.0913009006322136,1
465,641,3,0.11255258783215,1
465,642,3,0.130136891285481,1
465,643,3,0.117972148598565,1
465,644,3,0.0813788197037352,1
466,640,3,0.0978962243618445,1
466,641,3,0.115233239937561,1
466,642,3,0.119109223602437,1
466,643,3,0.102194445264378,1
467,640,3,0.0886656689937024,1
467,641,3,0.10003707191794,1
467,642,3,0.0916887505692683,1
467,643,3,0.0735408032605079,1
468,640,3,0.0714899640594308,1
468,641,3,0.0795451038713308,1
468,642,3,0.0683147601578924,1
476,697,3,0.0845630621763604,1
477,697,3,0.103494394241075,1
477,698,3,0.129369996381217,1
478,697,3,0.0753263553088769,1
478,698,3,0.0946826619386095,1
478,699,3,0.0708383363930703,1
485,702,3,0.0694553272008256,1
494,656,3,0.0710824976079233,1
495,656,3,0.0761195513169456,1
495,657,3,0.0734336282091779,1
501,699,3,0.0682230447168839,1
501,700,3,0.0733890882392629,1
502,699,3,0.0713679403548707,1
444,647,4,0.0694994958046655,1
445,646,4,0.0822637191732615,1
445,647,4,0.0925038691553209,1
445,648,4,0.0729447906587871,1
446,646,4,0.0961016816605919,1
446,647,4,0.110837439603897,1
446,648,4,0.0905116878247896,1
446,649,4,0.0783980259425319,1
446,650,4,0.0722822556114133,1
447,646,4,0.0956758206088142,1
447,647,4,0.110028017294255,1
447,648,4,0.101241388140513,1
447,649,4,0.099942726965528,1
447,650,4,0.0948271173520631,1
447,651,4,0.0711809575360383,1
448,645,4,0.0767761504968926,1
448,646,4,0.100598553464448,1
448,647,4,0.107070577667357,1
448,648,4,0.0981919815020402,1
448,649,4,0.0957797072734466,1
448,650,4,0.0931022896467547,1
448,651,4,0.0730826752886209,1
449,640,4,0.0998442310987606,1
449,641,4,0.126311796752449,1
449,642,4,0.118601985462,1
449,643,4,0.0792476875633479,1
449,645,4,0.0730308697211391,1
449,646,4,0.0911452203796502,1
449,647,4,0.0938916761576655,1
449,648,4,0.0815058508605343,1
449,649,4,0.0730484736710557,1
449,650,4,0.073551279377692,1
449,654,4,0.0776245542648734,1
449,655,4,0.0711307212897127,1
449,656,4,0.0700844033627845,1
449,657,4,0.083550245063275,1
449,658,4,0.0849959013164855,1
449,659,4,0.0723339653424886,1
450,639,4,0.118154273709544,1
450,640,4,0.240298408693972,2
450,641,4,0.316018585745983,2
450,642,4,0.262173811206879,2
450,643,4,0.132591992408223,1
450,644,4,0.071780809583794,1
450,646,4,0.0783377268735251,1
450,647,4,0.0805055883166987,1
450,648,4,0.0721437839835897,1
450,653,4,0.0922268180837165,1
450,654,4,0.121267411558331,1
450,655,4,0.0998667646338359,1
450,656,4,0.0778638338127709,1
450,657,4,0.0806527750677372,1
450,658,4,0.0862991566492066,1
450,659,4,0.0815389144207724,1
451,639,4,0.173534155807763,2
451,640,4,0.383722981800283,2
451,641,4,0.483930295114797,2
451,642,4,0.363098747533171,2
451,643,4,0.160003768287503,2
451,644,4,0.0691538917535456,1
451,648,4,0.0695576984522804,1
451,649,4,0.0690543117374297,1
451,652,4,0.0678285341495784,1
451,653,4,0.102247394878962,1
451,654,4,0.134317550866131,1
451,655,4,0.114698041525532,1
451,656,4,0.0930398102995003,1
451,657,4,0.0850821121538964,1
451,658,4,0.0883570757648129,1
451,659,4,0.0902478022795264,1
451,660,4,0.0757169246039656,1
451,661,4,0.070272584136698,1
451,662,4,0.0751759760075473,1
452,639,4,0.17071534354285,2
452,640,4,0.363013477090499,2
452,641,4,0.429396169303829,2
452,642,4,0.299337564382898,2
452,643,4,0.128059361645197,1
452,648,4,0.0706299700760404,1
452,649,4,0.0761051459070954,1
452,653,4,0.0978440054998597,1
452,654,4,0.13265177036677,1
452,655,4,0.129162678274883,1
452,656,4,0.117970651154714,1
452,657,4,0.0986698338043373,1
452,658,4,0.0880612587268632,1
452,659,4,0.0851089104090604,1
452,660,4,0.0716987316914129,1
452,662,4,0.069675948598335,1
453,639,4,0.096474898576331,1
453,640,4,0.181955923782456,2
453,641,4,0.204542156901831,2
453,642,4,0.144299882945413,1
453,643,4,0.077339273241862,1
453,649,4,0.0680352233294948,1
453,653,4,0.0890855582394009,1
453,654,4,0.128388907108455,1
453,655,4,0.131762396535016,1
453,656,4,0.117935227622966,1
453,657,4,0.0934642098460791,1
453,658,4,0.0774800389536658,1
453,659,4,0.0704190760737894,1
454,640,4,0.0753374543627032,1
454,641,4,0.0839842462198288,1
454,642,4,0.0752584552148806,1
454,653,4,0.0694740751978447,1
454,654,4,0.0995836698788475,1
454,655,4,0.102265915264516,1
454,656,4,0.0897479914605928,1
454,657,4,0.0765673708853597,1
455,647,4,0.0824172970146576,1
455,648,4,0.100638517245953,1
455,649,4,0.094287133109485,1
455,655,4,0.0701087877384601,1
455,656,4,0.0703341889767432,1
455,657,4,0.0712223708431917,1
455,658,4,0.0733864407585337,1
455,659,4,0.0735291231984672,1
455,660,4,0.0707153603142207,1
456,645,4,0.073747917714478,1
456,646,4,0.0837543466602162,1
456,647,4,0.117120905677042,1
456,648,4,0.168624265030599,1
456,649,4,0.164987512995417,1
456,650,4,0.0994865756195249,1
456,659,4,0.0709136817778957,1
456,660,4,0.0720966204920471,1
456,661,4,0.0687053414325319,1
457,642,4,0.0782824112976556,1
457,643,4,0.0822969025290078,1
457,644,4,0.0943501335671997,1
457,645,4,0.11080011132357,1
457,646,4,0.116727617023919,1
457,647,4,0.139091761250811,1
457,648,4,0.190442477167935,1
457,649,4,0.18946888709398,1
457,650,4,0.114402841434449,1
457,679,4,0.0679442446308612,1
458,642,4,0.0721886533911521,1
458,643,4,0.0929959351946552,1
458,644,4,0.113735844004398,1
458,645,4,0.131226934572869,1
458,646,4,0.132259404139059,1
458,647,4,0.126026527708989,1
458,648,4,0.138937991736602,1
458,649,4,0.134846424075332,1
458,650,4,0.091978481995406,1
458,676,4,0.0709713333661733,1
458,677,4,0.0681061422702955,1
458,678,4,0.0684974303384328,1
458,679,4,0.0717678417200412,1
458,680,4,0.071467999553019,1
459,643,4,0.0833513066527333,1
459,644,4,0.102696759809431,1
459,645,4,0.122322402680046,1
459,646,4,0.131079142854514,1
459,647,4,0.115800878973186,1
459,648,4,0.0970746727570064,1
459,649,4,0.0850624357416895,1
459,650,4,0.0688337562274497,1
459,678,4,0.0707663872108999,1
459,679,4,0.0729406577137574,1
459,680,4,0.0726211630936299,1
460,643,4,0.0726071230600795,1
460,644,4,0.0942107215446375,1
460,645,4,0.121390118097287,1
460,646,4,0.141021331459029,1
460,647,4,0.127974929771081,1
460,648,4,0.0945336542958478,1
460,649,4,0.0708311726216854,1
460,678,4,0.0747145297000857,1
460,679,4,0.0893129600626693,1
460,680,4,0.0935015321366305,1
461,643,4,0.0732375768703816,1
461,644,4,0.0946622308147015,1
461,645,4,0.117022325953419,1
461,646,4,0.132115362020109,1
461,647,4,0.119975800348998,1
461,648,4,0.085195648346707,1
461,678,4,0.107530376786582,1
461,679,4,0.205138690614012,3
461,680,4,0.234051815678223,3
461,681,4,0.150786186772889,1
462,642,4,0.0686537514969647,1
462,643,4,0.0787724527929029,1
462,644,4,0.0873179335888204,1
462,645,4,0.0894187574656561,1
462,646,4,0.0897450624604196,1
462,647,4,0.0803036969468821,1
462,678,4,0.176271674840873,3
462,679,4,0.40638929821683,3
462,680,4,0.453760323497707,3
462,681,4,0.258294185758557,3
462,682,4,0.0900351233242046,1
463,642,4,0.0992761787686325,1
463,643,4,0.0977555784455488,1
463,644,4,0.0832660362100611,1
463,645,4,0.0709034212926261,1
463,678,4,0.184944450343708,3
463,679,4,0.424576700176186,3
463,680,4,0.458455540724339,3
463,681,4,0.246909707154609,3
463,682,4,0.0824087735642556,1
464,641,4,0.121580940362154,1
464,642,4,0.15199222805078,1
464,643,4,0.132307454117362,1
464,644,4,0.0895244171038085,1
464,678,4,0.0953131277284625,1
464,679,4,0.209983053248241,3
464,680,4,0.219849866519053,3
464,681,4,0.123229626042508,1
465,640,4,0.0999086032150431,1
465,641,4,0.146661351899018,1
465,642,4,0.176600106205906,1
465,643,4,0.145421779858407,1
465,644,4,0.0893050835080112,1
466,640,4,0.107235128777296,1
466,641,4,0.137421692072259,1
466,642,4,0.147311601917035,1
466,643,4,0.118075568060716,1
466,644,4,0.0723841057524078,1
467,639,4,0.075045914024393,1
467,640,4,0.102120675190484,1
467,641,4,0.117794300187226,1
467,642,4,0.108532705802933,1
467,643,4,0.0838995747546971,1
468,640,4,0.081135527006316,1
468,641,4,0.0952543141237562,1
468,642,4,0.0831133867838529,1
476,697,4,0.0831827124443957,1
477,697,4,0.104584737017234,1
477,698,4,0.134620154319615,1
478,697,4,0.0774379907303194,1
478,698,4,0.100550743077161,1
501,699,4,0.0681757075218545,1
501,700,4,0.0728985555824323,1
502,699,4,0.0744861814923032,1
445,646,5,0.0730624897455045,1
445,647,5,0.0827886990284488,1
446,646,5,0.0837891652246482,1
446,647,5,0.0965535203683031,1
446,648,5,0.0798195613701846,1
446,649,5,0.0745294935582601,1
446,650,5,0.0701339447951631,1
447,646,5,0.0792647284743764,1
447,647,5,0.0903499219604142,1
447,648,5,0.0848487864427519,1
447,649,5,0.0961659639302434,1
447,650,5,0.0957267037508836,1
447,651,5,0.0690043270616711,1
448,646,5,0.0803144485937349,1
448,647,5,0.0873775438336556,1
448,648,5,0.0812437442785665,1
448,649,5,0.0901647121151018,1
448,650,5,0.0912290772353267,1
448,651,5,0.0687012444261546,1
449,640,5,0.0880206600291649,1
449,641,5,0.110957235112006,1
449,642,5,0.1016023919042,1
449,643,5,0.0715024108127234,1
449,646,5,0.077204503295239,1
449,647,5,0.0845121071569862,1
449,648,5,0.0728515238659486,1
449,649,5,0.0677878755541261,1
449,657,5,0.0800022375405005,1
449,658,5,0.0785432540370128,1
450,639,5,0.103164800859614,1
450,640,5,0.19753518585746,1
450,641,5,0.269153672527766,2
450,642,5,0.220325598440857,1
450,643,5,0.115056661358608,1
450,646,5,0.0708365035217963,1
450,647,5,0.0780078939010478,1
450,648,5,0.0685135667933752,1
450,653,5,0.0821369276074786,1
450,654,5,0.0998316346010829,1
450,655,5,0.0849263839831297,1
450,656,5,0.0724572588794347,1
450,657,5,0.0762292959819245,1
450,658,5,0.0779967409392428,1
450,659,5,0.0724417034327067,1
451,639,5,0.144924939968075,1
451,640,5,0.309019940489425,2
451,641,5,0.411663463175052,2
451,642,5,0.31353098410189,2
451,643,5,0.145147472103939,1
451,652,5,0.0695080252448429,1
451,653,5,0.105816582247571,1
451,654,5,0.132015500484549,1
451,655,5,0.113222460354395,1
451,656,5,0.087704897039115,1
451,657,5,0.07815129511403,1
451,658,5,0.0791845613203497,1
451,659,5,0.0801917180956769,1
451,660,5,0.0720780222394131,1
451,662,5,0.0704616753564731,1
452,639,5,0.129584430340733,1
452,640,5,0.26291556103399,2
452,641,5,0.330520502857458,2
452,642,5,0.239515688803088,2
452,643,5,0.111327439170716,1
452,649,5,0.0726943222104322,1
452,652,5,0.069501586236282,1
452,653,5,0.110756949001998,1
452,654,5,0.150227472502618,1
452,655,5,0.144412814170908,1
452,656,5,0.114192983663343,1
452,657,5,0.0914241761998335,1
452,658,5,0.0833633820399508,1
452,659,5,0.0793838531276403,1
452,660,5,0.0687340983442536,1
453,639,5,0.0779590472826162,1
453,640,5,0.12905552119288,1
453,641,5,0.150773308755767,2
453,642,5,0.113678737485682,1
453,643,5,0.0699478664324169,1
453,653,5,0.0980951867314879,1
453,654,5,0.146673762713658,1
453,655,5,0.15083850147128,1
453,656,5,0.11666927661147,1
453,657,5,0.0879424215828188,1
453,658,5,0.0755297501123203,1
454,641,5,0.0692462780493995,1
454,654,5,0.105730125829368,1
454,655,5,0.112243215932458,1
454,656,5,0.0894790984630907,1
454,657,5,0.0740537676262319,1
455,647,5,0.0744081526880962,1
455,648,5,0.0910341699436329,1
455,649,5,0.0852168461618669,1
455,655,5,0.0715382057105464,1
455,659,5,0.070731658493099,1
456,645,5,0.070753772743896,1
456,646,5,0.0760522861391422,1
456,647,5,0.104977845977094,1
456,648,5,0.154800713942894,1
456,649,5,0.15427948368711,1
456,650,5,0.0938577500697689,1
456,659,5,0.0730001002448812,1
456,660,5,0.0710616292304107,1
457,642,5,0.0741833803762307,1
457,643,5,0.0805477203969007,1
457,644,5,0.0941205514656837,1
457,645,5,0.106368312439719,1
457,646,5,0.103948982255698,1
457,647,5,0.121942099860002,1
457,648,5,0.17388748067938,1
457,649,5,0.178339249474433,1
457,650,5,0.108678065672473,1
457,659,5,0.0722983022197245,1
457,660,5,0.0746077439841571,1
457,661,5,0.069182439023128,1
457,679,5,0.0701951722793578,1
458,642,5,0.0683917766900559,1
458,643,5,0.0892712592462965,1
458,644,5,0.112381459948816,1
458,645,5,0.126080866951467,1
458,646,5,0.119260477410976,1
458,647,5,0.109182057354639,1
458,648,5,0.123212734875865,1
458,649,5,0.123171668975685,1
458,650,5,0.0854995396019032,1
458,660,5,0.0739902220989553,1
458,661,5,0.0699661592065052,1
458,676,5,0.06984509386601,1
458,677,5,0.0748673468400053,1
458,678,5,0.0724310236631588,1
458,679,5,0.0756950319748587,1
458,680,5,0.0698305327219993,1
459,643,5,0.0833855681680526,1
459,644,5,0.103649110139798,1
459,645,5,0.120489195978551,1
459,646,5,0.128583814400148,1
459,647,5,0.111090831062649,1
459,648,5,0.0942871510788113,1
459,649,5,0.082787135697068,1
459,650,5,0.0697613088876383,1
459,677,5,0.0723427583327839,1
459,678,5,0.0741478011103223,1
459,679,5,0.0769187371004197,1
459,680,5,0.0731319771299833,1
460,643,5,0.0736748843829592,1
460,644,5,0.0970988954087461,1
460,645,5,0.126347184345545,1
460,646,5,0.151354376867852,1
460,647,5,0.132390256772567,1
460,648,5,0.0988248012736275,1
460,649,5,0.0746630595600266,1
460,678,5,0.0776850150578162,1
460,679,5,0.0945896407265626,1
460,680,5,0.0994995075446253,1
461,643,5,0.0699231586088694,1
461,644,5,0.092695116694242,1
461,645,5,0.11969604189891,1
461,646,5,0.140230453494042,1
461,647,5,0.122782561185795,1
461,648,5,0.0896196365634291,1
461,678,5,0.110927406030487,1
461,679,5,0.207421370061933,3
461,680,5,0.245651351178328,3
461,681,5,0.163717429038891,1
462,643,5,0.0741526049101975,1
462,644,5,0.0837963349858085,1
462,645,5,0.0900371778171687,1
462,646,5,0.0941785863995872,1
462,647,5,0.0838143821791052,1
462,678,5,0.178402309829902,3
462,679,5,0.407515615584073,3
462,680,5,0.474615140158828,3
462,681,5,0.281886497493686,3
462,682,5,0.102860687982728,1
463,642,5,0.102662246723545,1
463,643,5,0.0989600024840797,1
463,644,5,0.0834532286710327,1
463,645,5,0.074147279999862,1
463,678,5,0.186470034159929,3
463,679,5,0.423579666121294,3
463,680,5,0.478907461132587,3
463,681,5,0.27010125499691,3
463,682,5,0.0948022478045796,1
464,641,5,0.130878964560464,1
464,642,5,0.170138827660074,1
464,643,5,0.14299438743669,1
464,644,5,0.0940565626950271,1
464,645,5,0.0711082596319422,1
464,678,5,0.0985071395247741,1
464,679,5,0.209533604460916,3
464,680,5,0.231076430684211,3
464,681,5,0.136883450854324,1
465,640,5,0.0978566499157406,1
465,641,5,0.159675780165851,1
465,642,5,0.200333405274529,1
465,643,5,0.157684802780176,1
465,644,5,0.0944989974553517,1
466,640,5,0.103259271597309,1
466,641,5,0.138416893255877,1
466,642,5,0.153795473895696,1
466,643,5,0.116611607053866,1
466,644,5,0.0741350368989332,1
467,639,5,0.073330915540525,1
467,640,5,0.107088439177616,1
467,641,5,0.122449901039327,1
467,642,5,0.11294288159757,1
467,643,5,0.0814403227175985,1
468,640,5,0.0877335581144302,1
468,641,5,0.102409274549071,1
468,642,5,0.0903810508231964,1
469,641,5,0.0678592377383068,1
477,697,5,0.0991076264887227,1
478,697,5,0.0774055980249267,1
478,698,5,0.0990792828715041,1
501,700,5,0.0683377968341018,1
502,699,5,0.0702172865301547,1
445,647,6,0.0707488311791865,1
446,646,6,0.0694404905271462,1
446,647,6,0.0795494883869276,1
446,648,6,0.069322779460878,1
447,647,6,0.0755017359327489,1
447,648,6,0.0728023418200944,1
447,649,6,0.0829913211508649,1
447,650,6,0.0853886628693727,1
448,647,6,0.0737619158196006,1
448,648,6,0.0701834742479909,1
448,649,6,0.0784298556090365,1
448,650,6,0.082028237142971,1
449,640,6,0.07006830883627,1
449,641,6,0.0891128955743514,1
449,642,6,0.0842545348350004,1
449,646,6,0.0687787461301259,1
449,647,6,0.0772477614532173,1
449,648,6,0.0685130516726903,1
450,639,6,0.0764042153930903,1
450,640,6,0.13957539967615,1
450,641,6,0.20190167223029,1
450,642,6,0.175010264079135,1
450,643,6,0.0986199509547606,1
450,647,6,0.0759023201323156,1
450,648,6,0.0681296042205587,1
450,654,6,0.0772562849036192,1
450,655,6,0.0712587766981061,1
450,656,6,0.0679118219765914,1
450,657,6,0.0708547124390289,1
451,639,6,0.101171559338836,1
451,640,6,0.212869669770744,1
451,641,6,0.307919978133965,2
451,642,6,0.254458836730031,1
451,643,6,0.128966285518889,1
451,653,6,0.0992484760573822,1
451,654,6,0.117263713902259,1
451,655,6,0.106892789153772,1
451,656,6,0.0860604161810955,1
451,657,6,0.0767188223564869,1
451,658,6,0.0747246284614193,1
451,659,6,0.0751315079149371,1
451,660,6,0.0712961469068608,1
452,639,6,0.0841643707458219,1
452,640,6,0.165296573426788,1
452,641,6,0.230472924873458,2
452,642,6,0.187265811761197,1
452,643,6,0.0987909889914637,1
452,649,6,0.0720100622476627,1
452,652,6,0.0700838163647948,1
452,653,6,0.108996829540001,1
452,654,6,0.143996393005169,1
452,655,6,0.145667516384192,1
452,656,6,0.115257498527953,1
452,657,6,0.0939647274585105,1
452,658,6,0.0828608099345552,1
452,659,6,0.0761753820134999,1
453,640,6,0.0871388273246462,1
453,641,6,0.110303415187847,1
453,642,6,0.0948470273655109,1
453,653,6,0.0927284677636996,1
453,654,6,0.135788687623916,1
453,655,6,0.151690786613724,1
453,656,6,0.123698469722596,1
453,657,6,0.0983016123612864,1
453,658,6,0.0809059389150245,1
454,654,6,0.0936604468679129,1
454,655,6,0.112985840266778,1
454,656,6,0.0999017209631022,1
454,657,6,0.0866419215467843,1
455,647,6,0.0683023972614555,1
455,648,6,0.0780689476817557,1
455,649,6,0.0740956900642947,1
455,655,6,0.0737899180196212,1
455,656,6,0.0732012069541197,1
456,644,6,0.0678414301360264,1
456,645,6,0.0689856150033044,1
456,646,6,0.071560727266071,1
456,647,6,0.091465547578559,1
456,648,6,0.124403370451412,1
456,649,6,0.125163341175307,1
456,650,6,0.0831756085707648,1
457,642,6,0.0681138870498947,1
457,643,6,0.0804749266563981,1
457,644,6,0.0947073278337292,1
457,645,6,0.0993220903971154,1
457,646,6,0.0954148700534997,1
457,647,6,0.108427788896931,1
457,648,6,0.143647500567352,1
457,649,6,0.14685180279781,1
457,650,6,0.0963534558799852,1
457,659,6,0.0692916026798926,1
457,660,6,0.073148341196391,1
457,677,6,0.0692317109156134,1
458,643,6,0.0842486408960014,1
458,644,6,0.105951807417125,1
458,645,6,0.115045053173872,1
458,646,6,0.110780273187427,1
458,647,6,0.103783436843041,1
458,648,6,0.110423618000684,1
458,649,6,0.108593909328026,1
458,650,6,0.0813527342318444,1
458,659,6,0.0696366017636966,1
458,660,6,0.0806381540259724,1
458,661,6,0.0720084809469557,1
458,677,6,0.0761067871055565,1
458,678,6,0.0733819424372042,1
458,679,6,0.0766863338146877,1
459,643,6,0.0788316497432351,1
459,644,6,0.0978949006214799,1
459,645,6,0.112689106793191,1
459,646,6,0.123488959358463,1
459,647,6,0.111086338731095,1
459,648,6,0.0938795229033678,1
459,649,6,0.0845120173103551,1
459,650,6,0.0781449938703034,1
459,651,6,0.0690676509672577,1
459,660,6,0.0693818326566005,1
459,677,6,0.0708170786801563,1
459,678,6,0.0723662442421487,1
459,679,6,0.076001450915276,1
460,643,6,0.0708919149340722,1
460,644,6,0.0912894242225367,1
460,645,6,0.116830437508529,1
460,646,6,0.14152007609794,1
460,647,6,0.127089533150196,1
460,648,6,0.0972338330690804,1
460,649,6,0.079751361787418,1
460,650,6,0.0769054098501425,1
460,651,6,0.0717410734137541,1
460,678,6,0.0754018983562906,1
460,679,6,0.0941367238592784,1
460,680,6,0.0987953016297556,1
461,644,6,0.0856855940055478,1
461,645,6,0.107663313861931,1
461,646,6,0.125455378664976,1
461,647,6,0.11288600269032,1
461,648,6,0.0877182662178201,1
461,649,6,0.070872885417609,1
461,678,6,0.104707048231013,1
461,679,6,0.190072344986529,3
461,680,6,0.229265793456443,3
461,681,6,0.161243747632841,1
462,643,6,0.0724443868520884,1
462,644,6,0.0795961846759886,1
462,645,6,0.0845064647885542,1
462,646,6,0.0876635376399403,1
462,647,6,0.0818350908452464,1
462,648,6,0.0703394360199984,1
462,678,6,0.158865447410347,3
462,679,6,0.351968858343058,3
462,680,6,0.424554322375271,3
462,681,6,0.271694702968475,3
462,682,6,0.108613507873152,1
463,642,6,0.103174528254873,1
463,643,6,0.103906095463795,1
463,644,6,0.0876021544215851,1
463,645,6,0.0762953272659943,1
463,646,6,0.0688379730293351,1
463,678,6,0.162235235155707,3
463,679,6,0.360584455449871,3
463,680,6,0.42738355684939,3
463,681,6,0.262617653564424,3
464,641,6,0.124687022255514,1
464,642,6,0.17726330611835,1
464,643,6,0.158846172313092,1
464,644,6,0.106200239341842,1
464,645,6,0.0768789230632996,1
464,678,6,0.0895920356783608,1
464,679,6,0.183313937641934,3
464,680,6,0.213815527184572,3
464,681,6,0.139099751611202,1
464,682,6,0.0699860632301776,1
465,640,6,0.084725169457934,1
465,641,6,0.155926228680233,1
465,642,6,0.211717428655546,1
465,643,6,0.174983956985554,1
465,644,6,0.10546365270113,1
465,645,6,0.0706767202730801,1
465,680,6,0.0685369628561089,1
466,640,6,0.0903602483332132,1
466,641,6,0.132951522687161,1
466,642,6,0.155180621437761,1
466,643,6,0.119426454087461,1
466,644,6,0.0776050096277254,1
467,640,6,0.103445050471285,1
467,641,6,0.123799349519975,1
467,642,6,0.113121975882193,1
467,643,6,0.0780625326322964,1
468,640,6,0.0880402106560884,1
468,641,6,0.104328793914158,1
468,642,6,0.091586948346477,1
477,697,6,0.0865424553364011,1
478,697,6,0.0725175399791153,1
478,698,6,0.0905584679707063,1
446,647,7,0.0679399799107725,1
447,649,7,0.0717728970904834,1
447,650,7,0.0735081529947727,1
448,647,7,0.0681827694670576,1
448,649,7,0.069191243992974,1
448,650,7,0.0711570164037427,1
449,641,7,0.0710474873706784,1
449,642,7,0.0726237087481772,1
449,647,7,0.0771872886807237,1
449,648,7,0.0708569106866027,1
450,640,7,0.0951347582066632,1
450,641,7,0.140194215352839,1
450,642,7,0.135365857398494,1
450,643,7,0.0868440465178417,1
450,647,7,0.0802383005790052,1
450,648,7,0.0736363940862037,1
451,639,7,0.0697861125475924,1
451,640,7,0.133991958654641,1
451,641,7,0.205924069965177,1
451,642,7,0.192389238031566,1
451,643,7,0.111871538388998,1
451,648,7,0.068151694512254,1
451,654,7,0.0968165853143357,1
451,655,7,0.0978878087273999,1
451,656,7,0.0912906880651473,1
451,657,7,0.0836320174771104,1
452,640,7,0.102925557250369,1
452,641,7,0.153892747848281,1
452,642,7,0.143885953526243,1
452,643,7,0.0884852629482652,1
452,649,7,0.0703356145432897,1
452,653,7,0.0962601830973713,1
452,654,7,0.123262521889035,1
452,655,7,0.134478711763191,1
452,656,7,0.122409014832409,1
452,657,7,0.104620675669666,1
452,658,7,0.085599251393078,1
453,641,7,0.0844851052494583,1
453,642,7,0.0819115862669496,1
453,653,7,0.0832169200517363,1
453,654,7,0.11376453502859,1
453,655,7,0.137571759905268,1
453,656,7,0.132702575641759,1
453,657,7,0.112258477880191,1
453,658,7,0.0862039910975645,1
454,654,7,0.0823196397164469,1
454,655,7,0.107940233158477,1
454,656,7,0.112019677514326,1
454,657,7,0.0988732525668823,1
454,658,7,0.0774823450171969,1
455,655,7,0.0751391089399267,1
455,656,7,0.0800567085580378,1
455,657,7,0.0757547200867741,1
456,644,7,0.0679261854580137,1
456,646,7,0.069557973981949,1
456,647,7,0.07924698076985,1
456,648,7,0.095182101391468,1
456,649,7,0.0968044919577921,1
456,650,7,0.075902961038284,1
457,643,7,0.0759881296547743,1
457,644,7,0.0893214355948681,1
457,645,7,0.0905852901849719,1
457,646,7,0.0886643272840116,1
457,647,7,0.0953517018820737,1
457,648,7,0.113214673646368,1
457,649,7,0.112511617768376,1
457,650,7,0.0839989451286738,1
457,660,7,0.0679813992077013,1
458,643,7,0.0783134443240313,1
458,644,7,0.0983987784979138,1
458,645,7,0.107095315439782,1
458,646,7,0.10614083274937,1
458,647,7,0.100886553845493,1
458,648,7,0.100432762471,1
458,649,7,0.0927446581266206,1
458,650,7,0.0751590069738236,1
458,660,7,0.0745634436052583,1
458,661,7,0.0679628548630459,1
458,677,7,0.071978304458463,1
458,678,7,0.0738952302508,1
459,643,7,0.0754203947827427,1
459,644,7,0.09419088939827,1
459,645,7,0.108792314648556,1
459,646,7,0.1167221663283,1
459,647,7,0.108252899434642,1
459,648,7,0.0918130863271349,1
459,649,7,0.0839793645528733,1
459,650,7,0.085011965894123,1
459,651,7,0.076621117140073,1
459,660,7,0.0701096622456693,1
459,661,7,0.0701554600684195,1
459,662,7,0.0720966744000258,1
460,643,7,0.071566207910567,1
460,644,7,0.0881404794963759,1
460,645,7,0.106828554802324,1
460,646,7,0.12230400209,1
460,647,7,0.115689984271329,1
460,648,7,0.0929770554225772,1
460,649,7,0.0856628807772103,1
460,650,7,0.0961804591867246,1
460,651,7,0.0912974744806817,1
460,662,7,0.0751041645902112,1
460,663,7,0.0742811814290512,1
460,679,7,0.0910948164196132,1
460,680,7,0.0979387817161004,1
461,644,7,0.0807013102178477,1
461,645,7,0.0939335746366267,1
461,646,7,0.104366074276282,1
461,647,7,0.10160666860384,1
461,648,7,0.0862912980638746,1
461,649,7,0.0798847121572698,1
461,650,7,0.0869144383584067,1
461,651,7,0.0840836764915595,1
461,678,7,0.093734444553272,1
461,679,7,0.164415968626227,1
461,680,7,0.201803847218367,3
461,681,7,0.151294503072899,1
462,644,7,0.0791219801469134,1
462,645,7,0.0803075483724678,1
462,646,7,0.0813262654143276,1
462,647,7,0.0807745052733024,1
462,648,7,0.0738213882996015,1
462,678,7,0.131235787460918,1
462,679,7,0.275964957609641,3
462,680,7,0.34491719159461,3
462,681,7,0.241191412329622,3
463,642,7,0.102253049226945,1
463,643,7,0.1119003731678,1
463,644,7,0.0949014444750695,1
463,645,7,0.076900659958246,1
463,646,7,0.0694366510811113,1
463,678,7,0.130202694958085,1
463,679,7,0.275953696831878,3
463,680,7,0.342561077500219,3
463,681,7,0.233325711144471,3
463,682,7,0.104014270807617,1
464,641,7,0.107909805099417,1
464,642,7,0.173714735556687,1
464,643,7,0.176091418539821,1
464,644,7,0.121809929475905,1
464,645,7,0.0783934856927745,1
464,678,7,0.0790362904199628,1
464,679,7,0.14995523721044,1
464,680,7,0.183356177538093,3
464,681,7,0.133693775655406,1
465,640,7,0.0723319168393,1
465,641,7,0.134951520674596,1
465,642,7,0.205957540830143,1
465,643,7,0.192280319955593,1
465,644,7,0.119959699832708,1
465,645,7,0.0713125109732685,1
465,680,7,0.0699255125906037,1
466,641,7,0.117751868618254,1
466,642,7,0.147060366777428,1
466,643,7,0.124706477046031,1
466,644,7,0.0823420414764633,1
467,640,7,0.0940931901716315,1
467,641,7,0.113747200618566,1
467,642,7,0.103687025418115,1
467,643,7,0.0748056461635536,1
468,640,7,0.0827571269222866,1
468,641,7,0.0967399880664507,1
468,642,7,0.08405332629958,1
478,697,7,0.069175880219059,1
449,647,8,0.076257651578694,1
449,648,8,0.0722294078230109,1
450,641,8,0.102861131226108,1
450,642,8,0.106137466495592,1
450,643,8,0.075636493899821,1
450,647,8,0.0823026287542954,1
450,648,8,0.0775420451086632,1
450,656,8,0.0722162482864451,1
450,657,8,0.0764940500446214,1
451,640,8,0.0923664457381933,1
451,641,8,0.143917256092512,1
451,642,8,0.144182231776899,1
451,643,8,0.0929423027456747,1
451,655,8,0.0847834140339767,1
451,656,8,0.0962238431299864,1
451,657,8,0.0966638340619456,1
451,658,8,0.0822382566380129,1
452,640,8,0.0770372208477152,1
452,641,8,0.115636531515611,1
452,642,8,0.113777353147958,1
452,643,8,0.0758052678014208,1
452,654,8,0.0958079370849325,1
452,655,8,0.115313538866646,1
452,656,8,0.129996970132009,1
452,657,8,0.122397167056657,1
452,658,8,0.0945158886219951,1
452,659,8,0.0724951921270775,1
453,641,8,0.0736258101530622,1
453,642,8,0.0725657456915785,1
453,654,8,0.0918323973630421,1
453,655,8,0.124319465677533,1
453,656,8,0.148348048694095,1
453,657,8,0.134970616078589,1
453,658,8,0.095724906818262,1
453,659,8,0.0679413635488911,1
454,654,8,0.0750635539129621,1
454,655,8,0.106751011169925,1
454,656,8,0.129622609169167,1
454,657,8,0.116442599551026,1
454,658,8,0.0816315043689901,1
455,655,8,0.0789585850636277,1
455,656,8,0.0883726791297441,1
455,657,8,0.0807483239650051,1
456,647,8,0.071865870384327,1
456,648,8,0.0787662473855828,1
456,649,8,0.0801414519004743,1
456,650,8,0.0711412033966723,1
457,644,8,0.077538852558372,1
457,645,8,0.079417012524285,1
457,646,8,0.0791218783207315,1
457,647,8,0.0862910345137567,1
457,648,8,0.0963480231536925,1
457,649,8,0.0917024731447222,1
457,650,8,0.0737835089599373,1
458,643,8,0.069642591539102,1
458,644,8,0.0905233678868302,1
458,645,8,0.10181673002731,1
458,646,8,0.100072525398564,1
458,647,8,0.0979252388339086,1
458,648,8,0.0967622939900606,1
458,649,8,0.083101497079673,1
459,643,8,0.0704864191186731,1
459,644,8,0.0950459537965017,1
459,645,8,0.11235655446268,1
459,646,8,0.112688447917897,1
459,647,8,0.102271905039922,1
459,648,8,0.0889624683548186,1
459,649,8,0.0799111989441128,1
459,650,8,0.0821762265239139,1
459,651,8,0.0747347332125284,1
459,661,8,0.0687998481088794,1
459,662,8,0.0838996106933496,1
459,663,8,0.0908388553472115,1
459,664,8,0.0752148736090304,1
460,643,8,0.0701323455251298,1
460,644,8,0.0890356154920701,1
460,645,8,0.104115833439392,1
460,646,8,0.110977612327935,1
460,647,8,0.104628689989159,1
460,648,8,0.0897684046151747,1
460,649,8,0.0883947694214395,1
460,650,8,0.10620406081855,1
460,651,8,0.100961018733334,1
460,652,8,0.0700320287666391,1
460,662,8,0.0921852969606059,1
460,663,8,0.110570607089134,1
460,664,8,0.091716800687492,1
460,669,8,0.0787089491940542,1
461,644,8,0.0752140170711474,1
461,645,8,0.0823972073079477,1
461,646,8,0.0912390442216014,1
461,647,8,0.0948923939244318,1
461,648,8,0.0902495033757416,1
461,649,8,0.0914923098950706,1
461,650,8,0.104926729233784,1
461,651,8,0.0990274353755944,1
461,652,8,0.0712801422269774,1
461,663,8,0.0835806132245807,1
461,664,8,0.0743309265137935,1
461,669,8,0.0743606897077833,1
461,679,8,0.130253368458015,1
461,680,8,0.16661255104247,1
462,645,8,0.0715100238172637,1
462,646,8,0.0753177480016193,1
462,647,8,0.0802443622317156,1
462,648,8,0.0811658652187447,1
462,649,8,0.0771365852319164,1
462,650,8,0.074876589063456,1
462,678,8,0.097302607670286,1
462,679,8,0.200604298857017,1
462,680,8,0.266143834345621,3
462,681,8,0.20149130073771,1
463,642,8,0.0948609715626548,1
463,643,8,0.11200422389378,1
463,644,8,0.0941396049412485,1
463,645,8,0.0740010336435622,1
463,646,8,0.0700591684390013,1
463,647,8,0.069381071955124,1
463,678,8,0.0943285583961892,1
463,679,8,0.195441040580201,1
463,680,8,0.26071000593419,3
463,681,8,0.195178904049357,1
464,641,8,0.0899652525940998,1
464,642,8,0.159665022529222,1
464,643,8,0.181775703420056,1
464,644,8,0.127799309556193,1
464,645,8,0.0789120385189518,1
464,679,8,0.114656616238827,1
464,680,8,0.149763887845337,1
465,641,8,0.110592625503524,1
465,642,8,0.189212608563481,1
465,643,8,0.20007016662501,1
465,644,8,0.128546450181169,1
465,645,8,0.0723801165619878,1
466,641,8,0.0954586433321628,1
466,642,8,0.130008961662371,1
466,643,8,0.124921078719258,1
466,644,8,0.0849510918066773,1
467,641,8,0.0899103143740809,1
467,642,8,0.0854211214622949,1
467,643,8,0.0707162527907562,1
468,641,8,0.0771098348949556,1
468,642,8,0.0690887888846636,1
449,647,9,0.0709912793182735,1
449,648,9,0.0702466004909891,1
450,642,9,0.0824085219936886,1
450,647,9,0.0788110568953911,1
450,648,9,0.0774146785244414,1
450,656,9,0.0734076864918968,1
450,657,9,0.0857495288682257,1
451,641,9,0.111952208684158,1
451,642,9,0.109214306305422,1
451,643,9,0.07610381018718,1
451,655,9,0.072985191693897,1
451,656,9,0.0928063528132969,1
451,657,9,0.105588743170698,1
451,658,9,0.0904107541194321,1
452,641,9,0.1003363690154,1
452,642,9,0.0945667957231662,1
452,654,9,0.0736539620974679,1
452,655,9,0.0939936760430451,1
452,656,9,0.119606482777048,1
452,657,9,0.123245067683504,1
452,658,9,0.0959832638008259,1
452,659,9,0.0725785218825184,1
453,642,9,0.0693146752947544,1
453,654,9,0.0766821709207809,1
453,655,9,0.109150874583878,1
453,656,9,0.142999071441058,1
453,657,9,0.135452038287028,1
453,658,9,0.093631228743485,1
454,654,9,0.0706833988726572,1
454,655,9,0.10056653212513,1
454,656,9,0.128757733518821,1
454,657,9,0.11672792849224,1
454,658,9,0.078407837194646,1
455,655,9,0.0782523905433234,1
455,656,9,0.0880451282616963,1
455,657,9,0.080167417576857,1
456,647,9,0.0718126332605232,1
456,648,9,0.076853963669185,1
456,649,9,0.0739523607286174,1
456,656,9,0.0706830215168066,1
457,645,9,0.0686998188596081,1
457,646,9,0.0720803522620459,1
457,647,9,0.0860984512549202,1
457,648,9,0.0944967153509223,1
457,649,9,0.083519769086012,1
457,657,9,0.0709544601688561,1
458,644,9,0.0796800115827881,1
458,645,9,0.0916207007308868,1
458,646,9,0.0889912013074386,1
458,647,9,0.0951854736350212,1
458,648,9,0.0975172213230638,1
458,649,9,0.0796995502301607,1
458,662,9,0.0737473127471621,1
458,663,9,0.0724680404751646,1
459,644,9,0.0937171341023502,1
459,645,9,0.114549962297958,1
459,646,9,0.104948460138955,1
459,647,9,0.0938685077063971,1
459,648,9,0.0852418534741847,1
459,649,9,0.0740255857329492,1
459,650,9,0.0721968414141314,1
459,651,9,0.0678409389744431,1
459,662,9,0.0837143110014061,1
459,663,9,0.108023682709426,1
459,664,9,0.105203456857517,1
459,665,9,0.0754390529331307,1
460,644,9,0.0900792320302904,1
460,645,9,0.10890197545668,1
460,646,9,0.105277562358833,1
460,647,9,0.0953782126280183,1
460,648,9,0.0864393713016731,1
460,649,9,0.0862616307062913,1
460,650,9,0.0993397063265829,1
460,651,9,0.0957845050835463,1
460,652,9,0.0725368270559209,1
460,662,9,0.092172682493602,1
460,663,9,0.147119881185857,1
460,664,9,0.15531962016582,1
460,665,9,0.102532544126915,1
460,669,9,0.0822448573705097,1
461,644,9,0.0723124081408044,1
461,645,9,0.0815151949101668,1
461,646,9,0.0872200486791443,1
461,647,9,0.0925086310267683,1
461,648,9,0.0963305389992839,1
461,649,9,0.102908905674742,1
461,650,9,0.110387439757235,1
461,651,9,0.101071218621244,1
461,652,9,0.082018767308055,1
461,653,9,0.076475355955581,1
461,654,9,0.0684119442638461,1
461,662,9,0.0699969107134369,1
461,663,9,0.123582855077719,1
461,664,9,0.138346944658692,1
461,665,9,0.0927107500080503,1
461,669,9,0.0758131503458544,1
462,646,9,0.0699020626198913,1
462,647,9,0.0798222687486679,1
462,648,9,0.0907558430498671,1
462,649,9,0.0963283227823839,1
462,650,9,0.0891336321768051,1
462,651,9,0.0734337360251352,1
462,663,9,0.0703368664063494,1
462,664,9,0.0795570594630401,1
462,679,9,0.14019289760225,1
462,680,9,0.197370371197403,1
463,642,9,0.085714979843687,1
463,643,9,0.103446200508163,1
463,644,9,0.0874184180610225,1
463,645,9,0.0691582103816129,1
463,646,9,0.0680527973305344,1
463,647,9,0.0713470779671335,1
463,648,9,0.0714792423614551,1
463,649,9,0.0691512263034901,1
463,678,9,0.0703517869368844,1
463,679,9,0.137053883923711,1
463,680,9,0.194687694547905,1
464,641,9,0.0794812348961823,1
464,642,9,0.136080509481671,1
464,643,9,0.164810011991051,1
464,644,9,0.119076806937942,1
464,645,9,0.0752972210413047,1
464,646,9,0.0687042273343065,1
464,647,9,0.0679085395796692,1
464,679,9,0.0913425235815062,1
465,641,9,0.0930663210454449,1
465,642,9,0.159856922953663,1
465,643,9,0.182800038871246,1
465,644,9,0.122571277848143,1
465,645,9,0.0701335195211093,1
466,641,9,0.0778537230718865,1
466,642,9,0.109492267822888,1
466,643,9,0.116580232610292,1
466,644,9,0.08366857307641,1
467,642,9,0.070014640448637,1
467,643,9,0.068900458366365,1
450,648,10,0.0706595775358697,1
450,657,10,0.0860151574381318,1
451,642,10,0.0811108671009717,1
451,656,10,0.0819427390888335,1
451,657,10,0.104089969589191,1
451,658,10,0.0958640732600325,1
452,642,10,0.0788721166658744,1
452,655,10,0.0794870869067535,1
452,656,10,0.10395019219033,1
452,657,10,0.112379567179788,1
452,658,10,0.0916725422370211,1
453,654,10,0.0682221522403485,1
453,655,10,0.100466101560907,1
453,656,10,0.132808438932275,1
453,657,10,0.124472408602736,1
453,658,10,0.0849877132935063,1
454,655,10,0.0960689954562043,1
454,656,10,0.122772007201531,1
454,657,10,0.108669152886669,1
454,658,10,0.0709571855166656,1
455,655,10,0.0753709132481182,1
455,656,10,0.0849528108722186,1
455,657,10,0.0756391174214486,1
456,647,10,0.0753517579463715,1
456,648,10,0.0799078506596611,1
456,649,10,0.072351269803635,1
457,646,10,0.0741513171084853,1
457,647,10,0.0900444374249601,1
457,648,10,0.0972429914356754,1
457,649,10,0.0811521246739645,1
458,644,10,0.0699655662187401,1
458,645,10,0.0833298572670064,1
458,646,10,0.0832981773448869,1
458,647,10,0.0934021378035522,1
458,648,10,0.0989072864707362,1
458,649,10,0.0801091071132848,1
458,662,10,0.0737250008337767,1
458,663,10,0.0724199845070865,1
459,644,10,0.0904353601167977,1
459,645,10,0.121600359214019,1
459,646,10,0.108619329934847,1
459,647,10,0.0926130268223101,1
459,648,10,0.0854870449304074,1
459,649,10,0.0745891217724215,1
459,662,10,0.081921223815577,1
459,663,10,0.118648921342078,1
459,664,10,0.126521498789395,1
459,665,10,0.0828000556426176,1
460,644,10,0.0929611585586511,1
460,645,10,0.129199467475424,1
460,646,10,0.119698413849971,1
460,647,10,0.0979700183948399,1
460,648,10,0.0872363049295947,1
460,649,10,0.0874139017703668,1
460,650,10,0.0885631360183117,1
460,651,10,0.0829546757049343,1
460,652,10,0.0699273394721024,1
460,662,10,0.0943666952961958,1
460,663,10,0.181236228308388,1
460,664,10,0.211384181511087,1
460,665,10,0.126531369939263,1
460,669,10,0.0764455927615912,1
461,644,10,0.0710826892807363,1
461,645,10,0.0920898558792952,1
461,646,10,0.0948757543283555,1
461,647,10,0.096160064001469,1
461,648,10,0.10151168274546,1
461,649,10,0.111811496880333,1
461,650,10,0.105900666714713,1
461,651,10,0.0923929504943625,1
461,652,10,0.0844540842026334,1
461,653,10,0.0921455727701168,1
461,654,10,0.0924988617030819,1
461,655,10,0.0734662904544639,1
461,662,10,0.0800286704193648,1
461,663,10,0.162791122251987,1
461,664,10,0.194721920124572,1
461,665,10,0.115528320233135,1
462,647,10,0.08049866413633,1
462,648,10,0.096610333388024,1
462,649,10,0.110589942084143,1
462,650,10,0.095988612670263,1
462,651,10,0.0753446960011684,1
462,652,10,0.0735885657295911,1
462,653,10,0.093209572514042,1
462,654,10,0.10045633223722,1
462,655,10,0.0812026723886113,1
462,663,10,0.0869438241965459,1
462,664,10,0.102845581769155,1
463,643,10,0.0879518135506545,1
463,647,10,0.0735118666555241,1
463,648,10,0.0747183691461206,1
463,649,10,0.0780907145255791,1
463,654,10,0.0748759062290597,1
464,642,10,0.109081656739293,1
464,643,10,0.131102742569612,1
464,644,10,0.101438152262583,1
464,645,10,0.070030417517055,1
464,646,10,0.0683342628666126,1
464,647,10,0.0724293644953715,1
464,673,10,0.0715801700770371,1
464,674,10,0.0706958216668481,1
465,641,10,0.0789826519812069,1
465,642,10,0.125963563189926,1
465,643,10,0.145838440615162,1
465,644,10,0.104791851471204,1
465,673,10,0.0743439243264234,1
465,674,10,0.0754525898255471,1
466,642,10,0.0932222528685753,1
466,643,10,0.102888169072288,1
466,644,10,0.0785799294318204,1
467,643,10,0.0690925684329444,1
472,647,10,0.0725326222335863,1
476,692,10,0.0686090318337875,1
476,693,10,0.081917042952344,1
477,693,10,0.0761215938303588,1
501,666,10,0.0755948889198547,1
501,667,10,0.0741021949603851,1
502,667,10,0.0704493903271165,1
451,657,11,0.091719208577205,1
452,655,11,0.0718166643793711,1
452,656,11,0.0873342976552281,1
452,657,11,0.0913351262088804,1
453,655,11,0.0909760032346704,1
453,656,11,0.110613074596759,1
453,657,11,0.0988326418896333,1
454,654,11,0.0678040838863733,1
454,655,11,0.0906521780069248,1
454,656,11,0.106350462909011,1
454,657,11,0.0904677827710675,1
455,648,11,0.0679970145521833,1
455,655,11,0.0723115096744936,1
455,656,11,0.0791896346601181,1
456,645,11,0.0712109603210443,1
456,646,11,0.0741871060165329,1
456,647,11,0.0756326544537862,1
456,648,11,0.0783810569088082,1
456,649,11,0.0704761766027297,1
457,645,11,0.0713553198980914,1
457,646,11,0.0797209636772352,1
457,647,11,0.0872657326961618,1
457,648,11,0.089147516476195,1
457,649,11,0.0739371706581891,1
458,645,11,0.0786151013930013,1
458,646,11,0.0825660351175261,1
458,647,11,0.0893520673062916,1
458,648,11,0.0931737117286894,1
458,649,11,0.0780435929624643,1
458,663,11,0.0680965406603205,1
459,644,11,0.0822874925918458,1
459,645,11,0.117146793486344,1
459,646,11,0.109365500216207,1
459,647,11,0.0936051552511451,1
459,648,11,0.0896122451805788,1
459,649,11,0.081595619624536,1
459,650,11,0.069176011994118,1
459,662,11,0.0769723695494002,1
459,663,11,0.118842271292166,1
459,664,11,0.130766907842178,1
459,665,11,0.0843956239946761,1
460,644,11,0.0913708971476019,1
460,645,11,0.138231581584383,1
460,646,11,0.130348258479989,1
460,647,11,0.101917442110977,1
460,648,11,0.0913460096307922,1
460,649,11,0.0911271851659043,1
460,650,11,0.0824081745867151,1
460,651,11,0.0727334534131561,1
460,662,11,0.0943668510303564,1
460,663,11,0.193916235434783,1
460,664,11,0.230127674219087,1
460,665,11,0.135795132622253,1
461,644,11,0.0694434674455228,1
461,645,11,0.0977411011583938,1
461,646,11,0.0980298802102421,1
461,647,11,0.092580466403206,1
461,648,11,0.097474783764316,1
461,649,11,0.107437235779027,1
461,650,11,0.0954828360350255,1
461,651,11,0.0804344896826358,1
461,652,11,0.07678113399003,1
461,653,11,0.092341061070025,1
461,654,11,0.107525393293445,1
461,655,11,0.0962974395003933,1
461,662,11,0.0849126254690234,1
461,663,11,0.17808274333247,1
461,664,11,0.213617145823143,1
461,665,11,0.124232458199993,1
462,647,11,0.0775791278081984,1
462,648,11,0.0918588182623556,1
462,649,11,0.105849873419274,1
462,650,11,0.0914851281543595,1
462,651,11,0.0722351460278493,1
462,652,11,0.0737763751374294,1
462,653,11,0.107327802582369,1
462,654,11,0.137751489106084,1
462,655,11,0.124337578758359,1
462,656,11,0.0765563856372661,1
462,663,11,0.0929574748467768,1
462,664,11,0.110702969146044,1
462,665,11,0.0710386943803831,1
463,647,11,0.0714819856785908,1
463,648,11,0.0734392406287328,1
463,649,11,0.0777900038411232,1
463,653,11,0.0839231565004684,1
463,654,11,0.109196384897409,1
463,655,11,0.100012196380681,1
463,664,11,0.0707733533196964,1
464,642,11,0.0873184487095053,1
464,643,11,0.0994204065706207,1
464,647,11,0.070510246445236,1
464,664,11,0.0850945169787611,1
464,665,11,0.0697850703266718,1
464,673,11,0.0874670909759673,1
464,674,11,0.0867516542322124,1
465,641,11,0.0679315343274508,1
465,642,11,0.0968868154309648,1
465,643,11,0.109448758094343,1
465,644,11,0.087044560239315,1
465,664,11,0.0715341626121478,1
465,673,11,0.0933066847426907,1
465,674,11,0.0945927913484259,1
466,642,11,0.0830885651545726,1
466,643,11,0.0907532195282395,1
466,644,11,0.0744693921518417,1
467,643,11,0.0686740328764876,1
470,646,11,0.0747279048685661,1
470,647,11,0.0845830320875623,1
470,648,11,0.0697406920806927,1
471,646,11,0.0766944619399129,1
471,647,11,0.0869421889878602,1
471,648,11,0.0719782026322811,1
472,646,11,0.0749034591959249,1
472,647,11,0.086135408169172,1
472,648,11,0.0765560262507418,1
473,647,11,0.0777670989399727,1
473,648,11,0.0760359460318361,1
473,649,11,0.0680222195270895,1
476,692,11,0.0711781663006994,1
477,693,11,0.0787948845017964,1
501,666,11,0.0794216066820209,1
501,667,11,0.0848855097557628,1
502,667,11,0.076102228886473,1
452,655,12,0.0685751776231958,1
452,656,12,0.0757267478356306,1
453,655,12,0.0849534757372886,1
453,656,12,0.0897960953468741,1
453,657,12,0.0759274711992431,1
454,654,12,0.0716242967524492,1
454,655,12,0.0884871018093147,1
454,656,12,0.0898859299984053,1
454,657,12,0.0734075607066133,1
455,655,12,0.0712362791016832,1
455,656,12,0.0723451662224969,1
456,645,12,0.0736882595514396,1
456,646,12,0.0741842069652367,1
456,647,12,0.0713356255165582,1
456,648,12,0.0724357316266275,1
457,645,12,0.0703934817634819,1
457,646,12,0.0769146161349407,1
457,647,12,0.0772045272543406,1
457,648,12,0.0755246827623272,1
458,645,12,0.0705055205124411,1
458,646,12,0.0762868038155924,1
458,647,12,0.0806903369493048,1
458,648,12,0.0866937450835923,1
458,649,12,0.0796587059516708,1
459,644,12,0.06855913700466,1
459,645,12,0.0985448331814007,1
459,646,12,0.0985713379375699,1
459,647,12,0.0934548538168957,1
459,648,12,0.103581401718615,1
459,649,12,0.101301405690076,1
459,650,12,0.0805936440049344,1
459,662,12,0.0734708786224245,1
459,663,12,0.106804176416424,1
459,664,12,0.113560295666814,1
459,665,12,0.0770153461879344,1
460,644,12,0.0788399276128454,1
460,645,12,0.121815631742091,1
460,646,12,0.12017068368159,1
460,647,12,0.100714443638993,1
460,648,12,0.104135791371043,1
460,649,12,0.106328456474171,1
460,650,12,0.0886477655550155,1
460,651,12,0.0685560702396524,1
460,662,12,0.092444498501502,1
460,663,12,0.173087905560505,1
460,664,12,0.197802617349763,1
460,665,12,0.123465048175045,1
461,645,12,0.0882311646960146,1
461,646,12,0.0882176877013523,1
461,647,12,0.0815371114983754,1
461,648,12,0.0913565456457304,1
461,649,12,0.100546011154591,1
461,650,12,0.0892516846602714,1
461,651,12,0.0713449456070891,1
461,653,12,0.0815944456285565,1
461,654,12,0.103169568720837,1
461,655,12,0.10169338857216,1
461,662,12,0.0830348907771642,1
461,663,12,0.161109229256785,1
461,664,12,0.188181336952372,1
461,665,12,0.117744620990013,1
462,648,12,0.0783714792579349,1
462,649,12,0.0886812663688582,1
462,650,12,0.0803816598635596,1
462,652,12,0.0684819228099081,1
462,653,12,0.105221042838107,1
462,654,12,0.146252154402418,1
462,655,12,0.140555901950923,1
462,656,12,0.0846243076298813,1
462,663,12,0.0883103854655273,1
462,664,12,0.103928760773929,1
462,665,12,0.0728580826700176,1
463,648,12,0.0678010350906919,1
463,649,12,0.0709261165516374,1
463,653,12,0.0894536778562699,1
463,654,12,0.121360001506548,1
463,655,12,0.112378405163359,1
463,664,12,0.0734320948266741,1
464,654,12,0.0745559623757768,1
464,663,12,0.0694730209973733,1
464,664,12,0.0968715175445793,1
464,665,12,0.0726631993374254,1
464,673,12,0.0875574527277341,1
464,674,12,0.088279196704991,1
465,642,12,0.0836062255042145,1
465,643,12,0.0975131542655635,1
465,664,12,0.0850345413576262,1
465,673,12,0.0932468109477377,1
465,674,12,0.0948102800933983,1
466,642,12,0.0783018660881726,1
466,643,12,0.0904267947379679,1
466,644,12,0.0789368122300288,1
467,643,12,0.0680353970329815,1
469,646,12,0.0799646277407296,1
469,647,12,0.083662235894031,1
470,645,12,0.0784241413632997,1
470,646,12,0.110097330975247,1
470,647,12,0.120111983882616,1
470,648,12,0.0908587054629052,1
471,645,12,0.0760772395434814,1
471,646,12,0.113320357243622,1
471,647,12,0.124521488822408,1
471,648,12,0.0940010734156709,1
472,646,12,0.0881605692030858,1
472,647,12,0.101270929712813,1
472,648,12,0.0915748729592596,1
472,649,12,0.0740242500130338,1
472,678,12,0.0778194795258935,1
472,679,12,0.0921283581556015,1
472,680,12,0.0805135966464158,1
473,646,12,0.0683458171433697,1
473,647,12,0.0863292193319666,1
473,648,12,0.099123511373098,1
473,649,12,0.0984147412493694,1
473,650,12,0.0706229261001636,1
473,678,12,0.0821738965012811,1
473,679,12,0.109256953506309,1
473,680,12,0.106311098105046,1
473,681,12,0.0724043991114815,1
474,647,12,0.072155517953609,1
474,648,12,0.0921633863621727,1
474,649,12,0.0984623839229445,1
474,650,12,0.0722706354471267,1
474,679,12,0.0782954330693871,1
474,680,12,0.0887419128448386,1
475,648,12,0.0741160672802241,1
475,649,12,0.0779427311344117,1
480,693,12,0.0695413703245251,1
480,694,12,0.0698872978235169,1
501,666,12,0.0740034774719276,1
501,667,12,0.0817361996533022,1
502,667,12,0.0705892096544063,1
453,655,13,0.0787054511652174,1
453,656,13,0.0772642812537855,1
454,654,13,0.069899325292531,1
454,655,13,0.0851001713267439,1
454,656,13,0.0838378620986946,1
455,655,13,0.0720413528343809,1
456,645,13,0.0683080995276415,1
456,646,13,0.068247051736709,1
456,648,13,0.068202703439607,1
457,646,13,0.0686018201441993,1
458,646,13,0.0692569458393966,1
458,647,13,0.071273799054823,1
458,648,13,0.0779322490274521,1
458,649,13,0.0746716069695302,1
459,645,13,0.0774403986200324,1
459,646,13,0.0818541622901374,1
459,647,13,0.0891587053766524,1
459,648,13,0.110995066533467,1
459,649,13,0.107997998552487,1
459,650,13,0.081075180019106,1
459,663,13,0.0843768280794538,1
459,664,13,0.0878088855299293,1
459,665,13,0.0686679592442264,1
460,645,13,0.0908556506774484,1
460,646,13,0.0934921401687947,1
460,647,13,0.0949059607657252,1
460,648,13,0.115044597950941,1
460,649,13,0.113202622218252,1
460,650,13,0.087041679157345,1
460,662,13,0.0810228233922868,1
460,663,13,0.126808217358503,1
460,664,13,0.141011580104669,1
460,665,13,0.102232096992577,1
461,645,13,0.0725415050705126,1
461,646,13,0.072134170394064,1
461,647,13,0.07198254521945,1
461,648,13,0.0865785916514223,1
461,649,13,0.0892792555964628,1
461,650,13,0.0775170976940994,1
461,653,13,0.0729090736280443,1
461,654,13,0.0937399311875434,1
461,655,13,0.0962684789363079,1
461,656,13,0.0684759450140534,1
461,662,13,0.0741297718863518,1
461,663,13,0.123066943742496,1
461,664,13,0.142594737642087,1
461,665,13,0.105281084346771,1
462,649,13,0.0708277344906027,1
462,653,13,0.093464401518892,1
462,654,13,0.128986710653022,1
462,655,13,0.127736368996232,1
462,656,13,0.0817902094581333,1
462,663,13,0.0795126392886332,1
462,664,13,0.0931777847759652,1
462,665,13,0.0749416619834609,1
463,653,13,0.0822952912794237,1
463,654,13,0.107513581456345,1
463,655,13,0.100524699533698,1
463,664,13,0.0726100041420495,1
464,653,13,0.0687845202736168,1
464,654,13,0.0766771814378681,1
464,663,13,0.0705987753257288,1
464,664,13,0.0947813135395375,1
464,665,13,0.0708720408592769,1
464,673,13,0.0748134388613561,1
464,674,13,0.0767365760507887,1
465,642,13,0.0766942283386721,1
465,643,13,0.0939529874987158,1
465,664,13,0.0942431262295811,1
465,665,13,0.0707573905682409,1
465,673,13,0.0782133971054338,1
465,674,13,0.0797688459418265,1
466,642,13,0.0761983767612815,1
466,643,13,0.0938229494746632,1
466,644,13,0.0854088783613661,1
467,643,13,0.0689155046821835,1
469,645,13,0.0735205458400866,1
469,646,13,0.0885053586447505,1
469,647,13,0.0875860419257444,1
469,648,13,0.0685685649111482,1
470,645,13,0.0893544093084752,1
470,646,13,0.126203896938295,1
470,647,13,0.130224078456283,1
470,648,13,0.0922954070018845,1
471,645,13,0.0852835722598838,1
471,646,13,0.132829942225981,1
471,647,13,0.145521497639358,1
471,648,13,0.10377293077698,1
472,646,13,0.100673820982193,1
472,647,13,0.124439129410583,1
472,648,13,0.110776260037905,1
472,649,13,0.0833922228085281,1
472,678,13,0.0953224837576458,1
472,679,13,0.115122057726484,1
472,680,13,0.0994480314147907,1
473,646,13,0.073614800945867,1
473,647,13,0.105921810621894,1
473,648,13,0.128029748195592,1
473,649,13,0.124259352291563,1
473,650,13,0.078726954458923,1
473,678,13,0.103771265619418,1
473,679,13,0.141590012715574,1
473,680,13,0.137729973832828,1
473,681,13,0.0905467040518099,1
474,647,13,0.0894048312378384,1
474,648,13,0.123441268766685,1
474,649,13,0.131968660440878,1
474,650,13,0.0872464815580086,1
474,679,13,0.100565525842862,1
474,680,13,0.116017852597473,1
474,681,13,0.0873933628305014,1
475,647,13,0.0730674732386419,1
475,648,13,0.0963036089690609,1
475,649,13,0.101662720922084,1
475,650,13,0.072811997338048,1
480,693,13,0.0854893090655107,1
480,694,13,0.0864802155801629,1
481,693,13,0.0692655291875526,1
481,694,13,0.0727909073388453,1
501,667,13,0.0697489579707523,1
454,655,14,0.0740925154833298,1
458,648,14,0.0709633549853332,1
458,649,14,0.0694112783924938,1
459,647,14,0.081678050913666,1
459,648,14,0.110300192688679,1
459,649,14,0.106056053468281,1
459,650,14,0.076917575083991,1
460,646,14,0.0681942638460607,1
460,647,14,0.087513457827381,1
460,648,14,0.118709394114571,1
460,649,14,0.112787782353221,1
460,650,14,0.0814437308998042,1
460,662,14,0.0717465899969026,1
460,663,14,0.0908942188412842,1
460,664,14,0.0945838725728472,1
460,665,14,0.0795232891093041,1
461,648,14,0.0813411260471086,1
461,649,14,0.0785474708388982,1
461,663,14,0.0913174384021081,1
461,664,14,0.101252672877377,1
461,665,14,0.0866271028424312,1
462,653,14,0.076838348324703,1
462,654,14,0.0984019530788787,1
462,655,14,0.0971226149193517,1
462,656,14,0.0690095082173968,1
462,663,14,0.0690787140824316,1
462,664,14,0.0788103800507703,1
462,665,14,0.0703502236055036,1
463,653,14,0.0700004027524983,1
463,654,14,0.0836832480261534,1
463,655,14,0.0778238939903673,1
464,654,14,0.0687140266068699,1
464,664,14,0.0835993013238458,1
465,663,14,0.0681881962035749,1
465,664,14,0.0963031717154563,1
465,665,14,0.0750464650837303,1
466,643,14,0.0819913401264734,1
466,664,14,0.0718194196760576,1
469,645,14,0.0706809969727196,1
469,646,14,0.0838160233775663,1
469,647,14,0.0802975035191128,1
470,645,14,0.0902855857827841,1
470,646,14,0.120514844196837,1
470,647,14,0.11698717795134,1
470,648,14,0.0787326088069057,1
471,645,14,0.0891943924585182,1
471,646,14,0.133994079035134,1
471,647,14,0.144496359558263,1
471,648,14,0.100681008712679,1
472,645,14,0.0710053253415993,1
472,646,14,0.11420224385612,1
472,647,14,0.149908948226106,1
472,648,14,0.134588528305474,1
472,649,14,0.0944425198630536,1
472,678,14,0.0949083926145398,1
472,679,14,0.118149374073262,1
472,680,14,0.102627853433167,1
473,646,14,0.0831266122079481,1
473,647,14,0.13832977796238,1
473,648,14,0.169926070837672,1
473,649,14,0.14758408877978,1
473,650,14,0.0782513243633012,1
473,678,14,0.107067978104831,1
473,679,14,0.151239001813991,1
473,680,14,0.146323516586599,1
473,681,14,0.0969285941144179,1
474,647,14,0.118756282076445,1
474,648,14,0.168335222428633,1
474,649,14,0.162779142701176,1
474,650,14,0.0934405741923291,1
474,678,14,0.0685018148540296,1
474,679,14,0.10857758120027,1
474,680,14,0.122721130049237,1
474,681,14,0.0933253788317312,1
475,647,14,0.0895095205323751,1
475,648,14,0.1207927577961,1
475,649,14,0.118827524465118,1
475,650,14,0.0768564733850799,1
480,693,14,0.0879197982011123,1
481,693,14,0.0709631932613972,1
481,694,14,0.0754466898967727,1
500,697,14,0.0686645031438175,1
500,698,14,0.0910766853694608,1
501,697,14,0.0743352810805133,1
459,647,15,0.0699239732183245,1
459,648,15,0.0946348934797509,1
459,649,15,0.0916998436333192,1
460,647,15,0.0740066580426679,1
460,648,15,0.102052116221193,1
460,649,15,0.0957981917203478,1
460,650,15,0.068183853616406,1
460,663,15,0.0721077255356488,1
460,664,15,0.0698154504675283,1
461,648,15,0.0696869158771025,1
461,663,15,0.0731470474049035,1
461,664,15,0.0750392533941422,1
465,664,15,0.0834910600924936,1
465,665,15,0.0696671316489382,1
466,670,15,0.0809397511971884,1
466,671,15,0.0795974844572516,1
467,670,15,0.0794791444645658,1
467,671,15,0.0784046566239057,1
469,646,15,0.071847493753383,1
469,647,15,0.0709272426294136,1
470,645,15,0.0788864142597673,1
470,646,15,0.101863881539301,1
470,647,15,0.0963659086230532,1
471,645,15,0.0864223723190724,1
471,646,15,0.121248711479515,1
471,647,15,0.124389342397413,1
471,648,15,0.0932623663944657,1
472,645,15,0.0804130223275826,1
472,646,15,0.119863635814755,1
472,647,15,0.153289110262469,1
472,648,15,0.150318553027434,1
472,649,15,0.103522713899192,1
472,678,15,0.0800157744329168,1
472,679,15,0.101094458949817,1
472,680,15,0.0899578552214741,1
473,646,15,0.0932599285558757,1
473,647,15,0.16383012067337,1
473,648,15,0.211597728983843,1
473,649,15,0.16439015269423,1
473,650,15,0.0782868856598835,1
473,678,15,0.0923562391609024,1
473,679,15,0.131472311712129,1
473,680,15,0.127344350175496,1
473,681,15,0.088600751807858,1
474,646,15,0.0709474760907333,1
474,647,15,0.146515980049927,1
474,648,15,0.212135874365371,1
474,649,15,0.179985898631149,1
474,650,15,0.0928585417264047,1
474,679,15,0.0988444237778558,1
474,680,15,0.108051307553596,1
474,681,15,0.0849897258580425,1
475,647,15,0.0996653105176239,1
475,648,15,0.13886440135597,1
475,649,15,0.123197221357565,1
475,650,15,0.073889941279117,1
475,656,15,0.0702436954499174,1
475,665,15,0.0703939489659635,1
475,666,15,0.0739865204177547,1
476,655,15,0.0739331575086674,1
476,656,15,0.0863545261330547,1
476,665,15,0.0678981053909129,1
476,666,15,0.0687473896558783,1
477,656,15,0.0695430893900664,1
499,697,15,0.0698091791726788,1
499,698,15,0.0819346828409131,1
500,697,15,0.0821582152692696,1
500,698,15,0.107000089990386,1
501,697,15,0.0787385925925358,1
459,648,16,0.0737777887244251,1
460,648,16,0.0769304890397652,1
460,649,16,0.0739996200565665,1
465,670,16,0.092597794823454,1
465,671,16,0.0917282591278427,1
466,669,16,0.0940797431258462,1
466,670,16,0.141254333722301,1
466,671,16,0.131194398112866,1
466,672,16,0.082634594086817,1
467,669,16,0.0934073668774812,1
467,670,16,0.138583229318887,1
467,671,16,0.126295193095025,1
468,670,16,0.0865338300598173,1
468,671,16,0.0828600192842017,1
470,646,16,0.083319363180496,1
470,647,16,0.0821323753781705,1
471,645,16,0.0766808831190687,1
471,646,16,0.101249570173717,1
471,647,16,0.103469009572907,1
471,648,16,0.0905976470916334,1
471,649,16,0.0698290891861266,1
472,645,16,0.0799592249633138,1
472,646,16,0.109587085967557,1
472,647,16,0.141745974487582,1
472,648,16,0.160170319982427,1
472,649,16,0.117410307665532,1
472,679,16,0.0743755263814626,1
472,680,16,0.068871533740932,1
473,646,16,0.0957709861604562,1
473,647,16,0.177635534721147,1
473,648,16,0.245532873420808,1
473,649,16,0.183461262157807,1
473,650,16,0.0866759853995151,1
473,678,16,0.0679857417948702,1
473,679,16,0.0941405153871101,1
473,680,16,0.0929572412455359,1
473,681,16,0.069079888078411,1
474,646,16,0.0763652519040777,1
474,647,16,0.16770011456284,1
474,648,16,0.246443846382674,1
474,649,16,0.190729854612338,1
474,650,16,0.0917200890741896,1
474,665,16,0.0862257759107142,1
474,666,16,0.099331686017315,1
474,679,16,0.0766251722180225,1
474,680,16,0.0818579298588675,1
475,647,16,0.100879581746921,1
475,648,16,0.143850434158089,1
475,649,16,0.115810199063717,1
475,655,16,0.0712793395970731,1
475,656,16,0.0961681022800631,1
475,657,16,0.0709651758770565,1
475,665,16,0.115433813556788,1
475,666,16,0.136194207398417,1
475,667,16,0.0869029739282806,1
476,655,16,0.0946982772830915,1
476,656,16,0.133717746736579,1
476,657,16,0.101537846084431,1
476,665,16,0.0956415471139441,1
476,666,16,0.110938295442174,1
476,667,16,0.0730832023888566,1
477,655,16,0.0743152752306591,1
477,656,16,0.105879954071361,1
477,657,16,0.0875436762443016,1
499,697,16,0.0750569412009145,1
499,698,16,0.0925187237983265,1
500,697,16,0.0841614657047503,1
465,670,17,0.134404306773104,1
465,671,17,0.135866554704188,1
466,669,17,0.139163015619034,1
466,670,17,0.218065943689594,1
466,671,17,0.205762513742941,1
466,672,17,0.122938259407685,1
467,669,17,0.139819495003473,1
467,670,17,0.2130891351416,1
467,671,17,0.195606490156451,1
467,672,17,0.113403519285352,1
468,669,17,0.0916710807318221,1
468,670,17,0.130886403861517,1
468,671,17,0.12307365229095,1
468,672,17,0.0808168529854191,1
470,647,17,0.0709730704010409,1
471,646,17,0.0766357321920623,1
471,647,17,0.0869526710948198,1
471,648,17,0.0867673714028763,1
471,649,17,0.0732416678869836,1
472,646,17,0.0871612230948872,1
472,647,17,0.119569070639865,1
472,648,17,0.150492244534641,1
472,649,17,0.123463131446915,1
472,650,17,0.0795614200195353,1
473,646,17,0.08512160873292,1
473,647,17,0.160845942689062,1
473,648,17,0.235680651242883,1
473,649,17,0.186431148537996,1
473,650,17,0.099283971466435,1
473,666,17,0.0692537113606776,1
474,646,17,0.0732337973221008,1
474,647,17,0.159292913721933,1
474,648,17,0.240215150815836,1
474,649,17,0.188085943789264,1
474,650,17,0.0953054248772911,1
474,664,17,0.0699380012723241,1
474,665,17,0.127321541110752,1
474,666,17,0.151553261370415,1
474,667,17,0.0886524675287088,1
475,647,17,0.0887824815936598,1
475,648,17,0.129786273792346,1
475,649,17,0.103309813322181,1
475,655,17,0.073955870737005,1
475,656,17,0.103878889903903,1
475,657,17,0.0830161607494714,1
475,664,17,0.0819608102412317,1
475,665,17,0.157995420553152,1
475,666,17,0.193195042516863,1
475,667,17,0.111750652741765,1
476,655,17,0.0953007528524748,1
476,656,17,0.150714968343318,1
476,657,17,0.130329234953301,1
476,658,17,0.0762728296695714,1
476,665,17,0.109027018008044,1
476,666,17,0.135361772371667,1
476,667,17,0.0831722662760886,1
477,655,17,0.0713083840180142,1
477,656,17,0.12048090612939,1
477,657,17,0.115736608683085,1
477,658,17,0.0785046978527278,1
478,657,17,0.0683856431600407,1
465,670,18,0.178385394704157,1
465,671,18,0.187486822494108,1
466,669,18,0.170312327494468,1
466,670,18,0.276774415857935,1
466,671,18,0.273596792087133,1
466,672,18,0.168927239850158,1
467,669,18,0.169799626678862,1
467,670,18,0.265615416359351,1
467,671,18,0.254434614078291,1
467,672,18,0.152823980243133,1
468,669,18,0.107548549765162,1
468,670,18,0.159614073499624,1
468,671,18,0.154165965463626,1
469,670,18,0.0677736797864151,1
469,671,18,0.0682426133131336,1
471,647,18,0.0797404903450571,1
471,648,18,0.0847474634019931,1
471,649,18,0.0735677812089341,1
472,647,18,0.100984881998549,1
472,648,18,0.131281597263219,1
472,649,18,0.117734785778797,1
472,650,18,0.0838601560427538,1
472,662,18,0.0700795636242569,1
473,647,18,0.132367507605577,1
473,648,18,0.197444069393992,1
473,649,18,0.171407617825112,1
473,650,18,0.10353671799409,1
473,665,18,0.0691421697630771,1
473,666,18,0.0772590342105303,1
474,647,18,0.131783240953427,1
474,648,18,0.201297783073911,1
474,649,18,0.1696687141476,1
474,650,18,0.0945264725551366,1
474,664,18,0.0798320680212312,1
474,665,18,0.140697068977679,1
474,666,18,0.168028450091466,1
474,667,18,0.0940932740284872,1
475,647,18,0.072124982078592,1
475,648,18,0.105002212383444,1
475,649,18,0.0891732665206631,1
475,655,18,0.075756313367032,1
475,656,18,0.102080986938648,1
475,657,18,0.085649847025928,1
475,662,18,0.0682603789869862,1
475,663,18,0.0779119017603998,1
475,664,18,0.0968797594755372,1
475,665,18,0.168375677371721,1
475,666,18,0.205769773350732,1
475,667,18,0.116914186548249,1
476,655,18,0.0925667857561799,1
476,656,18,0.14535562877883,1
476,657,18,0.136884037852314,1
476,658,18,0.0809641775012919,1
476,663,18,0.0688050292646051,1
476,664,18,0.0705478382756807,1
476,665,18,0.103701472756393,1
476,666,18,0.129444077923432,1
476,667,18,0.080353184471282,1
477,656,18,0.115422301208459,1
477,657,18,0.123889651373987,1
477,658,18,0.0831140217000459,1
478,657,18,0.0732019377067191,1
465,670,19,0.198062190256734,1
465,671,19,0.208067355359862,1
466,669,19,0.172675892869465,1
466,670,19,0.286645038625905,1
466,671,19,0.289394920555452,1
466,672,19,0.192960806359857,1
467,669,19,0.171040456572307,1
467,670,19,0.272922415253782,1
467,671,19,0.269700970286114,1
467,672,19,0.177613180879334,1
468,669,19,0.105993172806075,1
468,670,19,0.159542124317453,1
468,671,19,0.157045250501033,1
471,649,19,0.0678134878337599,1
471,662,19,0.0703974410050249,1
472,648,19,0.103100518589963,1
472,649,19,0.09730000810776,1
472,650,19,0.0756509172789974,1
472,662,19,0.0799546907033319,1
473,648,19,0.14083197069936,1
473,649,19,0.133699034678212,1
473,650,19,0.0915781014482031,1
473,665,19,0.0702663727396025,1
473,666,19,0.0761677390600825,1
474,648,19,0.142819066710573,1
474,649,19,0.132748996401151,1
474,650,19,0.0849805615016722,1
474,663,19,0.0763115056493645,1
474,664,19,0.0840774291558116,1
474,665,19,0.130878832785405,1
474,666,19,0.152105806172018,1
474,667,19,0.0890914701477261,1
475,648,19,0.0794153413769468,1
475,649,19,0.0749248546736732,1
475,655,19,0.0767858778921511,1
475,656,19,0.101833297746081,1
475,657,19,0.0898236722728409,1
475,662,19,0.0828546404658876,1
475,663,19,0.102806624269918,1
475,664,19,0.106178604273077,1
475,665,19,0.153900175169784,1
475,666,19,0.181706150148048,1
475,667,19,0.109045742045962,1
476,655,19,0.090639240092049,1
476,656,19,0.138371251167287,1
476,657,19,0.134866849209465,1
476,658,19,0.083320501237823,1
476,662,19,0.0769546697630771,1
476,663,19,0.0946962227901275,1
476,664,19,0.0824307979684215,1
476,665,19,0.095431892995202,1
476,666,19,0.111975113585309,1
476,667,19,0.0747112113645111,1
477,656,19,0.110585150263818,1
477,657,19,0.121396047974938,1
477,658,19,0.0824692762856262,1
478,657,19,0.0733615712110502,1
466,670,20,0.24554236122505,1
466,671,20,0.255543656933266,1
467,670,20,0.227591172048584,1
467,671,20,0.235023620799107,1
471,662,20,0.0724649677203816,1
472,649,20,0.0740957619415996,1
472,662,20,0.0813504641069657,1
472,663,20,0.068429374510276,1
473,649,20,0.0919551578099771,1
473,650,20,0.0715119345556181,1
474,649,20,0.0924367477321273,1
474,650,20,0.0685154535726279,1
474,663,20,0.0767407868628987,1
474,664,20,0.0774563434021618,1
474,665,20,0.102796944792863,1
474,666,20,0.112694809059377,1
474,667,20,0.0717225889668529,1
475,655,20,0.0713658858619066,1
475,656,20,0.0914945081426444,1
475,657,20,0.0843321982629076,1
475,662,20,0.0829072247041722,1
475,663,20,0.109107328916681,1
475,664,20,0.0998957731161246,1
475,665,20,0.119479583395308,1
475,666,20,0.133895583168367,1
475,667,20,0.0877571817886294,1
476,655,20,0.0837153592121021,1
476,656,20,0.122942847575646,1
476,657,20,0.120634208441117,1
476,658,20,0.0780619037058788,1
476,662,20,0.0801816373036695,1
476,663,20,0.1047592910521,1
476,664,20,0.0844385047968038,1
476,665,20,0.079735614667877,1
476,666,20,0.0873122972101639,1
477,656,20,0.102649835908905,1
477,657,20,0.109048593179055,1
477,658,20,0.0754718110148232,1
477,662,20,0.0737544226105684,1
477,663,20,0.0740720364412185,1
478,657,20,0.0678718941337386,1
478,661,20,0.0771337460783742,1
478,662,20,0.0871556526037602,1
479,661,20,0.0729510140354334,1
479,662,20,0.0816907312681993,1
493,678,20,0.0837392404466437,1
493,679,20,0.0746555244225665,1
494,678,20,0.0877908682855097,1
494,679,20,0.0764003280288521,1
498,686,20,0.0754448749948248,1
499,685,20,0.0699680819244104,1
499,686,20,0.0877009797259999,1
499,687,20,0.0758087778098084,1
500,686,20,0.0717501299541672,1
472,662,21,0.0734967724215023,1
472,663,21,0.0679612436134619,1
474,663,21,0.0711554710416881,1
474,664,21,0.0690088373625514,1
474,665,21,0.075082253991778,1
474,666,21,0.0739841185178171,1
475,656,21,0.0739394467728432,1
475,657,21,0.0714434953818352,1
475,662,21,0.07320239292965,1
475,663,21,0.0974488180879333,1
475,664,21,0.0862760780445693,1
475,665,21,0.0839596282429123,1
475,666,21,0.0844693701094682,1
476,655,21,0.0708876801628606,1
476,656,21,0.0963587029232404,1
476,657,21,0.095790926122781,1
476,658,21,0.0680854296269434,1
476,662,21,0.0752867389343452,1
476,663,21,0.0983926269985724,1
476,664,21,0.0807585065831944,1
477,656,21,0.0852391700548031,1
477,657,21,0.0882736322036393,1
477,662,21,0.0793422960658772,1
477,663,21,0.0746144884712636,1
478,661,21,0.0881572688368374,1
478,662,21,0.104702304328892,1
478,663,21,0.0695102234924167,1
479,661,21,0.081380988002432,1
479,662,21,0.0970694436830774,1
493,678,21,0.0952488754076881,1
493,679,21,0.0894428183934598,1
494,677,21,0.0685023539338161,1
494,678,21,0.098851192224064,1
494,679,21,0.0909249523788896,1
498,685,21,0.0787704641874683,1
498,686,21,0.0972047766685885,1
498,687,21,0.0757256517067314,1
499,685,21,0.0913378096282621,1
499,686,21,0.112523010321198,1
499,687,21,0.0865683251763773,1
500,685,21,0.0714611951681584,1
500,686,21,0.0848468936737238,1
500,687,21,0.0681792534688946,1
475,663,22,0.0805429106072501,1
475,664,22,0.0761856305192186,1
476,656,22,0.0737742427773851,1
476,657,22,0.0717692253581598,1
476,663,22,0.0846423069049747,1
476,664,22,0.0757402727484961,1
477,662,22,0.0764483600378286,1
477,663,22,0.0700518788823328,1
478,661,22,0.0897020259241313,1
478,662,22,0.104316622690534,1
478,663,22,0.0693736865620491,1
479,661,22,0.0803949871138368,1
479,662,22,0.0953785660247672,1
493,678,22,0.094195896850509,1
493,679,22,0.0932220432264361,1
494,678,22,0.0971389789857595,1
494,679,22,0.0939195046541993,1
498,685,22,0.0799956248284528,1
498,686,22,0.0976902359856506,1
498,687,22,0.0724318143135123,1
499,685,22,0.0969845745553574,1
499,686,22,0.118671682488618,1
499,687,22,0.0855237502740921,1
500,685,22,0.0767236501154637,1
500,686,22,0.0889488595850974,1
476,663,23,0.0677824847562612,1
478,661,23,0.0803940646884243,1
478,662,23,0.086946130260077,1
479,661,23,0.0717754008166029,1
479,662,23,0.0795834923419044,1
493,678,23,0.0791858251629602,1
493,679,23,0.0806784412553496,1
494,678,23,0.0823845389329651,1
494,679,23,0.0826026386350289,1
498,686,23,0.0818931677075778,1
499,685,23,0.085919728336372,1
499,686,23,0.10523231559542,1
499,687,23,0.0786969876125694,1
500,686,23,0.0883408255041378,1
478,661,24,0.0680630278669269,1
478,662,24,0.06903385665442,1
499,686,24,0.0804366819404342,1
