x,y,z,signal,cytoplasm.p
651,834,1,0.204637010985152,1
651,835,1,0.220283646053917,1
652,833,1,0.19553424148551,1
652,834,1,0.230516410642901,1
652,835,1,0.266883787240111,1
652,836,1,0.267360142098557,1
653,833,1,0.199570823008558,1
653,834,1,0.23008488326359,1
653,835,1,0.259612199897877,1
653,836,1,0.257227334881539,1
653,837,1,0.201484783862069,1
654,834,1,0.218395668846114,1
654,835,1,0.227618820851855,1
654,836,1,0.21924710344045,1
654,837,1,0.184592371345374,1
655,835,1,0.214881707206744,1
655,836,1,0.230426564011819,1
655,837,1,0.209238572083545,1
656,835,1,0.200428510928417,1
656,836,1,0.250929469388318,1
656,837,1,0.238662816662654,1
656,838,1,0.165468204451256,1
657,836,1,0.201796276142255,1
657,837,1,0.198001370077267,1
692,847,1,0.0890022704123879,1
692,848,1,0.0984523929775682,1
692,849,1,0.0855656966712566,1
693,846,1,0.0868740493028476,1
693,847,1,0.103710110012528,1
693,848,1,0.112064301341096,1
693,849,1,0.0954840280003312,1
693,850,1,0.076508329669188,1
693,851,1,0.0732209672231823,1
694,845,1,0.0798850955028958,1
694,846,1,0.0917278398435643,1
694,847,1,0.105399202717767,1
694,848,1,0.108607170690773,1
694,849,1,0.0949384433177491,1
694,850,1,0.0806062345128367,1
694,851,1,0.0751094595516696,1
694,852,1,0.0716856979401306,1
695,845,1,0.0737382202680966,1
695,846,1,0.0869125156405015,1
695,847,1,0.0977947515767006,1
695,848,1,0.10187834085713,1
695,849,1,0.0992493505645914,1
695,850,1,0.0908815624458524,1
695,851,1,0.0767855903829316,1
696,846,1,0.0752895241799087,1
696,847,1,0.0834584876938387,1
696,848,1,0.0902352117716241,1
696,849,1,0.09623327702625,1
696,850,1,0.0919571583949625,1
696,851,1,0.0735240019404956,1
697,847,1,0.068921111111963,1
697,848,1,0.0719679661061131,1
650,835,2,0.180720951889357,1
651,834,2,0.224846632998698,1
651,835,2,0.229546833718468,1
651,836,2,0.210114205370519,1
652,833,2,0.224992519968474,1
652,834,2,0.273108170168657,2
652,835,2,0.289852994619361,2
652,836,2,0.271436471771195,2
652,837,2,0.195836198043251,1
653,832,2,0.156089306305422,1
653,833,2,0.229464294613381,1
653,834,2,0.278038785568724,2
653,835,2,0.2890720956202,2
653,836,2,0.261075382233924,2
653,837,2,0.189556026346578,1
654,833,2,0.201431187351741,1
654,834,2,0.235056348931922,1
654,835,2,0.232393366663958,1
654,836,2,0.208694436926611,1
654,837,2,0.166660517163917,1
655,835,2,0.201742272327199,1
655,836,2,0.222462414878104,1
655,837,2,0.203755579595586,1
655,838,2,0.145136930099225,1
656,835,2,0.191773165672013,1
656,836,2,0.257486093179055,1
656,837,2,0.25114797639511,1
656,838,2,0.168136757210348,1
657,836,2,0.200304654352583,1
657,837,2,0.201993627262314,1
691,848,2,0.0754215388298451,1
691,849,2,0.0680248550282679,1
691,853,2,0.0684638576472852,1
692,847,2,0.0843106470509988,1
692,848,2,0.0967434920850629,1
692,849,2,0.0852495802844578,1
692,850,2,0.07214386185067,1
692,851,2,0.0698681784604226,1
692,852,2,0.0690119819946393,1
693,846,2,0.0885444479190466,1
693,847,2,0.105108986119822,1
693,848,2,0.113674173276823,1
693,849,2,0.0975725668478103,1
693,850,2,0.0839346269203699,1
693,851,2,0.0803419296832952,1
693,852,2,0.0737998370876926,1
694,845,2,0.0820643375193398,1
694,846,2,0.103315743199832,1
694,847,2,0.119282136438842,1
694,848,2,0.112828560744181,1
694,849,2,0.0931679315954232,1
694,850,2,0.0847925724005716,1
694,851,2,0.080725113585309,1
694,852,2,0.0728733865461786,1
695,845,2,0.0761051219479938,1
695,846,2,0.103763550788695,1
695,847,2,0.11922848003076,1
695,848,2,0.109191760790796,1
695,849,2,0.0963416859713135,1
695,850,2,0.0924806108574215,1
695,851,2,0.0795102194193694,1
695,852,2,0.0684664332507096,1
696,846,2,0.0831787891415051,1
696,847,2,0.09454757453389,1
696,848,2,0.0945355889933037,1
696,849,2,0.0971321266826956,1
696,850,2,0.0983720341507284,1
696,851,2,0.0793402056342607,1
697,848,2,0.0701266492487192,1
697,849,2,0.0757338517092615,1
697,850,2,0.0780834968462155,1
650,834,3,0.207163737842193,1
650,835,3,0.234188813821297,1
650,836,3,0.208400051444983,1
651,833,3,0.183755983066857,1
651,834,3,0.255802127721562,2
651,835,3,0.282899608105767,2
651,836,3,0.262208264395012,2
651,837,3,0.178961527241307,1
652,833,3,0.240394939914407,2
652,834,3,0.336537615597873,2
652,835,3,0.355082750903546,2
652,836,3,0.312458574713296,2
652,837,3,0.206596649865906,2
652,838,3,0.137028966458024,1
653,833,3,0.261450485928915,2
653,834,3,0.374465424524613,2
653,835,3,0.375646536357266,2
653,836,3,0.299800382348927,2
653,837,3,0.193655057268003,2
653,846,3,0.148242137485375,1
654,834,3,0.294467038409698,2
654,835,3,0.284753443593758,2
654,836,3,0.230760841397647,2
654,837,3,0.169275281739868,1
654,838,3,0.12810949606534,1
654,845,3,0.184945205055409,1
654,846,3,0.140809293409675,1
655,835,3,0.213915460597436,1
655,836,3,0.235440796676547,1
655,837,3,0.215983777963147,1
655,838,3,0.148315536193194,1
655,844,3,0.138263962310225,1
655,845,3,0.134385127512256,1
656,835,3,0.197594676306787,1
656,836,3,0.272598895504582,1
656,837,3,0.270810372527612,1
656,838,3,0.176740853948383,1
657,836,3,0.203165275249826,1
657,837,3,0.208266527371644,1
657,838,3,0.147126625672963,1
658,836,3,0.119100778019115,1
658,837,3,0.124238795382372,1
663,855,3,0.0814610533302768,1
664,855,3,0.0853501605930664,1
665,855,3,0.083074477202819,1
666,855,3,0.0809838838623759,1
667,856,3,0.0802354194970352,1
668,851,3,0.218409541165953,1
668,856,3,0.081446623961325,1
669,851,3,0.228190556893858,1
669,856,3,0.0828397918126575,1
670,856,3,0.0846253199019249,1
671,856,3,0.085573147951861,1
672,855,3,0.0826286342602886,1
672,856,3,0.0864052056227603,1
673,856,3,0.0879550959475767,1
674,856,3,0.0907423600654294,1
678,856,3,0.111651881345328,1
683,854,3,0.0747180157493717,1
685,852,3,0.068442773637858,1
685,853,3,0.0707638715052296,1
689,852,3,0.0680390268368772,1
689,853,3,0.0747548648476661,1
689,854,3,0.0687726665080894,1
690,852,3,0.0729815858491029,1
690,853,3,0.0825406264902561,1
690,854,3,0.0739246759866933,1
691,852,3,0.0716033145692039,1
691,853,3,0.0781488393061137,1
691,854,3,0.0710689127973037,1
692,847,3,0.0788798015477196,1
692,848,3,0.0868591467416388,1
692,849,3,0.0798291150619563,1
692,850,3,0.0762665344156203,1
692,851,3,0.0734744305592399,1
692,852,3,0.0693810000778192,1
692,853,3,0.0692934595102683,1
693,846,3,0.0860484665791616,1
693,847,3,0.10250307443192,1
693,848,3,0.103686941561259,1
693,849,3,0.0915629952346305,1
693,850,3,0.0885733845240304,1
693,851,3,0.0832034909752773,1
693,852,3,0.0710628870832458,1
694,845,3,0.0821253613511707,1
694,846,3,0.110687443648193,1
694,847,3,0.132604319366008,1
694,848,3,0.111488132865294,1
694,849,3,0.086794475136586,1
694,850,3,0.085280074231047,1
694,851,3,0.0806857607608951,1
694,852,3,0.070208116184009,1
695,845,3,0.0802004511882181,1
695,846,3,0.118475337650827,1
695,847,3,0.141853287303746,1
695,848,3,0.112915520303518,1
695,849,3,0.0880455595255255,1
695,850,3,0.0872033491853139,1
695,851,3,0.0779881036831081,1
695,852,3,0.0689792538618238,1
696,846,3,0.0872986704711164,1
696,847,3,0.102537851067924,1
696,848,3,0.0921034047512624,1
696,849,3,0.08971072307802,1
696,850,3,0.0954240284200947,1
696,851,3,0.0819643142598439,1
696,852,3,0.069063194574356,1
697,849,3,0.0736914940301586,1
697,850,3,0.079315318117451,1
697,851,3,0.0707189182408116,1
649,835,4,0.190315481949788,1
649,836,4,0.175721873356406,1
650,834,4,0.23764402774349,2
650,835,4,0.295311716537377,2
650,836,4,0.269009750204323,2
650,837,4,0.172211601418685,1
651,833,4,0.179937920530152,2
651,834,4,0.294724023733694,2
651,835,4,0.344155340081239,2
651,836,4,0.313958773861348,2
651,837,4,0.201209373988926,2
651,838,4,0.131128163176433,1
652,833,4,0.248553493198682,2
652,834,4,0.401066304609501,2
652,835,4,0.416469658960397,2
652,836,4,0.339404058556811,2
652,837,4,0.211077648764937,2
652,838,4,0.140129094514631,1
653,832,4,0.140888274588172,1
653,833,4,0.291219406143957,2
653,834,4,0.474686442445254,2
653,835,4,0.460569500178639,2
653,836,4,0.335128437076882,2
653,837,4,0.203763198589901,2
653,838,4,0.139675345068565,1
653,847,4,0.105600818557915,1
653,848,4,0.0855971849205631,1
654,833,4,0.235457304497564,2
654,834,4,0.35798740862957,2
654,835,4,0.335260691317835,2
654,836,4,0.257905736843961,2
654,837,4,0.187474243965757,1
654,838,4,0.136901492057845,1
654,846,4,0.167364747037888,1
654,847,4,0.10078723138972,1
654,848,4,0.081168219200479,1
654,849,4,0.0787519857303424,1
654,850,4,0.0782350381639738,1
655,834,4,0.218374249409264,2
655,835,4,0.22713685956363,2
655,836,4,0.251210749241359,1
655,837,4,0.236847315737258,1
655,838,4,0.160217136066997,1
655,840,4,0.099490211413196,1
655,841,4,0.0973558447940897,1
655,842,4,0.0944741338976437,1
655,843,4,0.114510717289501,1
655,844,4,0.146866345972494,1
655,845,4,0.147629934520734,1
655,846,4,0.111405102598623,1
655,847,4,0.0799061016452428,1
655,848,4,0.0715394156451784,1
655,849,4,0.0704765779176819,1
655,850,4,0.0714116657153306,1
655,851,4,0.0710766695564538,1
656,835,4,0.199758123285487,1
656,836,4,0.281119039550535,1
656,837,4,0.285381435606368,1
656,838,4,0.184167073332485,1
656,839,4,0.110030245490705,1
656,840,4,0.0907539023626358,1
656,841,4,0.0866373213992729,1
656,842,4,0.0828032002747055,1
656,843,4,0.0855478052121205,1
656,844,4,0.0897629958479835,1
656,845,4,0.0838868045535327,1
656,846,4,0.0720744643128223,1
656,851,4,0.0730417291839492,1
656,852,4,0.0739641306372891,1
657,835,4,0.145254221881215,1
657,836,4,0.199867616379899,1
657,837,4,0.206661890499622,1
657,838,4,0.143521847058896,1
657,839,4,0.0983455234047838,1
657,840,4,0.0852026743532576,1
657,841,4,0.0812068652313951,1
657,842,4,0.0770088233225179,1
657,843,4,0.0731334745738347,1
657,851,4,0.0790579614273798,1
657,852,4,0.0864826713880792,1
657,853,4,0.073084729781585,1
658,835,4,0.0956491900673615,1
658,836,4,0.1162775093613,1
658,837,4,0.121362613048625,1
658,838,4,0.101017586172263,1
658,839,4,0.0841224842464115,1
658,840,4,0.0767466209041437,1
658,841,4,0.0716912384823807,1
658,851,4,0.0729221433179791,1
658,852,4,0.0835986184894496,1
658,853,4,0.0746276240487278,1
659,836,4,0.0907349686825791,1
659,837,4,0.0978326968038942,1
659,838,4,0.0855560171942014,1
659,839,4,0.0725150961507499,1
659,852,4,0.072869433294411,1
659,853,4,0.0724968453050894,1
660,836,4,0.0815966438761303,1
660,837,4,0.0913171089644608,1
660,838,4,0.0755155423650585,1
660,853,4,0.0706250165317801,1
661,837,4,0.0706157743083295,1
661,853,4,0.0678028260335381,1
661,854,4,0.0690584267131333,1
662,854,4,0.0743278837078876,1
662,855,4,0.078791614084425,1
663,854,4,0.0775415479573045,1
663,855,4,0.0880959215571346,1
663,856,4,0.0813373285295015,1
664,848,4,0.0731868554522482,1
664,849,4,0.0687630529185636,1
664,854,4,0.0778433427911088,1
664,855,4,0.0910241909778074,1
664,856,4,0.0861211584934824,1
665,848,4,0.0731878737140671,1
665,849,4,0.0713810759323349,1
665,854,4,0.0735632768978292,1
665,855,4,0.0839304640264631,1
665,856,4,0.0831852461193922,1
666,848,4,0.0704745953020227,1
666,849,4,0.0770433903163828,1
666,850,4,0.0772321161598582,1
666,851,4,0.0780894387034178,1
666,852,4,0.0714581284031508,1
666,853,4,0.0679305819531613,1
666,854,4,0.0710392035112926,1
666,855,4,0.0774616982613743,1
666,856,4,0.079160308719733,1
667,848,4,0.0724543178997107,1
667,849,4,0.0921743776000417,1
667,850,4,0.0998075017959743,1
667,851,4,0.108304842766958,1
667,852,4,0.0946350432241361,1
667,853,4,0.0758470944030772,1
667,854,4,0.0722197642846081,1
667,855,4,0.0759302923834591,1
667,856,4,0.0779174542822006,1
667,857,4,0.076040450342941,1
668,848,4,0.0796275171911346,1
668,849,4,0.111082613090793,1
668,850,4,0.131475833700067,1
668,851,4,0.1528486101996,1
668,852,4,0.132360331854641,1
668,853,4,0.0910043827905415,1
668,854,4,0.0762739078291444,1
668,855,4,0.0763568841878363,1
668,856,4,0.0779412217110095,1
668,857,4,0.0770453669422666,1
669,849,4,0.0914011155645224,1
669,850,4,0.120909857905277,1
669,851,4,0.155928349060727,1
669,852,4,0.143696688602981,1
669,853,4,0.0995700970477787,1
669,854,4,0.080600891633175,1
669,855,4,0.0780702474630186,1
669,856,4,0.0792915087602142,1
669,857,4,0.0800206800589739,1
670,850,4,0.0788406703449957,1
670,851,4,0.102512873704483,1
670,852,4,0.101373211117637,1
670,853,4,0.0823669469625993,1
670,854,4,0.077811081860775,1
670,855,4,0.0791577630651856,1
670,856,4,0.0822938597231018,1
670,857,4,0.0852844827057454,1
671,853,4,0.0678799623612097,1
671,854,4,0.0738868445652324,1
671,855,4,0.0795710695477135,1
671,856,4,0.0855656607326042,1
672,854,4,0.0701040857647669,1
672,855,4,0.079750948492915,1
672,856,4,0.0875767278249889,1
673,855,4,0.0794340354659873,1
673,856,4,0.0868348821614713,1
673,857,4,0.0887942515023315,1
674,855,4,0.0764568834882305,1
674,856,4,0.0879498788531986,1
675,855,4,0.0738426579920663,1
676,855,4,0.0732763846252336,1
677,855,4,0.0759516998407582,1
678,855,4,0.0839389994564159,1
678,856,4,0.1138850852484,1
679,855,4,0.0906267394307777,1
679,856,4,0.124953998524886,1
680,854,4,0.0731457416338651,1
680,855,4,0.0906425164991957,1
680,856,4,0.111942529207103,1
681,853,4,0.0693383169382798,1
681,854,4,0.0790866165129195,1
681,855,4,0.0912378582460711,1
681,856,4,0.0995041675898907,1
682,853,4,0.0717340533969789,1
682,854,4,0.0802627628217611,1
682,855,4,0.0891472050078739,1
683,853,4,0.0719666723146256,1
683,854,4,0.076067631943731,1
683,855,4,0.0789777763040268,1
684,852,4,0.069079888078411,1
684,853,4,0.073981500985965,1
684,854,4,0.0747713846482344,1
685,852,4,0.071630927433823,1
685,853,4,0.0748256819622849,1
685,854,4,0.0745323207322515,1
686,851,4,0.0678705284649461,1
686,852,4,0.070176310476606,1
686,853,4,0.0713817947053836,1
688,852,4,0.0691353953270935,1
688,853,4,0.0727441271929287,1
689,852,4,0.077540535685261,1
689,853,4,0.0887041652802333,1
689,854,4,0.0738785726853975,1
690,852,4,0.0823041501572484,1
690,853,4,0.0981449497855565,1
690,854,4,0.0807745531915057,1
691,847,4,0.0682028531839921,1
691,852,4,0.0764213221916483,1
691,853,4,0.0859647594678703,1
691,854,4,0.0737294871755554,1
692,847,4,0.0727149689662548,1
692,848,4,0.076595990032247,1
692,849,4,0.0777941188168267,1
692,850,4,0.0837809712118935,1
692,851,4,0.0818789659500915,1
692,852,4,0.0738176866184009,1
692,853,4,0.0723797032674848,1
693,845,4,0.0708757485302529,1
693,846,4,0.0810377199637202,1
693,847,4,0.09685978357456,1
693,848,4,0.0924441870331809,1
693,849,4,0.0896773121108084,1
693,850,4,0.0969040839534588,1
693,851,4,0.090990666204863,1
693,852,4,0.0734321307653265,1
694,845,4,0.080312987088536,1
694,846,4,0.11121655644841,1
694,847,4,0.137725589317231,1
694,848,4,0.109663371747121,1
694,849,4,0.0873496973677956,1
694,850,4,0.0889316868990099,1
694,851,4,0.0844078551160541,1
694,852,4,0.0713793149383657,1
694,854,4,0.06965903347259,1
694,855,4,0.0694653660644051,1
695,845,4,0.0831828382296792,1
695,846,4,0.12305799501804,1
695,847,4,0.151148807775936,1
695,848,4,0.11312414418089,1
695,849,4,0.0849396333663266,1
695,850,4,0.0847503804226156,1
695,851,4,0.0840096069288955,1
695,852,4,0.0758872857960479,1
695,853,4,0.070929123418891,1
695,854,4,0.0693891162234936,1
696,845,4,0.0684866846813555,1
696,846,4,0.0860518807511428,1
696,847,4,0.101820467647163,1
696,848,4,0.0851939232913902,1
696,849,4,0.0824725946212009,1
696,850,4,0.0918468267319939,1
696,851,4,0.0927534810657928,1
696,852,4,0.0807865267525412,1
696,853,4,0.0697731386940641,1
697,849,4,0.0723025369909362,1
697,850,4,0.0810862730831569,1
697,851,4,0.0823015026765192,1
697,852,4,0.0733242249613971,1
649,835,5,0.242065488274991,2
649,836,5,0.224410840899298,1
650,834,5,0.242126967329752,2
650,835,5,0.329171605436148,2
650,836,5,0.303755526885562,2
650,837,5,0.185122873773486,1
651,833,5,0.170433476691819,2
651,834,5,0.297706452703583,2
651,835,5,0.36789126267149,2
651,836,5,0.335892660541315,2
651,837,5,0.213436805665235,2
651,838,5,0.130566382141154,1
651,846,5,0.158986309098478,1
652,833,5,0.234427757941771,2
652,834,5,0.398061162411275,2
652,835,5,0.420136359872607,2
652,836,5,0.33882865677226,2
652,837,5,0.210957421992999,2
652,838,5,0.133870977171001,1
652,847,5,0.112704224986315,1
652,848,5,0.090675196713808,1
653,832,5,0.141274375510808,1
653,833,5,0.284947200848574,2
653,834,5,0.478618035184995,2
653,835,5,0.463452355122188,2
653,836,5,0.340698592776542,2
653,837,5,0.214290947638054,2
653,838,5,0.13935396965896,1
653,847,5,0.106220592598669,1
653,848,5,0.0840323321367838,1
653,849,5,0.0840334881634371,1
653,850,5,0.0838232710058069,1
654,833,5,0.229731055250838,2
654,834,5,0.357471617089855,2
654,835,5,0.33212571474792,2
654,836,5,0.269588745854117,2
654,837,5,0.208537912115715,1
654,838,5,0.145349339514654,1
654,840,5,0.109481546124912,1
654,846,5,0.175486259551056,1
654,847,5,0.096538288369447,1
654,848,5,0.0784567317312808,1
654,849,5,0.0772462699991413,1
654,850,5,0.0776233443302415,1
654,851,5,0.0748457776587703,1
655,834,5,0.216626672536966,2
655,835,5,0.221313551996234,2
655,836,5,0.258250963539231,1
655,837,5,0.251842167405501,1
655,838,5,0.169902638836285,1
655,839,5,0.109993432331063,1
655,840,5,0.0970480721644307,1
655,841,5,0.0925384900571645,1
655,842,5,0.0885101384855241,1
655,843,5,0.105784860397023,1
655,844,5,0.140019062340432,1
655,845,5,0.142973531038729,1
655,846,5,0.104044099889136,1
655,847,5,0.0744495540156988,1
655,848,5,0.068328536641325,1
655,849,5,0.0689210871528614,1
655,850,5,0.0718020014091785,1
655,851,5,0.0734452004552613,1
655,852,5,0.0694736439340155,1
656,835,5,0.193111125763433,1
656,836,5,0.278990704635262,1
656,837,5,0.287618784434021,1
656,838,5,0.188234813667192,1
656,839,5,0.109468416537224,1
656,840,5,0.0879493517529629,1
656,841,5,0.0824636099580927,1
656,842,5,0.0774198716597179,1
656,843,5,0.0772242635643016,1
656,844,5,0.0797315056819489,1
656,845,5,0.0757510483544506,1
656,851,5,0.0745066365753129,1
656,852,5,0.0769154367341713,1
657,835,5,0.139243110895756,1
657,836,5,0.194682806891174,1
657,837,5,0.199392411558331,1
657,838,5,0.138753482695012,1
657,839,5,0.0932930639934187,1
657,840,5,0.0801549408746874,1
657,841,5,0.0761109559892387,1
657,842,5,0.0710419767773053,1
657,851,5,0.0785895370315708,1
657,852,5,0.0880290576942834,1
657,853,5,0.0759225416140844,1
658,835,5,0.0939698367369314,1
658,836,5,0.115898548250947,1
658,837,5,0.116599375932488,1
658,838,5,0.0955987381891213,1
658,839,5,0.0776376838525622,1
658,840,5,0.0709429897489546,1
658,851,5,0.0696281202417224,1
658,852,5,0.0823355725190254,1
658,853,5,0.0762679000844127,1
659,835,5,0.0686219996975403,1
659,836,5,0.0870817747139092,1
659,837,5,0.092009682735493,1
659,838,5,0.0793167736328745,1
659,852,5,0.0716028833053747,1
659,853,5,0.074672697108654,1
659,854,5,0.0677751832200419,1
660,836,5,0.0764938583718085,1
660,837,5,0.0846644511046487,1
660,838,5,0.0687806269196032,1
660,853,5,0.0714117435824109,1
660,854,5,0.0696435738622685,1
661,854,5,0.0710335910917377,1
661,855,5,0.0721112175747102,1
662,854,5,0.0743521662573813,1
662,855,5,0.0816092343840326,1
662,856,5,0.0765988471551154,1
663,854,5,0.077591221164742,1
663,855,5,0.093168889959488,1
663,856,5,0.0861423323495407,1
663,857,5,0.0760348558927123,1
664,854,5,0.0755677971656958,1
664,855,5,0.0931468056575681,1
664,856,5,0.0893690543093415,1
664,857,5,0.0802246858195086,1
665,854,5,0.0696274973050802,1
665,855,5,0.082583435415079,1
665,856,5,0.0844121018668165,1
665,857,5,0.0809251481247499,1
666,855,5,0.0742586239348742,1
666,856,5,0.0791660529143468,1
666,857,5,0.0789923733866899,1
667,850,5,0.0741699812486487,1
667,851,5,0.0830789815139239,1
667,852,5,0.0761503926705083,1
667,855,5,0.0717742627592758,1
667,856,5,0.076831627796698,1
667,857,5,0.0775373071963174,1
667,858,5,0.0720954584756184,1
668,849,5,0.0695456170752875,1
668,850,5,0.0861875072356487,1
668,851,5,0.102637161544147,1
668,852,5,0.0920712276777842,1
668,853,5,0.0743762691136129,1
668,854,5,0.0691365154150943,1
668,855,5,0.0720088283539292,1
668,856,5,0.0764412501744223,1
668,857,5,0.0778184852231762,1
668,858,5,0.0729871024322513,1
669,850,5,0.0780247251699371,1
669,851,5,0.0993211859410292,1
669,852,5,0.0938242013377229,1
669,853,5,0.0781733255079713,1
669,854,5,0.0727884635104799,1
669,855,5,0.0745559863348785,1
669,856,5,0.078102885749203,1
669,857,5,0.0804542499516984,1
669,858,5,0.0770079008971054,1
670,851,5,0.0688641962660603,1
670,852,5,0.0706552289589253,1
670,853,5,0.0687567756339387,1
670,854,5,0.0718737409492098,1
670,855,5,0.0768029367725058,1
670,856,5,0.0819070520069677,1
671,854,5,0.0690671598056744,1
671,855,5,0.0782578472287178,1
672,855,5,0.0791377033073527,1
673,855,5,0.0769036788050503,1
673,856,5,0.0851672568112851,1
674,855,5,0.0713917557018828,1
674,856,5,0.0825466641838648,1
677,855,5,0.0703218081109801,1
677,856,5,0.0885457057718818,1
678,855,5,0.0802317837033641,1
678,856,5,0.109865323014691,1
679,855,5,0.0908692534573942,1
679,856,5,0.125530730039577,1
679,857,5,0.137500481577943,1
680,854,5,0.07165481465814,1
680,855,5,0.0915336872635716,1
680,856,5,0.114651596807038,1
681,854,5,0.0814447731207247,1
681,855,5,0.0967391075694661,1
681,856,5,0.107668860393957,1
682,853,5,0.0731146247506337,1
682,854,5,0.0872733756495792,1
682,855,5,0.0971764749797977,1
682,856,5,0.0998119342297743,1
683,853,5,0.0753733450969328,1
683,854,5,0.0859143734771595,1
683,855,5,0.0883442576454452,1
683,856,5,0.0846182819158234,1
684,853,5,0.0754908704801634,1
684,854,5,0.0795321899155566,1
684,855,5,0.0752896859038446,1
685,852,5,0.0738741881698006,1
685,853,5,0.0802483634016864,1
685,854,5,0.0789765004818655,1
685,855,5,0.0698253455764982,1
686,851,5,0.0703398852531538,1
686,852,5,0.0794332388258583,1
686,853,5,0.0852049564576871,1
686,854,5,0.0805117098671631,1
687,851,5,0.0709933877192162,1
687,852,5,0.0803739510226128,1
687,853,5,0.0843473404151326,1
687,854,5,0.075344660062516,1
688,851,5,0.0683414086686713,1
688,852,5,0.0818855127746096,1
688,853,5,0.0879604208579122,1
688,854,5,0.0733169593638303,1
689,852,5,0.0839369210043502,1
689,853,5,0.0959466542935477,1
689,854,5,0.0764982189283036,1
690,852,5,0.0869943599316418,1
690,853,5,0.101210385063014,1
690,854,5,0.0803509442952804,1
691,851,5,0.071561583803954,1
691,852,5,0.08213931153809,1
691,853,5,0.0885102642708076,1
691,854,5,0.0725044283607528,1
692,850,5,0.0803948613285533,1
692,851,5,0.0843136599080277,1
692,852,5,0.0799742473200307,1
692,853,5,0.0762093500298243,1
693,846,5,0.0734317953379038,1
693,847,5,0.0859761640002423,1
693,848,5,0.0822300626252582,1
693,849,5,0.0827937843477681,1
693,850,5,0.0929881844252806,1
693,851,5,0.0914412590392899,1
693,852,5,0.0769823425254503,1
693,853,5,0.0691550897086267,1
694,831,5,0.0756503901787617,1
694,845,5,0.0740356245965287,1
694,846,5,0.0982589531808487,1
694,847,5,0.122532020860136,1
694,848,5,0.104337323354336,1
694,849,5,0.0880117113047092,1
694,850,5,0.0909342425205435,1
694,851,5,0.0895826197514234,1
694,852,5,0.0769911235361947,1
694,853,5,0.0708310108977495,1
694,854,5,0.0716605528629785,1
694,855,5,0.0685495473742358,1
695,845,5,0.0783167207311781,1
695,846,5,0.106661871332341,1
695,847,5,0.131715580450446,1
695,848,5,0.107664895162638,1
695,849,5,0.087094802475416,1
695,850,5,0.0895191341219008,1
695,851,5,0.0953971283387487,1
695,852,5,0.0868940072344987,1
695,853,5,0.0769043556496712,1
695,854,5,0.0732124377830049,1
695,855,5,0.0680302578056836,1
696,846,5,0.0757188173729938,1
696,847,5,0.0881166641493637,1
696,848,5,0.0786476678018808,1
696,849,5,0.07949250166372,1
696,850,5,0.0913128562239229,1
696,851,5,0.103019452969625,1
696,852,5,0.0933534469192812,1
696,853,5,0.076963989853608,1
697,849,5,0.0707567197133955,1
697,850,5,0.0800120787414916,1
697,851,5,0.0876151761933166,1
697,852,5,0.0798572430472604,1
697,853,5,0.0679977812434352,1
648,835,6,0.197795046273651,1
648,836,6,0.180824946369947,1
649,834,6,0.189714443926502,1
649,835,6,0.309064312745629,2
649,836,6,0.284704734740161,2
649,837,6,0.156253809497158,1
650,834,6,0.23500785571024,2
650,835,6,0.360091185465681,2
650,836,6,0.337126362602027,2
650,837,6,0.196919844250506,2
651,833,6,0.161036501403812,2
651,834,6,0.295952239160136,2
651,835,6,0.405399356056018,2
651,836,6,0.379688915982906,2
651,837,6,0.23692209209342,2
651,838,6,0.134893851116992,1
651,846,6,0.164189519177248,1
651,847,6,0.119746008605343,1
652,833,6,0.209622013545901,2
652,834,6,0.367074904201928,2
652,835,6,0.434488197171523,2
652,836,6,0.376872068364326,2
652,837,6,0.233930726378626,2
652,838,6,0.13513963556098,1
652,847,6,0.118920749329528,1
652,848,6,0.0935258925532045,1
652,849,6,0.0873236777834343,1
653,833,6,0.250423021898236,2
653,834,6,0.408137737616786,2
653,835,6,0.424075667443069,2
653,836,6,0.346112607010931,2
653,837,6,0.230343473847395,2
653,838,6,0.140356622123183,1
653,840,6,0.122129280341423,1
653,847,6,0.112586849347469,1
653,848,6,0.0868748159940995,1
653,849,6,0.0840900795614679,1
653,850,6,0.0839868817210072,1
653,851,6,0.0805287927066195,1
654,833,6,0.214845241454076,2
654,834,6,0.310005737725656,2
654,835,6,0.299807474243007,2
654,836,6,0.272067770139829,2
654,837,6,0.228689720817048,1
654,838,6,0.153562136205001,1
654,839,6,0.111949489326124,1
654,840,6,0.107959711908095,1
654,841,6,0.105052658271909,1
654,842,6,0.103368225611935,1
654,847,6,0.0954954864406819,1
654,848,6,0.0796960102728961,1
654,849,6,0.078139315563219,1
654,850,6,0.079359163273419,1
654,851,6,0.0775940483387334,1
654,852,6,0.0715750667883917,1
655,834,6,0.211688318347075,2
655,835,6,0.218749568736171,2
655,836,6,0.260232956261797,1
655,837,6,0.258222356371894,1
655,838,6,0.17458931464319,1
655,839,6,0.114783683334279,1
655,840,6,0.0989849079702156,1
655,841,6,0.0911450886045913,1
655,842,6,0.083654065840378,1
655,843,6,0.094776342025951,1
655,844,6,0.128392812442019,1
655,846,6,0.096757454251533,1
655,847,6,0.0710270562467703,1
655,848,6,0.0678660840515952,1
655,849,6,0.0687837475925895,1
655,850,6,0.073700496662593,1
655,851,6,0.077731885050364,1
655,852,6,0.07604523617349,1
656,835,6,0.1956160737971,1
656,836,6,0.276898643799845,1
656,837,6,0.283814582237604,1
656,838,6,0.189166774802079,1
656,839,6,0.113707272775714,1
656,840,6,0.0904234584330671,1
656,841,6,0.0816305639742514,1
656,842,6,0.0738744756790201,1
656,843,6,0.0700960834248252,1
656,844,6,0.0704731158274975,1
656,851,6,0.0782392190272068,1
657,835,6,0.144614441990606,1
657,836,6,0.202362693263697,1
657,837,6,0.199332669538437,1
657,838,6,0.136104971724427,1
657,839,6,0.0918038021752564,1
657,840,6,0.0789326253770204,1
657,841,6,0.0745017668879082,1
657,842,6,0.068297234075056,1
657,851,6,0.0760342269662947,1
657,854,6,0.0678481746231329,1
658,835,6,0.0996447655879832,1
658,836,6,0.125695388965473,1
658,837,6,0.119299231257849,1
658,838,6,0.0920061248089022,1
658,839,6,0.0728184842648121,1
658,852,6,0.0787970348311669,1
658,854,6,0.0695892645686672,1
659,836,6,0.0838953699323625,1
659,837,6,0.0850424658304876,1
659,838,6,0.072698958296596,1
659,852,6,0.0677707807351189,1
659,853,6,0.0756377697219824,1
659,854,6,0.0716883813595123,1
660,836,6,0.0696612137508376,1
660,837,6,0.0738557636206534,1
660,853,6,0.0700388451310505,1
660,854,6,0.0714482991817104,1
660,855,6,0.0681562647108884,1
661,854,6,0.0702297812016505,1
661,855,6,0.072638419636573,1
661,856,6,0.0710323631877796,1
662,854,6,0.0707450696002318,1
662,855,6,0.0802941432551104,1
662,856,6,0.0765943428440105,1
662,857,6,0.0690674173660169,1
663,854,6,0.0728918949521815,1
663,855,6,0.090138405021521,1
663,856,6,0.085701167421602,1
663,857,6,0.0741861656217943,1
664,854,6,0.0699679681186777,1
664,855,6,0.0878861775917614,1
664,856,6,0.0876541396823291,1
664,857,6,0.0780365010683843,1
665,855,6,0.0786198812337749,1
665,856,6,0.0830514405266096,1
665,857,6,0.0791981401411939,1
666,855,6,0.0720673364800898,1
666,856,6,0.0783981277687138,1
666,857,6,0.078225616247261,1
666,858,6,0.0722256761929333,1
667,855,6,0.0696569011125457,1
667,856,6,0.0754418441684697,1
667,857,6,0.0769286262196141,1
667,858,6,0.0711636171362395,1
668,851,6,0.0710638334677599,1
668,852,6,0.0691812051293945,1
668,855,6,0.0695390343121169,1
668,856,6,0.074839614179878,1
668,857,6,0.0769474101552856,1
668,858,6,0.0724098318377743,1
669,855,6,0.0719177238700121,1
669,856,6,0.0770346272749646,1
669,857,6,0.0800987088631809,1
670,855,6,0.07457299729703,1
670,856,6,0.0817631476528514,1
671,855,6,0.0773570329259392,1
672,855,6,0.0791122048334517,1
672,856,6,0.0914040265953695,1
673,855,6,0.0750121975786357,1
673,856,6,0.0856578493658697,1
673,857,6,0.091046197412647,1
674,856,6,0.0797549915913137,1
675,856,6,0.0789732719929219,1
676,856,6,0.0790036102053506,1
677,856,6,0.0840188311830199,1
678,855,6,0.0779232044665899,1
678,856,6,0.103284752101884,1
679,855,6,0.091858632579318,1
679,856,6,0.123946087037858,1
680,854,6,0.0703171420759392,1
680,855,6,0.0956009424264705,1
680,856,6,0.123142067505631,1
681,854,6,0.0843914670905447,1
681,855,6,0.103952839671059,1
681,856,6,0.119270803783775,1
681,857,6,0.14432006848853,1
682,853,6,0.0753591493292218,1
682,854,6,0.0989036746361667,1
682,855,6,0.111873155628357,1
682,856,6,0.112334260518621,1
683,853,6,0.078625008481522,1
683,854,6,0.101476019622696,1
683,855,6,0.108162250173656,1
683,856,6,0.0976698467901704,1
684,853,6,0.0765528516697769,1
684,854,6,0.0873288170107321,1
684,855,6,0.0866495944490787,1
685,852,6,0.0768957603219643,1
685,853,6,0.0876335648038114,1
685,854,6,0.0850910069703735,1
686,851,6,0.0708115920458849,1
686,852,6,0.0910368713323407,1
686,853,6,0.104523557451242,1
686,854,6,0.0926472464092015,1
687,851,6,0.0733703821706716,1
687,852,6,0.0920935276116188,1
687,853,6,0.102457803709406,1
687,854,6,0.0862474349385804,1
687,855,6,0.0685362141341832,1
688,851,6,0.0709646068483929,1
688,852,6,0.0856466185369844,1
688,853,6,0.0922543710505817,1
688,854,6,0.0762021263606853,1
689,851,6,0.067849564251027,1
689,852,6,0.0799407345266371,1
689,853,6,0.0865743928188631,1
689,854,6,0.0717620855458765,1
690,851,6,0.0692814679799066,1
690,852,6,0.0831483610824454,1
690,853,6,0.0901530320530612,1
690,854,6,0.0745275349017025,1
690,859,6,0.0813398202760702,1
691,851,6,0.0733543475419112,1
691,852,6,0.0853306938229986,1
691,853,6,0.087331931693943,1
691,854,6,0.0714295631642421,1
691,858,6,0.0685935482643643,1
692,851,6,0.0781672578654855,1
692,852,6,0.0818338689310637,1
692,853,6,0.0779800294658615,1
693,847,6,0.0746370579449914,1
693,848,6,0.0755750268246102,1
693,849,6,0.0746580161691352,1
693,850,6,0.0804220189702416,1
693,851,6,0.0819887285843966,1
693,852,6,0.0753149447867295,1
693,853,6,0.0680288262493617,1
694,831,6,0.068661082982061,1
694,846,6,0.0801447283076211,1
694,847,6,0.0970920071670298,1
694,848,6,0.0938353662790787,1
694,849,6,0.0833377637705416,1
694,850,6,0.0872972868329978,1
694,851,6,0.0916380950386642,1
694,852,6,0.0826830932982751,1
694,853,6,0.0711863962521065,1
695,845,6,0.0716743832543897,1
695,846,6,0.0838526149155183,1
695,847,6,0.0999279561793781,1
695,848,6,0.0946673281135715,1
695,849,6,0.0833562242583412,1
695,850,6,0.0910411899604081,1
695,851,6,0.104833636144432,1
695,852,6,0.0996225375314535,1
695,853,6,0.0807794947562152,1
695,854,6,0.0704662755039845,1
696,847,6,0.0718308541573066,1
696,848,6,0.0716644282476658,1
696,849,6,0.0733063814204642,1
696,850,6,0.0870167616916582,1
696,851,6,0.105204642833047,1
696,852,6,0.102752680352617,1
696,853,6,0.0812062303152021,1
697,850,6,0.0728506852973919,1
697,851,6,0.08197533544659,1
697,852,6,0.0803997849239366,1
648,835,7,0.244652855618237,2
648,836,7,0.223197456156761,2
649,834,7,0.216596531987126,2
649,835,7,0.387810979555411,2
649,836,7,0.358044455250532,2
649,837,7,0.181349698613669,2
650,834,7,0.238915585184765,2
650,835,7,0.399544781861005,2
650,836,7,0.36988705583659,2
650,837,7,0.201898341915164,2
651,833,7,0.155495396114869,2
651,834,7,0.308089225227822,2
651,835,7,0.457681853414766,2
651,836,7,0.41622963668035,2
651,837,7,0.239272096616898,2
651,838,7,0.140995299895117,1
651,841,7,0.143085288268244,1
651,847,7,0.12579949126202,1
651,848,7,0.104306152563126,1
652,833,7,0.188547695575271,2
652,834,7,0.355216634363409,2
652,835,7,0.481366192059225,2
652,836,7,0.419928730297952,2
652,837,7,0.23813137982958,2
652,838,7,0.136509533134863,1
652,848,7,0.104576902391003,1
652,849,7,0.0926895282337887,1
652,850,7,0.0877706947219441,1
653,833,7,0.216594423586183,2
653,834,7,0.335416257764666,2
653,835,7,0.387491125548759,2
653,836,7,0.336182206284415,2
653,837,7,0.222762814094239,2
653,838,7,0.138884682735493,1
653,840,7,0.118779210936697,1
653,841,7,0.126656676040745,1
653,848,7,0.097008264117086,1
653,849,7,0.0899101766092466,1
653,850,7,0.0866167704798567,1
653,851,7,0.0853744611118863,1
654,832,7,0.146439071333721,1
654,833,7,0.21450183565053,1
654,834,7,0.270310441913171,2
654,835,7,0.269879058288469,2
654,836,7,0.263835326986152,2
654,837,7,0.232531203375588,1
654,838,7,0.159554235643323,1
654,839,7,0.114969366371848,1
654,840,7,0.105231225456296,1
654,841,7,0.102593903386169,1
654,842,7,0.0995805132672088,1
654,847,7,0.0971829439372356,1
654,848,7,0.0829217379299796,1
654,849,7,0.08170307619531,1
654,850,7,0.0828438528803824,1
654,851,7,0.0834654897412877,1
654,852,7,0.0803353289507984,1
655,833,7,0.185278859504595,1
655,834,7,0.218804554874393,1
655,835,7,0.223143164832486,1
655,836,7,0.255217046459956,1
655,837,7,0.247186578532952,1
655,838,7,0.170957797671712,1
655,839,7,0.119292762300411,1
655,840,7,0.0995819448235307,1
655,841,7,0.0911167030589448,1
655,842,7,0.0840837962870676,1
655,843,7,0.0941013722048354,1
655,846,7,0.0925033839835131,1
655,847,7,0.0690319578956165,1
655,848,7,0.0679856519482391,1
655,849,7,0.0707781151911438,1
655,850,7,0.0775689931082123,1
655,851,7,0.0864143699791307,1
656,836,7,0.261829351202862,1
656,837,7,0.254234387866038,1
656,838,7,0.174523127624959,1
656,839,7,0.116798176578196,1
656,840,7,0.0920833869218573,1
656,841,7,0.0814979623263253,1
656,842,7,0.0744245946215842,1
656,843,7,0.0704416036190894,1
656,850,7,0.0692099620411161,1
657,835,7,0.15458247048622,1
657,836,7,0.205006604086771,1
657,837,7,0.189363814453817,1
657,838,7,0.130252230400688,1
657,839,7,0.092952293691051,1
657,840,7,0.0779750759216012,1
657,841,7,0.0738336314005302,1
657,842,7,0.0694833773190494,1
658,834,7,0.0802372403887585,1
658,835,7,0.10805935781174,1
658,836,7,0.1348614584116,1
658,837,7,0.123229721878915,1
658,838,7,0.0941306801758943,1
658,839,7,0.0737767764523816,1
658,841,7,0.0681128687880758,1
659,835,7,0.0732228120740072,1
659,836,7,0.0881267629106973,1
659,837,7,0.0863752327866314,1
659,838,7,0.0731479099325618,1
659,855,7,0.0711389632206706,1
660,836,7,0.0703248988350893,1
660,837,7,0.0694832575235413,1
660,853,7,0.0686488099322552,1
660,854,7,0.076874556517029,1
660,855,7,0.0738834543523529,1
660,856,7,0.0681234587109927,1
661,854,7,0.0716238295499676,1
661,855,7,0.0765366613068559,1
661,856,7,0.0732912392682392,1
662,854,7,0.0706057534140761,1
662,855,7,0.082789130292278,1
662,856,7,0.0799782604695524,1
662,857,7,0.0702037795866154,1
663,854,7,0.0711770761615756,1
663,855,7,0.0891843655744894,1
663,856,7,0.0883798189420274,1
663,857,7,0.0773206570199018,1
664,855,7,0.0858274798053524,1
664,856,7,0.0907200241929425,1
664,857,7,0.0829287998751827,1
665,855,7,0.0776549403955053,1
665,856,7,0.0863199890880668,1
665,857,7,0.0840294810036909,1
665,858,7,0.0727740101824265,1
666,855,7,0.0721971588722278,1
666,856,7,0.081395525187341,1
666,857,7,0.0822163640089059,1
666,858,7,0.0735288776176756,1
667,855,7,0.068897223887646,1
667,856,7,0.0769289077390582,1
667,857,7,0.0800057235897864,1
667,858,7,0.0731390151160847,1
668,855,7,0.068582479159415,1
668,856,7,0.0761236004051197,1
668,857,7,0.079843706154844,1
668,858,7,0.0745949378443402,1
669,855,7,0.0704198307854905,1
669,856,7,0.0778149632352377,1
669,857,7,0.0822118357386993,1
670,855,7,0.0731770202410324,1
670,856,7,0.0828232720120892,1
671,855,7,0.0761455649115315,1
671,856,7,0.0888978566475198,1
672,855,7,0.0765712822086995,1
672,856,7,0.0912542342920296,1
673,855,7,0.0715189725417195,1
673,856,7,0.0849192980788251,1
673,857,7,0.090956674229437,1
674,856,7,0.0779139622431393,1
675,856,7,0.0750528741434142,1
676,856,7,0.0745599036479936,1
677,856,7,0.0798834363351085,1
677,857,7,0.0924269304902377,1
678,855,7,0.0741291669190359,1
678,856,7,0.0950362204114679,1
678,857,7,0.105599357052716,1
679,855,7,0.0856752915918504,1
679,856,7,0.115873834437624,1
680,855,7,0.0934477739023665,1
680,856,7,0.126879399849422,1
681,854,7,0.0804208629435884,1
681,855,7,0.101725326054622,1
681,856,7,0.122773971847864,1
682,853,7,0.0746088281335055,1
682,854,7,0.0987989374234267,1
682,855,7,0.115905724001883,1
682,856,7,0.115380624351188,1
683,853,7,0.0784528084283903,1
683,854,7,0.103249556181602,1
683,855,7,0.116999924193402,1
683,856,7,0.101983233804031,1
684,853,7,0.0762502302469666,1
684,854,7,0.0876949719812682,1
684,855,7,0.0932705963458728,1
685,852,7,0.0776084237997065,1
685,853,7,0.0902391290847393,1
685,854,7,0.0858744516240821,1
686,851,7,0.0715686816878095,1
686,852,7,0.096555305321374,1
686,853,7,0.114917458978185,1
686,854,7,0.0976315242071262,1
687,851,7,0.0774229683736025,1
687,852,7,0.101156273432001,1
687,853,7,0.117500046480657,1
687,854,7,0.0959703678143779,1
687,855,7,0.0734701239107234,1
688,850,7,0.0679623577116873,1
688,851,7,0.0768402231244049,1
688,852,7,0.0899985317862526,1
688,853,7,0.0976409521136144,1
688,854,7,0.0823705587971688,1
688,855,7,0.0694393584595946,1
689,850,7,0.0685936381109954,1
689,851,7,0.0741277593218156,1
689,852,7,0.0793807803728573,1
689,853,7,0.0819158449972629,1
689,854,7,0.0738199387739533,1
689,859,7,0.0714649208084606,1
690,851,7,0.0704849516236987,1
690,852,7,0.077128439137365,1
690,853,7,0.0803153171111687,1
690,854,7,0.0740661125533425,1
690,858,7,0.069116257994673,1
690,859,7,0.0764305224866711,1
691,851,7,0.0715458546537392,1
691,852,7,0.081716253701202,1
691,853,7,0.0828136464430126,1
691,854,7,0.0727032170269093,1
691,858,7,0.0701586526187106,1
691,859,7,0.0788982740150701,1
692,851,7,0.0717051467408722,1
692,852,7,0.0795302851669777,1
692,853,7,0.0778195933316262,1
692,858,7,0.0746707085032193,1
693,850,7,0.0706484784820433,1
693,851,7,0.0736283498178342,1
693,852,7,0.0742792826702476,1
693,853,7,0.0696015316286976,1
694,847,7,0.0770184548813699,1
694,848,7,0.0806625144425465,1
694,849,7,0.0770826473043902,1
694,850,7,0.0799318576794863,1
694,851,7,0.087838367204475,1
694,852,7,0.0838867925739819,1
694,853,7,0.0721434066277392,1
695,846,7,0.0693137468795666,1
695,847,7,0.0778003601627992,1
695,848,7,0.0823122782824736,1
695,849,7,0.0799654243808585,1
695,850,7,0.0866775607104468,1
695,851,7,0.102023197585536,1
695,852,7,0.0999136226468329,1
695,853,7,0.0809026984465302,1
696,848,7,0.0719712844416878,1
696,849,7,0.0766665316171972,1
696,850,7,0.0829115912504428,1
696,851,7,0.0954094193578807,1
696,852,7,0.0959462589683709,1
696,853,7,0.0792172175758603,1
697,849,7,0.0725369648207553,1
697,850,7,0.0721382194822381,1
697,851,7,0.0733306160517547,1
697,852,7,0.0737403705974672,1
648,835,8,0.251380068212521,2
648,836,8,0.228939973633488,2
649,834,8,0.221602474802692,2
649,835,8,0.410123372122799,2
649,836,8,0.377078044760969,2
649,837,8,0.18217166351301,2
650,834,8,0.240682736643088,2
650,835,8,0.413962434812076,2
650,836,8,0.366620543798771,2
650,837,8,0.188046219598775,2
650,841,8,0.143987971380949,1
650,845,8,0.118963959569304,1
650,847,8,0.125174134750588,1
651,833,8,0.154903881834477,2
651,834,8,0.328853093139187,2
651,835,8,0.506601259597058,2
651,836,8,0.421884128417718,2
651,837,8,0.217952113997789,2
651,840,8,0.14489754273537,1
651,841,8,0.166907894888163,1
651,842,8,0.167790057030329,1
651,843,8,0.158086069814139,1
651,848,8,0.111439256297985,1
652,833,8,0.178551011994118,2
652,834,8,0.368091105538118,2
652,835,8,0.540564675773937,2
652,836,8,0.438534362335219,2
652,837,8,0.220110230076378,2
652,841,8,0.165897886979742,1
652,849,8,0.101086097223351,1
652,850,8,0.0913255006398039,1
652,851,8,0.0947982526243842,1
653,832,8,0.13099517818288,1
653,833,8,0.190401159697188,2
653,834,8,0.292352791446179,2
653,835,8,0.370156955116361,2
653,836,8,0.308931172017916,2
653,837,8,0.191517138712081,2
653,839,8,0.113138459744109,1
653,840,8,0.122265643568304,1
653,841,8,0.133293730535626,1
653,842,8,0.135693617908681,1
653,849,8,0.0986696241621981,1
653,850,8,0.0905510825776313,1
653,851,8,0.091538952276153,1
653,852,8,0.0907405331839308,1
654,833,8,0.212117617529935,1
654,834,8,0.255289307110448,2
654,835,8,0.265000458098023,2
654,836,8,0.253388823251599,2
654,837,8,0.211823447680222,1
654,838,8,0.152740231203414,1
654,839,8,0.11602681330148,1
654,840,8,0.104476525734759,1
654,841,8,0.102558288181608,1
654,842,8,0.100571347904556,1
654,848,8,0.0879049435581068,1
654,849,8,0.0860909820049896,1
654,850,8,0.087165799283297,1
654,851,8,0.0904818228046179,1
654,852,8,0.0928134506971524,1
654,853,8,0.0884108220195261,1
655,834,8,0.230421340927666,1
655,835,8,0.244787074505522,1
655,837,8,0.21812186423278,1
655,838,8,0.156398941755232,1
655,839,8,0.118981258040674,1
655,840,8,0.0978260002349909,1
655,841,8,0.0884015498471984,1
655,842,8,0.0826969656181142,1
655,843,8,0.0908132430675777,1
655,846,8,0.0894246034864518,1
655,849,8,0.071939364928552,1
655,850,8,0.081476626746331,1
655,851,8,0.095433989416594,1
655,854,8,0.0849495344650718,1
656,835,8,0.205734361798535,1
656,836,8,0.236872137366538,1
656,837,8,0.202980263067102,1
656,838,8,0.144896776044118,1
656,839,8,0.11051869969547,1
656,840,8,0.0871996355245625,1
656,841,8,0.0755027242456908,1
656,842,8,0.0708640624784368,1
656,850,8,0.0719325485641406,1
657,834,8,0.108275253276455,1
657,835,8,0.148419099409954,1
657,836,8,0.184028949111635,1
657,837,8,0.159288816715556,1
657,838,8,0.112864163969191,1
657,839,8,0.0852514131557319,1
657,840,8,0.0696543075397951,1
658,834,8,0.077312846352773,1
658,835,8,0.103814008656711,1
658,836,8,0.12800711882411,1
658,837,8,0.11618473971982,1
658,838,8,0.0886075561927186,1
659,835,8,0.0773218010670042,1
659,836,8,0.0909541705033175,1
659,837,8,0.0862454283638195,1
659,838,8,0.0699971023862499,1
660,836,8,0.0725810196188624,1
660,853,8,0.0682912862280784,1
660,855,8,0.0807910849716248,1
660,856,8,0.0701693623371356,1
661,854,8,0.0734461648091015,1
661,855,8,0.0813779152476489,1
661,856,8,0.0751556946280244,1
662,854,8,0.0704123435662337,1
662,855,8,0.0851367688544713,1
662,856,8,0.0826569718877319,1
662,857,8,0.0695520860327254,1
663,854,8,0.0693548067899711,1
663,855,8,0.0878327547849201,1
663,856,8,0.0900493011225893,1
663,857,8,0.077761534438621,1
664,855,8,0.0828168330035283,1
664,856,8,0.0914967123799937,1
664,857,8,0.0840033416238214,1
664,858,8,0.068866586186447,1
665,855,8,0.0745617964170218,1
665,856,8,0.0858062700106417,1
665,857,8,0.0840802144013751,1
665,858,8,0.0712875994973572,1
666,855,8,0.0692627499317645,1
666,856,8,0.0797357704020376,1
666,857,8,0.0810228593309392,1
666,858,8,0.0716146592038218,1
667,856,8,0.0745912780915675,1
667,857,8,0.0789428798725146,1
668,856,8,0.0735427679068409,1
668,857,8,0.0790326486365163,1
669,856,8,0.0746827060233565,1
669,857,8,0.0804681043022113,1
670,855,8,0.0683517769698982,1
670,856,8,0.081337394417031,1
671,855,8,0.0719696372534513,1
671,856,8,0.0889439240101633,1
672,855,8,0.0706764746922885,1
672,856,8,0.0888051109651416,1
672,857,8,0.0935538588145726,1
673,856,8,0.0814410654497488,1
673,857,8,0.0873207068548331,1
673,858,8,0.0878690707932034,1
674,856,8,0.076596654897317,1
674,857,8,0.0872952203604829,1
675,856,8,0.0746864676023111,1
676,856,8,0.0738242753713469,1
677,856,8,0.0775766660105067,1
677,857,8,0.0878040877198295,1
678,855,8,0.0711496729390956,1
678,856,8,0.0885989968036642,1
678,857,8,0.100032771259198,1
679,855,8,0.0787391616211993,1
679,856,8,0.105034521231981,1
680,855,8,0.088906811361751,1
680,856,8,0.122070376890086,1
681,854,8,0.0748361221408167,1
681,855,8,0.0961354340450017,1
681,856,8,0.118811711458047,1
682,853,8,0.0691691656808295,1
682,854,8,0.0905131373504377,1
682,855,8,0.108298409748173,1
683,853,8,0.0735723214586914,1
683,854,8,0.0940621032372771,1
683,855,8,0.109422391103008,1
684,853,8,0.0744094225204822,1
684,854,8,0.0832350930303165,1
685,852,8,0.0784940240729553,1
685,853,8,0.0877626025353713,1
686,851,8,0.0720260489582199,1
686,852,8,0.0951956562532105,1
686,853,8,0.109977271917019,1
687,851,8,0.0761131123083847,1
687,852,8,0.0970347628834798,1
687,853,8,0.113007918578922,1
687,854,8,0.094386551401665,1
688,851,8,0.0766126116589972,1
688,852,8,0.084920346289521,1
688,853,8,0.0927813634703053,1
688,854,8,0.0824633104693224,1
688,855,8,0.0707438656553754,1
689,851,8,0.0780524578300644,1
689,852,8,0.0789856708280112,1
689,853,8,0.0803258591158823,1
689,854,8,0.077177543316139,1
689,855,8,0.0706173675885873,1
689,856,8,0.0690307419712092,1
689,857,8,0.0695880306749336,1
689,858,8,0.069021727359224,1
689,859,8,0.069256316912979,1
690,852,8,0.0756216692056925,1
690,853,8,0.0778035706824166,1
690,854,8,0.0773868919563354,1
690,855,8,0.0710100452846188,1
690,856,8,0.0689965044149916,1
690,857,8,0.0699075792030398,1
690,858,8,0.0711288884184386,1
690,859,8,0.071416205965088,1
691,852,8,0.0744220549568123,1
691,853,8,0.0763569440855904,1
691,854,8,0.0730057965212918,1
691,858,8,0.0702087271411003,1
691,859,8,0.0734852480936222,1
692,852,8,0.0716514843430146,1
692,853,8,0.0728473310231648,1
692,858,8,0.0720312001650686,1
693,852,8,0.0688895629649024,1
693,853,8,0.0681564024757227,1
694,850,8,0.0722152360144015,1
694,851,8,0.0778271045099846,1
694,852,8,0.0781185550016637,1
694,853,8,0.0715157260834497,1
695,847,8,0.0684016658092503,1
695,848,8,0.0744591676052245,1
695,849,8,0.0772170219258364,1
695,850,8,0.079328022431086,1
695,851,8,0.0898374787051505,1
695,852,8,0.0910762421260808,1
695,853,8,0.0784690586890653,1
696,848,8,0.0736884811731296,1
696,849,8,0.0801800979313903,1
696,850,8,0.0776958385819739,1
696,851,8,0.08225025415815,1
696,852,8,0.083892039617237,1
696,853,8,0.0748779727015746,1
697,849,8,0.0797940748758344,1
697,850,8,0.0724737846697784,1
648,835,9,0.230357346167234,2
648,836,9,0.209418984118757,2
649,834,9,0.212866603005736,2
649,835,9,0.378921721589872,2
649,836,9,0.343299233462086,2
649,837,9,0.16887128336832,2
650,834,9,0.237245587883518,2
650,835,9,0.391776857769572,2
650,836,9,0.327557408882578,2
650,837,9,0.165959114463937,2
650,841,9,0.207033328452066,1
650,842,9,0.186819992777768,1
650,847,9,0.126922622068748,1
651,833,9,0.157190670268327,2
651,834,9,0.333085228849672,2
651,835,9,0.500144233791764,2
651,836,9,0.378971245052925,2
651,837,9,0.184595342273976,2
651,840,9,0.201487922504382,1
651,841,9,0.257240823855752,3
651,842,9,0.23339025696424,1
651,843,9,0.182957761637223,1
651,848,9,0.11803855124871,1
651,849,9,0.0962964092590236,1
652,833,9,0.178343765765089,2
652,834,9,0.367387498600788,2
652,835,9,0.531586481623177,2
652,836,9,0.394469118059719,2
652,837,9,0.18561161548747,2
652,840,9,0.181382941867169,1
652,841,9,0.229852647691569,1
652,842,9,0.22262457007788,1
652,849,9,0.110810126228048,1
652,850,9,0.0989944377028857,1
652,851,9,0.102360984979752,1
653,833,9,0.17200750581152,1
653,834,9,0.261488461104986,2
653,835,9,0.336832767770753,2
653,836,9,0.25869161933626,2
653,839,9,0.112713497158642,1
653,840,9,0.132797944845765,1
653,841,9,0.155157297252332,1
653,842,9,0.166654850836383,1
653,849,9,0.107397068345158,1
653,850,9,0.0982750057789353,1
653,851,9,0.0992807369877161,1
653,852,9,0.10216315467766,1
654,834,9,0.229590678874436,1
654,835,9,0.250139058625813,2
654,838,9,0.137399374169098,1
654,839,9,0.11715056704485,1
654,840,9,0.110684316985431,1
654,841,9,0.111167416330984,1
654,842,9,0.114414078253109,1
654,848,9,0.0935188066488999,1
654,849,9,0.0908433896071934,1
654,850,9,0.0938238898694018,1
654,851,9,0.0979597279606933,1
655,836,9,0.239600623818337,1
655,837,9,0.181941644157889,1
655,838,9,0.138223399551179,1
655,839,9,0.116475806865873,1
655,840,9,0.100350103570404,1
655,841,9,0.0905351318057266,1
655,842,9,0.0865279061719412,1
655,843,9,0.0932049543972043,1
655,846,9,0.0916179753830773,1
655,847,9,0.0689160797006224,1
655,849,9,0.0739675388194948,1
655,850,9,0.0851575234262512,1
656,835,9,0.189419375610478,1
656,836,9,0.195604513530567,1
656,837,9,0.150544283703364,1
656,838,9,0.117254741218702,1
656,839,9,0.100335955720897,1
656,840,9,0.0824419928586543,1
656,841,9,0.0718696319632816,1
656,842,9,0.0700171381849811,1
656,850,9,0.0727134595428527,1
657,834,9,0.0970489047432121,1
657,835,9,0.126906545511559,1
657,836,9,0.143402614589675,1
657,837,9,0.121319199156486,1
657,838,9,0.094849584999609,1
657,839,9,0.0766031298445304,1
657,851,9,0.0740594878617441,1
658,834,9,0.0743265240288705,1
658,835,9,0.0935661498337047,1
658,836,9,0.108415869243874,1
658,837,9,0.0991950472607655,1
658,838,9,0.0782454184447515,1
658,855,9,0.0798367460358229,1
659,835,9,0.0801279090182825,1
659,836,9,0.0891344827249127,1
659,837,9,0.0807151765479113,1
660,835,9,0.0695639817266807,1
660,836,9,0.0734696087900385,1
660,855,9,0.0867632803862744,1
660,856,9,0.0723063944062973,1
661,854,9,0.0751299685426579,1
661,855,9,0.0857722001681354,1
661,856,9,0.077127169304979,1
662,854,9,0.069645472621072,1
662,855,9,0.0863430617029286,1
662,856,9,0.0842511685812225,1
662,857,9,0.0690309336440222,1
663,855,9,0.0854601628183877,1
663,856,9,0.0893647356812742,1
663,857,9,0.0769555921884895,1
664,855,9,0.0787217134054432,1
664,856,9,0.0887195410336992,1
664,857,9,0.0823851618696073,1
665,855,9,0.071115716902322,1
665,856,9,0.0830398682805262,1
665,857,9,0.0824045867112472,1
665,858,9,0.0707096520582593,1
666,856,9,0.0777221995835333,1
666,857,9,0.0812373651677597,1
667,856,9,0.0736339622373891,1
668,856,9,0.0721542241621215,1
669,856,9,0.0733364081645718,1
670,856,9,0.0817197936584666,1
671,856,9,0.0905841581174203,1
672,856,9,0.0863956219821116,1
672,857,9,0.0927107559978257,1
673,856,9,0.0777445953537743,1
673,857,9,0.0850602255145648,1
673,858,9,0.0885806081931694,1
674,856,9,0.0746621551039403,1
674,857,9,0.0850319837235281,1
674,858,9,0.100973034222797,1
675,856,9,0.0755916784002374,1
675,857,9,0.0868806500353445,1
676,856,9,0.0752772571198783,1
677,856,9,0.0761785026864861,1
677,857,9,0.0872977839843564,1
678,856,9,0.081002410237705,1
678,857,9,0.0968088704836135,1
679,855,9,0.0698540126415887,1
679,856,9,0.0907877865221045,1
680,855,9,0.0794548139968688,1
680,856,9,0.107177087853617,1
681,855,9,0.0865598795930556,1
682,854,9,0.0784049201740236,1
682,855,9,0.0922844517026679,1
683,854,9,0.082829016206703,1
684,853,9,0.0721787043742036,1
684,854,9,0.0798368718211064,1
685,852,9,0.0805804485297162,1
685,853,9,0.0833539241845855,1
686,851,9,0.0714205186033799,1
686,852,9,0.0916609460318361,1
686,853,9,0.0971376792044965,1
687,851,9,0.0727402038900381,1
687,852,9,0.0887662133636585,1
687,853,9,0.0985922302741841,1
687,856,9,0.0708377733541822,1
687,857,9,0.0700184020275917,1
688,851,9,0.0765491140499239,1
688,852,9,0.0822183346450143,1
688,853,9,0.088001870103718,1
688,855,9,0.0733191875602811,1
688,856,9,0.0718568677518926,1
688,857,9,0.0725395224548534,1
688,858,9,0.0697213211470314,1
689,852,9,0.0807996623300054,1
689,855,9,0.0732666153015473,1
689,856,9,0.0734597316503949,1
689,857,9,0.0759155096177584,1
689,858,9,0.0734591087137528,1
689,859,9,0.0706916048649627,1
690,855,9,0.0718113574383619,1
690,856,9,0.0715582654683794,1
690,857,9,0.074223152484923,1
690,858,9,0.0743418578539085,1
690,859,9,0.072021796217682,1
691,857,9,0.0680529949931228,1
691,858,9,0.0718764363481422,1
694,852,9,0.0693238875693281,1
695,850,9,0.0722242925548146,1
695,851,9,0.0757669931365799,1
695,852,9,0.0789779140688611,1
695,853,9,0.0725387437840507,1
696,849,9,0.0767270043896908,1
696,850,9,0.0714593742764351,1
696,851,9,0.0715743839539955,1
696,852,9,0.0744308120084551,1
696,853,9,0.0699385523316614,1
697,850,9,0.0683167367837762,1
649,835,10,0.29091912672333,2
649,836,10,0.255112297267666,2
649,841,10,0.139276054660486,1
650,834,10,0.214376098285218,2
650,835,10,0.319930052840361,2
650,836,10,0.252409087668078,2
650,840,10,0.204010576314147,1
650,841,10,0.290961127028473,3
650,842,10,0.223001830092018,1
650,847,10,0.124857323549842,1
651,833,10,0.150586787149641,1
651,834,10,0.3011265665419,2
651,835,10,0.420388553376278,2
651,836,10,0.297942929036591,2
651,837,10,0.142561314695325,2
651,839,10,0.124183857162353,1
651,840,10,0.267056244853585,3
651,841,10,0.383254677199982,3
651,842,10,0.297393762468317,3
651,843,10,0.194398316518516,1
651,849,10,0.101188869789758,1
652,833,10,0.173122538441899,2
652,834,10,0.329200619908212,2
652,835,10,0.439555595082749,2
652,836,10,0.305658718122894,2
652,837,10,0.14354864531406,2
652,840,10,0.211998085571944,1
652,841,10,0.298957237603752,3
652,842,10,0.259246991311855,1
652,850,10,0.111961708467952,1
652,851,10,0.117677523525921,1
653,834,10,0.228548721504003,2
653,835,10,0.276122848089329,2
653,836,10,0.19870812763646,2
653,839,10,0.107023533971323,1
653,840,10,0.133294293574514,1
653,841,10,0.163782250388329,1
653,842,10,0.174919818470512,1
653,849,10,0.116684897945727,1
653,850,10,0.111489929797916,1
653,851,10,0.117747759632326,1
653,852,10,0.135049034218197,1
654,837,10,0.136002989808373,1
654,838,10,0.119755700061949,1
654,839,10,0.114949372501545,1
654,840,10,0.114665612881486,1
654,841,10,0.113402261432517,1
654,842,10,0.120017381369863,1
654,843,10,0.166286395792092,1
654,848,10,0.101946600337651,1
654,849,10,0.0981226977699252,1
654,850,10,0.105094646597501,1
654,851,10,0.117940522584424,1
655,836,10,0.202166372385008,1
655,837,10,0.146353453484075,1
655,838,10,0.122096851697378,1
655,839,10,0.112717438430859,1
655,840,10,0.102559905420967,1
655,841,10,0.0910816988114752,1
655,842,10,0.088478847898806,1
655,843,10,0.092105423305574,1
655,844,10,0.112446856316693,1
655,846,10,0.0940310222926982,1
655,847,10,0.0742753833264587,1
655,848,10,0.0708619480877187,1
655,849,10,0.0775317307154149,1
655,850,10,0.0908529492887405,1
656,835,10,0.161053248815845,1
656,836,10,0.151100793736286,1
656,837,10,0.114887797610377,1
656,838,10,0.101598498550187,1
656,839,10,0.0929861898300706,1
656,840,10,0.0788975372726952,1
656,841,10,0.070134681537538,1
656,842,10,0.070179221507453,1
656,850,10,0.0727691704438989,1
657,834,10,0.0852567440558427,1
657,835,10,0.103334754746969,1
657,836,10,0.106743224461898,1
657,837,10,0.0933658158054935,1
657,838,10,0.0823813883111018,1
657,839,10,0.0700591265105734,1
657,851,10,0.0713209026486116,1
657,855,10,0.0811181626474156,1
658,834,10,0.0708709207712761,1
658,835,10,0.0828971858405926,1
658,836,10,0.0905736280922575,1
658,837,10,0.0824896774606572,1
658,852,10,0.0729355484353365,1
658,854,10,0.106101156477084,1
658,855,10,0.0841018734292413,1
659,835,10,0.0793425416466688,1
659,836,10,0.083715047743781,1
659,837,10,0.0708642601410252,1
659,853,10,0.0792606075088974,1
659,855,10,0.0902171166601242,1
659,856,10,0.072559061102226,1
660,835,10,0.0707169715638048,1
660,836,10,0.0704106065313661,1
660,854,10,0.0870466686402577,1
660,855,10,0.0922169349542975,1
660,856,10,0.0784640871754788,1
661,854,10,0.0750077591550602,1
661,855,10,0.0915077335667397,1
661,856,10,0.0839113626326951,1
662,855,10,0.0884907435927612,1
662,856,10,0.088644183669323,1
662,857,10,0.0715248245522906,1
663,855,10,0.083622954946922,1
663,856,10,0.0906344183228475,1
663,857,10,0.0793808881888146,1
664,855,10,0.0753647737283276,1
664,856,10,0.087225834802186,1
664,857,10,0.0832985846496144,1
664,858,10,0.0696889763598419,1
665,855,10,0.067843388792584,1
665,856,10,0.0810077171787142,1
665,857,10,0.0823565966306986,1
666,836,10,0.0683429420511751,1
666,856,10,0.0756323549650159,1
667,836,10,0.0682780068960045,1
669,856,10,0.0718779876999723,1
670,856,10,0.0782519772488205,1
671,856,10,0.085000842881195,1
672,856,10,0.0779394427477141,1
672,857,10,0.0916667561139794,1
673,856,10,0.0701475296057827,1
673,857,10,0.0834939471642391,1
674,856,10,0.0682862787758394,1
674,857,10,0.0810510052855695,1
675,856,10,0.0730552181581623,1
675,857,10,0.0829209233205245,1
676,856,10,0.0761580655728027,1
677,856,10,0.0756195128865466,1
678,856,10,0.075384132682438,1
679,856,10,0.0821910811669194,1
680,855,10,0.0719930872241637,1
680,856,10,0.0974783057522545,1
681,855,10,0.0791152057109298,1
681,856,10,0.103536286730261,1
682,854,10,0.0702446538139823,1
682,855,10,0.0814617780931009,1
683,854,10,0.0779884451003062,1
683,855,10,0.0833852147713037,1
684,853,10,0.0708953590549304,1
684,854,10,0.0807770149891973,1
685,852,10,0.0797511521452788,1
685,853,10,0.0803613844738121,1
686,852,10,0.0869343244127528,1
686,853,10,0.0861353303020917,1
687,852,10,0.0805512603541654,1
687,857,10,0.0745147826698643,1
688,851,10,0.0732264478676783,1
688,856,10,0.0756402674583265,1
688,857,10,0.0788491159283174,1
688,858,10,0.0752889252023682,1
689,850,10,0.0705562419305746,1
689,855,10,0.0751145508607643,1
689,856,10,0.0783400329370562,1
689,857,10,0.0840738652394454,1
689,858,10,0.0805995559132596,1
689,859,10,0.0739874787818196,1
690,856,10,0.074409272776097,1
690,857,10,0.0796836653457854,1
690,858,10,0.0799490183860229,1
690,859,10,0.0761668585630979,1
691,857,10,0.069802830010749,1
691,858,10,0.07506204448956,1
696,850,10,0.0681102213073466,1
649,841,11,0.149916375547609,3
650,835,11,0.236561268022995,2
650,840,11,0.232421662362973,3
650,841,11,0.362448257924137,3
650,842,11,0.248393446399848,3
650,847,11,0.121552524867631,1
651,834,11,0.239958836346686,1
651,835,11,0.307182253435927,2
651,836,11,0.218927584861221,2
651,839,11,0.119182550432951,1
651,840,11,0.315141514912912,3
651,841,11,0.48718283899637,3
651,842,11,0.339466256384621,3
651,843,11,0.193594764188772,3
651,849,11,0.110474039930047,1
651,850,11,0.120391167314265,1
652,833,11,0.155109151437623,1
652,834,11,0.260501202363556,2
652,835,11,0.314389103285579,2
652,836,11,0.220154266905159,2
652,840,11,0.217631133913361,3
652,841,11,0.331211555225538,3
652,842,11,0.256414522359017,3
652,850,11,0.13328552454332,1
652,851,11,0.149279434810543,1
653,834,11,0.185806139433538,1
653,835,11,0.204899794411741,1
653,839,11,0.104222271748347,1
653,840,11,0.124050512782277,1
653,841,11,0.153112208235644,3
653,842,11,0.15796215334055,1
653,849,11,0.125234751277691,1
653,850,11,0.130453570711167,1
654,837,11,0.111054065821211,1
654,838,11,0.109175300887982,1
654,839,11,0.113267120119819,1
654,840,11,0.113594772814048,1
654,841,11,0.108031253785538,1
654,842,11,0.114848923967995,1
654,843,11,0.147592522383551,1
654,848,11,0.107739216295869,1
654,849,11,0.105871724119953,1
654,850,11,0.118332038264027,1
655,836,11,0.15481100437704,1
655,837,11,0.118957203102646,1
655,838,11,0.111210506775251,1
655,839,11,0.109548835261817,1
655,840,11,0.102459001664487,1
655,841,11,0.0899263130641889,1
655,842,11,0.0882347705408087,1
655,843,11,0.0895732217938122,1
655,844,11,0.100281622468194,1
655,845,11,0.108276870515815,1
655,846,11,0.091399498325163,1
655,847,11,0.0793614274085222,1
655,848,11,0.0770449057295604,1
655,849,11,0.0826031777148154,1
655,850,11,0.0959722126652028,1
656,835,11,0.131399164574877,1
656,836,11,0.118624015855942,1
656,837,11,0.0997809131829494,1
656,838,11,0.098776296072394,1
656,839,11,0.0919294257348352,1
656,840,11,0.0790585903537974,1
656,841,11,0.071138334294253,1
656,842,11,0.0704815853699209,1
656,850,11,0.0755600164474441,1
656,851,11,0.097305045508876,1
657,834,11,0.0841279049931535,1
657,835,11,0.0928297069476028,1
657,836,11,0.0907965016453194,1
657,837,11,0.0857303016891742,1
657,838,11,0.0835970371887425,1
657,839,11,0.0720520685425813,1
657,851,11,0.0717673445686825,1
657,852,11,0.0941005755647064,1
657,855,11,0.0862402232489922,1
658,834,11,0.0724762943856733,1
658,835,11,0.0807693660460045,1
658,836,11,0.084053709645206,1
658,837,11,0.0768218345139101,1
658,853,11,0.0872301294711517,1
658,854,11,0.0971866635877624,1
658,855,11,0.0851138879124224,1
658,856,11,0.0685927695935616,1
659,834,11,0.0716166537990318,1
659,835,11,0.0798487255866338,1
659,836,11,0.0808657654913801,1
659,853,11,0.0699446199741472,1
659,854,11,0.090107737371445,1
659,855,11,0.0897568203895405,1
659,856,11,0.0751620617592804,1
660,835,11,0.0715116051179708,1
660,836,11,0.0682423797118928,1
660,854,11,0.0809023690088829,1
660,855,11,0.0922144731566059,1
660,856,11,0.0810653328283394,1
661,854,11,0.0696542536318165,1
661,855,11,0.0908908465977309,1
661,856,11,0.086443875612778,1
661,857,11,0.0686011432995785,1
662,855,11,0.0845365274713143,1
662,856,11,0.0888979824328033,1
662,857,11,0.0741127549344249,1
663,855,11,0.0769669667719845,1
663,856,11,0.088426892586939,1
663,857,11,0.0812872959355397,1
664,855,11,0.0679642025625122,1
664,856,11,0.08260560956363,1
665,856,11,0.0759102026767492,1
666,856,11,0.0707887949606917,1
670,856,11,0.0694056659729389,1
671,856,11,0.0717476921155772,1
675,856,11,0.0702498110106064,1
678,856,11,0.0711547582584148,1
679,856,11,0.0771118235003902,1
680,856,11,0.0913110533015259,1
681,855,11,0.0709812164955923,1
681,856,11,0.0977889714434343,1
682,855,11,0.074659579500516,1
683,854,11,0.0725302383029749,1
683,855,11,0.078666948888911,1
684,853,11,0.0683782517771903,1
684,854,11,0.080824681621874,1
685,852,11,0.0728129796612145,1
685,853,11,0.0782124327515936,1
686,852,11,0.0784828291827225,1
686,853,11,0.0796823775440732,1
687,852,11,0.0739629686208604,1
688,857,11,0.0822400775297361,1
689,856,11,0.0808752413160715,1
689,857,11,0.0894518869134237,1
689,858,11,0.0870605948680754,1
690,831,11,0.0758529883420762,1
690,856,11,0.0761261939778702,1
690,857,11,0.0836834157398647,1
690,858,11,0.0851817939961941,1
691,831,11,0.0708610256623062,1
691,857,11,0.0722671673671669,1
693,830,11,0.0723850461471465,1
693,831,11,0.0696697252216888,1
649,841,12,0.146223115971252,3
650,840,12,0.222865263212774,3
650,841,12,0.36506866486852,3
650,842,12,0.239835327177825,3
651,839,12,0.112807105368679,1
651,840,12,0.305831918468519,3
651,841,12,0.489062190927589,3
651,842,12,0.326954549967569,3
651,843,12,0.176001931295264,3
651,844,12,0.169533177509725,1
651,850,12,0.134152448696855,1
652,834,12,0.188619441105078,1
652,835,12,0.207173561073858,1
652,840,12,0.192904322777784,1
652,841,12,0.303032057852988,3
652,842,12,0.220326053663787,3
652,843,12,0.190318081512314,1
653,839,12,0.10344925529362,1
653,840,12,0.113565614587374,1
653,841,12,0.135521867088705,1
653,842,12,0.136500057310171,1
653,843,12,0.174667541109985,1
654,837,12,0.0995060962975713,1
654,838,12,0.105314770843652,1
654,839,12,0.112414643304562,1
654,840,12,0.108712171453631,1
654,841,12,0.102407058332171,1
654,842,12,0.108711392782829,1
654,843,12,0.126166544698867,1
654,844,12,0.150612387449724,1
654,849,12,0.116322276942681,1
655,836,12,0.118567328621504,1
655,837,12,0.103155157321211,1
655,838,12,0.105895838955736,1
655,839,12,0.108719658672888,1
655,840,12,0.101843001182238,1
655,841,12,0.0892649639923454,1
655,842,12,0.0873066308826303,1
655,843,12,0.0857304933619871,1
655,844,12,0.0871012654430785,1
655,845,12,0.0885752713032831,1
655,846,12,0.0842427289876762,1
655,847,12,0.082511995363818,1
655,848,12,0.0839466124609562,1
655,849,12,0.0897626424512346,1
655,850,12,0.108673333749902,1
656,835,12,0.108188329655771,1
656,836,12,0.100036922173554,1
656,837,12,0.0932808688106932,1
656,838,12,0.0998464772645376,1
656,839,12,0.0952380878221828,1
656,840,12,0.0835231113806883,1
656,841,12,0.0721805312557023,1
656,842,12,0.0687472039728407,1
656,848,12,0.0703982855633571,1
656,849,12,0.0749620272198395,1
656,850,12,0.0836402594080684,1
656,851,12,0.106792412497527,1
657,834,12,0.0881359452363939,1
657,835,12,0.0905225652569259,1
657,836,12,0.0868082396404678,1
657,837,12,0.0850562003854924,1
657,838,12,0.0892204599610828,1
657,839,12,0.0776892318597016,1
657,851,12,0.0747377340900065,1
657,852,12,0.0897251524469718,1
657,855,12,0.0909219694707377,1
657,856,12,0.0691401212598884,1
658,833,12,0.0719972561078459,1
658,834,12,0.0806501036279063,1
658,835,12,0.0867226457499237,1
658,836,12,0.0849119246653009,1
658,837,12,0.076141288211892,1
658,838,12,0.0699215892877132,1
658,853,12,0.0781996146322259,1
658,854,12,0.0902822075494554,1
658,855,12,0.0874326497673859,1
658,856,12,0.0733679922502848,1
659,833,12,0.0709471346735352,1
659,834,12,0.0800629918324381,1
659,835,12,0.0860547079251341,1
659,836,12,0.0817424529788255,1
659,854,12,0.0811392766057198,1
659,855,12,0.0892349072993607,1
659,856,12,0.0793039854623838,1
660,834,12,0.0745807959846079,1
660,835,12,0.07678224209848,1
660,836,12,0.068485762255943,1
660,854,12,0.0724812958481369,1
660,855,12,0.0895112575672427,1
660,856,12,0.0836335388800634,1
661,834,12,0.0682208344897593,1
661,835,12,0.0714756724553134,1
661,855,12,0.0861535152602227,1
661,857,12,0.0714148702451725,1
662,835,12,0.069890238803241,1
662,855,12,0.0773101988720438,1
663,835,12,0.0682081062170227,1
663,855,12,0.0687101512221825,1
663,856,12,0.0846846965455192,1
664,835,12,0.067894900861071,1
665,835,12,0.0684339746577874,1
665,856,12,0.0698001346118166,1
666,835,12,0.0685558845566148,1
670,842,12,0.0688124985145357,1
671,841,12,0.0701662236948231,1
671,842,12,0.0876119596839239,1
671,843,12,0.0678489952223635,1
672,842,12,0.07200285654785,1
679,856,12,0.0720022336112078,1
680,856,12,0.0825181588427102,1
682,855,12,0.0697093535757713,1
684,854,12,0.0789759194736511,1
685,853,12,0.0763461744694113,1
685,854,12,0.0837331069166285,1
686,853,12,0.0751739694327865,1
689,831,12,0.0697703115200728,1
689,857,12,0.090220171445581,1
690,831,12,0.0744302669388932,1
690,857,12,0.0855085062956852,1
691,831,12,0.0684053016029214,1
650,841,13,0.305887287952367,3
651,840,13,0.253878475411445,3
651,841,13,0.398162365656525,3
651,842,13,0.274518402890119,3
651,843,13,0.154430138518108,1
651,844,13,0.146986908171855,1
652,841,13,0.244015519555994,3
652,842,13,0.180713728220218,1
652,843,13,0.15179427795318,1
653,839,13,0.107953638275834,1
653,840,13,0.110958025762359,1
653,841,13,0.122203074374418,1
653,842,13,0.120327651735866,1
653,843,13,0.137382387166048,1
653,844,13,0.163824454345836,1
654,837,13,0.0959096015428895,1
654,838,13,0.10403646891527,1
654,839,13,0.112412798453737,1
654,840,13,0.105532127813565,1
654,841,13,0.0995946491371657,1
654,842,13,0.102542798622409,1
654,843,13,0.109471806750103,1
654,844,13,0.114725283024076,1
654,845,13,0.11605946955699,1
655,836,13,0.0988663104171874,1
655,837,13,0.0961678746685977,1
655,838,13,0.1020189688041,1
655,839,13,0.108434940688765,1
655,840,13,0.102415384119984,1
655,841,13,0.0906458947325244,1
655,842,13,0.0847597723904513,1
655,843,13,0.0812701591881046,1
655,844,13,0.0799841184698989,1
655,845,13,0.0788657555243938,1
655,846,13,0.0814862523154076,1
655,847,13,0.0882095416068009,1
655,848,13,0.0943217540113286,1
655,849,13,0.10710770229532,1
656,835,13,0.091403487515583,1
656,836,13,0.0919565654071974,1
656,837,13,0.0934891392913166,1
656,838,13,0.1017685842126,1
656,839,13,0.100863026007701,1
656,840,13,0.0914945800199493,1
656,841,13,0.0764306662412808,1
656,847,13,0.0722086173125785,1
656,848,13,0.0802568329441097,1
656,849,13,0.0908707628807964,1
656,850,13,0.104133718908753,1
656,855,13,0.113960197031985,1
657,834,13,0.0864370532585912,1
657,835,13,0.0879357429832417,1
657,836,13,0.0884719177286618,1
657,837,13,0.0920893407586103,1
657,838,13,0.0975081048848966,1
657,839,13,0.0856368432235227,1
657,840,13,0.0705243343969897,1
657,849,13,0.0710724287954667,1
657,850,13,0.0784772167631675,1
657,851,13,0.0846797370114835,1
657,852,13,0.0923824504180767,1
657,853,13,0.106190404130626,1
657,854,13,0.109257396749689,1
657,855,13,0.0966399588171794,1
657,856,13,0.0756389257486357,1
658,833,13,0.0771152975701254,1
658,834,13,0.0856169691487274,1
658,835,13,0.0902100906535736,1
658,836,13,0.0880126936278757,1
658,837,13,0.0827109697130121,1
658,838,13,0.0779530095890075,1
658,853,13,0.0752043615531938,1
658,854,13,0.0887425357814807,1
658,855,13,0.0913841285614725,1
658,856,13,0.0791955345888925,1
659,833,13,0.0748121989778472,1
659,834,13,0.0840328652267949,1
659,835,13,0.088273021246548,1
659,836,13,0.0814528233788697,1
659,837,13,0.0680079159434212,1
659,854,13,0.0763469112117862,1
659,855,13,0.0882070378806814,1
659,856,13,0.0829811025940232,1
660,833,13,0.0740051007010625,1
660,834,13,0.0818769114571274,1
660,835,13,0.0816939118389396,1
660,836,13,0.0698734195139024,1
660,855,13,0.0848194904512438,1
660,857,13,0.0701785386730568,1
661,833,13,0.0681981811591758,1
661,834,13,0.0760563352273163,1
661,835,13,0.0757284848704982,1
662,834,13,0.0684278411277722,1
662,835,13,0.0712630713670718,1
663,835,13,0.068562742849454,1
664,835,13,0.0683206121684635,1
670,842,13,0.0801275077033304,1
671,841,13,0.0831975131794226,1
671,842,13,0.109732769284968,1
671,843,13,0.0860285565657139,1
672,841,13,0.0698114253384559,1
672,842,13,0.0917482529981461,1
672,843,13,0.0717488241831288,1
679,856,13,0.0678026283709498,1
680,856,13,0.0736286552963798,1
681,856,13,0.0799313844872292,1
682,856,13,0.0869004402532841,1
683,855,13,0.076082049333132,1
684,854,13,0.0760098905088223,1
684,855,13,0.0827550544599964,1
685,853,13,0.0721801958282796,1
685,854,13,0.0810773722769043,1
686,853,13,0.0707085259804831,1
687,853,13,0.0684015639830684,1
689,831,13,0.06938234178751,1
690,831,13,0.0694734881998549,1
691,830,13,0.0690956950957061,1
692,830,13,0.072582253512596,1
651,841,14,0.268619791866326,3
651,843,14,0.134241037475102,1
651,844,14,0.125570657882429,1
651,845,14,0.125056591398031,1
651,846,14,0.120163615746612,1
652,841,14,0.183705716871654,1
652,842,14,0.149435228868839,1
652,843,14,0.127141380646106,1
652,844,14,0.136064480842686,1
653,839,14,0.111006998166075,1
653,840,14,0.112555774392666,1
653,841,14,0.119895118074286,1
653,842,14,0.116715134331974,1
653,843,14,0.119530029283772,1
653,844,14,0.126233306735536,1
653,845,14,0.124977430526272,1
654,837,14,0.0959535904534672,1
654,838,14,0.1036336205806,1
654,839,14,0.112078269497342,1
654,840,14,0.107846157745958,1
654,841,14,0.105898989577599,1
654,842,14,0.104818577849063,1
654,843,14,0.104324720866882,1
654,844,14,0.100561824161661,1
654,845,14,0.0957771855780009,1
654,846,14,0.102394743353937,1
655,836,14,0.0895650277810575,1
655,837,14,0.092106723086837,1
655,838,14,0.0982107654377117,1
655,839,14,0.109217792354708,1
655,840,14,0.108198440396655,1
655,841,14,0.0993294458413133,1
655,842,14,0.0876630404885817,1
655,843,14,0.0823189868309277,1
655,844,14,0.0798277434033885,1
655,845,14,0.0775238242118797,1
655,846,14,0.0846762809110745,1
655,847,14,0.0990695674557964,1
656,835,14,0.0815373750484932,1
656,836,14,0.0869003444168776,1
656,837,14,0.0937740189993759,1
656,838,14,0.0996306596669033,1
656,839,14,0.105795366463085,1
656,840,14,0.101368946397548,1
656,841,14,0.0852347855392063,1
656,846,14,0.0716043388207982,1
656,847,14,0.083288635632666,1
656,848,14,0.0956270338881367,1
656,849,14,0.114007240728019,1
656,855,14,0.11424642443951,1
657,834,14,0.0830720333744535,1
657,835,14,0.0850058982516373,1
657,836,14,0.0899058340220776,1
657,837,14,0.0992542561906485,1
657,838,14,0.0990719933148356,1
657,839,14,0.0902307793378241,1
657,840,14,0.0771778368151339,1
657,848,14,0.0730531397060966,1
657,849,14,0.0823388848648247,1
657,850,14,0.0950102068168819,1
657,851,14,0.099644364273031,1
657,852,14,0.101557205038542,1
657,854,14,0.106290553175405,1
657,855,14,0.0988454659987764,1
657,856,14,0.0795695780936375,1
658,833,14,0.0795903027165404,1
658,834,14,0.0870937842135971,1
658,835,14,0.0906801802069453,1
658,836,14,0.090081825603041,1
658,837,14,0.0903675977876357,1
658,838,14,0.0815218255915406,1
658,851,14,0.0699718914215682,1
658,852,14,0.0705501443392118,1
658,853,14,0.0742958264299175,1
658,854,14,0.0871767485927382,1
658,855,14,0.0922850027620052,1
658,856,14,0.0815808967565893,1
659,832,14,0.0694265642993285,1
659,833,14,0.0775529644692273,1
659,834,14,0.0876164939439058,1
659,835,14,0.0904079449147669,1
659,836,14,0.081411715550262,1
659,837,14,0.0696708632790158,1
659,854,14,0.072206526880962,1
659,855,14,0.0851156189575146,1
659,857,14,0.0683485904093825,1
660,832,14,0.0677453241896457,1
660,833,14,0.0804803593826909,1
660,834,14,0.091269484260212,1
660,835,14,0.0894745701928842,1
660,836,14,0.072901077277878,1
661,833,14,0.0766601584961658,1
661,834,14,0.0856109134857924,1
661,835,14,0.0820089680354917,1
662,833,14,0.0682465246364733,1
662,834,14,0.0753209285723596,1
662,835,14,0.0720446651801801,1
663,834,14,0.069173693951036,1
670,842,14,0.0840919603509453,1
670,843,14,0.0748744806625132,1
671,841,14,0.0850292703552694,1
671,842,14,0.121836560017358,1
671,843,14,0.102370604559053,1
672,841,14,0.0755550629031838,1
672,842,14,0.106589826313764,1
672,843,14,0.08757703929331,1
680,856,14,0.0683444814234543,1
680,857,14,0.0842621658088669,1
681,856,14,0.0751044520994307,1
681,857,14,0.088206618596403,1
682,856,14,0.084718197359362,1
682,857,14,0.0944453709961466,1
683,855,14,0.0763763928863319,1
683,856,14,0.0897805578694724,1
684,854,14,0.0721465093313992,1
684,855,14,0.0825321090296296,1
685,854,14,0.0768177494870836,1
688,831,14,0.0682238653161145,1
689,831,14,0.0679241968525791,1
690,830,14,0.0720239585266034,1
690,831,14,0.0679046402358802,1
691,829,14,0.0717446852483236,1
691,830,14,0.0797316314672324,1
691,831,14,0.0713143737934196,1
692,830,14,0.0823482169349064,1
692,831,14,0.0730001301937582,1
693,831,14,0.0779383825574673,1
651,846,15,0.108759059415505,1
652,840,15,0.117645813654925,1
652,841,15,0.139584947378146,1
652,842,15,0.123586808329487,1
652,843,15,0.110459376959855,1
652,844,15,0.110641765620951,1
652,845,15,0.112853370393911,1
653,839,15,0.11240398150434,1
653,840,15,0.116920583628382,1
653,841,15,0.121769354737309,1
653,842,15,0.113746817272941,1
653,843,15,0.110432470888733,1
653,844,15,0.108901124908572,1
653,845,15,0.108348556147867,1
654,837,15,0.0997576189463975,1
654,838,15,0.103611817798124,1
654,839,15,0.113227923029565,1
654,840,15,0.11755149865139,1
654,842,15,0.107293708780762,1
654,843,15,0.104253214928092,1
654,844,15,0.099801973233275,1
654,845,15,0.095234338222779,1
655,836,15,0.0869354265314274,1
655,837,15,0.0920422072159447,1
655,838,15,0.0968064326450235,1
655,839,15,0.112373805015848,1
655,840,15,0.120320104618855,1
655,841,15,0.11221163783652,1
655,842,15,0.092884118067386,1
655,843,15,0.0867548168336265,1
655,844,15,0.0854472488626135,1
655,845,15,0.0842256521379952,1
655,846,15,0.0949972569224553,1
656,835,15,0.0784260880403065,1
656,836,15,0.086332268127648,1
656,837,15,0.0959676484563438,1
656,838,15,0.098512751944329,1
656,839,15,0.107809368545418,1
656,840,15,0.109614207670593,1
656,841,15,0.0949057690929122,1
656,842,15,0.0724616314154807,1
656,844,15,0.0702521889514424,1
656,845,15,0.0735095665817684,1
656,846,15,0.0827811698807642,1
656,847,15,0.0979313424150468,1
656,855,15,0.115425080464247,1
657,834,15,0.0799715399415475,1
657,835,15,0.0844009189561345,1
657,836,15,0.0944496117571337,1
657,837,15,0.107961077576888,1
657,838,15,0.102301530469077,1
657,839,15,0.0930137787355881,1
657,840,15,0.0827062677393188,1
657,841,15,0.0688134868274776,1
657,847,15,0.0733296996161177,1
657,848,15,0.0857248749526568,1
657,849,15,0.10185722090905,1
657,854,15,0.108173067708038,1
657,855,15,0.101705727509495,1
657,856,15,0.084606871393676,1
658,833,15,0.0784125032296869,1
658,834,15,0.0856416590029487,1
658,835,15,0.0925532728228652,1
658,836,15,0.0970595485741076,1
658,837,15,0.100634204607661,1
658,838,15,0.0866098283301618,1
658,839,15,0.0693284098497592,1
658,849,15,0.0689080953300069,1
658,850,15,0.0815026463306923,1
658,851,15,0.0861896755343455,1
658,852,15,0.0823253120337559,1
658,853,15,0.0790839630424149,1
658,854,15,0.0895133839375116,1
658,855,15,0.0946129289733391,1
658,856,15,0.0851700300772978,1
658,857,15,0.0702234200601699,1
659,832,15,0.0724637817448513,1
659,833,15,0.0781482103796962,1
659,834,15,0.0902832617499268,1
659,835,15,0.0991590547003541,1
659,836,15,0.0922798815040336,1
659,837,15,0.0778082247379066,1
659,854,15,0.0733912265890826,1
659,855,15,0.0858177404305431,1
659,857,15,0.0736462173178687,1
660,832,15,0.0721307322629812,1
660,833,15,0.0830238396415412,1
660,834,15,0.0979130616205093,1
660,835,15,0.102085646983913,1
660,836,15,0.0846024509394268,1
661,832,15,0.071055016518363,1
661,833,15,0.0812311897093167,1
661,834,15,0.0913160367946632,1
661,835,15,0.0882348124692365,1
662,832,15,0.0685370646822908,1
662,833,15,0.0751472969629059,1
662,834,15,0.079901717129646,1
662,835,15,0.0722042268072063,1
663,833,15,0.0682194808005177,1
663,834,15,0.0728496131275943,1
664,834,15,0.0695494744906487,1
670,842,15,0.0741979774588939,1
670,843,15,0.0713709831607767,1
671,841,15,0.0716049917063174,1
671,842,15,0.107040712647186,1
671,843,15,0.0984052294860255,1
672,842,15,0.099176574793415,1
672,843,15,0.088823906880364,1
681,856,15,0.0734090880993417,1
681,857,15,0.0829788444486953,1
682,856,15,0.0812927286618324,1
682,857,15,0.0868214411054614,1
683,855,15,0.0712934095795005,1
683,856,15,0.0850024900694316,1
684,855,15,0.077263652327368,1
685,854,15,0.0700693450674152,1
688,831,15,0.0688300126178213,1
689,830,15,0.0692084945461418,1
690,829,15,0.0682967069748203,1
690,830,15,0.0767099994173146,1
691,830,15,0.085474244780366,1
691,831,15,0.072894458576055,1
692,831,15,0.0762689003769054,1
652,841,16,0.121018967654063,1
652,842,16,0.106256459373797,1
652,843,16,0.0976855819301606,1
652,844,16,0.0970509173077483,1
652,845,16,0.102638778783506,1
653,839,16,0.131345975369277,1
653,842,16,0.114315342795326,1
653,843,16,0.102307256694365,1
653,844,16,0.102980579327244,1
653,845,16,0.107021461509032,1
654,838,16,0.106115519958507,1
654,839,16,0.139801609534112,1
654,843,16,0.103431477640216,1
654,844,16,0.105726376229964,1
654,845,16,0.104681028646652,1
655,836,16,0.0849064679799066,1
655,837,16,0.0913743472582354,1
655,838,16,0.0953386082330373,1
655,839,16,0.128065291522848,1
655,842,16,0.101877202799803,1
655,843,16,0.0905247215760719,1
655,844,16,0.0958462536782013,1
655,845,16,0.0973942212851125,1
656,835,16,0.075875869284125,1
656,836,16,0.0829217259504288,1
656,837,16,0.0928470772962786,1
656,838,16,0.0961643287215577,1
656,839,16,0.10897968680279,1
656,840,16,0.120105922229906,1
656,841,16,0.104017145899812,1
656,842,16,0.0778490929754981,1
656,843,16,0.0709863557228902,1
656,844,16,0.0776058182474051,1
656,845,16,0.0835589841455916,1
656,846,16,0.0937219558715516,1
657,834,16,0.0765788113563842,1
657,835,16,0.0824172610760052,1
657,836,16,0.0944519537593172,1
657,837,16,0.10787277630786,1
657,838,16,0.104675757644295,1
657,839,16,0.0945447653292249,1
657,840,16,0.0864827851938119,1
657,841,16,0.0734443019889504,1
657,846,16,0.0726267395745324,1
657,847,16,0.0799842023267546,1
657,848,16,0.101644272413835,1
657,855,16,0.107091733554089,1
657,856,16,0.0910319177880804,1
658,833,16,0.0768183544543995,1
658,834,16,0.0817400211300109,1
658,835,16,0.0934594240155301,1
658,836,16,0.104045645251191,1
658,837,16,0.10542081382743,1
658,838,16,0.0905088905996752,1
658,839,16,0.0733068546127213,1
658,849,16,0.0834647589886882,1
658,850,16,0.104865968952071,1
658,852,16,0.0975485059200065,1
658,853,16,0.0871841938835672,1
658,854,16,0.0941374965403057,1
658,855,16,0.0986274381740175,1
658,856,16,0.0902824950586749,1
658,857,16,0.0773377638184598,1
659,833,16,0.0784063217814685,1
659,834,16,0.0883247369673988,1
659,835,16,0.106947523721427,1
659,836,16,0.108307634002297,1
659,837,16,0.0882890438957576,1
659,851,16,0.0736800595489095,1
659,854,16,0.0776465367406115,1
659,855,16,0.0894156727313223,1
660,832,16,0.0740197756508059,1
660,833,16,0.0824580394669656,1
660,834,16,0.0949227620857375,1
660,835,16,0.107270456472638,1
660,836,16,0.0951605741386607,1
661,831,16,0.0742630803277758,1
661,832,16,0.0746988484680742,1
661,833,16,0.0825551696649406,1
661,834,16,0.0898378919996535,1
661,835,16,0.0875141766004296,1
662,831,16,0.0755232332366791,1
662,832,16,0.0743207019671764,1
662,833,16,0.0800334382805875,1
662,834,16,0.0823504032029294,1
662,835,16,0.0712216281110414,1
663,831,16,0.0703097506930889,1
663,832,16,0.0698846922712155,1
663,833,16,0.074323768732184,1
663,834,16,0.0757293893265844,1
664,833,16,0.0689033274687842,1
664,834,16,0.071101682858547,1
665,834,16,0.0684619888373587,1
671,842,16,0.0820343946320879,1
671,843,16,0.0843465377852283,1
672,842,16,0.0793099812275647,1
672,843,16,0.08025646756781,1
680,857,16,0.0827258782639963,1
681,856,16,0.0716268364172211,1
681,857,16,0.0803581859337456,1
682,856,16,0.0757731266665951,1
687,831,16,0.0683016724986314,1
688,830,16,0.0691667637808919,1
688,831,16,0.0680792901071528,1
689,830,16,0.0712632570501094,1
690,830,16,0.0784324851204395,1
691,831,16,0.0722302463915676,1
652,842,17,0.10273160832274,1
652,843,17,0.092510104511518,1
652,844,17,0.0944808244767716,1
652,845,17,0.103093151166214,1
653,843,17,0.102106970584357,1
653,844,17,0.108004934712406,1
653,845,17,0.116673493413355,1
654,838,17,0.112513354803244,1
654,843,17,0.112002666552174,1
654,844,17,0.12259413483109,1
655,836,17,0.0847392993381154,1
655,837,17,0.0912760191051793,1
655,838,17,0.096536012254793,1
655,843,17,0.103157816781491,1
656,835,17,0.0764875990565097,1
656,836,17,0.0798692705162746,1
656,837,17,0.0870843503173335,1
656,838,17,0.0927973681501887,1
656,839,17,0.107934351199028,1
656,842,17,0.090222106143037,1
656,843,17,0.0838741301887747,1
656,844,17,0.095304730063344,1
656,845,17,0.10873918534071,1
657,834,17,0.0764050060434438,1
657,835,17,0.0805674686864125,1
657,836,17,0.0893135350811083,1
657,837,17,0.0978420228842005,1
657,838,17,0.101195159053934,1
657,839,17,0.094347581922877,1
657,840,17,0.0881965617634972,1
657,841,17,0.0778458345376775,1
657,842,17,0.0706890352513137,1
657,844,17,0.072602654687627,1
657,845,17,0.0815417715436408,1
657,846,17,0.0880307587904985,1
657,847,17,0.0948356767411175,1
657,855,17,0.110911820634882,1
658,833,17,0.0753273076831664,1
658,834,17,0.0782441186634885,1
658,835,17,0.0891555607445645,1
658,836,17,0.101878975773323,1
658,837,17,0.0992560531232702,1
658,838,17,0.0898229534997922,1
658,839,17,0.0770402037558671,1
658,848,17,0.0765102164484408,1
658,853,17,0.0994841377809348,1
658,854,17,0.103202272894551,1
658,855,17,0.103349765124135,1
658,856,17,0.0951443298677611,1
659,833,17,0.0783946956274064,1
659,834,17,0.0856298651351753,1
659,835,17,0.105215148899108,1
659,836,17,0.115264231035509,1
659,837,17,0.0941403117347463,1
659,838,17,0.0703962071112914,1
659,850,17,0.082607292690519,1
659,851,17,0.0889233790805225,1
659,852,17,0.0818532578340512,1
659,853,17,0.0793971624085912,1
659,854,17,0.0879758385398058,1
659,855,17,0.0972372053126337,1
660,832,17,0.075893359428309,1
660,833,17,0.0820983534538674,1
660,834,17,0.0903042259638459,1
660,835,17,0.102799232887068,1
660,836,17,0.100010291632102,1
660,837,17,0.0729677374883655,1
660,854,17,0.0738550268782786,1
661,831,17,0.0799080962404528,1
661,832,17,0.0787248640273065,1
661,833,17,0.0835495861879804,1
661,834,17,0.0876506236841661,1
661,835,17,0.0837567844988063,1
661,836,17,0.0685528716995858,1
662,830,17,0.0966799225986847,1
662,831,17,0.08440735197492,1
662,832,17,0.080449116714176,1
662,833,17,0.0837936635459777,1
662,834,17,0.0849112777695571,1
662,835,17,0.0715801880463633,1
663,830,17,0.0942728894235708,1
663,831,17,0.0818015600825266,1
663,832,17,0.0783715451454643,1
663,833,17,0.0794838164893821,1
663,834,17,0.0786210731990806,1
664,830,17,0.0846679910619134,1
664,831,17,0.0751221518857538,1
664,832,17,0.0735018876896986,1
664,833,17,0.0752400666043858,1
664,834,17,0.0739255984121057,1
665,830,17,0.0691980064494068,1
665,833,17,0.0701495661294206,1
665,834,17,0.0700950531834554,1
671,857,17,0.0683588988128553,1
673,857,17,0.068620843670887,1
674,857,17,0.0708571263185173,1
677,857,17,0.0762060556533513,1
678,857,17,0.0800737314997401,1
679,857,17,0.0829964843372644,1
680,856,17,0.0683310822958723,1
680,857,17,0.0823237666717013,1
681,856,17,0.0723859026850294,1
681,857,17,0.0800643155728027,1
682,856,17,0.0739012320057563,1
687,830,17,0.0711167711027934,1
687,831,17,0.0707621165010358,1
688,830,17,0.0715704905999819,1
689,830,17,0.0716525924514646,1
652,844,18,0.091353245279482,1
652,845,18,0.102336822225766,1
653,843,18,0.101744529274572,1
653,844,18,0.111890573895236,1
654,838,18,0.110970256883737,1
655,836,18,0.0817299882562068,1
655,837,18,0.0854589049655526,1
655,838,18,0.0909182857588633,1
656,835,18,0.0768853800411867,1
656,836,18,0.0749129410103917,1
656,837,18,0.0785066565092854,1
656,838,18,0.0841379558362838,1
656,839,18,0.098865417940652,1
656,842,18,0.099748909812958,1
656,843,18,0.0960494807679333,1
657,834,18,0.0784275615250562,1
657,835,18,0.0778411325639842,1
657,836,18,0.0802994501961196,1
657,837,18,0.0839692837608659,1
657,838,18,0.0906819471906899,1
657,839,18,0.0909193758979871,1
657,840,18,0.0860625545309153,1
657,841,18,0.0800860644473,1
657,842,18,0.0777316694184493,1
657,843,18,0.0784824518268719,1
657,844,18,0.0842163440270151,1
657,845,18,0.100828225412595,1
657,855,18,0.119114482625243,1
658,833,18,0.0754701039288326,1
658,834,18,0.0770209046995107,1
658,835,18,0.083859569044764,1
658,836,18,0.0933247199564366,1
658,837,18,0.0894237409587934,1
658,838,18,0.0840556203835603,1
658,839,18,0.0797293134241505,1
658,840,18,0.0723474483269264,1
658,844,18,0.0684628453752417,1
658,845,18,0.0755523016167218,1
658,846,18,0.0822946264143537,1
658,847,18,0.0832554762360213,1
658,848,18,0.0918952660456979,1
658,854,18,0.116953539372663,1
658,855,18,0.113671945080372,1
658,856,18,0.104836822704948,1
659,833,18,0.0789639878410434,1
659,834,18,0.0843987566472131,1
659,835,18,0.0990086274808212,1
659,836,18,0.111120157003035,1
659,837,18,0.0946780258524457,1
659,838,18,0.0728548661606249,1
659,849,18,0.0782935103514819,1
659,853,18,0.0984596765444612,1
659,854,18,0.10337347265519,1
659,855,18,0.110527025483284,1
660,832,18,0.0775470345915759,1
660,833,18,0.0843827879059822,1
660,834,18,0.0905860209375714,1
660,835,18,0.0989676873659249,1
660,836,18,0.100683572336553,1
660,837,18,0.0797452641960552,1
660,851,18,0.0722811954211665,1
660,852,18,0.0767979892180209,1
660,853,18,0.0788561479246434,1
660,854,18,0.0882188137791285,1
661,831,18,0.084918160021498,1
661,832,18,0.0812842830785107,1
661,833,18,0.0871212113951787,1
661,834,18,0.0918346974367978,1
661,835,18,0.087030334522727,1
661,836,18,0.0756812614812015,1
661,854,18,0.0764840890481221,1
662,831,18,0.0997433812502588,1
662,832,18,0.0849859283404354,1
662,833,18,0.0890822758424787,1
662,834,18,0.0919981943462654,1
662,835,18,0.0788697986227925,1
662,854,18,0.0705484312634458,1
663,830,18,0.174954235719992,1
663,831,18,0.105358556101866,1
663,832,18,0.0862643021461222,1
663,833,18,0.0875297739755855,1
663,834,18,0.087600513223124,1
663,835,18,0.0716578993924739,1
664,829,18,0.185662265028299,1
664,830,18,0.1445899677683,1
664,831,18,0.0951358663151132,1
664,832,18,0.0824230771479239,1
664,833,18,0.0848519430543906,1
664,834,18,0.0835789899954459,1
664,855,18,0.0714186557832288,1
665,830,18,0.0924382571555295,1
665,831,18,0.0737682949304074,1
665,832,18,0.0714638366591122,1
665,833,18,0.0772106607843558,1
665,834,18,0.0767572347861621,1
666,833,18,0.0723123662123765,1
666,834,18,0.0717859188622148,1
667,833,18,0.0710249478458276,1
667,834,18,0.0696791950566048,1
668,833,18,0.0688520729606396,1
668,856,18,0.078047192817483,1
669,833,18,0.0682704777483198,1
669,856,18,0.07793605852461,1
670,856,18,0.0711503977019196,1
671,857,18,0.0748592007454539,1
672,857,18,0.0724855366091239,1
673,857,18,0.0752855709281411,1
673,858,18,0.084588153345534,1
674,857,18,0.0744390120109852,1
674,858,18,0.0845900341350113,1
674,859,18,0.0884110376514407,1
675,857,18,0.0717762274056088,1
675,859,18,0.089562434208307,1
676,857,18,0.0717813486635805,1
676,859,18,0.0904316823946988,1
677,857,18,0.0731794401102962,1
677,858,18,0.0862366593326259,1
678,857,18,0.0791504255903139,1
678,858,18,0.0897147002888893,1
679,857,18,0.0838661937363625,1
680,856,18,0.0703933799373,1
681,856,18,0.0745705953970924,1
682,832,18,0.0684912069617866,1
685,831,18,0.0701243012567603,1
686,830,18,0.068663934115154,1
686,831,18,0.0732617575936935,1
687,830,18,0.0754185199830408,1
687,831,18,0.0744709494934471,1
688,830,18,0.074094659822925,1
688,831,18,0.069207464304772,1
653,843,19,0.104895869910895,1
653,844,19,0.112905960621971,1
655,837,19,0.083116992628647,1
655,838,19,0.0895065915322018,1
656,836,19,0.0742431763041035,1
656,837,19,0.0770803053022067,1
656,838,19,0.0814385197952014,1
656,839,19,0.0944890364588524,1
657,835,19,0.0749502034031891,1
657,836,19,0.0759436975008165,1
657,837,19,0.0785025834620097,1
657,838,19,0.0845285191415971,1
657,839,19,0.0892311337408553,1
657,840,19,0.0879478483193361,1
657,841,19,0.0870325806885041,1
657,842,19,0.0892407293610548,1
657,843,19,0.0954211772870017,1
658,834,19,0.0761015760009538,1
658,835,19,0.0797281633872726,1
658,836,19,0.0851048493413355,1
658,837,19,0.083245736861212,1
658,838,19,0.0809098083099365,1
658,839,19,0.0830278228421858,1
658,840,19,0.0808222797219364,1
658,841,19,0.077790459064054,1
658,842,19,0.0751483152247249,1
658,843,19,0.0798543080573117,1
658,844,19,0.0881941598635596,1
658,845,19,0.0970231427191932,1
658,846,19,0.106363436762539,1
658,847,19,0.10479578076387,1
658,855,19,0.125192918686259,1
659,833,19,0.0779125187072666,1
659,834,19,0.0840083131374079,1
659,835,19,0.0914743585381805,1
659,836,19,0.0986762368742458,1
659,837,19,0.0896358149467993,1
659,838,19,0.0746631733657593,1
659,839,19,0.0684603356593468,1
659,844,19,0.0732003264571351,1
659,845,19,0.078655957651042,1
659,846,19,0.0836373843158737,1
659,847,19,0.0816813273208127,1
659,848,19,0.0818800141607874,1
659,849,19,0.0961496717411405,1
659,855,19,0.123710784700829,1
660,832,19,0.0777389949137702,1
660,833,19,0.0849686059099628,1
660,834,19,0.0924278768747518,1
660,835,19,0.0950100510827214,1
660,836,19,0.0950343516015414,1
660,837,19,0.0818558514068018,1
660,849,19,0.0694122247770079,1
660,850,19,0.0789057372752253,1
660,851,19,0.0880338854532602,1
660,852,19,0.0955412303554534,1
660,853,19,0.0999181509170394,1
660,854,19,0.106463202461692,1
661,832,19,0.0815861258305183,1
661,833,19,0.0889211029658684,1
661,834,19,0.0959614969570024,1
661,835,19,0.0904028715749985,1
661,836,19,0.0816183807710767,1
661,837,19,0.0684798144089654,1
661,851,19,0.0706624166894118,1
661,852,19,0.0773645980122763,1
661,853,19,0.083508747899266,1
661,854,19,0.0946433869812759,1
662,831,19,0.120674938913874,1
662,832,19,0.0884522173573533,1
662,833,19,0.0929496701694234,1
662,834,19,0.0964942874793185,1
662,835,19,0.0841908215940124,1
662,836,19,0.0707719936406794,1
662,852,19,0.0678916064845979,1
662,853,19,0.0775078075524455,1
662,854,19,0.0898975741217935,1
663,830,19,0.296900372688618,1
663,831,19,0.147407354466667,1
663,832,19,0.0952373930082358,1
663,833,19,0.0974401988011249,1
663,834,19,0.0973878361845303,1
663,835,19,0.079744168067156,1
663,853,19,0.06954742598746,1
663,854,19,0.0812470087061625,1
664,830,19,0.24109964897041,1
664,831,19,0.130020509949352,1
664,832,19,0.0919755529952327,1
664,833,19,0.0967056426942757,1
664,834,19,0.0949724652420521,1
664,835,19,0.0759880637672448,1
664,854,19,0.071885636643165,1
665,830,19,0.129705423803923,1
665,831,19,0.0895687893600121,1
665,832,19,0.0786473203949073,1
665,833,19,0.0855624502129868,1
665,834,19,0.0842536303789141,1
665,835,19,0.0687585186585817,1
666,830,19,0.0699511727884407,1
666,832,19,0.0704463595007613,1
666,833,19,0.0793684713843991,1
666,834,19,0.0780651920925764,1
667,833,19,0.0776556531787786,1
667,834,19,0.0769724773653575,1
668,833,19,0.0757634951077431,1
668,834,19,0.0756048019981507,1
668,855,19,0.0787820364335516,1
669,833,19,0.0753381851153027,1
669,834,19,0.0756531694345499,1
669,855,19,0.0786707703656197,1
669,856,19,0.089974147410577,1
670,833,19,0.0740984214018796,1
670,834,19,0.0743849363186246,1
670,855,19,0.0720963269930522,1
670,856,19,0.0825701201443526,1
670,857,19,0.0881888708918766,1
671,856,19,0.0762228150449358,1
671,857,19,0.083623398190302,1
672,856,19,0.0726570358585332,1
672,857,19,0.0817685743893688,1
672,858,19,0.0895641832227253,1
673,856,19,0.0719887446369947,1
673,857,19,0.083987306995061,1
673,858,19,0.0918517263682755,1
673,859,19,0.0959753932359431,1
674,857,19,0.080986058150848,1
674,858,19,0.0902181528912694,1
674,859,19,0.0950281102555689,1
675,857,19,0.0760628940313853,1
675,858,19,0.0884491146536932,1
675,859,19,0.094136657971749,1
676,830,19,0.0683473565156489,1
676,857,19,0.0734669792786355,1
676,858,19,0.0885762116980218,1
677,830,19,0.070213686675136,1
677,857,19,0.0743818515842908,1
678,857,19,0.0794039068956978,1
683,832,19,0.0709426902601843,1
684,831,19,0.068114408160355,1
684,832,19,0.069748496758046,1
685,831,19,0.0737878934755341,1
685,832,19,0.0699457520416988,1
686,830,19,0.0701681224536267,1
686,831,19,0.0756041670819578,1
687,830,19,0.0731790867135473,1
656,837,20,0.0754135245103526,1
656,838,20,0.0784706879079756,1
656,839,20,0.0901884196461566,1
657,836,20,0.0732395415167146,1
657,837,20,0.0757403925440042,1
657,838,20,0.0797562913725767,1
657,839,20,0.085003664065411,1
657,840,20,0.08820221611148,1
657,841,20,0.0917111403497339,1
657,842,20,0.0994849404108392,1
658,835,20,0.0747792312540155,1
658,836,20,0.0785328857357859,1
658,837,20,0.0779162443475687,1
658,838,20,0.0780075464940742,1
658,839,20,0.0831024853926149,1
658,840,20,0.0868200275184658,1
658,841,20,0.0873061157619454,1
658,842,20,0.086850521465055,1
659,834,20,0.0804348550589356,1
659,835,20,0.0833654604920164,1
659,836,20,0.0863973470374283,1
659,837,20,0.0820082852010954,1
659,838,20,0.0749952225551366,1
659,839,20,0.0736298113230331,1
659,840,20,0.0757838962827741,1
659,841,20,0.0774568884717237,1
659,844,20,0.0878709935111086,1
659,845,20,0.0949254514948946,1
659,846,20,0.100042983826265,1
659,847,20,0.095243304916561,1
659,848,20,0.0968600531144532,1
660,833,20,0.081810341093271,1
660,834,20,0.0900924874032627,1
660,835,20,0.0893690183706891,1
660,836,20,0.08765858409568,1
660,837,20,0.0798728703712932,1
660,838,20,0.0699878901116762,1
660,841,20,0.0705925818979595,1
660,842,20,0.0710782867958133,1
660,843,20,0.0694463245683912,1
660,844,20,0.0694064446437416,1
660,845,20,0.0691828463278556,1
660,846,20,0.0708240028605251,1
660,847,20,0.0706378047022708,1
660,848,20,0.0768205107735455,1
660,849,20,0.0858881502404344,1
660,850,20,0.096228682868514,1
660,851,20,0.106708280112182,1
661,833,20,0.0860433692802916,1
661,834,20,0.0946049086640712,1
661,835,20,0.0904110356388761,1
661,836,20,0.0852304010236095,1
661,837,20,0.0755299897033365,1
661,850,20,0.0739855920025669,1
661,851,20,0.0878660998646023,1
661,852,20,0.106866374244234,1
662,832,20,0.0864156817399445,1
662,833,20,0.0913810378373633,1
662,834,20,0.095024965623481,1
662,835,20,0.0858405135566347,1
662,836,20,0.0786245352892649,1
662,837,20,0.0702795801943716,1
662,851,20,0.0756899226964378,1
662,852,20,0.0966580898673318,1
663,831,20,0.18715240135367,1
663,832,20,0.100031926700866,1
663,833,20,0.102116757877369,1
663,834,20,0.101994111236167,1
663,835,20,0.085610847598263,1
663,836,20,0.0722094019731566,1
663,852,20,0.0809183676989909,1
663,853,20,0.0934512659414279,1
663,854,20,0.100804937165818,1
664,831,20,0.163498083463543,1
664,832,20,0.097135205427254,1
664,833,20,0.102712009777614,1
664,834,20,0.101277650240818,1
664,835,20,0.0834372359707001,1
664,836,20,0.0678836939912873,1
664,852,20,0.0700471110211101,1
664,853,20,0.0773744212439412,1
664,854,20,0.0851206323995289,1
665,831,20,0.102538737554684,1
665,832,20,0.0829954780549963,1
665,833,20,0.0905583841138506,1
665,834,20,0.0889331783530859,1
665,835,20,0.0758870462050316,1
665,852,20,0.0681559412630165,1
665,853,20,0.0733533891778463,1
666,831,20,0.0698426979558478,1
666,832,20,0.0749051962307925,1
666,833,20,0.0845196902126495,1
666,834,20,0.0828577910877509,1
666,835,20,0.0722074013881712,1
666,853,20,0.0698687834277386,1
667,832,20,0.0713965714813088,1
667,833,20,0.082485316904162,1
667,834,20,0.0842452506831219,1
667,835,20,0.0732720180789631,1
668,832,20,0.0688039271459305,1
668,833,20,0.0815235925752852,1
668,834,20,0.0863336757248682,1
668,835,20,0.0737284329750841,1
668,854,20,0.0746790043421559,1
668,855,20,0.0896791629514086,1
669,832,20,0.0678513911325257,1
669,833,20,0.081060954302518,1
669,834,20,0.0864282243296435,1
669,835,20,0.0735108483937052,1
669,854,20,0.0745388855260959,1
669,855,20,0.0885911861365354,1
669,856,20,0.0980524976021731,1
669,857,20,0.0984768432407733,1
670,835,20,0.0704121638729715,1
670,854,20,0.0728169448925329,1
670,855,20,0.0838291589550305,1
670,856,20,0.0918618430989354,1
670,857,20,0.0942164956881284,1
671,854,20,0.0707803972955733,1
671,855,20,0.0801490589152392,1
671,856,20,0.0866621669876547,1
671,857,20,0.0908469056053564,1
671,858,20,0.0944677368175106,1
672,854,20,0.0679404231541525,1
672,855,20,0.0774750015525498,1
672,856,20,0.08473065010243,1
672,857,20,0.0904947726990445,1
672,858,20,0.0952545297556708,1
673,855,20,0.0738308581345175,1
673,856,20,0.0842759063536471,1
673,857,20,0.0925270256270384,1
673,858,20,0.0980578404818348,1
674,856,20,0.0781896176970742,1
674,857,20,0.088462435914195,1
674,858,20,0.095217453045911,1
675,830,20,0.0693524767673383,1
675,856,20,0.0686837363126444,1
675,857,20,0.0815553683338112,1
675,858,20,0.0913701723847778,1
676,830,20,0.0738056711289375,1
676,857,20,0.0760346342710223,1
677,830,20,0.0756675269261968,1
677,842,20,0.0696180214803888,1
678,830,20,0.0702453246688277,1
683,832,20,0.0710656483697077,1
684,831,20,0.0681916163653314,1
656,840,21,0.113258494843235,1
657,841,21,0.098057828502284,1
658,840,21,0.0895174090665841,1
658,841,21,0.0965454641203828,1
663,833,21,0.0998929699012348,1
663,834,21,0.101295607587483,1
664,833,21,0.100484879506803,1
664,834,21,0.100509617279227,1
665,833,21,0.092248303408096,1
665,834,21,0.0907586282954307,1
667,833,21,0.0887562823160363,1
667,834,21,0.0916460734195043,1
668,833,21,0.0891501998955767,1
668,834,21,0.0977388010846381,1
669,833,21,0.0891951651395455,1
669,834,21,0.0998163067658203,1
669,855,21,0.0980548336145812,1
669,857,21,0.103721933829178,1
670,835,21,0.0901949485013486,1
670,856,21,0.0996227891020205,1
670,857,21,0.0996060836184147,1
670,858,21,0.0998905260728694,1
671,858,21,0.098023483130109,1
673,856,21,0.0963177807776703,1
673,857,21,0.099612558565628,1
674,857,21,0.0963169601784397,1
675,857,21,0.0897184918167209,1
677,845,21,0.0695710736207608,1
682,831,21,0.0682459915464623,1
