x,y,z,signal,cytoplasm.p
145,848,1,0.0771552613516307,1
145,849,1,0.0689504310625727,1
146,846,1,0.117081001793291,1
146,847,1,0.114117117168057,1
146,848,1,0.0931704473010935,1
146,849,1,0.073041771112377,1
147,846,1,0.12389486247859,1
147,847,1,0.119323585684648,1
147,848,1,0.0942157230071011,1
147,849,1,0.0707417213157802,1
148,846,1,0.0994850242676949,1
148,847,1,0.0958920395214007,1
148,848,1,0.0807443347745851,1
149,845,1,0.0771094575391051,1
149,846,1,0.080531548003306,1
149,847,1,0.0779160766338574,1
149,848,1,0.0702217489128318,1
150,845,1,0.079301817163687,1
150,846,1,0.0806961290621219,1
150,847,1,0.0756877064795378,1
151,844,1,0.0793294839362849,1
151,845,1,0.0872676913527194,1
151,846,1,0.0872733157518251,1
151,847,1,0.078927995280632,1
152,843,1,0.0738550867760326,1
152,844,1,0.0876490723323361,1
152,845,1,0.0989903167374067,1
152,846,1,0.0933453307736068,1
152,847,1,0.080068322732549,1
153,843,1,0.080167507423488,1
153,844,1,0.114589075531355,1
153,845,1,0.143007660778989,1
153,846,1,0.122053126336918,1
153,847,1,0.0861563484239895,1
154,842,1,0.0707913705641161,1
154,843,1,0.0886130787656424,1
154,844,1,0.141985206117276,1
154,845,1,0.184238171966548,1
154,846,1,0.150717867394614,1
154,847,1,0.0903789723711307,1
155,842,1,0.0722797818341708,1
155,843,1,0.0866520981751981,1
155,844,1,0.121324901422672,1
155,845,1,0.147054760347648,1
155,846,1,0.116196803127487,1
155,847,1,0.0682670216479108,1
156,842,1,0.0763774770356803,1
156,843,1,0.0875914746520372,1
156,844,1,0.0931944663004694,1
156,845,1,0.0893108097332988,1
156,846,1,0.0679280602577156,1
157,841,1,0.0682271057846088,1
157,842,1,0.0780650902663945,1
157,843,1,0.0871998032382738,1
157,844,1,0.0802439489372126,1
158,842,1,0.0727823239906893,1
158,843,1,0.0771557285541123,1
158,844,1,0.068463648005146,1
163,841,1,0.0679349544892073,1
145,846,2,0.0844286456264864,1
145,847,2,0.0866618555193337,1
145,848,2,0.0781459103059405,1
146,845,2,0.0875161771854151,1
146,846,2,0.121979128651559,1
146,847,2,0.125867990333557,1
146,848,2,0.100651503079032,1
146,849,2,0.0727656604355113,1
147,845,2,0.095314523346132,1
147,846,2,0.129260778816474,1
147,847,2,0.130808093537866,1
147,848,2,0.102276181739561,1
147,849,2,0.0714466579832493,1
148,846,2,0.0975955975342443,1
148,847,2,0.0973262373342605,1
148,848,2,0.083181712151903,1
149,845,2,0.0747939181833097,1
149,846,2,0.0779074513572735,1
149,847,2,0.0761331421173406,1
149,848,2,0.0702956807106615,1
150,845,2,0.0787349867477417,1
150,846,2,0.0806341348866754,1
150,847,2,0.0769058111650947,1
150,848,2,0.0686483127808965,1
151,844,2,0.0801718320413308,1
151,845,2,0.0894359002028665,1
151,846,2,0.0910743673263789,1
151,847,2,0.0822759203457624,1
151,848,2,0.0683532744137495,1
152,843,2,0.0740051186703887,1
152,844,2,0.0873494997052072,1
152,845,2,0.105136766698152,1
152,846,2,0.102003994365586,1
152,847,2,0.0858308101204779,1
153,843,2,0.0761904103599922,1
153,844,2,0.106249463316124,1
153,845,2,0.145900458749711,1
153,846,2,0.126861993562094,1
153,847,2,0.0875640354909047,1
154,842,2,0.0694802386767369,1
154,843,2,0.0857086606306342,1
154,844,2,0.135881541122252,1
154,845,2,0.190658588264564,1
154,846,2,0.155354732229247,1
154,847,2,0.0901148532246267,1
155,842,2,0.070356183432032,1
155,843,2,0.0816145772636943,1
155,844,2,0.108998722309029,1
155,845,2,0.137853698633603,1
155,846,2,0.104647473924831,1
156,842,2,0.0736629826992286,1
156,843,2,0.0834228844688286,1
156,844,2,0.086152323294917,1
156,845,2,0.0828797675737135,1
157,842,2,0.0738627656681024,1
157,843,2,0.0818393256164581,1
157,844,2,0.0756652568013181,1
158,842,2,0.0694786394067036,1
158,843,2,0.0732154206911568,1
145,848,3,0.0808791706087375,1
145,849,3,0.0689097844466713,1
146,846,3,0.116083009374334,1
146,847,3,0.129983529075999,1
146,848,3,0.105343437908742,1
146,849,3,0.0757716591716208,1
147,846,3,0.123348115779579,1
147,847,3,0.134598471332647,1
147,848,3,0.108081675714901,1
147,849,3,0.0758962285307282,1
148,846,3,0.0926308464041414,1
148,847,3,0.096692351382651,1
148,848,3,0.0847225279669801,1
149,846,3,0.0757834889780466,1
149,847,3,0.0749984210952031,1
149,848,3,0.0712053958196926,1
150,845,3,0.079484583180634,1
150,846,3,0.080059164365954,1
150,847,3,0.0776731373331871,1
150,848,3,0.0711200954281434,1
151,844,3,0.0818459742671582,1
151,845,3,0.0968283372536813,1
151,846,3,0.0982095674826306,1
151,847,3,0.0857826283671163,1
151,848,3,0.0703218380598571,1
152,843,3,0.074191538450333,1
152,844,3,0.0952414480861853,1
152,845,3,0.128384079349478,1
152,846,3,0.126780748248494,1
152,847,3,0.0956076330055984,1
152,848,3,0.0677661805876075,1
153,843,3,0.0744874992428924,1
153,844,3,0.106319471811063,1
153,845,3,0.155664966656597,1
153,846,3,0.143572316906462,1
153,847,3,0.093343192423787,1
154,842,3,0.0690485915019175,1
154,843,3,0.0829840435737473,1
154,844,3,0.123825632654454,1
154,845,3,0.173221070247319,1
154,846,3,0.14723913761418,1
154,847,3,0.084745570632965,1
155,842,3,0.0730125469981737,1
155,843,3,0.0813417549735262,1
155,844,3,0.0996873409115652,1
155,845,3,0.118816539217024,1
155,846,3,0.0909472822616012,1
156,841,3,0.0720597414448757,1
156,842,3,0.0768332150871805,1
156,843,3,0.0815211786957969,1
156,844,3,0.0833106720163827,1
156,845,3,0.0798533496932468,1
157,841,3,0.0710931414388188,1
157,842,3,0.0747804531681983,1
157,843,3,0.0774398176118181,1
157,844,3,0.0727356696300561,1
158,842,3,0.0705508870713621,1
158,843,3,0.0709990839956268,1
163,841,3,0.0686349675612931,1
145,848,4,0.0803454516712336,1
145,849,4,0.070180551237593,1
146,847,4,0.119668429034291,1
146,848,4,0.101106354643772,1
146,849,4,0.0763678035484004,1
147,847,4,0.1245523960635,1
147,848,4,0.103802424431077,1
147,849,4,0.075731096412575,1
148,846,4,0.0862803188055564,1
148,847,4,0.0926803998160708,1
148,848,4,0.0826849920570786,1
149,846,4,0.0745139081626551,1
149,847,4,0.0756848852953218,1
149,848,4,0.0724428055513813,1
150,845,4,0.0781357216979758,1
150,846,4,0.0793381451515212,1
150,847,4,0.0792072206407086,1
150,848,4,0.073608182244044,1
150,872,4,0.0777165033071227,1
151,844,4,0.0823995193612542,1
151,845,4,0.107379650078279,1
151,846,4,0.111921397279473,1
151,847,4,0.0941631267892657,1
151,848,4,0.0733359888802934,1
151,871,4,0.0677879833700834,1
151,872,4,0.082325210207574,1
151,873,4,0.0735960349795217,1
152,843,4,0.0727034027099469,1
152,844,4,0.104316059651646,1
152,845,4,0.166214338793964,1
152,846,4,0.171647184882229,1
152,847,4,0.117244474743657,1
152,848,4,0.0702236836102878,1
153,843,4,0.0738569136575313,1
153,844,4,0.113497067597634,1
153,845,4,0.186551471146341,1
153,846,4,0.186303051201175,1
153,847,4,0.114983969444287,1
154,842,4,0.0686004904140593,1
154,843,4,0.0794427386096514,1
154,844,4,0.110503677338753,1
154,845,4,0.15688122649133,1
154,846,4,0.144542420931131,1
154,847,4,0.0851600990296756,1
155,841,4,0.0684051937869641,1
155,842,4,0.0741996905346598,1
155,843,4,0.0801391158880661,1
155,844,4,0.0919524624110446,1
155,845,4,0.102581851958053,1
155,846,4,0.082380681517604,1
156,841,4,0.0775170318065699,1
156,842,4,0.0790881379158725,1
156,843,4,0.0789822925946825,1
156,844,4,0.0804919196492234,1
156,845,4,0.0773951278975179,1
157,841,4,0.0758841351741846,1
157,842,4,0.0767668483756879,1
157,843,4,0.0754291877730379,1
157,844,4,0.0713466047748764,1
158,841,4,0.0704221368490216,1
158,842,4,0.0734148502632818,1
158,843,4,0.0720244916166145,1
159,842,4,0.0685054746068024,1
162,841,4,0.0732365166801349,1
163,841,4,0.0722099410529431,1
145,848,5,0.0755949308482825,1
145,849,5,0.0730437177893838,1
145,850,5,0.0707774802749508,1
146,848,5,0.0880387790997665,1
146,849,5,0.076315530778437,1
146,850,5,0.0679513604840428,1
147,847,5,0.104328710057303,1
147,848,5,0.0909216879512936,1
147,849,5,0.0736359927712515,1
148,846,5,0.0813804848612979,1
148,847,5,0.0854609115403134,1
148,848,5,0.0785135148021247,1
149,846,5,0.0732229498388415,1
149,847,5,0.0757445614276864,1
149,848,5,0.0734657214258004,1
150,845,5,0.0754163696536702,1
150,846,5,0.0769087761039204,1
150,847,5,0.0777828101208612,1
150,848,5,0.0740041243676714,1
150,871,5,0.0684400363104977,1
151,844,5,0.08200340353414,1
151,845,5,0.108516401634279,1
151,846,5,0.118679996296881,1
151,847,5,0.0971534682524653,1
151,848,5,0.0761481465047313,1
151,871,5,0.0717260869956897,1
151,872,5,0.0965351617066854,1
152,843,5,0.0723751630177274,1
152,844,5,0.105923727350024,1
152,845,5,0.182091196870213,1
152,846,5,0.202573221889649,1
152,847,5,0.134014228639598,1
152,848,5,0.0766887896226039,1
153,843,5,0.0736182989747038,1
153,844,5,0.114630476858958,1
153,845,5,0.202685829667271,1
153,846,5,0.221789834977375,1
153,847,5,0.137439397848358,1
153,848,5,0.0689751089372432,1
154,842,5,0.0684097040878444,1
154,843,5,0.0757388052535218,1
154,844,5,0.096558821319537,1
154,845,5,0.140808562657076,1
154,846,5,0.143706811323416,1
154,847,5,0.0899308473241709,1
155,841,5,0.0688769425081231,1
155,842,5,0.0739405249324162,1
155,843,5,0.0777996833181784,1
155,844,5,0.0846555922268241,1
155,845,5,0.0912878369320543,1
155,846,5,0.0781459941627961,1
156,841,5,0.0793155577084672,1
156,842,5,0.0801628473782226,1
156,843,5,0.0779360824837116,1
156,844,5,0.0788753331752672,1
156,845,5,0.0763475041995513,1
157,841,5,0.0769803479302403,1
157,842,5,0.0773521931874115,1
157,843,5,0.0746815499967032,1
157,844,5,0.0718922733143143,1
158,841,5,0.0714491137911656,1
158,842,5,0.073626043754303,1
158,843,5,0.0720986031077063,1
159,842,5,0.0693896313441784,1
161,841,5,0.069910639978272,1
162,840,5,0.070765147327391,1
162,841,5,0.0769897938060547,1
162,842,5,0.0680590446662823,1
163,840,5,0.0693864807223152,1
163,841,5,0.0736413596100148,1
140,853,6,0.0722129359406458,1
145,848,6,0.0682263930013356,1
145,849,6,0.0714152236419214,1
145,850,6,0.0740184099820134,1
146,847,6,0.0804931056247537,1
146,848,6,0.0732364927210333,1
146,849,6,0.071516498764477,1
146,850,6,0.0700059672538499,1
147,847,6,0.0847305003580448,1
147,848,6,0.0755388845198136,1
148,846,6,0.0788589571293086,1
148,847,6,0.0774559001587818,1
148,848,6,0.0727843605143272,1
149,846,6,0.072231582111483,1
149,847,6,0.0741183493846536,1
149,848,6,0.0726419116756344,1
150,845,6,0.0726858047498056,1
150,846,6,0.0750609603402116,1
150,847,6,0.0764805311215313,1
150,848,6,0.0741893581720854,1
151,844,6,0.0790959126443488,1
151,845,6,0.101910230421389,1
151,846,6,0.11780411143934,1
151,847,6,0.0974223792192936,1
151,848,6,0.078675472339313,1
152,843,6,0.0721165904032489,1
152,844,6,0.0999270217744149,1
152,845,6,0.176594212266907,1
152,846,6,0.216134193203129,1
152,847,6,0.147686430082358,1
152,848,6,0.0861186008593842,1
153,843,6,0.0725473391117575,1
153,844,6,0.109522492229584,1
153,845,6,0.206189417015639,1
153,846,6,0.251622558280035,1
153,847,6,0.16381313367032,1
153,848,6,0.0825134987974448,1
154,842,6,0.0706633870330275,1
154,843,6,0.0736266846602714,1
154,844,6,0.0898072123700267,1
154,845,6,0.139160991074947,1
154,846,6,0.160534222797411,1
154,847,6,0.107091434065319,1
155,842,6,0.075242935706805,1
155,843,6,0.0776503821764218,1
155,844,6,0.0844463573923604,1
155,845,6,0.0929485620609734,1
155,846,6,0.0855243372720819,1
156,841,6,0.0788760759074174,1
156,842,6,0.0814814005973292,1
156,843,6,0.0810828529214003,1
156,844,6,0.0853228651865437,1
156,845,6,0.0840595676455525,1
157,841,6,0.076475769250084,1
157,842,6,0.0785572880807878,1
157,843,6,0.0778672839234045,1
157,844,6,0.0791954028138336,1
157,845,6,0.0729237425880123,1
158,841,6,0.0715688434117454,1
158,842,6,0.074662400684732,1
158,843,6,0.0742984080231173,1
159,842,6,0.0706653396998097,1
159,843,6,0.0691904353732943,1
161,840,6,0.0684450737116137,1
161,841,6,0.0701895299109258,1
162,839,6,0.068452878388967,1
162,840,6,0.0733215535215663,1
162,841,6,0.0759869257099178,1
162,842,6,0.0681480946572353,1
163,840,6,0.0707309457098258,1
163,841,6,0.0716312329123687,1
139,853,7,0.0704867665256466,1
139,854,7,0.0691541912423158,1
139,859,7,0.0691683870100268,1
140,853,7,0.0818612541842175,1
140,854,7,0.0790314087530073,1
140,858,7,0.068179451131483,1
140,859,7,0.0750106941450089,1
141,853,7,0.0753689186529081,1
141,854,7,0.0739399079855494,1
145,849,7,0.0709193061770014,1
145,850,7,0.0777956282402289,1
145,851,7,0.0694639524774094,1
146,848,7,0.0689225546478357,1
146,849,7,0.0707345156159674,1
146,850,7,0.073046365270113,1
147,847,7,0.0750875609327872,1
147,848,7,0.0714026930317732,1
148,846,7,0.0774474905141125,1
148,847,7,0.0743547777994581,1
148,848,7,0.0721232869721522,1
149,846,7,0.0742493218136695,1
149,847,7,0.0749189906835512,1
149,848,7,0.0735390841949665,1
150,845,7,0.0768505974154071,1
150,846,7,0.0794830378185794,1
150,847,7,0.0796730933921948,1
150,848,7,0.0763101459703475,1
151,844,7,0.0817739052894796,1
151,845,7,0.100882265166303,1
151,846,7,0.119303783487157,1
151,847,7,0.102920765430045,1
151,848,7,0.083967438910041,1
152,844,7,0.0990563060930487,1
152,845,7,0.165801906818645,1
152,846,7,0.216730559201598,1
152,847,7,0.159644369783624,1
152,848,7,0.0979951275333396,1
152,849,7,0.0694634613158262,1
153,843,7,0.0768885426426007,1
153,844,7,0.108577401507008,1
153,845,7,0.201300011270361,1
153,846,7,0.266082714677384,1
153,847,7,0.187540203372521,1
153,848,7,0.100541099538759,1
154,842,7,0.0746232335433556,1
154,843,7,0.076093010622124,1
154,844,7,0.0912238781102747,1
154,845,7,0.142520991527295,1
154,846,7,0.17902170052503,1
154,847,7,0.128613799215828,1
154,848,7,0.076373218305367,1
155,842,7,0.0775051780410425,1
155,843,7,0.0798387346412575,1
155,844,7,0.0891009100337651,1
155,845,7,0.101110787077572,1
155,846,7,0.0977626224214257,1
155,847,7,0.0721832925421642,1
156,841,7,0.0793232785289648,1
156,842,7,0.0818808706986704,1
156,843,7,0.083736083835005,1
156,844,7,0.0941146395573585,1
156,845,7,0.0973473572823402,1
156,846,7,0.0749092572985174,1
157,841,7,0.0768207084361339,1
157,842,7,0.0789208554683487,1
157,843,7,0.0799085095349557,1
157,844,7,0.0865823891690294,1
157,845,7,0.0852794992126081,1
158,841,7,0.0748403569120283,1
158,842,7,0.0772110561095326,1
158,843,7,0.0779478344230572,1
158,844,7,0.0745351119675904,1
159,841,7,0.0715902328997183,1
159,842,7,0.0740286225490797,1
159,843,7,0.075561861298269,1
160,841,7,0.0700197976452612,1
160,842,7,0.0704268567920411,1
160,843,7,0.0684822043293522,1
161,839,7,0.0681403019594328,1
161,840,7,0.0701948668008121,1
161,841,7,0.071446711891228,1
161,842,7,0.0692458407957948,1
162,839,7,0.0700892790399645,1
162,840,7,0.0742796779954244,1
162,841,7,0.0755023528796157,1
162,842,7,0.0711500203460691,1
163,840,7,0.0723308925877056,1
163,841,7,0.0713387941077477,1
168,843,7,0.0690658720039623,1
139,854,8,0.0698264117565203,1
139,859,8,0.0748075748712342,1
140,853,8,0.0802908488786374,1
140,854,8,0.084211408452081,1
140,855,8,0.0712626221339164,1
140,858,8,0.0701756995195146,1
140,859,8,0.0783316173026115,1
141,853,8,0.0772958653394986,1
141,854,8,0.0819848412201585,1
145,850,8,0.0734667336978439,1
145,851,8,0.071734083345856,1
146,849,8,0.0679222861142247,1
146,850,8,0.0700545024039604,1
147,847,8,0.0684517523111908,1
147,848,8,0.0690319578956165,1
148,847,8,0.0710832642991752,1
148,848,8,0.0713925104135839,1
149,846,8,0.0725467461239924,1
149,847,8,0.0742274531436641,1
149,848,8,0.0748436632680521,1
149,849,8,0.0686010414733966,1
150,845,8,0.0755129068638801,1
150,846,8,0.0797919544953408,1
150,847,8,0.0809793376228431,1
150,848,8,0.0787755734658891,1
150,849,8,0.069586647036815,1
151,845,8,0.0978606570754869,1
151,846,8,0.116431913791702,1
151,847,8,0.104858493712365,1
151,848,8,0.0865123627047641,1
151,849,8,0.0718403120126719,1
152,844,8,0.0989454832684968,1
152,845,8,0.156871427218766,1
152,846,8,0.206906656681791,1
152,847,8,0.161165605022901,1
152,848,8,0.103055918722294,1
152,849,8,0.0791403747471836,1
153,843,8,0.081203451059414,1
153,844,8,0.110041638043527,1
153,845,8,0.195049045718566,1
153,846,8,0.261530437451028,1
153,847,8,0.193968478255869,1
153,848,8,0.109905095123384,1
153,849,8,0.0778528425749019,1
154,843,8,0.0783361635421442,1
154,844,8,0.0933472714608382,1
154,845,8,0.142480524604656,1
154,846,8,0.181245680173978,1
154,847,8,0.13627624336237,1
154,848,8,0.0850459099513458,1
155,842,8,0.0771145847868522,1
155,843,8,0.0811354551290111,1
155,844,8,0.0924203956452704,1
155,845,8,0.106892717276467,1
155,846,8,0.103061381397463,1
155,847,8,0.0793877584612047,1
156,841,8,0.078555281506027,1
156,842,8,0.0789019996553723,1
156,843,8,0.0854420736966632,1
156,844,8,0.103304410544765,1
156,845,8,0.112954933025686,1
156,846,8,0.0864605751066084,1
157,840,8,0.0695554822353803,1
157,841,8,0.0772434068864975,1
157,842,8,0.0787128365582923,1
157,843,8,0.0828739215529178,1
157,844,8,0.095450077953333,1
157,845,8,0.100067038764293,1
157,846,8,0.0716661952314104,1
158,840,8,0.0696062036535138,1
158,841,8,0.0799791888847402,1
158,842,8,0.0820211272795648,1
158,843,8,0.0835389543366357,1
158,844,8,0.0845063929112494,1
158,845,8,0.0750436319199636,1
159,840,8,0.0705371585061328,1
159,841,8,0.0782681975606184,1
159,842,8,0.0797244137878688,1
159,843,8,0.0820459668781712,1
159,844,8,0.076532216893505,1
160,840,8,0.0696966133234839,1
160,841,8,0.0732462320958425,1
160,842,8,0.0727389160883259,1
160,843,8,0.0720842216569578,1
161,839,8,0.0684678049092774,1
161,840,8,0.0699719453295469,1
161,841,8,0.0716232485417532,1
161,842,8,0.0703590884731037,1
162,840,8,0.0733519396521982,1
162,841,8,0.0746217420892797,1
162,842,8,0.0731946481500507,1
162,843,8,0.0680919405128091,1
163,840,8,0.071987331049999,1
163,841,8,0.0708571622571697,1
167,843,8,0.0696689824895385,1
168,842,8,0.0682104661885325,1
168,843,8,0.0776447997057439,1
139,859,9,0.0702444741207201,1
140,853,9,0.0690733352641175,1
140,854,9,0.0758073462534865,1
140,858,9,0.0681661538300828,1
140,859,9,0.0719218987434697,1
141,853,9,0.0690598103512519,1
141,854,9,0.0760055299523271,1
148,848,9,0.0692313096006612,1
149,846,9,0.0696675928616444,1
149,847,9,0.0719560344735054,1
149,848,9,0.0736937521754864,1
149,849,9,0.0708757904586807,1
150,846,9,0.079047269678281,1
150,847,9,0.0807220288509752,1
150,848,9,0.0784999120221788,1
150,849,9,0.0726561853104256,1
151,845,9,0.0966798926498076,1
151,846,9,0.112861061265531,1
151,847,9,0.104605593415196,1
151,848,9,0.0868735880901414,1
151,849,9,0.0747701507545009,1
152,843,9,0.0830673673394127,1
152,844,9,0.0978381415097377,1
152,845,9,0.144315767829788,1
152,846,9,0.183098485420599,1
152,847,9,0.150901549847198,1
152,848,9,0.102701875077627,1
152,849,9,0.0833866942458288,1
153,842,9,0.0781381894854428,1
153,843,9,0.0854385157700724,1
153,844,9,0.109471974463814,1
153,845,9,0.177094011106289,1
153,846,9,0.227078039969148,1
153,847,9,0.178094447353612,1
153,848,9,0.109845113512473,1
153,849,9,0.0841296899462243,1
154,843,9,0.081236969842583,1
154,844,9,0.0941086437921776,1
154,845,9,0.132036692309933,1
154,846,9,0.159465167683044,1
154,847,9,0.127192725000882,1
154,848,9,0.0851144928797383,1
155,840,9,0.102208101952303,1
155,842,9,0.0766323539587336,1
155,843,9,0.0819633978242069,1
155,844,9,0.0943403762230642,1
155,845,9,0.108722953049361,1
155,846,9,0.104157965519594,1
155,847,9,0.0851435552700057,1
155,848,9,0.067887102173493,1
156,841,9,0.0838197250587669,1
156,842,9,0.0775610207171477,1
156,843,9,0.0866894084861988,1
156,844,9,0.106853963429594,1
156,845,9,0.119791459021119,1
156,846,9,0.0985961116486469,1
156,847,9,0.0725921606011166,1
157,840,9,0.0736183888213349,1
157,841,9,0.078553628328015,1
157,842,9,0.0816993206061308,1
157,843,9,0.0868414709144173,1
157,844,9,0.099055497473369,1
157,845,9,0.105056084423441,1
157,846,9,0.0828222777093719,1
158,840,9,0.0745711464564297,1
158,841,9,0.0852483224316226,1
158,842,9,0.0891600530761186,1
158,843,9,0.0887307119648303,1
158,844,9,0.090431035498955,1
158,845,9,0.0818237761595055,1
159,840,9,0.0745693734829097,1
159,841,9,0.0834906288286644,1
159,842,9,0.0850094561782281,1
159,843,9,0.0846558557769419,1
159,844,9,0.0825504257628195,1
159,872,9,0.0724028717187531,1
159,873,9,0.084705271424037,1
159,874,9,0.0692729565090554,1
160,840,9,0.0734770421013167,1
160,841,9,0.077869877496155,1
160,842,9,0.075694564772377,1
160,843,9,0.0737072950576782,1
160,872,9,0.0736312308998042,1
160,873,9,0.0846257751248557,1
160,874,9,0.0683735557932724,1
161,837,9,0.0703251803545334,1
161,839,9,0.0695890908651804,1
161,840,9,0.074592733606991,1
161,841,9,0.077076957017755,1
161,842,9,0.0733950001475881,1
161,843,9,0.070990548565674,1
162,839,9,0.0723282930251797,1
162,840,9,0.0792128210807127,1
162,841,9,0.0814426227913542,1
162,842,9,0.0770423840341147,1
162,843,9,0.0734406602055039,1
163,840,9,0.0760880990062915,1
163,841,9,0.0761565142209727,1
163,842,9,0.0697264903232064,1
167,843,9,0.0716454706085075,1
168,842,9,0.0688645376832584,1
168,843,9,0.0799975834850104,1
140,858,10,0.070747375663763,1
140,859,10,0.069681752690703,1
141,858,10,0.0773098035468671,1
141,859,10,0.0713190038898081,1
149,847,10,0.0683194801009119,1
149,848,10,0.0702315362058443,1
149,849,10,0.0708865900237368,1
150,846,10,0.0772853353143357,1
150,847,10,0.0795861937306123,1
150,848,10,0.0769300218372836,1
150,849,10,0.0731069698176655,1
151,845,10,0.0918830229447691,1
151,846,10,0.106089847781119,1
151,847,10,0.100824403935886,1
151,848,10,0.085746150634897,1
151,849,10,0.0739460654746662,1
152,843,10,0.0833253529559014,1
152,844,10,0.0944568953240267,1
152,845,10,0.124953734974768,1
152,846,10,0.150757627523756,1
152,847,10,0.132119614760647,1
152,848,10,0.0993566454114295,1
152,849,10,0.0811663623701033,1
153,842,10,0.0773055448165538,1
153,843,10,0.0905312863699163,1
153,844,10,0.108988144365663,1
153,845,10,0.148111272872317,1
153,846,10,0.174772925218469,1
153,847,10,0.146418897770155,1
153,848,10,0.103006862461723,1
153,849,10,0.0812643610855121,1
154,840,10,0.163418623103014,1
154,842,10,0.076989871673135,1
154,843,10,0.0868372720818581,1
154,844,10,0.0988149361135347,1
154,845,10,0.116885914808335,1
154,846,10,0.126591375509275,1
154,847,10,0.107210786330048,1
154,848,10,0.0793877524714292,1
155,839,10,0.160826439980342,1
155,840,10,0.18726318823957,1
155,841,10,0.125948744485573,1
155,842,10,0.0760286804342693,1
155,843,10,0.0834248131765092,1
155,844,10,0.0962899702504627,1
155,845,10,0.104617273477236,1
155,846,10,0.0988300842555351,1
155,847,10,0.083572137692382,1
156,840,10,0.1290203731908,1
156,841,10,0.0966605696343496,1
156,842,10,0.0771003111520609,1
156,843,10,0.0863834747175893,1
156,844,10,0.102417720132392,1
156,845,10,0.112869135482778,1
156,846,10,0.10196091590087,1
156,847,10,0.0812584671465132,1
157,840,10,0.0764990874457374,1
157,841,10,0.0793584025719425,1
157,842,10,0.0861370853062855,1
157,843,10,0.0916373103780861,1
157,844,10,0.0984618807818104,1
157,845,10,0.102357343196305,1
157,846,10,0.0904377200883075,1
157,847,10,0.0713466227442027,1
158,839,10,0.0679902221468735,1
158,840,10,0.0773222323308334,1
158,841,10,0.0882072714819222,1
158,842,10,0.0959872410116951,1
158,843,10,0.0941913146723238,1
158,844,10,0.0933658337748197,1
158,845,10,0.0869603140482371,1
158,846,10,0.0713486832269421,1
158,873,10,0.0705923363171679,1
159,839,10,0.0687692882747607,1
159,840,10,0.0792940124863337,1
159,841,10,0.090015009658393,1
159,842,10,0.0929053218723214,1
159,843,10,0.0872887633825958,1
159,844,10,0.0844528922373277,1
159,845,10,0.0728082776875212,1
159,872,10,0.0743083330809641,1
159,873,10,0.099078749781493,1
159,874,10,0.0848359323847318,1
160,837,10,0.0696895154396284,1
160,839,10,0.070636936184837,1
160,840,10,0.0814223653709329,1
160,841,10,0.0893007588901684,1
160,842,10,0.085901351705428,1
160,843,10,0.0778572570393757,1
160,844,10,0.0714894908671738,1
160,872,10,0.074940200478262,1
160,873,10,0.0978423523218478,1
160,874,10,0.0820864338008105,1
161,836,10,0.0696347449333209,1
161,837,10,0.0712535416344017,1
161,838,10,0.0683066260428918,1
161,839,10,0.0729418556688384,1
161,840,10,0.0845273032171898,1
161,841,10,0.0894717370291174,1
161,842,10,0.0828294354909814,1
161,843,10,0.0762485291507514,1
162,839,10,0.0751296930129893,1
162,840,10,0.0887917537659874,1
162,841,10,0.0919770803879611,1
162,842,10,0.0837053622769503,1
162,843,10,0.0779412756189882,1
163,839,10,0.0696432983325999,1
163,840,10,0.0825198060309467,1
163,841,10,0.0842541395098236,1
163,842,10,0.0762276428039126,1
163,843,10,0.07009371746354,1
164,840,10,0.0687737746165394,1
164,841,10,0.0700859726839407,1
167,843,10,0.0697954506074495,1
168,843,10,0.0749127792864558,1
140,858,11,0.0700975988380027,1
140,859,11,0.0708599475027333,1
141,858,11,0.0866889652428188,1
141,859,11,0.0857480134550481,1
142,858,11,0.072124095591832,1
142,859,11,0.0710603114798214,1
149,849,11,0.0679924802922014,1
150,846,11,0.0772049525283944,1
150,847,11,0.0796571965282687,1
150,848,11,0.0751525380163857,1
150,849,11,0.0700352812146843,1
151,845,11,0.0864036782300319,1
151,846,11,0.0980458070230452,1
151,847,11,0.0966412765677686,1
151,848,11,0.084374689729634,1
151,849,11,0.0714072632304076,1
152,843,11,0.0832141288163974,1
152,844,11,0.0924081765034432,1
152,845,11,0.105864212941595,1
152,846,11,0.120817807036846,1
152,847,11,0.114344632797058,1
152,848,11,0.0954000992673498,1
152,849,11,0.0770535669447967,1
152,850,11,0.067931139002274,1
153,840,11,0.1238122754553,1
153,842,11,0.0790474373919924,1
153,843,11,0.096443506163431,1
153,844,11,0.112079144004551,1
153,845,11,0.120986922355644,1
153,846,11,0.127460252329591,1
153,847,11,0.11638549303231,1
153,848,11,0.095329312101608,1
153,849,11,0.0760389948275175,1
154,839,11,0.202856202838904,1
154,840,11,0.243650933906614,1
154,841,11,0.146293208323047,1
154,842,11,0.0812009712923961,1
154,843,11,0.0963246510500603,1
154,844,11,0.111495679982305,1
154,845,11,0.109360600579925,1
154,846,11,0.103774044875206,1
154,847,11,0.0933403412906941,1
154,848,11,0.0770991671049585,1
155,838,11,0.107289755528994,1
155,839,11,0.236891472361547,1
155,840,11,0.282197199123519,1
155,841,11,0.165146924878058,1
155,842,11,0.0787567775506668,1
155,843,11,0.0862429545865771,1
155,844,11,0.100462579572968,1
155,845,11,0.099945799720311,1
155,846,11,0.093332392858731,1
155,847,11,0.0825684549867899,1
155,867,11,0.0692216241338306,1
156,839,11,0.137595683068237,1
156,840,11,0.16189181737261,1
156,841,11,0.106008806119883,1
156,842,11,0.0763885341610788,1
156,843,11,0.0855191022083775,1
156,844,11,0.0970186563774145,1
156,845,11,0.100310139788899,1
156,846,11,0.0969718223235192,1
156,847,11,0.0838341783868203,1
157,840,11,0.0772166086313334,1
157,841,11,0.0775589901832852,1
157,842,11,0.0859612794083597,1
157,843,11,0.093924302464299,1
157,844,11,0.0976964294134199,1
157,845,11,0.0970361045931706,1
157,846,11,0.0921821163898656,1
157,847,11,0.0782513483224029,1
158,839,11,0.0686747396699854,1
158,840,11,0.0760540471331114,1
158,841,11,0.0856681517795671,1
158,842,11,0.0957940228366656,1
158,843,11,0.0953931032096763,1
158,844,11,0.092876894398247,1
158,845,11,0.088486131465699,1
158,846,11,0.0786425046154813,1
158,873,11,0.0683159101947702,1
159,839,11,0.0726167007109528,1
159,840,11,0.0831598374921222,1
159,841,11,0.0955486816360578,1
159,842,11,0.0992293207556356,1
159,843,11,0.089342190166648,1
159,844,11,0.082840169168508,1
159,845,11,0.0772383994342585,1
159,872,11,0.0690691903395369,1
159,873,11,0.098040589928667,1
159,874,11,0.0896776655075573,1
160,836,11,0.0702394606787058,1
160,837,11,0.0690090949228939,1
160,838,11,0.0677654438452326,1
160,839,11,0.0750134913701233,1
160,840,11,0.0882630123318454,1
160,841,11,0.100287085143364,1
160,842,11,0.096624205707863,1
160,843,11,0.0824968412320422,1
160,844,11,0.0732621529188703,1
160,873,11,0.0944119181005071,1
160,874,11,0.0848975432145524,1
161,836,11,0.0732788164740483,1
161,837,11,0.0711190352378966,1
161,838,11,0.0686623408348961,1
161,839,11,0.0760630857041982,1
161,840,11,0.0890505420123805,1
161,841,11,0.0952678929446004,1
161,842,11,0.0878907537801712,1
161,843,11,0.0774668434784475,1
162,839,11,0.0757572357924444,1
162,840,11,0.0897407737812293,1
162,841,11,0.0934054321800252,1
162,842,11,0.085561965041179,1
162,843,11,0.0774924258092043,1
163,839,11,0.0698659203150948,1
163,840,11,0.0851094315195207,1
163,841,11,0.0921037341889097,1
163,842,11,0.0873534888956273,1
163,843,11,0.0771745903568641,1
164,840,11,0.0708926456866717,1
164,841,11,0.0799088868908063,1
164,842,11,0.0801456267739319,1
164,843,11,0.0718988920161373,1
169,840,11,0.0723357023773562,1
169,841,11,0.0708964072656263,1
170,840,11,0.0755840474263708,1
170,841,11,0.0732722217313268,1
140,859,12,0.0725041887697365,1
141,858,12,0.0843211471272845,1
141,859,12,0.0924676489834441,1
141,860,12,0.0696039095695335,1
142,858,12,0.0688622795379305,1
142,859,12,0.0735085483199495,1
150,846,12,0.073461786143359,1
150,847,12,0.0769302434589736,1
150,848,12,0.0722719891363683,1
151,844,12,0.0738314511222826,1
151,845,12,0.077812441539792,1
151,846,12,0.0871998751155787,1
151,847,12,0.0916008625947439,1
151,848,12,0.0833313786699593,1
151,849,12,0.0700184259866933,1
152,843,12,0.0801093946225042,1
152,844,12,0.0882104760117641,1
152,845,12,0.0901188124661697,1
152,846,12,0.0983462781164849,1
152,847,12,0.10292734220344,1
152,848,12,0.0933300029383442,1
152,849,12,0.0755870423140735,1
152,850,12,0.0678974884440461,1
153,839,12,0.115881609166101,1
153,840,12,0.134414848777817,1
153,841,12,0.0897384377688211,1
153,842,12,0.0785038652739465,1
153,843,12,0.0975783050526487,1
153,844,12,0.111664639566942,1
153,845,12,0.102488183850262,1
153,846,12,0.0984461396520448,1
153,847,12,0.0999923582445377,1
153,848,12,0.0909704686821957,1
153,849,12,0.0733584385585131,1
154,838,12,0.104300114869517,1
154,839,12,0.233088635833922,1
154,840,12,0.283575278730605,1
154,841,12,0.156335198565367,1
154,842,12,0.0847505301670007,1
154,843,12,0.101849134712253,1
154,844,12,0.118392546975173,1
154,845,12,0.10500452443675,1
154,846,12,0.0934445094747705,1
154,847,12,0.0899620720233596,1
154,848,12,0.0780816160567382,1
155,838,12,0.119317164645413,1
155,839,12,0.274836388086845,1
155,840,12,0.331455578675556,1
155,841,12,0.18020276443948,1
155,842,12,0.0812968975455146,1
155,843,12,0.0865147166864984,1
155,844,12,0.100108464050997,1
155,845,12,0.0953952355697206,1
155,846,12,0.0927646819458011,1
155,847,12,0.0878975581650318,1
155,848,12,0.0699636375110595,1
155,867,12,0.0678806451956059,1
156,838,12,0.0832075400634514,1
156,839,12,0.148969595708369,1
156,840,12,0.178289690072728,1
156,841,12,0.1081289230633,1
156,842,12,0.0753174065844211,1
156,843,12,0.0833522710065736,1
156,844,12,0.0930425955450638,1
156,845,12,0.0940382519516126,1
156,846,12,0.097662365560689,1
156,847,12,0.0911662744402004,1
157,839,12,0.0743403484305063,1
157,840,12,0.0796921708268612,1
157,841,12,0.0764309836993773,1
157,842,12,0.0824014181200577,1
157,843,12,0.0925471033541976,1
157,844,12,0.097165903026207,1
157,845,12,0.0962168830109652,1
157,846,12,0.0968903613780049,1
157,847,12,0.0867560028091567,1
158,839,12,0.0688506593736439,1
158,840,12,0.0746959434270026,1
158,841,12,0.0822889780561463,1
158,842,12,0.0916064810040742,1
158,843,12,0.0933653665723381,1
158,844,12,0.0908636410378393,1
158,845,12,0.0884291866709192,1
158,846,12,0.0834812428506041,1
158,847,12,0.0694377052815827,1
159,839,12,0.0744339087223397,1
159,840,12,0.0850443286506387,1
159,841,12,0.0988891494308084,1
159,842,12,0.103327039916247,1
159,843,12,0.0925806401066928,1
159,844,12,0.082888165238832,1
159,845,12,0.0803667273534738,1
159,846,12,0.0690405711926496,1
159,873,12,0.0811181566576402,1
159,874,12,0.079579305488896,1
160,836,12,0.0722058081079133,1
160,839,12,0.0768531550495053,1
160,840,12,0.091766126487956,1
160,841,12,0.107792345603716,1
160,842,12,0.105979671852311,1
160,843,12,0.0879960779909009,1
160,844,12,0.0758694242857888,1
160,845,12,0.0720985791486047,1
160,873,12,0.0778252656489351,1
160,874,12,0.0757194223403097,1
161,836,12,0.073283171040768,1
161,837,12,0.0683724776336995,1
161,838,12,0.0679366555854224,1
161,839,12,0.0763961591451699,1
161,840,12,0.0881212043991211,1
161,841,12,0.0964534911190319,1
161,842,12,0.0915936269460541,1
161,843,12,0.0779669597759268,1
162,839,12,0.0733948743623045,1
162,840,12,0.0843923296182031,1
162,841,12,0.0898540643932482,1
162,842,12,0.0862297710909097,1
162,843,12,0.0747836816571418,1
163,840,12,0.0829906323266933,1
163,841,12,0.0968727933667406,1
163,842,12,0.0987261616522503,1
163,843,12,0.0833725823349735,1
164,840,12,0.0708338320819654,1
164,841,12,0.0881840551124506,1
164,842,12,0.0955949346817388,1
164,843,12,0.0831695469180545,1
165,841,12,0.0701026721777712,1
165,842,12,0.0776673991283487,1
165,843,12,0.0739902700171585,1
169,840,12,0.0794474226140185,1
169,841,12,0.075151699447829,1
170,840,12,0.0864006114650243,1
170,841,12,0.0783706406893781,1
172,842,12,0.0710403894868229,1
172,843,12,0.074111826519237,1
173,843,12,0.0701267690442273,1
141,858,13,0.0697976548447987,1
141,859,13,0.0819308014664504,1
150,846,13,0.0690287174271222,1
150,847,13,0.0723121386009111,1
150,848,13,0.0700416483459403,1
151,844,13,0.0734890935294325,1
151,845,13,0.0741539106812358,1
151,846,13,0.0782099230356987,1
151,847,13,0.0845491419383182,1
151,848,13,0.0814085050306446,1
151,849,13,0.0695763146742406,1
152,843,13,0.081697655448568,1
152,844,13,0.0896784082397075,1
152,845,13,0.0848043423092434,1
152,846,13,0.0845182047483489,1
152,847,13,0.0919850827279028,1
152,848,13,0.0885585478503511,1
152,849,13,0.0740580323463206,1
153,839,13,0.119525309340753,1
153,840,13,0.134369254607431,1
153,841,13,0.0911215008690445,1
153,842,13,0.081818169729726,1
153,843,13,0.100183390151544,1
153,844,13,0.11346952661032,1
153,845,13,0.098376340799245,1
153,846,13,0.0871835889162512,1
153,847,13,0.0910489227604565,1
153,848,13,0.0864862233248946,1
153,849,13,0.0724526407625971,1
154,838,13,0.111357100538524,1
154,839,13,0.227196733358583,1
154,840,13,0.271197000550484,1
154,841,13,0.15213863014124,1
154,842,13,0.0910579972701958,1
154,843,13,0.106035604375047,1
154,844,13,0.120813578255409,1
154,845,13,0.105847213958994,1
154,846,13,0.0928547561883484,1
154,847,13,0.0905809296284767,1
154,848,13,0.0789034611605712,1
155,838,13,0.124197214361507,1
155,839,13,0.265448780807571,1
155,840,13,0.317708181592356,1
155,841,13,0.17618077400932,1
155,842,13,0.0886049865790696,1
155,843,13,0.0902271495339284,1
155,844,13,0.101189073442122,1
155,845,13,0.0975334056962093,1
155,846,13,0.0971049091432532,1
155,847,13,0.0939618224174388,1
155,848,13,0.0739627769480475,1
156,838,13,0.0886405478756519,1
156,839,13,0.151935780407358,1
156,840,13,0.181830258294449,1
156,841,13,0.113661822359937,1
156,842,13,0.0807910130943199,1
156,843,13,0.085507380217909,1
156,844,13,0.0956231764727756,1
156,845,13,0.098190723649205,1
156,846,13,0.101710171922846,1
156,847,13,0.0970377637609579,1
156,848,13,0.0727731057263403,1
157,839,13,0.0815139849755349,1
157,840,13,0.0897144547080976,1
157,841,13,0.0829141728436425,1
157,842,13,0.0826539590307029,1
157,843,13,0.0904854765676153,1
157,844,13,0.0982126881556169,1
157,845,13,0.0992308241892623,1
157,846,13,0.0990751918549021,1
157,847,13,0.0917596275816411,1
157,848,13,0.0682715798669944,1
158,839,13,0.0704776560772549,1
158,840,13,0.0768057579567218,1
158,841,13,0.082423891757379,1
158,842,13,0.0884174586906754,1
158,843,13,0.090297727057531,1
158,844,13,0.0896326822942622,1
158,845,13,0.0876337385072981,1
158,846,13,0.0844267169188059,1
158,847,13,0.0746682287362015,1
159,839,13,0.0754392086672913,1
159,840,13,0.0842048616275629,1
159,841,13,0.0959986695031687,1
159,842,13,0.101858227191319,1
159,843,13,0.0949108604020069,1
159,844,13,0.0841900129743327,1
159,845,13,0.0800840399032129,1
159,846,13,0.0730497914216449,1
160,836,13,0.0714726416289582,1
160,838,13,0.0680279697114787,1
160,839,13,0.0776293580647486,1
160,840,13,0.0890415214106199,1
160,841,13,0.103846365423451,1
160,842,13,0.107412258415587,1
160,843,13,0.0943102416629993,1
160,844,13,0.0799696052440915,1
160,845,13,0.074430248969567,1
161,836,13,0.0705877062207795,1
161,839,13,0.075842230705448,1
161,840,13,0.0828673627488488,1
161,841,13,0.0915616175862873,1
161,842,13,0.0918016218970088,1
161,843,13,0.0808423155206677,1
161,844,13,0.0694135425275971,1
162,839,13,0.0707792891871233,1
162,840,13,0.0776912444242379,1
162,841,13,0.08612444688018,1
162,842,13,0.0877154510233795,1
162,843,13,0.0759518316158171,1
163,840,13,0.0777976647638668,1
163,841,13,0.0970224359256953,1
163,842,13,0.105543496407285,1
163,843,13,0.0884948166400369,1
164,840,13,0.0704194713989662,1
164,841,13,0.0925058517709801,1
164,842,13,0.106136460213324,1
164,843,13,0.0913874768459242,1
164,844,13,0.0706712336388087,1
165,841,13,0.0754079779783272,1
165,842,13,0.0860502635117833,1
165,843,13,0.0792731980167997,1
165,844,13,0.0691762276260325,1
169,840,13,0.076875916196046,1
169,841,13,0.0718790359106682,1
170,840,13,0.0832003223840878,1
170,841,13,0.0742893095542764,1
172,842,13,0.0695696839928667,1
172,843,13,0.0727411323052259,1
150,847,14,0.0677742967332819,1
150,848,14,0.0684221927695648,1
151,844,14,0.0729526612236699,1
151,846,14,0.0721132481085727,1
151,847,14,0.0799768049541289,1
151,848,14,0.0821240436005815,1
151,849,14,0.0714132350364868,1
152,843,14,0.0836362702176483,1
152,844,14,0.0913977972289478,1
152,845,14,0.0828087587862817,1
152,846,14,0.0780603283949472,1
152,847,14,0.0872509199815841,1
152,848,14,0.0891868513312827,1
152,849,14,0.0752818991958175,1
153,840,14,0.116835361103913,1
153,842,14,0.0842710666151195,1
153,843,14,0.102647200407726,1
153,844,14,0.114517701367624,1
153,845,14,0.0980190447065336,1
153,846,14,0.085256881820677,1
153,847,14,0.0893254727034914,1
153,848,14,0.0885784339046972,1
153,849,14,0.0751417564206559,1
154,839,14,0.179559594335992,1
154,840,14,0.207828531034895,1
154,841,14,0.129556110682616,1
154,842,14,0.093112562111575,1
154,843,14,0.106159688562347,1
154,844,14,0.116743070644465,1
154,845,14,0.103192054337709,1
154,846,14,0.093958294439725,1
154,847,14,0.0917654915717631,1
154,848,14,0.0825611414710198,1
154,849,14,0.068140230082128,1
155,838,14,0.111049633387411,1
155,839,14,0.208894351670544,1
155,840,14,0.247107705170412,1
155,841,14,0.151562964806571,1
155,842,14,0.0931836367865363,1
155,843,14,0.0928280717389171,1
155,844,14,0.0994995854117055,1
155,845,14,0.097555573854985,1
155,846,14,0.100742008585409,1
155,847,14,0.0968269176769102,1
155,848,14,0.0786317170299761,1
156,838,14,0.0861593073730398,1
156,839,14,0.136245587691845,1
156,840,14,0.163110089771879,1
156,841,14,0.113643948870127,1
156,842,14,0.0858932655086306,1
156,843,14,0.0858470963198053,1
156,844,14,0.093679386537745,1
156,845,14,0.098176276310927,1
156,846,14,0.10357689740751,1
156,847,14,0.0989008474621753,1
156,848,14,0.078277853078572,1
157,839,14,0.0837514356293692,1
157,840,14,0.0960129670970616,1
157,841,14,0.088856880593971,1
157,842,14,0.083512988660253,1
157,843,14,0.086210262392414,1
157,844,14,0.0938642190272068,1
157,845,14,0.0968372739985862,1
157,846,14,0.0974340233426818,1
157,847,14,0.0923481948925329,1
157,848,14,0.0738851015405894,1
158,839,14,0.0718687095378692,1
158,840,14,0.0803296087152861,1
158,841,14,0.0844922270924154,1
158,842,14,0.0860705987992848,1
158,843,14,0.0871938134628684,1
158,844,14,0.0869846924341374,1
158,845,14,0.0844729220462836,1
158,846,14,0.0819629066626237,1
158,847,14,0.0758824999654989,1
159,839,14,0.0747308698073918,1
159,840,14,0.0829442235468517,1
159,841,14,0.0905993182389715,1
159,842,14,0.0957526394783893,1
159,843,14,0.0943989741958559,1
159,844,14,0.0835060285412319,1
159,845,14,0.0759554674094883,1
159,846,14,0.0714947139513274,1
160,839,14,0.0750508855379796,1
160,840,14,0.0827544854313328,1
160,841,14,0.0933171728394257,1
160,842,14,0.100688915216215,1
160,843,14,0.0965283872707018,1
160,844,14,0.0811448650661731,1
160,845,14,0.0718638338606891,1
161,839,14,0.0728260433613738,1
161,840,14,0.0770517041246456,1
161,841,14,0.0844561267160467,1
161,842,14,0.0877324679753064,1
161,843,14,0.081638829864311,1
161,844,14,0.0704691326268529,1
162,840,14,0.0720007241878056,1
162,841,14,0.0820064942582492,1
162,842,14,0.0867050537795579,1
162,843,14,0.0771373938515962,1
163,840,14,0.0700830856121953,1
163,841,14,0.0894271072125713,1
163,842,14,0.102150911576731,1
163,843,14,0.0888583660582716,1
163,844,14,0.0709925491506594,1
164,841,14,0.0890752498359281,1
164,842,14,0.104854252951378,1
164,843,14,0.0922248414578327,1
164,844,14,0.0744417673076717,1
165,841,14,0.0793894895062968,1
165,842,14,0.0882173163352772,1
165,843,14,0.0793654585273701,1
165,844,14,0.0715368939497327,1
166,842,14,0.0699102027246674,1
170,840,14,0.0716058362646496,1
151,844,15,0.0724030154733629,1
151,846,15,0.0700655415600327,1
151,847,15,0.0791348042560565,1
151,848,15,0.08416227432443,1
151,849,15,0.075085931713877,1
152,843,15,0.0815062881141389,1
152,844,15,0.0890679243406072,1
152,845,15,0.0821302609874523,1
152,846,15,0.07648390935486,1
152,847,15,0.0864855165313968,1
152,848,15,0.091413340696125,1
152,849,15,0.0796316800850414,1
153,842,15,0.0800809791279807,1
153,843,15,0.0957046853364931,1
153,844,15,0.106503238120502,1
153,845,15,0.0943639998972634,1
153,846,15,0.0829015463970878,1
153,847,15,0.0867323132474281,1
153,848,15,0.0892937089245162,1
153,849,15,0.0789413225309092,1
153,850,15,0.0688282576136275,1
154,840,15,0.133297839521554,1
154,841,15,0.0992857803786075,1
154,842,15,0.0857051925506745,1
154,843,15,0.0964749704536359,1
154,844,15,0.105053832267888,1
154,845,15,0.0967426894551585,1
154,846,15,0.089855597775752,1
154,847,15,0.0882316199189454,1
154,848,15,0.0837392045079912,1
154,849,15,0.072079998865297,1
155,839,15,0.136221952038095,1
155,840,15,0.159519099620794,1
155,841,15,0.116994377661377,1
155,842,15,0.0885975053495882,1
155,843,15,0.0889678831117851,1
155,844,15,0.0937081254801404,1
155,845,15,0.0938994508861418,1
155,846,15,0.0962956006393438,1
155,847,15,0.092786071433774,1
155,848,15,0.0812816835159847,1
156,839,15,0.10454036476103,1
156,840,15,0.125691327897748,1
156,841,15,0.10269378888083,1
156,842,15,0.0841095523213111,1
156,843,15,0.0819217569055881,1
156,844,15,0.0867126847534244,1
156,845,15,0.0918518401740082,1
156,846,15,0.095988007702947,1
156,847,15,0.0927437416909836,1
156,848,15,0.080132658910179,1
157,839,15,0.0769218338143043,1
157,840,15,0.0900543265441545,1
157,841,15,0.0865612093231956,1
157,842,15,0.0798263238266174,1
157,843,15,0.0795593355776942,1
157,844,15,0.085097853283662,1
157,845,15,0.0889790959713442,1
157,846,15,0.0893033404833682,1
157,847,15,0.0863818574782298,1
157,848,15,0.0751386477272205,1
158,839,15,0.0700924955493573,1
158,840,15,0.0789277017816371,1
158,841,15,0.0813903979395939,1
158,842,15,0.0800549116254161,1
158,843,15,0.081367205529224,1
158,844,15,0.081951669843963,1
158,845,15,0.0802756348491075,1
158,846,15,0.0772708400578545,1
158,847,15,0.0738736251309125,1
159,839,15,0.0713404293164334,1
159,840,15,0.0781174888216415,1
159,841,15,0.0809805415676996,1
159,842,15,0.0840898040317993,1
159,843,15,0.0872044333346623,1
159,844,15,0.0790007231336051,1
159,845,15,0.071455295239384,1
159,846,15,0.0678652155341615,1
160,839,15,0.069187063129741,1
160,840,15,0.07391465509244,1
160,841,15,0.079257882161088,1
160,842,15,0.0867639033229166,1
160,843,15,0.0896456741171167,1
160,844,15,0.0771421437434927,1
161,840,15,0.0705943309123779,1
161,841,15,0.0754484628702927,1
161,842,15,0.0784480465569429,1
161,843,15,0.0766317130527652,1
162,841,15,0.0759821219100426,1
162,842,15,0.0802485610642748,1
162,843,15,0.074316353390232,1
163,841,15,0.0797519667547339,1
163,842,15,0.0901163147298257,1
163,843,15,0.082660386059713,1
163,844,15,0.0700476321315704,1
164,841,15,0.0845933404910351,1
164,842,15,0.0946048547560925,1
164,843,15,0.0851569064793844,1
164,844,15,0.0712758954762149,1
165,840,15,0.068214742888172,1
165,841,15,0.0840535898496979,1
165,842,15,0.086285571838587,1
165,843,15,0.0758321379338898,1
165,844,15,0.0681643568974612,1
166,841,15,0.0732358937434927,1
166,842,15,0.0711400054415912,1
151,846,16,0.0684909074730163,1
151,847,16,0.0781538647276789,1
151,848,16,0.085955966477575,1
151,849,16,0.0811850384898176,1
151,850,16,0.0690201879869448,1
152,844,16,0.0865650906976584,1
152,846,16,0.0744821204245783,1
152,847,16,0.0836861051490218,1
152,848,16,0.0918243171560201,1
152,849,16,0.0872179163191,1
152,850,16,0.0737975789423648,1
153,843,16,0.0874143450137468,1
153,844,16,0.0949013606182138,1
153,845,16,0.0877595717090161,1
153,846,16,0.0764992851083258,1
153,847,16,0.0792840694591607,1
153,848,16,0.0846288778285157,1
153,849,16,0.0807207590185892,1
153,850,16,0.0695512714232703,1
154,840,16,0.0915762446178274,1
154,841,16,0.083856466341104,1
154,842,16,0.0804084161902958,1
154,843,16,0.08607074854367,1
154,844,16,0.091167628129442,1
154,845,16,0.0879723944189477,1
154,846,16,0.0800338216262135,1
154,847,16,0.0809239262105672,1
154,848,16,0.0834297427616679,1
154,849,16,0.075595691549759,1
155,839,16,0.0914152274753777,1
155,840,16,0.105583412270587,1
155,841,16,0.0969399926570145,1
155,842,16,0.08572248503227,1
155,843,16,0.0831970639462672,1
155,844,16,0.0847074756613862,1
155,845,16,0.0866367942990372,1
155,846,16,0.0849518525081538,1
155,847,16,0.08689683440849,1
155,848,16,0.0864308418614957,1
155,849,16,0.0731892513624103,1
156,839,16,0.0810119220010488,1
156,840,16,0.0968537159320742,1
156,841,16,0.0934527573955038,1
156,842,16,0.0829216361037977,1
156,843,16,0.0776076391391284,1
156,844,16,0.0780872164967423,1
156,845,16,0.0818416197004384,1
156,846,16,0.0821792932889215,1
156,847,16,0.0842157091108222,1
156,848,16,0.081729179636527,1
157,839,16,0.0698328088366534,1
157,840,16,0.0813648934759175,1
157,841,16,0.0815939544669732,1
157,842,16,0.0757178889578059,1
157,843,16,0.0740517251128186,1
157,844,16,0.076963989853608,1
157,845,16,0.0795937588169494,1
157,846,16,0.0780368484753578,1
157,847,16,0.0773870896189238,1
157,848,16,0.0721422985192892,1
158,840,16,0.074239181123908,1
158,841,16,0.0750387203041311,1
158,842,16,0.0730644543918375,1
158,843,16,0.0748098869245407,1
158,844,16,0.076178957909417,1
158,845,16,0.0751361979090796,1
158,846,16,0.0721060543883107,1
158,847,16,0.0699029011884481,1
159,840,16,0.0712036048768464,1
159,841,16,0.0718254753389925,1
159,842,16,0.0738157159822925,1
159,843,16,0.0777456555440211,1
159,844,16,0.0735285661493545,1
159,845,16,0.0685498288936799,1
160,841,16,0.0690380015790006,1
160,842,16,0.0744686314503652,1
160,843,16,0.0784753719123427,1
160,844,16,0.0717534303204156,1
161,841,16,0.0693269363650094,1
161,842,16,0.0710227855369062,1
161,843,16,0.0705523845152135,1
162,841,16,0.0705956127243147,1
162,842,16,0.0732259746754213,1
162,843,16,0.070405952475876,1
162,850,16,0.0686078817969096,1
163,841,16,0.0706872203493659,1
163,842,16,0.076550341953882,1
163,843,16,0.0738797406916015,1
163,844,16,0.0680709104113605,1
163,849,16,0.0693201619290259,1
163,850,16,0.0733962040924446,1
163,861,16,0.0763311401331436,1
164,841,16,0.0774268497480653,1
164,842,16,0.0812360593967213,1
164,843,16,0.074534914305002,1
165,840,16,0.0692318307111215,1
165,841,16,0.082748297993339,1
165,842,16,0.0807517141778846,1
165,843,16,0.0693047083084798,1
166,841,16,0.0714423153960804,1
166,842,16,0.0678857544740268,1
151,847,17,0.077234092785742,1
151,848,17,0.0844324850725213,1
151,849,17,0.0848529074082309,1
151,850,17,0.075381281549345,1
152,846,17,0.0789158659854359,1
152,847,17,0.0819574679465555,1
152,848,17,0.0889741364373084,1
152,849,17,0.091146118845961,1
152,850,17,0.0806252400701983,1
153,842,17,0.0718988740468111,1
153,844,17,0.0856291942803299,1
153,845,17,0.0836800315167606,1
153,846,17,0.0767368875191098,1
153,847,17,0.0759011700954377,1
153,848,17,0.0805636771585809,1
153,849,17,0.0810692321721283,1
153,850,17,0.0710626415024542,1
154,841,17,0.0735091233383884,1
154,842,17,0.0743181922512815,1
154,843,17,0.0771461149645865,1
154,844,17,0.0818325212315975,1
154,845,17,0.0832529665201264,1
154,846,17,0.0774561756884504,1
154,847,17,0.0788367650114314,1
154,848,17,0.0853743113675012,1
154,849,17,0.0794630020198481,1
155,840,17,0.0771342851581607,1
155,841,17,0.0809035849332902,1
155,842,17,0.0790019749966649,1
155,843,17,0.076307732090859,1
155,844,17,0.0783631474803459,1
155,845,17,0.0817841657747492,1
155,846,17,0.0792787625181514,1
155,847,17,0.0856853843634086,1
155,848,17,0.0940687458982018,1
155,849,17,0.0822262471383249,1
156,840,17,0.0766727789529451,1
156,841,17,0.0812187309764733,1
156,842,17,0.0778253914342187,1
156,843,17,0.0728918829726307,1
156,844,17,0.0739742533577243,1
156,845,17,0.0764944992777768,1
156,846,17,0.0749404340795028,1
156,847,17,0.0801607150181782,1
156,848,17,0.0845503698422763,1
156,849,17,0.0721857303807542,1
157,840,17,0.0729962727783971,1
157,841,17,0.0745645876523607,1
157,842,17,0.0715140369667854,1
157,843,17,0.0704534693641676,1
157,844,17,0.0744303927241767,1
157,845,17,0.0754824069275155,1
157,846,17,0.0728875883036649,1
157,847,17,0.0724349050376215,1
157,848,17,0.0705864363883935,1
158,840,17,0.0691846133116002,1
158,841,17,0.069200432308446,1
158,842,17,0.0681379779265755,1
158,843,17,0.069445923253439,1
158,844,17,0.073051462568983,1
158,845,17,0.0731991644407064,1
158,846,17,0.0713305222279128,1
158,847,17,0.0685137105479849,1
159,842,17,0.0682954071935573,1
159,843,17,0.069842685976297,1
159,844,17,0.0700320946541686,1
159,845,17,0.0690098017163917,1
159,846,17,0.0680133307003878,1
160,843,17,0.0683097047874502,1
161,836,17,0.0697779125450623,1
161,849,17,0.0677547580859093,1
161,850,17,0.0762924521737997,1
161,851,17,0.0700120528656619,1
162,835,17,0.0680863460625804,1
162,836,17,0.0723425666599709,1
162,842,17,0.0681134138576377,1
162,849,17,0.0736448157104238,1
162,850,17,0.0843421233207545,1
162,851,17,0.0681776482090859,1
162,860,17,0.0704873894622888,1
162,861,17,0.0837333465076447,1
162,862,17,0.0726839359398791,1
163,842,17,0.0697031062400234,1
163,843,17,0.0689052681560155,1
163,849,17,0.0731235495159878,1
163,850,17,0.0839696371576149,1
163,860,17,0.0867585784125811,1
163,861,17,0.101722822328503,1
163,862,17,0.0853663150173349,1
164,841,17,0.0726527891077707,1
164,842,17,0.0756607225413362,1
164,843,17,0.0718719799552406,1
164,860,17,0.0706405719785081,1
164,861,17,0.082342700351758,1
164,862,17,0.0711395921470882,1
165,841,17,0.0781863892081306,1
165,842,17,0.0796442885622699,1
165,843,17,0.0715563786891266,1
168,847,17,0.0709590543265921,1
168,848,17,0.0748110848796218,1
169,847,17,0.0707572108749787,1
169,848,17,0.0802173243855353,1
169,849,17,0.0692660263389113,1
151,847,18,0.0730647119521799,1
151,848,18,0.0774530190768117,1
151,849,18,0.0818243990961477,1
151,850,18,0.0763947814968267,1
152,847,18,0.0770640849904087,1
152,848,18,0.0807009508313233,1
152,849,18,0.0863340470909434,1
152,850,18,0.0807904620349826,1
153,841,18,0.069368589263179,1
153,842,18,0.0726684403909052,1
153,843,18,0.0745940513575802,1
153,845,18,0.0756178537187592,1
153,846,18,0.0738094327078922,1
153,847,18,0.0713978772523472,1
153,848,18,0.0740281373772719,1
153,849,18,0.0765813330518299,1
153,850,18,0.0696071560278033,1
154,841,18,0.0701352445764261,1
154,842,18,0.0734040087697979,1
154,843,18,0.0721945054017232,1
154,844,18,0.0726041820803554,1
154,845,18,0.0737831016552097,1
154,846,18,0.0719060917261747,1
154,847,18,0.0742689263485716,1
154,848,18,0.0812184674263555,1
154,849,18,0.0778416237255675,1
155,841,18,0.0738806750965648,1
155,842,18,0.0759148747015654,1
155,843,18,0.0710919075450853,1
155,844,18,0.0703809870919861,1
155,845,18,0.0726223131305077,1
155,846,18,0.0715616976096867,1
155,847,18,0.0801436741071497,1
155,848,18,0.0913260097707133,1
155,849,18,0.0833005852345998,1
156,841,18,0.0753512907438899,1
156,842,18,0.0753690504279671,1
156,843,18,0.0693015756559427,1
156,844,18,0.0690807565958448,1
156,845,18,0.0698255432390865,1
156,846,18,0.0683411211594518,1
156,847,18,0.0742131136213435,1
156,848,18,0.0803867751317559,1
156,849,18,0.0719192033445372,1
157,840,18,0.068332909177371,1
157,841,18,0.0711385079977398,1
157,842,18,0.0696543075397951,1
157,844,18,0.0705963674360158,1
157,845,18,0.0708171565472366,1
157,846,18,0.0687592793600581,1
157,847,18,0.0679648434684806,1
158,844,18,0.0687629211435047,1
158,845,18,0.0705954629799296,1
158,846,18,0.0703550693338066,1
159,845,18,0.0694805860837104,1
159,846,18,0.0692767420471117,1
159,852,18,0.0694725118664638,1
160,850,18,0.070423382722306,1
160,851,18,0.0795010311038974,1
160,852,18,0.0807478747318497,1
161,836,18,0.0744261998813929,1
161,849,18,0.0701515008268765,1
161,850,18,0.0847687211149071,1
161,851,18,0.0843568461887011,1
161,852,18,0.0756434719881684,1
162,835,18,0.0687644904646609,1
162,836,18,0.0769601803564501,1
162,849,18,0.0754848926843087,1
162,850,18,0.0919307794240769,1
162,851,18,0.081523484759328,1
162,860,18,0.0809085684264275,1
162,861,18,0.0943365487565801,1
162,862,18,0.0838715905240028,1
163,849,18,0.0702531952337105,1
163,850,18,0.0837391446102372,1
163,851,18,0.0710822999453349,1
163,860,18,0.0953811595975178,1
163,861,18,0.111956353608739,1
163,862,18,0.0989900771463905,1
164,841,18,0.0699737063235161,1
164,842,18,0.0738149313217144,1
164,843,18,0.0722271257185814,1
164,860,18,0.0766886099293417,1
164,861,18,0.0939547964108882,1
164,862,18,0.0877952288420049,1
165,841,18,0.073492423844558,1
165,842,18,0.0795302132896728,1
165,843,18,0.0759492859612698,1
168,847,18,0.0740661604715458,1
168,848,18,0.0878339826888782,1
168,849,18,0.0731160083887523,1
169,847,18,0.0754212333512995,1
169,848,18,0.0941242711162105,1
169,849,18,0.0788588732724529,1
170,848,18,0.0678242454703881,1
151,848,19,0.0695522297873352,1
151,849,19,0.0753028993483891,1
151,850,19,0.070528682973934,1
152,842,19,0.0860062686114301,1
152,847,19,0.071078047204797,1
152,848,19,0.0712266834814836,1
152,849,19,0.0774157926226668,1
152,850,19,0.0738608429501973,1
153,841,19,0.071161143358997,1
153,842,19,0.0747314807644832,1
153,843,19,0.0751882730164547,1
153,848,19,0.0678972488530299,1
153,849,19,0.071769021705796,1
153,850,19,0.0678141407192791,1
154,841,19,0.070391798636593,1
154,842,19,0.0741277713013664,1
154,843,19,0.0704264734464152,1
154,848,19,0.0730343318113234,1
154,849,19,0.0737979143697875,1
155,841,19,0.0718656607421878,1
155,842,19,0.0742368630808261,1
155,843,19,0.068434250187456,1
155,847,19,0.0716228951450043,1
155,848,19,0.0801175347272803,1
155,849,19,0.0778184792334008,1
156,841,19,0.0725875484740544,1
156,842,19,0.0726103575387984,1
156,847,19,0.069495249053903,1
156,848,19,0.0736936623288553,1
156,849,19,0.069772515757422,1
157,841,19,0.0688855617949316,1
158,852,19,0.0693945729088879,1
159,851,19,0.0782430524834663,1
159,852,19,0.0896531313874965,1
159,853,19,0.0740318510380233,1
160,850,19,0.0746905705984639,1
160,851,19,0.0874954226136351,1
160,852,19,0.0941576760936467,1
160,853,19,0.0753612277812875,1
161,836,19,0.0732121682431117,1
161,849,19,0.0702577175141416,1
161,850,19,0.082733688931125,1
161,851,19,0.0853419965291887,1
161,852,19,0.0812500634916193,1
162,835,19,0.0685292420356113,1
162,836,19,0.0763038746754979,1
162,841,19,0.0692820729472225,1
162,849,19,0.0731032801160157,1
162,850,19,0.0879199060170696,1
162,851,19,0.0862543830780507,1
162,852,19,0.0747036702372756,1
162,860,19,0.0774502877392268,1
162,861,19,0.0892034489989312,1
162,862,19,0.0811523403058791,1
163,841,19,0.0684569813851198,1
163,850,19,0.0770656243626879,1
163,851,19,0.0753004974484515,1
163,860,19,0.0887970427376705,1
163,861,19,0.10590093026483,1
163,862,19,0.0978570811795698,1
164,842,19,0.0683624327803445,1
164,860,19,0.0766822487878611,1
164,861,19,0.0987798659785357,1
164,862,19,0.0970057064829879,1
165,841,19,0.0678080910461195,1
165,842,19,0.0725625351719612,1
165,843,19,0.0701419171862278,1
165,861,19,0.0731398536846415,1
165,862,19,0.0727165203180849,1
168,847,19,0.0723132167604841,1
168,848,19,0.08831892089548,1
168,849,19,0.0725135867273477,1
169,847,19,0.072178267120599,1
169,848,19,0.090235726892309,1
169,849,19,0.0754334824420036,1
151,849,20,0.070734258055625,1
152,841,20,0.0716469800319097,1
152,842,20,0.0902333010332698,1
152,849,20,0.0686926490984478,1
153,841,20,0.0697245915644028,1
153,842,20,0.0724468546395554,1
153,843,20,0.0718578261159575,1
154,841,20,0.0696669579454515,1
154,842,20,0.0732933296998557,1
154,843,20,0.0678674796692647,1
154,849,20,0.068440557420958,1
155,841,20,0.0720290618152489,1
155,842,20,0.0743948314275944,1
155,843,20,0.0678966798243664,1
155,848,20,0.0684697396067334,1
155,849,20,0.0702464088181761,1
156,841,20,0.0715774327496768,1
156,842,20,0.0714332947943197,1
157,841,20,0.0686616699800507,1
158,851,20,0.0690448898207169,1
158,852,20,0.0755971051367547,1
159,851,20,0.08298482224455,1
159,852,20,0.0952974105577986,1
159,853,20,0.076898886984726,1
160,850,20,0.0781900789097804,1
160,851,20,0.0909346078968432,1
160,852,20,0.0960604360671499,1
160,853,20,0.0740385775558036,1
161,849,20,0.0687795367804794,1
161,850,20,0.0804199824466038,1
161,851,20,0.0856634498058738,1
161,852,20,0.0818269866791228,1
162,836,20,0.0719405449143069,1
162,840,20,0.0680270832247187,1
162,841,20,0.0706236688323139,1
162,849,20,0.0707567257031709,1
162,850,20,0.0837563113065492,1
162,851,20,0.0870298253918176,1
162,852,20,0.0773395068431028,1
162,860,20,0.0692141488941245,1
162,861,20,0.0778308900480409,1
162,862,20,0.073527583826188,1
163,841,20,0.0681949167315799,1
163,849,20,0.0679208485681274,1
163,850,20,0.0800668672171254,1
163,851,20,0.0806963327144857,1
163,852,20,0.0693143758059842,1
163,860,20,0.0788683610766952,1
163,861,20,0.0945475984929917,1
163,862,20,0.0916585740807755,1
164,850,20,0.071355475632252,1
164,860,20,0.0743770477844156,1
164,861,20,0.0984937823256199,1
164,862,20,0.0996158409625502,1
164,863,20,0.0678969912926874,1
165,861,20,0.0741428595456128,1
165,862,20,0.074289051993934,1
168,847,20,0.0693327584267036,1
168,848,20,0.0798612981252099,1
168,849,20,0.0680141033814151,1
169,848,20,0.0773876227089349,1
169,849,20,0.0690203736699824,1
151,849,21,0.0683164193256797,1
152,842,21,0.0889007676783669,1
153,841,21,0.0698905921999899,1
153,842,21,0.070573797962288,1
153,843,21,0.0683952327904648,1
154,841,21,0.0701739564948716,1
154,842,21,0.0722540677283552,1
155,841,21,0.0716849252591033,1
155,842,21,0.073719628005238,1
155,843,21,0.0679875806559197,1
156,841,21,0.0693309914429589,1
156,842,21,0.0703189090596839,1
156,850,21,0.0680708744727081,1
156,851,21,0.0684290510624041,1
157,850,21,0.0682122451518279,1
157,851,21,0.0706605598590361,1
158,851,21,0.0704121099649929,1
158,852,21,0.0720390228117482,1
159,850,21,0.0678435025983166,1
159,851,21,0.0791596198955613,1
159,852,21,0.0847566337481389,1
159,853,21,0.0706847226130218,1
160,850,21,0.0779182149836771,1
160,851,21,0.0881394672243323,1
160,852,21,0.0874897502963262,1
160,853,21,0.0680602845497912,1
161,850,21,0.0773351462866076,1
161,851,21,0.0833131757425021,1
161,852,21,0.078208731070393,1
162,841,21,0.0716921309589161,1
162,842,21,0.0678503968298083,1
162,849,21,0.070214010123008,1
162,850,21,0.0821052656546853,1
162,851,21,0.0830668821676048,1
162,852,21,0.0717331249817911,1
162,861,21,0.0677450306906508,1
163,841,21,0.0684948547350085,1
163,849,21,0.0740118511779444,1
163,850,21,0.0889241936899777,1
163,851,21,0.0836261654665393,1
163,860,21,0.0706482508705779,1
163,861,21,0.0824163985483468,1
163,862,21,0.0832439399285904,1
164,850,21,0.0820343407241092,1
164,851,21,0.0733042550501953,1
164,860,21,0.0720648147846441,1
164,861,21,0.0917969438824172,1
164,862,21,0.0938230992190483,1
165,861,21,0.0706677415997473,1
165,862,21,0.0710188981726681,1
168,848,21,0.0697700599495057,1
154,841,22,0.068967645677088,1
154,842,22,0.0692020675171317,1
155,841,22,0.0696192374047961,1
155,842,22,0.0712518405381866,1
155,843,22,0.0679399200130184,1
156,842,22,0.0682146410619901,1
157,850,22,0.0678762606800091,1
157,851,22,0.0729111580698854,1
158,851,22,0.0707326527958163,1
158,852,22,0.068189394158656,1
159,851,22,0.0726100400807019,1
159,852,22,0.0731935100927236,1
160,850,22,0.0702650669685641,1
160,851,22,0.0793283698380595,1
160,852,22,0.0770036781054446,1
161,850,22,0.0709043616873648,1
161,851,22,0.0759183607508514,1
161,852,22,0.0710222704162213,1
162,841,22,0.0687776320319005,1
162,842,22,0.0700916749501267,1
162,850,22,0.0795519681539455,1
162,851,22,0.0758200924955494,1
163,842,22,0.069482161394642,1
163,849,22,0.074975965427208,1
163,850,22,0.0929503530038197,1
163,851,22,0.0812914468498957,1
163,861,22,0.0744810302854545,1
163,862,22,0.0757072511166858,1
164,849,22,0.069359724395579,1
164,850,22,0.0827645901824419,1
164,851,22,0.0711102602169276,1
164,860,22,0.0713958706775864,1
164,861,22,0.0826649382890211,1
164,862,22,0.0832509839044672,1
154,841,23,0.0677793101752963,1
155,842,23,0.0694051029340507,1
155,843,23,0.0691572040993448,1
156,839,23,0.0694997234161309,1
157,839,23,0.0682488486693307,1
157,851,23,0.0712193879350398,1
157,852,23,0.0712847124256118,1
158,851,23,0.0709053320309805,1
158,852,23,0.0722431843064434,1
159,852,23,0.0687359491848539,1
160,851,23,0.0677470732040641,1
160,852,23,0.0685632639599143,1
162,842,23,0.0680628721327664,1
162,850,23,0.0744062958577205,1
162,851,23,0.069059205383936,1
163,842,23,0.0685909187529613,1
163,849,23,0.0712311877925886,1
163,850,23,0.0864582331044249,1
163,851,23,0.0747922650052978,1
163,859,23,0.0678933554990163,1
163,861,23,0.068705814624789,1
164,850,23,0.0747818188369907,1
164,859,23,0.0718719559961389,1
164,860,23,0.0726037568063016,1
164,861,23,0.0739257781053679,1
164,862,23,0.0706059570664399,1
155,843,24,0.0702646057558579,1
156,839,24,0.0709706924602049,1
156,843,24,0.069857384885142,1
157,839,24,0.070191955769965,1
157,852,24,0.0726023611886321,1
158,852,24,0.0763463062444702,1
158,853,24,0.0704841070653666,1
163,850,24,0.0718115011929716,1
163,859,24,0.0678407053732023,1
164,858,24,0.0681830390069508,1
164,859,24,0.0758689810424088,1
164,860,24,0.07347908461473,1
155,843,25,0.0679982184970398,1
156,843,25,0.0689344203929139,1
158,852,25,0.0717455837146345,1
158,853,25,0.0695929722396432,1
161,860,25,0.0695349492852904,1
161,861,25,0.0696766553918329,1
164,859,25,0.0738621666905619,1
164,860,25,0.0711210178535558,1
160,860,26,0.0841832924463278,1
160,861,26,0.0766122882111253,1
161,860,26,0.0784643686949228,1
161,861,26,0.0732364987108087,1
164,859,26,0.0682833737347678,1
158,840,27,0.067822161028547,1
159,860,27,0.0715420511463568,1
160,859,27,0.0685932607551449,1
160,860,27,0.0978933193207729,1
160,861,27,0.0826790262407748,1
161,860,27,0.081927339376266,1
161,861,27,0.0707317303704039,1
159,860,28,0.070548359386141,1
160,859,28,0.0689032555914793,1
160,860,28,0.0972747851635276,1
160,861,28,0.0796743692143561,1
161,860,28,0.0771510864781731,1
167,842,28,0.0681673937135917,1
160,860,29,0.0811994438996677,1
160,861,29,0.0678402082218437,1
166,841,29,0.0712329248274561,1
166,842,29,0.0721101573844635,1
167,841,29,0.102578545602029,1
167,842,29,0.101251750451964,1
167,843,29,0.0718028339879599,1
168,841,29,0.103102327502135,1
168,842,29,0.0995080250052518,1
168,843,29,0.0681772289248075,1
169,841,29,0.0727881340728326,1
169,842,29,0.0701658882674004,1
166,841,30,0.0887965216272102,1
166,842,30,0.0882207844152369,1
166,843,30,0.0684205276120021,1
167,840,30,0.081806381851728,1
167,841,30,0.150113475097101,1
167,842,30,0.144847324458371,1
167,843,30,0.0879443562802747,1
168,840,30,0.0827866445354848,1
168,841,30,0.149668913966508,1
168,842,30,0.141466910851441,1
168,843,30,0.0827397805327124,1
169,841,30,0.0907086795583245,1
169,842,30,0.0855729323199464,1
166,841,31,0.102357990092049,1
166,842,31,0.100847428632545,1
166,843,31,0.0744758611092796,1
167,840,31,0.0965792464536696,1
167,841,31,0.181330711025634,1
167,842,31,0.172832681230478,1
167,843,31,0.0999846853422433,1
168,840,31,0.0967431806167418,1
168,841,31,0.177898042618067,1
168,842,31,0.166636893489718,1
168,843,31,0.0940838820606514,1
169,841,31,0.102220572664697,1
169,842,31,0.0961471859843472,1
169,843,31,0.0688624472516419,1
166,841,32,0.100263305735004,1
166,842,32,0.100265599818984,1
166,843,32,0.0764225980138096,1
166,844,32,0.0678406874038761,1
167,840,32,0.0949577962820841,1
167,841,32,0.171819822188965,1
167,842,32,0.164025962370027,1
167,843,32,0.0983759215149666,1
168,840,32,0.0936012618971315,1
168,841,32,0.165379244306934,1
168,842,32,0.155684026121938,1
168,843,32,0.092213454894787,1
169,841,32,0.0952705524048804,1
169,842,32,0.0915583291995897,1
169,843,32,0.0690813915120378,1
165,842,33,0.068242679200663,1
166,841,33,0.0881787481714414,1
166,842,33,0.0920763369562051,1
166,843,33,0.0777979762321878,1
167,840,33,0.0841770690696815,1
167,841,33,0.131506609166101,1
167,842,33,0.128626305866875,1
167,843,33,0.089774244646195,1
168,840,33,0.081844021600376,1
168,841,33,0.1251189210009,1
168,842,33,0.121349327726776,1
168,843,33,0.0850314027153137,1
169,841,33,0.0810638473640388,1
169,842,33,0.0815480308589395,1
