x,y,z,signal,cytoplasm.p
699,815,22,0.184638109270371,1
700,814,22,0.171408108986695,1
700,815,22,0.240323038650439,1
700,816,22,0.152129405887115,1
701,815,22,0.149207868973998,1
678,825,23,0.129037156541486,1
698,814,23,0.0712117749304994,1
698,815,23,0.0843375171834677,1
699,813,23,0.0721317145861477,1
699,814,23,0.135036791117268,1
699,815,23,0.186766012921814,1
699,816,23,0.12015709887097,1
700,813,23,0.0863104413860704,1
700,814,23,0.175362091506901,1
700,815,23,0.245146029766021,1
700,816,23,0.161858394425848,1
700,817,23,0.0759256682768461,1
701,813,23,0.0719264689421041,1
701,814,23,0.113017094914844,1
701,815,23,0.150755662877423,1
701,816,23,0.103715668524104,1
702,815,23,0.0706241360347955,1
677,825,24,0.192435958279729,1
678,824,24,0.152266236316478,1
678,825,24,0.230753749503567,2
678,826,24,0.183300328872213,1
679,824,24,0.132787666391169,1
679,825,24,0.197742755534361,1
679,826,24,0.160057448654687,1
680,824,24,0.081141924086449,1
680,825,24,0.110769755141815,1
680,826,24,0.0977088342382846,1
681,825,24,0.0687394352341398,1
681,826,24,0.0720571898005529,1
698,815,24,0.0762059538271694,1
699,813,24,0.0684614198086952,1
699,814,24,0.119347988029649,1
699,815,24,0.156971144999716,1
699,816,24,0.109798105755091,1
700,813,24,0.0794088185115303,1
700,814,24,0.152674619203622,1
700,815,24,0.208122605048202,1
700,816,24,0.1490077266186,1
700,817,24,0.0755324814499052,1
701,814,24,0.104555375138196,1
701,815,24,0.135642525124472,1
701,816,24,0.102098800530704,1
702,815,24,0.0688852982448137,1
676,825,25,0.138576197322561,1
677,824,25,0.168993953968624,1
677,825,25,0.290115514495832,2
677,826,25,0.223459496851199,1
678,824,25,0.205442635777187,2
678,825,25,0.36137831632301,2
678,826,25,0.274805169377431,2
678,827,25,0.114008786090074,1
679,824,25,0.151858787834297,1
679,825,25,0.258634381042485,2
679,826,25,0.198635711251807,1
679,827,25,0.0952328707278047,1
680,824,25,0.0770877925214635,1
680,825,25,0.110743819414309,1
680,826,25,0.0935163089125558,1
680,827,25,0.068823729343421,1
699,814,25,0.0918369615719011,1
699,815,25,0.11208562494154,1
699,816,25,0.0877002968916037,1
700,813,25,0.0690308557769419,1
700,814,25,0.115088934268492,1
700,815,25,0.149721276583102,1
700,816,25,0.117514338084775,1
700,817,25,0.0691947779604633,1
701,814,25,0.0886834466471058,1
701,815,25,0.111054533023692,1
701,816,25,0.0911994518061713,1
676,824,26,0.0866286601840366,1
676,825,26,0.140513709972966,2
677,824,26,0.177643656856597,2
677,825,26,0.344894646079984,2
677,826,26,0.26315294781286,2
678,824,26,0.230440723840878,2
678,825,26,0.453602864281848,2
678,826,26,0.348716314461484,2
678,827,26,0.132831068303757,2
679,824,26,0.148676743609245,1
679,825,26,0.290018456175161,2
679,826,26,0.222619370952829,2
679,827,26,0.0966468829975481,1
680,825,26,0.101973398592815,1
680,826,26,0.0856785739887726,1
699,815,26,0.07555995654969,1
700,814,26,0.0829888653429487,1
700,815,26,0.100509150076746,1
700,816,26,0.0851198177900738,1
701,814,26,0.074683023481453,1
701,815,26,0.0878478130802894,1
701,816,26,0.0755065756712765,1
676,824,27,0.0835492807094348,1
676,825,27,0.130769938668533,2
677,824,27,0.16927737816126,2
677,825,27,0.340392611089729,2
677,826,27,0.273525873146332,2
678,824,27,0.234181817763623,2
678,825,27,0.480521537890648,2
678,826,27,0.393200819056264,2
678,827,27,0.157411201819205,2
679,824,27,0.148916849746149,1
679,825,27,0.307530115632375,2
679,826,27,0.253472847820987,2
679,827,27,0.112211721693376,1
680,824,27,0.0691738077567687,1
680,825,27,0.108518833483094,1
680,826,27,0.0959815746841615,1
676,824,28,0.0800713295998025,1
676,825,28,0.118194836468589,1
677,824,28,0.148553857377027,1
677,825,28,0.298386603680425,2
677,826,28,0.264585198948713,2
678,824,28,0.21424228670266,2
678,825,28,0.448120973912563,2
678,826,28,0.404698312742562,2
678,827,28,0.184677474074335,2
679,824,28,0.146177306168951,1
679,825,28,0.307715223651505,2
679,826,28,0.282281343488415,2
679,827,28,0.137590280290821,1
680,824,28,0.073336366236144,1
680,825,28,0.119012884054815,1
680,826,28,0.112577960520767,1
680,827,28,0.0729001548524656,1
681,792,28,0.0769931780291588,1
682,792,28,0.0790792730482724,1
682,793,28,0.0768375397050232,1
676,824,29,0.0751074529769088,1
676,825,29,0.101325113221131,1
677,824,29,0.118823738927062,1
677,825,29,0.222810971888499,2
677,826,29,0.218973394663522,2
678,824,29,0.172107858508663,2
678,825,29,0.348743484082723,2
678,826,29,0.346798388376654,2
678,827,29,0.182913605012934,2
679,824,29,0.130587585946089,1
679,825,29,0.262401710181506,2
679,826,29,0.263559701481094,2
679,827,29,0.144297834442224,1
679,828,29,0.0682823494831734,1
680,792,29,0.0679550022674894,1
680,824,29,0.0744033428984456,1
680,825,29,0.116305122225919,1
680,826,29,0.116395364182178,1
680,827,29,0.0775581216658514,1
681,791,29,0.0750343837067375,1
681,792,29,0.0756930733183011,1
681,793,29,0.0705416568274623,1
682,791,29,0.0748501142561638,1
682,792,29,0.0761073142057922,1
682,793,29,0.071379865997703,1
683,791,29,0.0711111347241368,1
683,792,29,0.0691915494715197,1
684,791,29,0.0694925955833984,1
685,791,29,0.0714126061100693,1
695,834,29,0.0707208828871446,1
695,836,29,0.151330154216112,1
695,837,29,0.13827039532901,1
696,836,29,0.128676356430163,1
696,837,29,0.122060481781116,1
676,825,30,0.080761351726512,1
676,826,30,0.08509221091523,1
677,824,30,0.0843606017778804,1
677,825,30,0.142948481797983,1
677,826,30,0.153089375211798,1
677,827,30,0.10218989303507,1
678,824,30,0.11977832943343,1
678,825,30,0.227686601150344,2
678,826,30,0.244735346805121,2
678,827,30,0.147990015859009,1
678,828,30,0.0749932519190282,1
679,824,30,0.102080052533685,1
679,825,30,0.18932825914701,1
679,826,30,0.201687957043823,1
679,827,30,0.12288013462715,1
680,825,30,0.0975813298892284,1
680,826,30,0.100384347116398,1
680,827,30,0.0697923239446878,1
681,791,30,0.0709342386870872,1
681,792,30,0.0731729951119599,1
682,791,30,0.0694265343504515,1
682,792,30,0.0718790059617912,1
685,790,30,0.0684917220824715,1
693,835,30,0.0837785273835281,1
694,834,30,0.0772881684781025,1
694,835,30,0.140256736628521,1
694,836,30,0.183846919837063,1
694,837,30,0.163240583018862,1
695,834,30,0.0901334394977099,1
695,835,30,0.184385352727811,1
695,836,30,0.256061293323806,1
695,837,30,0.231342544425925,1
695,838,30,0.136806841626888,1
696,834,30,0.0792724013766708,1
696,835,30,0.160032627025407,1
696,836,30,0.224207260412817,1
696,837,30,0.208124449899027,1
696,838,30,0.126861873766585,1
697,836,30,0.130521111418639,1
697,837,30,0.123564226876208,1
670,801,31,0.0851125581822824,1
673,827,31,0.0732753723531901,1
674,826,31,0.0717744604218642,1
674,827,31,0.0690544375227132,1
676,826,31,0.0699209903101726,1
676,831,31,0.0760372877415269,1
677,825,31,0.0882947581414944,1
677,826,31,0.0964633742484509,1
677,827,31,0.0761535013639437,1
677,831,31,0.0740346901915655,1
677,832,31,0.0762893614496905,1
678,824,31,0.0799612495074009,1
678,825,31,0.130137190774251,1
678,826,31,0.142081521705796,1
678,827,31,0.0993968607635018,1
678,832,31,0.0690671178772466,1
678,833,31,0.0705572422230673,1
679,824,31,0.0768515797385736,1
679,825,31,0.121720322435839,1
679,826,31,0.129175113048625,1
679,827,31,0.0886019437731637,1
680,825,31,0.0769471765540448,1
680,826,31,0.0783122823076027,1
686,790,31,0.0695766141630108,1
693,835,31,0.0884707916508856,1
693,836,31,0.107260381670406,1
694,834,31,0.0832107206341917,1
694,835,31,0.165012610154366,1
694,836,31,0.225811921243941,1
694,837,31,0.202368371570782,1
695,834,31,0.0998129884302457,1
695,835,31,0.227696855645838,1
695,836,31,0.328988533940655,3
695,837,31,0.299235474650887,1
695,838,31,0.169530961292825,1
696,834,31,0.0911645793337606,1
696,835,31,0.208246761112806,1
696,836,31,0.30219964678534,1
696,837,31,0.278829052576619,1
696,838,31,0.159561818698986,1
697,836,31,0.165093376285933,1
697,837,31,0.153094023277513,1
669,801,32,0.119227737298609,1
669,802,32,0.0861714186989096,1
670,799,32,0.0939013556347207,1
670,800,32,0.0884842446864463,1
670,801,32,0.0768534784973771,1
672,827,32,0.0688065386880073,1
673,827,32,0.0717939092226057,1
673,828,32,0.06794060883719,1
675,831,32,0.0726343346097465,1
676,831,32,0.074176869490365,1
676,832,32,0.0753873012736275,1
677,831,32,0.073848695685675,1
677,832,32,0.0767276213365575,1
677,833,32,0.072615167328449,1
678,825,32,0.0730963020276684,1
678,826,32,0.0758985645431363,1
678,833,32,0.0683433433661273,1
678,834,32,0.0684695299645942,1
679,825,32,0.0726442956062458,1
679,826,32,0.072738149397074,1
687,790,32,0.0721637419152407,1
693,835,32,0.083787565954615,1
693,836,32,0.105328427531576,1
693,837,32,0.0963051124026877,1
694,834,32,0.080406882807792,1
694,835,32,0.162363428328935,1
694,836,32,0.231587909585634,3
694,837,32,0.210737213889992,1
695,834,32,0.0985906010552738,1
695,835,32,0.233193648576331,3
695,836,32,0.349692839525387,3
695,837,32,0.318711900236601,3
695,838,32,0.179290377890618,1
696,834,32,0.0939422598109646,1
696,835,32,0.224665118844811,1
696,836,32,0.335835973306877,3
696,837,32,0.304599845626716,1
696,838,32,0.169342343265307,1
697,835,32,0.1277152131095,1
697,836,32,0.181413585558144,1
697,837,32,0.162601965144682,1
668,802,33,0.0723576009962386,1
669,799,33,0.136509149789237,1
669,800,33,0.102558372038463,1
669,801,33,0.0794674284638727,1
669,802,33,0.0699051832928776,1
670,798,33,0.0864656125077244,1
670,799,33,0.083791806715602,1
670,800,33,0.0721212803973914,1
674,831,33,0.0702673670423198,1
675,831,33,0.0713777755660865,1
675,832,33,0.0731951512911847,1
676,831,33,0.0700747777937079,1
676,832,33,0.0718072664217599,1
676,833,33,0.0691277583634515,1
677,831,33,0.0688007405854148,1
677,832,33,0.0737591605229141,1
677,833,33,0.0706845129708826,1
693,835,33,0.0717461108148701,1
693,836,33,0.0915168799537839,1
693,837,33,0.0866253238791357,1
694,834,33,0.0692345620487064,1
694,835,33,0.132449076367049,1
694,836,33,0.189800900344704,1
694,837,33,0.176292004138599,1
694,838,33,0.111141432685275,1
695,834,33,0.085597316695622,1
695,835,33,0.194502574549224,1
695,836,33,0.293829750265658,3
695,837,33,0.268753076348648,1
695,838,33,0.15429322423189,1
696,834,33,0.084249078149606,1
696,835,33,0.194815899700684,1
696,836,33,0.291851758713063,1
696,837,33,0.261298800856547,1
696,838,33,0.14635767028596,1
697,835,33,0.11680089593623,1
697,836,33,0.165417435114919,1
697,837,33,0.145359486194191,1
698,836,33,0.0691282495250348,1
669,798,34,0.114108935134853,1
669,799,34,0.0915569335819202,1
670,797,34,0.0750342459419032,1
670,798,34,0.0789734516861841,1
674,832,34,0.0686627541293991,1
675,832,34,0.0691459073829301,1
675,833,34,0.0721719419177708,1
693,836,34,0.0700116814995868,1
693,837,34,0.0701717582472978,1
694,835,34,0.0919058080504115,1
694,836,34,0.127249292439811,1
694,837,34,0.1222005946074,1
694,838,34,0.0826770615944418,1
695,835,34,0.134372141679177,1
695,836,34,0.197217907454232,1
695,837,34,0.182135389433154,1
695,838,34,0.109063519699365,1
696,835,34,0.138388310047642,1
696,836,34,0.201017605339545,1
696,837,34,0.178997885178018,1
696,838,34,0.10329074187729,1
697,835,34,0.0904467945980468,1
697,836,34,0.122727622965776,1
697,837,34,0.107238866397149,1
667,824,35,0.0796476967444756,1
668,799,35,0.0701439177712132,1
669,797,35,0.083181238959646,1
669,798,35,0.0840802443502522,1
669,799,35,0.0682070879552038,1
670,797,35,0.0699652966788468,1
670,798,35,0.0685081819852857,1
674,833,35,0.0680426746100992,1
675,834,35,0.0760854994437655,1
694,836,35,0.0759520771966088,1
694,837,35,0.0758025903718146,1
695,835,35,0.0795400365213378,1
695,836,35,0.109507901136696,1
695,837,35,0.102607428299034,1
695,838,35,0.0683001570854539,1
696,835,35,0.0825126422595618,1
696,836,35,0.112781612884553,1
696,837,35,0.100881342740891,1
697,836,35,0.0754413949353143,1
667,823,36,0.071117016683585,1
667,824,36,0.0936605247349932,1
667,825,36,0.0839147408660238,1
668,823,36,0.0722448135253537,1
668,824,36,0.095466268316254,1
693,787,36,0.0802972759076474,1
694,786,36,0.101123916665261,1
694,787,36,0.087641950489379,1
694,788,36,0.0690438595793472,1
695,786,36,0.0827014878985453,1
695,787,36,0.0722680119254991,1
696,786,36,0.0713176322312402,1
667,823,37,0.0729099960534568,1
667,824,37,0.0951515715062263,1
667,825,37,0.0832525951540513,1
668,823,37,0.0716957907116888,1
668,824,37,0.0937268375385071,1
668,825,37,0.0842137983724678,1
694,785,37,0.0718287936745672,1
694,786,37,0.0714590148899108,1
694,787,37,0.068277970957352,1
695,785,37,0.0757643097171983,1
695,786,37,0.0730436339325281,1
696,785,37,0.0794568085920788,1
696,786,37,0.0738782252784239,1
697,786,37,0.0757576191380704,1
698,786,37,0.0732614940435757,1
711,792,37,0.0726800905040688,1
711,793,37,0.0749551329883478,1
711,794,37,0.0749735215988426,1
711,795,37,0.0713477548117543,1
712,793,37,0.0769164250471132,1
712,794,37,0.0801198168317097,1
712,795,37,0.0780847487092753,1
712,796,37,0.0687525768013794,1
713,795,37,0.0716473753570865,1
664,813,38,0.0688326541087751,1
665,813,38,0.0770922728734668,1
665,814,38,0.103862226348725,1
665,815,38,0.101715910127685,1
666,814,38,0.0807384108867091,1
666,815,38,0.081095449419078,1
667,824,38,0.0840014069263654,1
667,825,38,0.0734615585318936,1
668,824,38,0.0803237746740412,1
668,825,38,0.0719356033495974,1
671,796,38,0.0687486954269167,1
695,784,38,0.0752290693767413,1
695,785,38,0.0724620986179624,1
695,786,38,0.0688574697482799,1
696,784,38,0.0782811594345959,1
696,785,38,0.0775636083001228,1
696,786,38,0.072474665166763,1
697,785,38,0.0791845313714726,1
697,786,38,0.0707295740512579,1
698,785,38,0.0737540392649424,1
711,792,38,0.0698907299648242,1
711,793,38,0.068829964699618,1
711,794,38,0.0684402759015139,1
712,792,38,0.0701449060841551,1
712,793,38,0.0710577598354987,1
712,794,38,0.0710253431710044,1
712,795,38,0.068450440550377,1
664,813,39,0.114352647116551,1
664,814,39,0.180629392182509,1
664,815,39,0.150309867853096,1
665,813,39,0.141058300352831,1
665,814,39,0.224727101040707,1
665,815,39,0.18915142899749,1
665,816,39,0.085729487079719,1
666,813,39,0.0996023280292355,1
666,814,39,0.14943199439012,1
666,815,39,0.128012737233441,1
666,816,39,0.068519915955305,1
695,784,39,0.0728256061077692,1
695,785,39,0.0708379590372198,1
696,784,39,0.0760690515205021,1
696,785,39,0.0768747901182698,1
696,786,39,0.0735923512676473,1
697,784,39,0.0766491792378476,1
697,785,39,0.0769445530324172,1
697,786,39,0.0720339315026535,1
698,785,39,0.0724754019091379,1
699,785,39,0.0682560124407156,1
712,792,39,0.0682774558366672,1
718,798,39,0.0697093955041992,1
663,814,40,0.094244749458716,1
663,815,40,0.0726605698260224,1
664,813,40,0.154737857239789,1
664,814,40,0.270652913311754,1
664,815,40,0.200872305367759,1
664,816,40,0.072000035363634,1
665,805,40,0.0717414387900539,1
665,806,40,0.0800307189225535,1
665,807,40,0.0728733745666278,1
665,813,40,0.210914247691876,1
665,814,40,0.362071788560353,4
665,815,40,0.272464676617297,1
665,816,40,0.096810325999037,1
666,805,40,0.0813417609633016,1
666,806,40,0.0916126864113943,1
666,807,40,0.080856044085897,1
666,813,40,0.133567043987377,1
666,814,40,0.222685857459829,1
666,815,40,0.167708644003018,1
666,816,40,0.0692572573077177,1
667,805,40,0.0718250021467355,1
667,806,40,0.0773773322747883,1
667,807,40,0.0680287543720569,1
667,814,40,0.0733073158254275,1
681,840,40,0.069987369001216,1
695,784,40,0.0695719241688683,1
696,784,40,0.0757623750197423,1
696,785,40,0.0753828808193783,1
696,786,40,0.0719140102092607,1
697,784,40,0.077090901214899,1
697,785,40,0.0757651363062042,1
697,786,40,0.0723695625777233,1
697,787,40,0.0694800829425764,1
698,784,40,0.0773750262112572,1
698,785,40,0.073533921008567,1
698,786,40,0.0680173019214816,1
699,785,40,0.0702830422845559,1
714,793,40,0.0679239692411137,1
718,797,40,0.0740765886705267,1
663,814,41,0.101184437355958,1
663,815,41,0.0737849165571576,1
664,813,41,0.169257060843084,1
664,814,41,0.305754147224654,4
664,815,41,0.213954945196909,1
664,816,41,0.0761308240742587,1
665,804,41,0.0707246085274468,1
665,805,41,0.115947832122983,1
665,806,41,0.139525516826573,1
665,807,41,0.0992319981852418,1
665,812,41,0.0789685580396778,1
665,813,41,0.249064924181902,4
665,814,41,0.435865222578137,4
665,815,41,0.313767723985016,4
665,816,41,0.109397952819354,1
666,804,41,0.0849912652303217,1
666,805,41,0.1507494095519,1
666,806,41,0.183259454644846,1
666,807,41,0.124474109698951,1
666,813,41,0.152597602671459,1
666,814,41,0.264615770762382,4
666,815,41,0.190738767398141,1
666,816,41,0.0769271287757627,1
667,804,41,0.0756588776905113,1
667,805,41,0.114921603902765,1
667,806,41,0.135424665013425,1
667,807,41,0.0941099315938898,1
667,814,41,0.0900870307178683,1
667,815,41,0.0756293480977623,1
680,840,41,0.0696088691035693,1
681,840,41,0.0695472522839732,1
681,841,41,0.0765551457537572,1
682,841,41,0.0687977756465891,1
695,783,41,0.0707745333054513,1
695,784,41,0.0692388207790196,1
696,784,41,0.0772834904635109,1
696,785,41,0.0745501822425106,1
697,784,41,0.0786893566387029,1
697,785,41,0.0749316231198814,1
697,786,41,0.0685250252337258,1
698,784,41,0.0794113282274252,1
698,785,41,0.0738323376090427,1
699,784,41,0.0763772673935411,1
699,785,41,0.0705178893986534,1
714,792,41,0.0684117226421561,1
714,793,41,0.072099100259065,1
715,793,41,0.0715538510039055,1
718,797,41,0.0680570201221952,1
719,796,41,0.0696406628314215,1
720,796,41,0.0703248628964369,1
663,814,42,0.0954145585851786,1
663,815,42,0.0703922299004221,1
664,805,42,0.0686691152708797,1
664,806,42,0.0777250207677493,1
664,813,42,0.159788555657185,1
664,814,42,0.280341351070991,4
664,815,42,0.200175922099569,1
664,816,42,0.0801001523990536,1
665,804,42,0.0829072846019262,1
665,805,42,0.169622880386198,1
665,806,42,0.217078085970623,1
665,807,42,0.131246029976861,1
665,812,42,0.0909893005360705,1
665,813,42,0.248620842233341,4
665,814,42,0.42531924065365,4
665,815,42,0.317448369094369,4
665,816,42,0.123810861868304,1
666,803,42,0.0710070563866915,1
666,804,42,0.112847320720751,1
666,805,42,0.25378283067777,1
666,806,42,0.324177666130494,5
666,807,42,0.190724607569083,1
666,812,42,0.0773465448292042,1
666,813,42,0.165016503508379,1
666,814,42,0.276952384064782,4
666,815,42,0.210354395364278,1
666,816,42,0.0927392912878573,1
667,802,42,0.0710042891104541,1
667,803,42,0.0758232311378618,1
667,804,42,0.0933432702908673,1
667,805,42,0.179218800074522,1
667,806,42,0.226975758564325,1
667,807,42,0.133331933323162,1
667,813,42,0.088082809938772,1
667,814,42,0.117886818258139,1
667,815,42,0.0985592086423738,1
668,805,42,0.0683759037852314,1
668,806,42,0.0782675147262222,1
673,836,42,0.0717752450824423,1
673,837,42,0.0763893667398601,1
680,840,42,0.0677440603470351,1
681,841,42,0.0760230979635914,1
693,783,42,0.0678354882788241,1
694,783,42,0.0702307096168384,1
695,783,42,0.0732248126589926,1
695,784,42,0.0690783307368056,1
696,783,42,0.0775926587108393,1
696,784,42,0.0788376994163946,1
696,785,42,0.0727535371300906,1
697,783,42,0.0773565417643559,1
697,784,42,0.080348722088605,1
697,785,42,0.075050699854942,1
698,784,42,0.0789640177899205,1
698,785,42,0.073897326672192,1
699,784,42,0.0741711193059757,1
699,785,42,0.0692599766657517,1
714,792,42,0.0694323144837178,1
714,793,42,0.0720961712588917,1
715,792,42,0.0683367246643042,1
715,793,42,0.0709462961049784,1
716,816,42,0.0731349959767877,1
718,795,42,0.072067294551662,1
718,796,42,0.0702384124680098,1
719,795,42,0.0784045727670501,1
719,796,42,0.0827545153802099,1
719,797,42,0.068228010240695,1
720,795,42,0.0736969207666759,1
720,796,42,0.0841276234737094,1
720,797,42,0.072070900396456,1
721,796,42,0.0689669269040394,1
722,801,42,0.0689372535566807,1
663,814,43,0.0862988272115593,1
663,815,43,0.0703502715237069,1
664,805,43,0.0762156512735508,1
664,806,43,0.0888194085590345,1
664,812,43,0.0688244061880418,1
664,813,43,0.134417041035616,1
664,814,43,0.213941552059103,4
664,815,43,0.167908175401325,1
664,816,43,0.0841766078569753,1
665,804,43,0.0973526462540232,1
665,805,43,0.205036025863563,1
665,806,43,0.27178680175511,5
665,807,43,0.153334045557561,1
665,812,43,0.102301853916949,1
665,813,43,0.22520209023036,4
665,814,43,0.35186252785006,4
665,815,43,0.283103068796739,4
665,816,43,0.132885503382642,1
666,802,43,0.0723055618275159,1
666,803,43,0.0814254321359405,1
666,804,43,0.144380062078991,1
666,805,43,0.339899245269132,5
666,806,43,0.443918547488089,5
666,807,43,0.247728006311402,5
666,808,43,0.0774732705074576,1
666,812,43,0.101431503611882,1
666,813,43,0.196166270606744,1
666,814,43,0.28317916290349,4
666,815,43,0.224157904663476,1
666,816,43,0.110271669378198,1
667,801,43,0.077244227485728,1
667,802,43,0.0890143098609529,1
667,803,43,0.0898092608732153,1
667,804,43,0.11605059270984,1
667,805,43,0.239716226483663,1
667,806,43,0.313155904366,5
667,807,43,0.171064799019555,1
667,812,43,0.0858103909761206,1
667,813,43,0.144640509493171,1
667,814,43,0.175093869364244,1
667,815,43,0.135288193970587,1
667,816,43,0.0741614158698189,1
668,801,43,0.0782555172060851,1
668,802,43,0.078514377329783,1
668,803,43,0.0688472511914382,1
668,805,43,0.0892108284022308,1
668,806,43,0.107716706719895,1
668,813,43,0.0822437852007121,1
668,814,43,0.0902813749706741,1
668,815,43,0.0688680357120952,1
672,837,43,0.0687346014853876,1
673,836,43,0.0776555573423721,1
673,837,43,0.08099214376266,1
673,838,43,0.0754830538232593,1
673,839,43,0.0719896610726317,1
674,836,43,0.0749034292470479,1
674,837,43,0.0789519184436014,1
693,783,43,0.0764543078848062,1
693,784,43,0.0690158933179791,1
694,783,43,0.081447893793711,1
694,784,43,0.0703892469922702,1
695,783,43,0.081168470771046,1
695,784,43,0.0747754936341625,1
696,783,43,0.0812512015489463,1
696,784,43,0.0822303321651514,1
696,785,43,0.07482184251625,1
697,783,43,0.0792594095538164,1
697,784,43,0.0824061560324034,1
697,785,43,0.0769685900011194,1
698,783,43,0.0775720359141183,1
698,784,43,0.079243494720564,1
698,785,43,0.0756337266235837,1
699,784,43,0.0726508663898656,1
699,785,43,0.0702416229876271,1
716,816,43,0.0680971396378611,1
717,816,43,0.0710903741625815,1
718,795,43,0.0775544319642017,1
718,796,43,0.0714090901119063,1
719,794,43,0.0713533852006354,1
719,795,43,0.0960122603035637,1
719,796,43,0.0951242341712758,1
719,797,43,0.0706712216592579,1
720,795,43,0.0888599713180803,1
720,796,43,0.0960228741855822,1
720,797,43,0.0762477924083766,1
721,796,43,0.07159757037459,1
722,801,43,0.0761679487022217,1
723,801,43,0.0716890522143577,1
663,814,44,0.073451298046624,1
664,805,44,0.0776363301633206,1
664,806,44,0.0906953582978228,1
664,807,44,0.0691991744556109,1
664,813,44,0.103076379795079,1
664,814,44,0.142277411320656,1
664,815,44,0.124483142280262,1
664,816,44,0.0778220311702162,1
665,804,44,0.099173915333135,1
665,805,44,0.197067025011769,5
665,806,44,0.262813662974793,5
665,807,44,0.149041664686048,1
665,808,44,0.0694942727205119,1
665,812,44,0.104362180922268,1
665,813,44,0.207353877272665,1
665,814,44,0.279439075263013,4
665,815,44,0.227037932433033,1
665,816,44,0.12003447618887,1
666,802,44,0.0735300456238797,1
666,803,44,0.0827467406517336,1
666,804,44,0.156899159878893,5
666,805,44,0.353869294283703,5
666,806,44,0.458888290017833,5
666,807,44,0.253178677971274,5
666,808,44,0.084437001363177,1
666,812,44,0.126090151103345,1
666,813,44,0.25960426943524,6
666,814,44,0.32170674002113,6
666,815,44,0.234174582114933,6
666,816,44,0.111576793520846,1
667,801,44,0.0891507269958123,1
667,802,44,0.0993791909260557,1
667,803,44,0.0944984883244423,1
667,804,44,0.134561382643337,1
667,805,44,0.270971138099495,5
667,806,44,0.345956034281833,5
667,807,44,0.18346412527045,5
667,812,44,0.109025340870931,1
667,813,44,0.223027921553684,1
667,814,44,0.257754435117219,6
667,815,44,0.173674472286411,1
667,816,44,0.0798060783857469,1
668,801,44,0.0959482595533563,1
668,802,44,0.096629213160102,1
668,803,44,0.0772413703628596,1
668,804,44,0.0769528488713538,1
668,805,44,0.113726020772733,1
668,806,44,0.134101331953545,5
668,807,44,0.0777749096071014,1
668,813,44,0.107981418854165,1
668,814,44,0.121346548470988,1
668,815,44,0.0813522610395873,1
669,801,44,0.0691860448679221,1
672,838,44,0.0684029296518608,1
672,839,44,0.0714914375441806,1
673,835,44,0.0688505455679112,1
673,836,44,0.0807824057870622,1
673,837,44,0.0825190692885718,1
673,838,44,0.0763014368369079,1
673,839,44,0.0738033470960802,1
673,840,44,0.0726365687959727,1
674,836,44,0.0798556437772271,1
674,837,44,0.0839280561367501,1
674,838,44,0.0754857312528655,1
674,839,44,0.0693630846595814,1
675,837,44,0.069467594260856,1
693,783,44,0.0882606403807849,1
693,784,44,0.0875335415443155,1
693,785,44,0.0704679047228948,1
694,783,44,0.105812976402777,1
694,784,44,0.106891171914413,1
694,785,44,0.0835160733945869,1
695,783,44,0.103114882071385,1
695,784,44,0.107161538396665,1
695,785,44,0.0865627427056994,1
696,783,44,0.0908142972680491,1
696,784,44,0.0950954892391049,1
696,785,44,0.082068314730209,1
697,783,44,0.0826463879545904,1
697,784,44,0.0841834062520605,1
697,785,44,0.0769845228036979,1
698,783,44,0.0791178112632312,1
698,784,44,0.0781418372586648,1
698,785,44,0.0752132563696709,1
699,784,44,0.0702716916601626,1
699,785,44,0.0704048922856293,1
718,795,44,0.0756819443155977,1
719,794,44,0.0748229027064968,1
719,795,44,0.1032044771319,1
719,796,44,0.0959219344904493,1
719,797,44,0.0686389088335099,1
720,795,44,0.0970909409870077,1
720,796,44,0.0972174869719989,1
720,797,44,0.0748410816748524,1
721,796,44,0.0686957458123324,1
722,801,44,0.0727133217780183,1
723,801,44,0.0782995360655398,1
723,802,44,0.072355229045178,1
664,813,45,0.0819883751876477,1
664,814,45,0.0996549302368463,1
664,815,45,0.0920220096932775,1
665,805,45,0.162265016319023,1
665,806,45,0.205023375457906,5
665,807,45,0.128870736621621,1
665,808,45,0.0720125300351298,1
665,812,45,0.102243573402254,1
665,813,45,0.207112225773706,6
665,814,45,0.252495316474815,6
665,815,45,0.18416818743071,1
665,816,45,0.100370037542954,1
666,802,45,0.0712348475453613,1
666,803,45,0.0811453682073072,1
666,804,45,0.147529977148767,1
666,805,45,0.295114413335521,5
666,806,45,0.362600733646859,5
666,807,45,0.210682179833567,5
666,808,45,0.0863513874907422,1
666,812,45,0.151367542394193,6
666,813,45,0.346060280332989,6
666,814,45,0.408978174983478,6
666,815,45,0.259215437175019,6
666,816,45,0.109700616170592,1
667,801,45,0.0900803521182913,1
667,802,45,0.0957754725022349,1
667,803,45,0.0920000990948443,1
667,804,45,0.142578697023551,1
667,805,45,0.262046444622658,1
667,806,45,0.308699535423436,5
667,807,45,0.171209859400325,1
667,808,45,0.072230857348659,1
667,812,45,0.131722121285189,1
667,813,45,0.308397746579407,6
667,814,45,0.359381612712048,6
667,815,45,0.216671883361726,6
667,816,45,0.085706929585542,1
668,800,45,0.0711782980757583,1
668,801,45,0.104022380963516,1
668,802,45,0.103366213047398,1
668,803,45,0.0823520803400429,1
668,804,45,0.0911905330305925,1
668,805,45,0.134053856993681,1
668,806,45,0.14556407296294,1
668,807,45,0.0866179804144886,1
668,813,45,0.134829233419918,1
668,814,45,0.157680466182782,6
668,815,45,0.0977102538150557,1
669,801,45,0.0749055316582152,1
669,802,45,0.0721586565959215,1
672,839,45,0.0704153384539364,1
673,835,45,0.0703658748886381,1
673,836,45,0.077536001425279,1
673,837,45,0.0776408284846501,1
673,838,45,0.0744322974727556,1
673,839,45,0.0743004145978781,1
673,840,45,0.0711605563610073,1
674,836,45,0.0783272327870147,1
674,837,45,0.0815559733011272,1
674,838,45,0.0755832388066911,1
674,839,45,0.0709503032647247,1
674,840,45,0.0679131397271806,1
675,837,45,0.070019396330309,1
675,838,45,0.0685233780454893,1
692,784,45,0.068581059582644,1
693,783,45,0.103542216607913,1
693,784,45,0.121718154137143,1
693,785,45,0.090230024626123,1
694,782,45,0.0868929590238027,1
694,783,45,0.153575721015621,1
694,784,45,0.18996067161387,1
694,785,45,0.132815219358034,1
695,782,45,0.0879109213539614,1
695,783,45,0.14912058596679,1
695,784,45,0.18372145800142,1
695,785,45,0.130262700528097,1
696,783,45,0.10758174510046,1
696,784,45,0.122517417787697,1
696,785,45,0.0948523582656217,1
697,783,45,0.0824418071756168,1
697,784,45,0.0819808280706368,1
697,785,45,0.073970599594727,1
698,783,45,0.0798627955690612,1
698,784,45,0.0768643020215348,1
698,785,45,0.0737610293328406,1
699,783,45,0.0739155954871786,1
699,784,45,0.0697609854397664,1
699,785,45,0.0706562112820918,1
719,795,45,0.0874227606481914,1
719,796,45,0.0805885347265136,1
720,796,45,0.0832159017899174,1
720,797,45,0.0681065555647984,1
723,801,45,0.0743343227164484,1
723,802,45,0.0731739355066986,1
665,812,46,0.0949884699219355,1
665,813,46,0.20394960040052,6
665,814,46,0.244845462836175,6
665,815,46,0.153614966024077,1
666,805,46,0.200730371649751,1
666,806,46,0.22629127099009,5
666,807,46,0.145314502980896,1
666,808,46,0.0775747133437246,1
666,812,46,0.164554356397195,6
666,813,46,0.404900192132828,6
666,814,46,0.486241773402867,6
666,815,46,0.281083029020797,6
666,816,46,0.104075198803042,1
667,802,46,0.0815316727823072,1
667,803,46,0.0823138236445282,1
667,804,46,0.129479381659672,1
667,805,46,0.213295255292853,1
667,806,46,0.228339606465047,1
667,807,46,0.137624613683445,1
667,808,46,0.0711420898834323,1
667,812,46,0.143823204639095,6
667,813,46,0.36467571164282,6
667,814,46,0.440483243579344,6
667,815,46,0.251570303479398,6
667,816,46,0.0895578580198972,1
668,801,46,0.0953483655771728,1
668,802,46,0.0921198766336274,1
668,803,46,0.0769966041806907,1
668,804,46,0.0917269353874781,1
668,805,46,0.132092984219194,1
668,806,46,0.133564396506648,1
668,807,46,0.0851863522152777,1
668,812,46,0.0696105522304582,1
668,813,46,0.154349024979568,6
668,814,46,0.189493912375624,6
668,815,46,0.113487016754504,1
669,801,46,0.0735702849350536,1
669,802,46,0.0700009118834077,1
673,835,46,0.0691459792602349,1
673,836,46,0.0690872974305876,1
673,837,46,0.0677737336943938,1
673,838,46,0.0687950023805763,1
673,839,46,0.0711757703905372,1
674,837,46,0.0719021384744071,1
674,838,46,0.0710296138808685,1
674,839,46,0.070211853803862,1
693,783,46,0.11551582556164,1
693,784,46,0.151709726283556,1
693,785,46,0.0997754924362075,1
694,782,46,0.0978618190919155,1
694,783,46,0.219702302412164,1
694,784,46,0.296859330747539,7
694,785,46,0.181937690906122,1
695,782,46,0.103855386025212,1
695,783,46,0.226278620584433,1
695,784,46,0.30031214875957,7
695,785,46,0.18400538533519,1
696,783,46,0.137222028898893,1
696,784,46,0.16796572516342,1
696,785,46,0.110397838007339,1
697,783,46,0.0811171743344737,1
697,784,46,0.0787136272086458,1
697,785,46,0.0687913366380282,1
698,783,46,0.0799415730951939,1
698,784,46,0.0749958095531263,1
698,785,46,0.0708860509439503,1
699,784,46,0.070736031029145,1
699,785,46,0.0710757651003675,1
723,802,46,0.0677753449439779,1
665,813,47,0.186722622988777,6
665,814,47,0.225670921930897,6
666,812,47,0.161436917889667,6
666,813,47,0.388859765269806,6
666,814,47,0.476125569843273,6
666,815,47,0.272720919209143,6
667,812,47,0.145633075175611,6
667,813,47,0.359238912302788,6
667,814,47,0.444837091526068,6
667,815,47,0.256435726163952,6
668,804,47,0.0786858466303153,1
668,805,47,0.105743195519303,1
668,813,47,0.158885944421784,6
668,814,47,0.199088466395156,6
674,838,47,0.0678277554787757,1
674,839,47,0.068657405259962,1
678,840,47,0.0689016084032428,1
683,785,47,0.0701126511435967,1
684,785,47,0.0697045557656716,1
693,783,47,0.127564893705925,1
693,784,47,0.169734218331434,7
693,785,47,0.106329151288118,1
694,782,47,0.114709625751166,1
694,783,47,0.271108256038077,7
694,784,47,0.369198255624064,7
694,785,47,0.212751479522443,7
695,782,47,0.127544768060562,1
695,783,47,0.296564945265912,7
695,784,47,0.395064669448734,7
695,785,47,0.22660372163434,7
696,782,47,0.0976415930195828,1
696,783,47,0.164239162435809,1
696,784,47,0.207065936789373,7
696,785,47,0.124373912735968,1
697,783,47,0.0830440731028608,1
697,784,47,0.0811069258287549,1
697,785,47,0.069395519293402,1
698,783,47,0.0792915207397651,1
698,784,47,0.0740027287500019,1
698,785,47,0.0697356486898013,1
699,784,47,0.0725791328396097,1
699,785,47,0.0714494192697113,1
700,785,47,0.0679741815283377,1
703,786,47,0.0677893729979775,1
665,814,48,0.180885443101542,6
666,813,48,0.309241298629309,6
666,814,48,0.383087250997849,6
666,815,48,0.233399361422856,6
667,813,48,0.305679682336814,6
667,814,48,0.384291651077278,6
667,815,48,0.238031853721443,6
668,814,48,0.190273745194763,6
673,834,48,0.0707363904156693,1
674,834,48,0.0782726659330709,1
674,835,48,0.070278508024574,1
675,834,48,0.0759795463066182,1
675,835,48,0.0697294852109091,1
677,837,48,0.0691946761342814,1
677,838,48,0.0685457618361796,1
678,838,48,0.0692003185027133,1
678,839,48,0.0681679926911323,1
678,840,48,0.0685253726406993,1
683,784,48,0.0728372861698098,1
683,785,48,0.0764202859605031,1
684,784,48,0.0732764025945599,1
684,785,48,0.0788373639889719,1
685,785,48,0.0681338988895244,1
692,784,48,0.0688245259835499,1
693,783,48,0.130796940576061,1
693,784,48,0.167208845163635,7
693,785,48,0.105605550480485,1
694,783,48,0.280694460310694,7
694,784,48,0.371041261598122,7
694,785,48,0.21107872692451,7
695,783,48,0.323790606843793,7
695,784,48,0.41937517921408,7
695,785,48,0.237343364977237,7
695,786,48,0.0715635364707362,1
696,783,48,0.174679053458314,1
696,784,48,0.21796586652212,7
696,785,48,0.127951042546764,1
697,784,48,0.0845613011823912,1
697,785,48,0.070298525853979,1
698,784,48,0.0722324985471201,1
699,785,48,0.071075417693394,1
700,785,48,0.0697001472909731,1
702,786,48,0.0711660190361771,1
703,786,48,0.0740261248127357,1
703,787,48,0.0719362682146674,1
666,814,49,0.250740048730896,6
667,814,49,0.275404434427197,6
673,834,49,0.0698587026357312,1
674,833,49,0.0754375075710761,1
674,834,49,0.0868091800352065,1
674,835,49,0.0728180350316567,1
675,833,49,0.0722380690382472,1
675,834,49,0.0872733756495792,1
675,835,49,0.0748851963707136,1
677,836,49,0.068017972776327,1
677,837,49,0.0731804044641365,1
677,838,49,0.0681527547025008,1
678,837,49,0.0678668567326226,1
678,838,49,0.0693976816023234,1
679,839,49,0.0680176553182305,1
683,785,49,0.0781657903705112,1
683,786,49,0.0681483282584762,1
684,785,49,0.0824198067305525,1
684,786,49,0.070737995675478,1
685,785,49,0.0728888521462755,1
692,784,49,0.0736973041123019,1
693,783,49,0.121293586876853,1
693,784,49,0.145036349790617,1
693,785,49,0.100163851504172,1
694,783,49,0.236762788026736,1
694,784,49,0.29800347368639,7
694,785,49,0.179802192219464,1
694,786,49,0.0734861585394838,1
695,783,49,0.284232381051686,7
695,784,49,0.352189833137316,7
695,785,49,0.210057134790456,7
695,786,49,0.0800679693358,1
696,784,49,0.197196200508163,7
696,785,49,0.124058766692785,1
697,785,49,0.0772771053629286,1
698,785,49,0.0694263905958418,1
701,786,49,0.0695667130642656,1
702,787,49,0.0703380703512059,1
703,787,49,0.0749443094641901,1
704,787,49,0.0706873521244248,1
673,793,50,0.0713216274114357,1
674,792,50,0.0745376516323623,1
674,793,50,0.0802463089087223,1
674,794,50,0.0685902179492389,1
674,833,50,0.0827486993082912,1
674,834,50,0.088591341870696,1
674,835,50,0.0694679356780541,1
675,792,50,0.0749393918585823,1
675,793,50,0.0791875562080524,1
675,833,50,0.0791923300590506,1
675,834,50,0.0903305869654054,1
675,835,50,0.0735635164888454,1
677,836,50,0.0750044348297102,1
677,837,50,0.0764241853042921,1
678,837,50,0.0701909554774723,1
678,838,50,0.0681413202212518,1
679,838,50,0.0684064276806976,1
679,839,50,0.0680434293218003,1
683,784,50,0.0732114913984908,1
683,785,50,0.0761555259080308,1
683,786,50,0.0694742369217806,1
684,784,50,0.0764571290690221,1
684,785,50,0.0809894483637275,1
684,786,50,0.0729819871640551,1
685,784,50,0.0685973457819714,1
685,785,50,0.074803376038675,1
685,786,50,0.0716396964650166,1
691,783,50,0.06829662910774,1
692,783,50,0.0759479981595576,1
692,784,50,0.0748964751178021,1
693,783,50,0.104157282685198,1
693,784,50,0.114459420852929,1
693,785,50,0.0886965283165913,1
694,782,50,0.1083756299327,1
694,783,50,0.171573115319565,1
694,784,50,0.201071201849873,1
694,785,50,0.136519152714164,1
694,786,50,0.0760407498317113,1
695,783,50,0.208451587472572,1
695,784,50,0.242947279051082,7
695,785,50,0.160466071132848,1
695,786,50,0.0827004037491969,1
696,783,50,0.141321586920554,1
696,784,50,0.156811960728541,1
696,785,50,0.109716848461941,1
696,786,50,0.0693538663952324,1
697,784,50,0.0946586309596828,1
697,785,50,0.079914097995409,1
698,784,50,0.0758895259720495,1
698,785,50,0.0707958928445472,1
699,785,50,0.0709769517755036,1
700,785,50,0.0729821069595632,1
700,786,50,0.0695407234287813,1
701,785,50,0.0744122437046981,1
701,786,50,0.0727393233930535,1
701,787,50,0.0703106311900735,1
702,786,50,0.0745703617958516,1
702,787,50,0.0730988596617665,1
703,786,50,0.0761354122422192,1
703,787,50,0.0761977118962115,1
704,786,50,0.0711646833162617,1
704,787,50,0.0723221295462874,1
673,792,51,0.116090089288863,1
673,793,51,0.11400798346017,1
673,794,51,0.076077485124273,1
674,791,51,0.090588452786386,1
674,792,51,0.134354891126009,1
674,793,51,0.133049096128516,1
674,794,51,0.0855182456704945,1
674,832,51,0.0682379892065205,1
674,833,51,0.0828909145457431,1
674,834,51,0.0810205352980819,1
675,791,51,0.0790862451468444,1
675,792,51,0.110906130348247,1
675,793,51,0.111477782533393,1
675,794,51,0.0787736387684332,1
675,833,51,0.0794533644712207,1
675,834,51,0.0829538551057037,1
675,835,51,0.0677932903110926,1
676,792,51,0.0744083623302354,1
676,793,51,0.0735132263345411,1
677,836,51,0.0776139224135287,1
677,837,51,0.0744444387475025,1
678,836,51,0.0707528383389327,1
678,837,51,0.0695696480542143,1
680,838,51,0.068002357431845,1
683,784,51,0.0694256179148145,1
683,785,51,0.0719160048044707,1
683,786,51,0.0704490189610413,1
684,784,51,0.0718451936796273,1
684,785,51,0.0762404848823819,1
684,786,51,0.0744939921594319,1
684,787,51,0.0688966668385333,1
685,785,51,0.0738855567635202,1
685,786,51,0.0743329031396773,1
685,787,51,0.0681666749405431,1
686,785,51,0.0690107600804566,1
686,786,51,0.0705564875113662,1
691,783,51,0.0711870850762781,1
691,784,51,0.068830791288624,1
692,783,51,0.0787174726444561,1
692,784,51,0.0766303234248712,1
692,785,51,0.0692655591364296,1
693,783,51,0.0930175762531952,1
693,784,51,0.0949844208337614,1
693,785,51,0.0820275662881256,1
694,783,51,0.122792504212968,1
694,784,51,0.132926066141688,1
694,785,51,0.106507670554302,1
694,786,51,0.0775533478148533,1
695,783,51,0.143511053483615,1
695,784,51,0.156077686141136,1
695,785,51,0.119974458639307,1
695,786,51,0.0824722112755749,1
696,784,51,0.120347274240094,1
696,785,51,0.0954639143345197,1
696,786,51,0.0723611888717065,1
697,784,51,0.0909176149040179,1
697,785,51,0.0792024647590366,1
698,785,51,0.0719979988399961,1
699,785,51,0.0714657294281403,1
699,786,51,0.068697985988334,1
700,785,51,0.0736671276238091,1
700,786,51,0.0719249894675789,1
700,787,51,0.0687003040314159,1
701,786,51,0.075602501924395,1
701,787,51,0.0740500539654805,1
702,786,51,0.0751998093238856,1
702,787,51,0.07347731164121,1
703,786,51,0.0746908041997047,1
703,787,51,0.0740916948840993,1
704,787,51,0.071330731870052,1
673,793,52,0.193621346812021,1
673,794,52,0.0935967096678234,1
674,792,52,0.250720234553855,1
674,793,52,0.225938904482537,1
674,794,52,0.107506549460019,1
674,832,52,0.069579896559933,1
674,833,52,0.0797715054021066,1
674,834,52,0.0722897428306701,1
675,791,52,0.100287186969545,1
675,792,52,0.164961936654435,1
675,793,52,0.152841973528451,1
675,794,52,0.086904531269886,1
675,833,52,0.0774014471105707,1
675,834,52,0.0738236224858277,1
676,792,52,0.0800912156541486,1
676,793,52,0.0774036034297167,1
677,836,52,0.071771399646632,1
678,836,52,0.0711001554658186,1
680,790,52,0.0693189220455169,1
680,838,52,0.0699161385920942,1
683,785,52,0.0701828393317979,1
683,786,52,0.0712422209588854,1
683,787,52,0.0705037116002687,1
683,788,52,0.0727694938917708,1
683,789,52,0.0702872890353184,1
684,784,52,0.0702284394919597,1
684,785,52,0.0737748357651502,1
684,786,52,0.0755438560334001,1
684,787,52,0.0737910860258252,1
684,788,52,0.0742786178051776,1
684,789,52,0.0700151256204449,1
685,784,52,0.0680987089590173,1
685,785,52,0.0730156856404862,1
685,786,52,0.0753745730008909,1
685,787,52,0.0744563943392118,1
685,788,52,0.0740863939328655,1
686,785,52,0.0707898311918369,1
686,786,52,0.0723940427898055,1
686,787,52,0.0729029999957832,1
686,788,52,0.0720007361673564,1
691,783,52,0.0728653602471353,1
691,784,52,0.0705113365843598,1
692,783,52,0.0790452690932956,1
692,784,52,0.0759945506940089,1
692,785,52,0.0704832625070344,1
693,784,52,0.0837403605346445,1
693,785,52,0.0782741394178207,1
694,784,52,0.0976629405791279,1
694,785,52,0.0914018762659989,1
694,786,52,0.0769920639309334,1
695,784,52,0.10785401633129,1
695,785,52,0.0983460085765917,1
695,786,52,0.081165176394573,1
696,784,52,0.0970339422842492,1
696,785,52,0.0870743893208342,1
696,786,52,0.0734979224583802,1
697,785,52,0.0780888876440805,1
697,786,52,0.0685878400084029,1
698,785,52,0.0723787449034199,1
699,785,52,0.0714024294816554,1
699,786,52,0.0692205040458297,1
700,786,52,0.0737328354600071,1
700,787,52,0.0719411738407245,1
701,786,52,0.0775878369416379,1
701,787,52,0.0763172318746521,1
702,786,52,0.0762793705043142,1
702,787,52,0.0735641633845892,1
703,787,52,0.071841348243817,1
704,787,52,0.0699182110543845,1
671,827,53,0.0702863845792322,1
673,794,53,0.115748288745126,1
674,793,53,0.32056865873499,1
674,794,53,0.131470574677261,1
675,792,53,0.210140728096014,1
675,793,53,0.182264097727067,1
675,794,53,0.0910845379650174,1
675,833,53,0.0705390512751609,1
676,792,53,0.0785046619140754,1
676,793,53,0.0747962721650441,1
678,836,53,0.069679242974808,1
680,790,53,0.0681133120314558,1
680,838,53,0.0690466088862583,1
681,786,53,0.0678836820117365,1
681,789,53,0.0677452163736884,1
681,790,53,0.0690593910669735,1
682,785,53,0.0695567760268679,1
682,786,53,0.0696129002224171,1
682,787,53,0.0693138786546255,1
682,788,53,0.0701284342017901,1
682,789,53,0.070022055790589,1
683,785,53,0.071571910176753,1
683,786,53,0.0737411852069223,1
683,787,53,0.0790658739206904,1
683,788,53,0.0865913079446081,1
683,789,53,0.0826814580895894,1
684,785,53,0.0736243426580879,1
684,786,53,0.0779323568434094,1
684,787,53,0.0971652920691157,1
684,788,53,0.120056087298533,1
684,789,53,0.110657938014546,1
684,790,53,0.0680752769576311,1
685,785,53,0.0725250331881476,1
685,786,53,0.0770891102720527,1
685,787,53,0.10495635466294,1
685,788,53,0.136685680449986,1
685,789,53,0.122581304732172,1
685,790,53,0.0687352903095593,1
686,785,53,0.0711912300008587,1
686,786,53,0.0734278660452378,1
686,787,53,0.0925305476149769,1
686,788,53,0.114481798653844,1
686,789,53,0.0997649803803709,1
687,785,53,0.0693075115233695,1
687,786,53,0.0681917780892674,1
687,787,53,0.0712599686634118,1
687,788,53,0.0745223357766506,1
690,784,53,0.068860189106314,1
691,784,53,0.0727143100909602,1
691,785,53,0.0685729853653974,1
692,784,53,0.0776727839364382,1
692,785,53,0.0721370993942372,1
693,784,53,0.0828336822417439,1
693,785,53,0.0783808712257706,1
693,786,53,0.0682189297411804,1
694,784,53,0.0888019004455243,1
694,785,53,0.0870832781475359,1
694,786,53,0.0769821149139849,1
695,784,53,0.0915914227087049,1
695,785,53,0.0910848494333385,1
695,786,53,0.0811000016483862,1
696,785,53,0.0846268772435303,1
696,786,53,0.0752588685093835,1
697,785,53,0.0782848371566948,1
697,786,53,0.0701093208284712,1
699,786,53,0.0687632206322749,1
700,786,53,0.0735352986569103,1
700,787,53,0.0723752828132355,1
701,787,53,0.0740016446006535,1
702,787,53,0.0715640036732178,1
670,827,54,0.0691551735654823,1
671,827,54,0.0708715916261215,1
674,794,54,0.154623943691128,1
675,793,54,0.198047718959355,1
675,794,54,0.095600595019497,1
676,792,54,0.0776758447116704,1
676,793,54,0.0731032262080371,1
676,796,54,0.0716142099706664,1
676,797,54,0.0770916379572738,1
677,795,54,0.0722460234599856,1
677,796,54,0.0849061026036068,1
677,797,54,0.089301801111089,1
677,798,54,0.070782727318206,1
677,834,54,0.069813156383548,1
677,835,54,0.0754752012277027,1
678,795,54,0.0762849170363396,1
678,796,54,0.0873915778774306,1
678,797,54,0.0849328110121398,1
678,835,54,0.0692973768233835,1
678,836,54,0.0685623894527051,1
679,796,54,0.0715890229650864,1
681,787,54,0.0713236579452981,1
681,788,54,0.0704505763026468,1
681,789,54,0.068056115666109,1
682,786,54,0.0731654420051736,1
682,787,54,0.0730455566504333,1
682,788,54,0.0743225887464291,1
682,789,54,0.0711140697140855,1
683,786,54,0.0730234903178395,1
683,787,54,0.0922219903247398,1
683,788,54,0.11684728075697,1
683,789,54,0.105039564622872,1
683,790,54,0.0689837042649501,1
684,785,54,0.069374483202178,1
684,786,54,0.0757002610487876,1
684,787,54,0.143731956400569,1
684,788,54,0.227633435903845,8
684,789,54,0.201137089379333,1
684,790,54,0.0947787259565623,1
685,786,54,0.074668827713742,1
685,787,54,0.165931561497072,1
685,788,54,0.278143678515624,8
685,789,54,0.245314102863899,8
685,790,54,0.107961365086107,1
686,786,54,0.0693785502596783,1
686,787,54,0.121594573090977,1
686,788,54,0.191871817272941,1
686,789,54,0.167317331975779,1
686,790,54,0.0772636702966942,1
687,785,54,0.0683462184583219,1
687,787,54,0.0728169748414099,1
687,788,54,0.0863866852372066,1
687,789,54,0.0724272920330812,1
691,784,54,0.0743393361584628,1
691,785,54,0.0708238471263645,1
692,785,54,0.0744438457597374,1
693,785,54,0.079322631633221,1
693,786,54,0.0718834803240191,1
694,785,54,0.0845998992951041,1
694,786,54,0.0786615461114953,1
695,785,54,0.0863722618580302,1
695,786,54,0.081764914636596,1
695,787,54,0.0689013328735741,1
696,785,54,0.0822241387373822,1
696,786,54,0.0774499103833763,1
697,786,54,0.0720746440060845,1
699,786,54,0.069963230206332,1
699,787,54,0.0679436396635452,1
700,787,54,0.0739575358945677,1
701,787,54,0.0732363070379957,1
671,827,55,0.0679121454244633,1
675,797,55,0.0722837530552646,1
676,796,55,0.0810912266274172,1
676,797,55,0.091819291734455,1
676,798,55,0.0772784171237424,1
676,834,55,0.0798168240428243,1
677,794,55,0.0700657631817227,1
677,795,55,0.0888072253558597,1
677,796,55,0.110133617034653,1
677,797,55,0.114191785708262,1
677,798,55,0.0834535700882308,1
677,834,55,0.0866691510657775,1
677,835,55,0.0949056373178533,1
678,794,55,0.0759472314683057,1
678,795,55,0.105271512685673,1
678,796,55,0.128525354192191,1
678,797,55,0.116458160987529,1
678,798,55,0.0723173317361877,1
678,834,55,0.0678386209313612,1
678,835,55,0.076076880156957,1
679,794,55,0.0698326471127174,1
679,795,55,0.0940994854255826,1
679,796,55,0.109389495256481,1
679,797,55,0.0905423195362131,1
681,788,55,0.0693189280352923,1
682,787,55,0.0762443363079676,1
682,788,55,0.076302694689743,1
682,789,55,0.0705400815165306,1
683,787,55,0.109118961060518,1
683,788,55,0.153640506426406,8
683,789,55,0.129381221220327,1
683,790,55,0.0767250157842562,1
684,786,55,0.0811428525016369,1
684,787,55,0.203838190577978,8
684,788,55,0.360639944729228,8
684,789,55,0.306176402431638,8
684,790,55,0.12540728076847,1
685,786,55,0.0812461940967074,1
685,787,55,0.247531565637205,8
685,788,55,0.458032566744307,8
685,789,55,0.395279438835672,8
685,790,55,0.156332359411825,8
686,786,55,0.0703175913090947,1
686,787,55,0.158055761550587,1
686,788,55,0.282440695473302,8
686,789,55,0.244274229935307,8
686,790,55,0.100333829350628,1
687,787,55,0.0756782007059693,1
687,788,55,0.0979990029180269,1
687,789,55,0.0848164895737657,1
691,785,55,0.070615678471923,1
692,786,55,0.0687575902433938,1
693,786,55,0.0748252147598033,1
694,786,55,0.0789767580422079,1
694,787,55,0.0698726348533243,1
695,786,55,0.0796244444363516,1
695,787,55,0.0704854487750574,1
696,786,55,0.0768236134772055,1
696,787,55,0.0684462716666948,1
726,810,55,0.0744658222457,1
727,810,55,0.0685895231352919,1
671,826,56,0.068408781662432,1
676,797,56,0.106014688079331,1
676,833,56,0.070114723605887,1
677,795,56,0.11382377390735,1
677,796,56,0.150043646295425,1
677,797,56,0.138642767686417,1
677,798,56,0.0853538802435931,1
677,834,56,0.0910357752034415,1
678,795,56,0.132176086363169,1
678,796,56,0.171862972530986,1
678,797,56,0.141458057963392,1
678,798,56,0.0745605924721653,1
678,834,56,0.0683027806070815,1
678,835,56,0.0732907121680035,1
679,794,56,0.073588445934083,1
679,795,56,0.109266225678637,1
679,796,56,0.133896589450635,1
679,797,56,0.103324248680908,1
680,795,56,0.067917134907376,1
680,796,56,0.0728243422651586,1
683,788,56,0.16969130758043,8
683,789,56,0.138000927313069,8
683,790,56,0.0801620207892166,1
684,787,56,0.23342245799682,8
684,788,56,0.426403437920243,8
684,789,56,0.351375966414323,8
684,790,56,0.139500994686063,8
685,787,56,0.297344382759874,8
685,788,56,0.561713614366567,8
685,789,56,0.473616860230651,8
685,790,56,0.184317931815847,8
686,787,56,0.17797786236512,8
686,788,56,0.330113701271021,8
686,789,56,0.279586208106073,8
686,790,56,0.111273519212516,1
687,787,56,0.0790355177389355,1
687,788,56,0.107652160900126,8
687,789,56,0.09467572577869,1
694,787,56,0.0747146794444709,1
695,787,56,0.0733718137269935,1
696,787,56,0.06998853700742,1
721,828,56,0.0694719248684741,1
726,810,56,0.0811084771805849,1
727,810,56,0.0710593111873287,1
675,832,57,0.0754204307213951,1
676,796,57,0.11816958357548,1
676,833,57,0.0850102168797046,1
677,795,57,0.135064835245717,1
677,796,57,0.184354840811895,1
677,797,57,0.150880238226306,1
677,834,57,0.082342568576699,1
678,795,57,0.148549460881879,1
678,796,57,0.199658824788815,1
678,797,57,0.15243778348409,1
679,795,57,0.11124506777934,1
679,796,57,0.138766444568989,1
683,788,57,0.166882917524722,8
683,789,57,0.139894906275828,8
684,787,57,0.221931025963233,8
684,788,57,0.389530715951625,8
684,789,57,0.32079083148433,8
684,790,57,0.139399072667764,8
685,787,57,0.286124215674849,8
685,788,57,0.517674581348242,8
685,789,57,0.432540274291462,8
685,790,57,0.181145243619979,8
686,788,57,0.302495637526777,8
686,789,57,0.253332207894466,8
726,809,57,0.0702420901901088,1
726,810,57,0.0758936289682022,1
676,796,58,0.121823897632151,1
676,832,58,0.0678636342334544,1
677,795,58,0.14812358785055,1
677,796,58,0.197133978721251,1
677,797,58,0.148254140995288,1
678,795,58,0.158040307930041,1
678,796,58,0.207250493749166,1
678,797,58,0.148895825634475,1
679,796,58,0.131414953622846,1
684,788,58,0.293103645731906,8
684,789,58,0.253418628374017,8
685,787,58,0.225813742135664,8
685,788,58,0.374182108147935,8
685,789,58,0.319876288616322,8
686,788,58,0.224279521063309,8
676,795,59,0.0995928402249932,1
676,796,59,0.112902438634032,1
677,794,59,0.0916524884689636,1
677,795,59,0.142691412617131,1
677,796,59,0.176120780418859,1
677,797,59,0.130094986816744,1
678,794,59,0.0940090458067355,1
678,795,59,0.152143961041351,1
678,796,59,0.186883113030991,1
678,797,59,0.133067520677663,1
679,795,59,0.102315414768467,1
679,796,59,0.116441150025377,1
685,788,59,0.212280707134675,8
676,795,60,0.0996175121098883,1
676,796,60,0.102697646296191,1
677,794,60,0.0960844311074242,1
677,795,60,0.127712469792365,1
677,796,60,0.142165246786414,1
677,797,60,0.108732740342374,1
678,794,60,0.0957176052820427,1
678,795,60,0.134417771788215,1
678,796,60,0.152814288786527,1
679,795,60,0.0949891168176793,1
675,795,61,0.0812167483608141,1
676,794,61,0.0900810649015645,1
676,795,61,0.0965082316764624,1
676,796,61,0.0914797493360454,1
677,793,61,0.0808226331186853,1
677,794,61,0.097043717597711,1
677,795,61,0.109939296740949,1
677,796,61,0.10908176455525,1
678,794,61,0.0914753348715715,1
678,795,61,0.11034438525162,1
708,834,61,0.0699230807417891,1
676,794,62,0.0897463143234793,1
676,795,62,0.093672162868606,1
677,793,62,0.0798847660652485,1
677,794,62,0.0948151617603538,1
677,795,62,0.0988789548330683,1
677,796,62,0.0900160339099874,1
678,794,62,0.0857797293158201,1
678,795,62,0.093402694852665,1
708,834,62,0.0708054345567681,1
708,835,62,0.0692078117117456,1
677,794,63,0.0884323193234563,1
677,795,63,0.0902975593438196,1
680,809,63,0.0772278873784219,1
680,810,63,0.0839523207169177,1
681,809,63,0.0782138103999368,1
681,810,63,0.0819152879481502,1
679,809,64,0.0695954340373348,1
679,810,64,0.0775966299319332,1
680,809,64,0.122414884812306,1
680,810,64,0.136638469040241,1
680,811,64,0.085018937992695,1
681,808,64,0.0721598665305534,1
681,809,64,0.132641683584987,1
681,810,64,0.144854775738975,1
681,811,64,0.0861681662508644,1
682,809,64,0.0800920063045022,1
682,810,64,0.0848461569313489,1
683,795,64,0.173345705493956,1
683,796,64,0.0742558866075139,1
684,795,64,0.239278493697031,1
684,796,64,0.0862574318737321,1
686,795,64,0.0689518326700176,1
679,809,65,0.0868832316285442,1
679,810,65,0.0980944260300114,1
680,808,65,0.0828167311773464,1
680,809,65,0.176362575672427,1
680,810,65,0.202311133277007,1
680,811,65,0.116378377179128,1
681,795,65,0.0688969783068544,1
681,808,65,0.0914443916918269,1
681,809,65,0.198617154927601,1
681,810,65,0.226122119732639,1
681,811,65,0.127015954749116,1
682,795,65,0.0917650842670355,1
682,796,65,0.0682300467643329,1
682,809,65,0.108670578453216,1
682,810,65,0.121503001404578,1
682,811,65,0.0733895913803969,1
683,794,65,0.230739134451578,1
683,795,65,0.153216765755122,1
683,796,65,0.0794604383959746,1
684,794,65,0.302549976769255,1
684,795,65,0.198004472780927,1
684,796,65,0.0893120436270323,1
685,795,65,0.129805500971398,1
685,796,65,0.0702871153318316,1
686,794,65,0.0890248099372387,1
686,795,65,0.0710627193695345,1
689,829,65,0.0764229514105586,1
689,830,65,0.0685600953687248,1
674,800,66,0.0735335496424919,1
675,799,66,0.0681731259286548,1
677,797,66,0.0695280430742479,1
678,796,66,0.069562729863621,1
679,795,66,0.0696025379109657,1
679,809,66,0.105474170746742,1
679,810,66,0.124243479386739,1
679,811,66,0.0822614610279336,1
680,795,66,0.0690541260543922,1
680,808,66,0.0938575823560576,1
680,809,66,0.220962311566458,1
680,810,66,0.269928461956013,1
680,811,66,0.157624126355318,1
681,794,66,0.0766700056869324,1
681,795,66,0.0732065198849043,1
681,808,66,0.104456939169183,1
681,809,66,0.253948076601656,1
681,810,66,0.310522655343148,1
681,811,66,0.180343536141059,1
682,794,66,0.101691100477955,1
682,795,66,0.0896198102669159,1
682,796,66,0.0729834726283556,1
682,809,66,0.134044417107642,1
682,810,66,0.16231061048941,1
682,811,66,0.0986708400866054,1
683,793,66,0.134639944537555,1
683,794,66,0.157065507921454,1
683,795,66,0.122590960250125,1
683,796,66,0.0818287117344396,1
684,793,66,0.162191342081536,1
684,794,66,0.192731529736887,1
684,795,66,0.146012000347311,1
684,796,66,0.0880843792599283,1
685,794,66,0.134237862894137,1
685,795,66,0.106507550758794,1
685,796,66,0.0726477457168793,1
686,794,66,0.0833215853871714,1
686,795,66,0.0724370194283397,1
689,829,66,0.0873807663328237,1
689,830,66,0.078969151027443,1
690,829,66,0.0698531860525828,1
674,801,67,0.0681986962798607,1
678,797,67,0.0697692992480292,1
679,808,67,0.0694588551785394,1
679,809,67,0.113058460303794,1
679,810,67,0.139155767990794,1
679,811,67,0.0962191531358439,1
680,808,67,0.0981172051458784,1
680,809,67,0.219705896277407,1
680,810,67,0.285783756840803,1
680,811,67,0.176206793593681,1
680,812,67,0.0759321312445086,1
681,795,67,0.0729861979761651,1
681,808,67,0.10696395966514,1
681,809,67,0.249159514715105,1
681,810,67,0.325696337745897,1
681,811,67,0.201131243358537,1
681,812,67,0.0784112513666272,1
682,795,67,0.0823960333119682,1
682,796,67,0.0728730511187559,1
682,808,67,0.0690045367038103,1
682,809,67,0.13388926994509,1
682,810,67,0.172307593559333,1
682,811,67,0.110981062438569,1
683,794,67,0.105681464893974,1
683,795,67,0.0970552179664895,1
683,796,67,0.0803885421155005,1
684,794,67,0.120756579552651,1
684,795,67,0.106798462170687,1
684,796,67,0.0830059541721805,1
685,794,67,0.102048139010324,1
685,795,67,0.090743875478607,1
685,796,67,0.0729833049146443,1
686,794,67,0.0801090052871029,1
686,795,67,0.0719493978023562,1
689,829,67,0.0812273862019342,1
689,830,67,0.0769430675681167,1
678,810,68,0.068919176414507,1
679,808,68,0.0685037615310364,1
679,809,68,0.106262185599085,1
679,810,68,0.132616370794123,1
679,811,68,0.0998414099145446,1
680,808,68,0.0884569073514957,1
680,809,68,0.179329491124015,1
680,810,68,0.240571039311327,1
680,811,68,0.164435579150905,1
680,812,68,0.0836021644364896,1
681,808,68,0.0913209663798219,1
681,809,68,0.193597315833094,1
681,810,68,0.263051528935695,1
681,811,68,0.179608363087343,1
681,812,68,0.0852538150556695,1
682,796,68,0.0729873060846151,1
682,809,68,0.109770744461039,1
682,810,68,0.145097649152116,1
682,811,68,0.103805467236983,1
683,795,68,0.0807153861900505,1
683,796,68,0.0796707394104604,1
683,797,68,0.070262317661653,1
684,795,68,0.0826420813060739,1
684,796,68,0.0784926284552858,1
684,797,68,0.0679376438983643,1
685,795,68,0.0805073133720155,1
685,796,68,0.072305370154703,1
686,795,68,0.0733874470408018,1
678,809,69,0.0684066672717139,1
678,810,69,0.0727349628365583,1
679,809,69,0.0927669341013535,1
679,810,69,0.110868778108818,1
679,811,69,0.0934173578228575,1
679,812,69,0.071048206143727,1
680,808,69,0.0755388845198136,1
680,809,69,0.124873448025233,1
680,810,69,0.162110468134012,1
680,811,69,0.127833163766785,1
680,812,69,0.0838718780332223,1
681,808,69,0.0723697961789641,1
681,809,69,0.123938012820611,1
681,810,69,0.164516381221124,1
681,811,69,0.130344245330467,1
681,812,69,0.0829420792072566,1
682,809,69,0.0808429085084328,1
682,810,69,0.102615837943703,1
682,811,69,0.0859790630515385,1
683,797,69,0.075495740167568,1
684,796,69,0.0763510681159176,1
684,797,69,0.0719811376222298,1
685,796,69,0.072808673012698,1
680,810,70,0.105205409524299,1
681,810,70,0.0981300472243477,1
