x,y,z,signal,cytoplasm.p
61,726,1,0.0932718661782588,1
61,727,1,0.090436546092328,1
61,728,1,0.0871862423867559,1
61,754,1,0.0694456656930966,1
61,755,1,0.0743911297463939,1
62,727,1,0.0921230871532447,1
62,728,1,0.102353018578462,1
62,729,1,0.110856630844296,1
62,730,1,0.108386627160344,1
62,731,1,0.096358918555155,1
62,753,1,0.069185733399601,1
62,754,1,0.103279205569859,1
62,755,1,0.127057475872226,1
62,756,1,0.109826676983775,1
62,757,1,0.0880120527219073,1
62,758,1,0.0959129737864428,1
62,759,1,0.0983618155938867,1
62,760,1,0.0795761668465835,1
63,727,1,0.11039696350013,1
63,728,1,0.162474370948995,1
63,729,1,0.196309246545673,1
63,730,1,0.176948303829776,1
63,731,1,0.131013806384391,1
63,732,1,0.100350756455924,1
63,738,1,0.0750400799831481,1
63,753,1,0.0760254818942027,1
63,754,1,0.127447709739892,1
63,755,1,0.163979877038057,1
63,756,1,0.14375946144923,1
63,757,1,0.114871649175884,1
63,758,1,0.128544629289446,1
63,759,1,0.132296660542081,1
63,760,1,0.102576712730755,1
63,761,1,0.0751875722127323,1
64,727,1,0.134332094040816,1
64,728,1,0.22659440154381,1
64,729,1,0.274283723489733,2
64,730,1,0.22843551474884,1
64,731,1,0.148184431989119,1
64,732,1,0.105791856454697,1
64,736,1,0.0824094084804486,1
64,737,1,0.0857274385765304,1
64,738,1,0.0750762582265971,1
64,754,1,0.101513623432691,1
64,755,1,0.127247663220901,1
64,756,1,0.117166559745182,1
64,757,1,0.105635367582454,1
64,758,1,0.124856496960836,1
64,759,1,0.131851332720236,1
64,760,1,0.107613383094151,1
64,761,1,0.083558103648607,1
64,762,1,0.0733164442431454,1
64,763,1,0.0707074058924823,1
64,764,1,0.0694344109051097,1
65,727,1,0.131242735600388,1
65,728,1,0.217175503677818,1
65,729,1,0.256958992943374,2
65,730,1,0.2113371018764,1
65,731,1,0.14126376162879,1
65,732,1,0.109162997889299,1
65,734,1,0.0857584895722323,1
65,735,1,0.079269154918401,1
65,736,1,0.0776591991258186,1
65,737,1,0.078174325800464,1
65,738,1,0.0688460352670309,1
65,755,1,0.0758980074940236,1
65,756,1,0.077898328929331,1
65,757,1,0.0825355711198139,1
65,758,1,0.0970346370981963,1
65,759,1,0.103925801824879,1
65,760,1,0.0953302824452237,1
65,761,1,0.084488735053354,1
65,762,1,0.078592154563423,1
65,763,1,0.0751101543656167,1
65,764,1,0.0724193136522411,1
65,765,1,0.0707235722963016,1
66,728,1,0.15102610123698,1
66,729,1,0.178386448904628,1
66,730,1,0.164619585051361,1
66,731,1,0.133364541660469,1
66,732,1,0.113643685320009,1
66,733,1,0.0982959580133036,1
66,734,1,0.0837993658121637,1
66,735,1,0.0740889755260652,1
66,736,1,0.0682356292350108,1
66,758,1,0.0735314592108754,1
66,759,1,0.078640623826004,1
66,760,1,0.0790810939399957,1
66,761,1,0.0777959756472024,1
66,762,1,0.0759997438292855,1
66,763,1,0.0728356329917979,1
66,764,1,0.0698554142490336,1
66,765,1,0.068995683815761,1
66,766,1,0.0694811311532723,1
66,767,1,0.0687765179336751,1
67,729,1,0.128469769076428,1
67,730,1,0.135616038337629,1
67,731,1,0.123588749016718,1
67,732,1,0.105059426718117,1
67,733,1,0.0882555670410164,1
67,734,1,0.0744947708302346,1
67,761,1,0.0695476296398238,1
67,762,1,0.0690481183096605,1
68,729,1,0.0977276481228331,1
68,730,1,0.101635431505337,1
68,731,1,0.0936389375844319,1
68,732,1,0.0816040352589806,1
68,733,1,0.0721130863846367,1
69,728,1,0.0810380434115921,1
69,729,1,0.0838624740858357,1
69,730,1,0.0799333910619901,1
69,731,1,0.0721286118824877,1
70,727,1,0.0691757604235509,1
70,728,1,0.0782837949357743,1
70,729,1,0.0786756819814522,1
70,730,1,0.072057501268874,1
71,727,1,0.0713498871717986,1
71,728,1,0.0797293673321291,1
71,729,1,0.0778407492183583,1
71,730,1,0.070386629460418,1
72,727,1,0.0741710114900185,1
72,728,1,0.0792534317579617,1
72,729,1,0.0741825058690215,1
73,727,1,0.072663355071586,1
73,728,1,0.0749339231936371,1
73,729,1,0.0697690476774622,1
75,761,1,0.0687984465014345,1
76,760,1,0.0720859946304778,1
76,761,1,0.0767663572141047,1
76,762,1,0.0737685465009745,1
77,760,1,0.0717869431138092,1
77,761,1,0.0758849198347627,1
77,762,1,0.0738310138686781,1
78,760,1,0.0688495332958677,1
78,761,1,0.0726168684246642,1
79,761,1,0.0706151453819119,1
83,724,1,0.0708193068766072,1
84,723,1,0.0740576070722668,1
84,724,1,0.0778676193508272,1
84,725,1,0.0732204401229466,1
85,722,1,0.0725908428505274,1
85,723,1,0.0843619973955498,1
85,724,1,0.0883926730000475,1
85,725,1,0.0813267805350125,1
86,722,1,0.0788906310616527,1
86,723,1,0.0928026331627701,1
86,724,1,0.0964873393398482,1
86,725,1,0.087628359688984,1
86,726,1,0.0702826828980316,1
87,722,1,0.0782450231195747,1
87,723,1,0.0898107103988635,1
87,724,1,0.0926974886453026,1
87,725,1,0.0855112436230455,1
87,726,1,0.0699793966101513,1
88,722,1,0.0722796979773151,1
88,723,1,0.0805663725575133,1
88,724,1,0.0836120295965824,1
88,725,1,0.0795929202483926,1
88,756,1,0.0695039701668934,1
89,723,1,0.0720333205455622,1
89,724,1,0.0757286645637603,1
89,725,1,0.073483990240787,1
89,755,1,0.0699480640950053,1
89,756,1,0.0708597737992465,1
90,723,1,0.0712290913711966,1
90,724,1,0.075919019626146,1
90,725,1,0.0737890255430858,1
90,755,1,0.0730647179419553,1
90,756,1,0.0726413965549495,1
90,757,1,0.0694537219410169,1
91,723,1,0.0728560880748076,1
91,724,1,0.0790863290037,1
91,725,1,0.0781080489356025,1
91,755,1,0.0725938736768826,1
91,756,1,0.0728160703853237,1
91,757,1,0.0712504149716401,1
92,722,1,0.0684502668468902,1
92,723,1,0.0783934018359189,1
92,724,1,0.0843715031691183,1
92,725,1,0.083268102682576,1
92,726,1,0.070093657565786,1
92,755,1,0.0722373023469953,1
92,756,1,0.0734542749650005,1
92,757,1,0.0730389379486102,1
92,758,1,0.0738336733289581,1
93,722,1,0.0745257739077333,1
93,723,1,0.0836649492622897,1
93,724,1,0.0850468623256352,1
93,725,1,0.0820268295457508,1
93,726,1,0.0709031996709361,1
93,755,1,0.072339422027883,1
93,756,1,0.074677986080337,1
93,757,1,0.0774400032948557,1
93,758,1,0.0809624404664243,1
93,759,1,0.0736597362409588,1
94,722,1,0.0754248272165427,1
94,723,1,0.0826449384289423,1
94,724,1,0.0806192802436698,1
94,725,1,0.0772242995029541,1
94,726,1,0.0709779820168733,1
94,755,1,0.0705603149778503,1
94,756,1,0.0744613658527983,1
94,757,1,0.0807769191527908,1
94,758,1,0.0866380042336691,1
94,759,1,0.0783675140266165,1
95,723,1,0.0712560812991737,1
95,724,1,0.0711011497685359,1
95,725,1,0.0714344448311976,1
95,726,1,0.0706042499804494,1
95,756,1,0.0716176061733213,1
95,757,1,0.0771790886781936,1
95,758,1,0.0807798241938625,1
95,759,1,0.0740709522918702,1
96,726,1,0.0695428078706224,1
96,727,1,0.0685286250887445,1
96,756,1,0.0721945712892527,1
96,757,1,0.0746992557728018,1
96,758,1,0.0748798654706028,1
96,759,1,0.0707857940832136,1
97,727,1,0.0699162284387253,1
97,755,1,0.0694311105388613,1
97,756,1,0.0735408511787111,1
97,757,1,0.0738051919469051,1
97,758,1,0.0729343924086832,1
97,759,1,0.0710284039462365,1
98,727,1,0.07048024366023,1
98,728,1,0.0679600815970332,1
98,755,1,0.0721551046591061,1
98,756,1,0.0760592762070404,1
98,757,1,0.0756146372093665,1
98,758,1,0.073362912920741,1
99,726,1,0.0727416114872584,1
99,727,1,0.0740360199217055,1
99,728,1,0.069617536308581,1
99,752,1,0.0683580123260953,1
99,755,1,0.0758849857222922,1
99,756,1,0.0805852702989176,1
99,757,1,0.0803689256010476,1
100,727,1,0.0781950923517948,1
100,728,1,0.0714179010715277,1
100,729,1,0.0694897444503054,1
100,756,1,0.0834181585360337,1
101,728,1,0.0761608208694892,1
101,729,1,0.07697362141246,1
101,730,1,0.0717145566780341,1
102,730,1,0.0759436196337363,1
60,726,2,0.10220762277027,1
60,727,2,0.0968524580792391,1
60,728,2,0.0913610799057123,1
61,725,2,0.101235254610498,1
61,726,2,0.102018070337789,1
61,727,2,0.0980780559738282,1
61,728,2,0.0905734424092199,1
61,729,2,0.0899041089667609,1
61,730,2,0.0899866241127465,1
61,754,2,0.0686190287689392,1
61,755,2,0.0780693549864832,1
61,756,2,0.0713640170519801,1
62,726,2,0.0966809648196052,1
62,727,2,0.098131484770445,1
62,728,2,0.105772665214298,1
62,729,2,0.117603585738316,1
62,730,2,0.113363711238007,1
62,731,2,0.0948324542419494,1
62,754,2,0.102388645762574,1
62,755,2,0.140523341531818,1
62,756,2,0.115841034427504,1
62,757,2,0.0876877543019046,1
62,758,2,0.0887144018064013,1
62,759,2,0.0866485162895057,1
62,760,2,0.06908578201741,1
63,726,2,0.0854107711303942,1
63,727,2,0.119637809302418,1
63,728,2,0.195288469021073,1
63,729,2,0.242892796053993,2
63,730,2,0.204602246328699,1
63,731,2,0.135572564547737,1
63,732,2,0.100219730118929,1
63,753,2,0.0736106021133078,1
63,754,2,0.140983008875985,1
63,755,2,0.208031248993718,1
63,756,2,0.172626453263268,1
63,757,2,0.118476451749053,1
63,758,2,0.117235130694024,1
63,759,2,0.116139457017755,1
63,760,2,0.0886532941177147,1
63,761,2,0.0687644784851101,1
64,726,2,0.0778193896792624,1
64,727,2,0.152047178250349,1
64,728,2,0.295695541345359,2
64,729,2,0.36608206298982,2
64,730,2,0.285126534724214,2
64,731,2,0.16556059074711,1
64,732,2,0.112183989033248,1
64,733,2,0.0881049301793444,1
64,737,2,0.0821534893364747,1
64,738,2,0.0719263132079435,1
64,754,2,0.112326581626551,1
64,755,2,0.165199682819829,1
64,756,2,0.14169423480763,1
64,757,2,0.105825111687748,1
64,758,2,0.112520135229003,1
64,759,2,0.116759698260991,1
64,760,2,0.0945535583195201,1
64,761,2,0.0784167978986526,1
64,762,2,0.0704671919396215,1
64,765,2,0.0685650309436589,1
65,726,2,0.0731642021216647,1
65,727,2,0.14284857234422,1
65,728,2,0.271013497791163,2
65,729,2,0.334711979972491,2
65,730,2,0.263674848923489,2
65,731,2,0.162402984805713,1
65,732,2,0.116663825915851,1
65,733,2,0.0940787009049257,1
65,735,2,0.0758829072702265,1
65,736,2,0.074106315925864,1
65,737,2,0.075891364833099,1
65,754,2,0.0702065768117298,1
65,755,2,0.0966227561822149,1
65,756,2,0.0935595011830046,1
65,757,2,0.086108861484575,1
65,758,2,0.092856654947152,1
65,759,2,0.0970544213263605,1
65,760,2,0.088207918377666,1
65,761,2,0.080403588431319,1
65,762,2,0.07536924210078,1
65,763,2,0.0710569332464928,1
65,764,2,0.0684221987593402,1
65,765,2,0.0683945319867424,1
66,727,2,0.101717012246359,1
66,728,2,0.165041217321702,1
66,729,2,0.214702828554036,2
66,730,2,0.200107291252973,1
66,731,2,0.153144636879689,1
66,732,2,0.11649923886726,1
66,733,2,0.0944110675523995,1
66,734,2,0.07979637494959,1
66,735,2,0.0718393177099546,1
66,757,2,0.0693361007213798,1
66,758,2,0.0753663789881362,1
66,759,2,0.077724026465032,1
66,760,2,0.0756690423393744,1
66,761,2,0.0729364708607489,1
66,762,2,0.0708742031681983,1
66,763,2,0.0682874767309205,1
67,728,2,0.103978811337217,1
67,729,2,0.141149919957433,1
67,730,2,0.15353597286603,1
67,731,2,0.131572101370384,1
67,732,2,0.100999736641555,1
67,733,2,0.084362236986566,1
67,734,2,0.0731680235983734,1
67,761,2,0.0679391353524403,1
68,729,2,0.103186807294454,1
68,730,2,0.107512802785543,1
68,731,2,0.0934323682000236,1
68,732,2,0.0783688257874302,1
68,733,2,0.0721319661567148,1
69,729,2,0.0881753339994602,1
69,730,2,0.0824193095791938,1
69,731,2,0.0717009958265162,1
70,728,2,0.0802567970054573,1
70,729,2,0.0826389786024139,1
70,730,2,0.074175156414599,1
71,727,2,0.0682706634313574,1
71,728,2,0.079913121662018,1
71,729,2,0.0796195987080486,1
71,730,2,0.071410563596656,1
72,727,2,0.069863973638088,1
72,728,2,0.078806504666083,1
72,729,2,0.0752301056078865,1
73,727,2,0.0696851848320103,1
73,728,2,0.0756347508751781,1
73,729,2,0.0713446341387681,1
76,760,2,0.0700439663890222,1
76,761,2,0.0784451594851975,1
76,762,2,0.0751222776710373,1
77,760,2,0.0722274072380254,1
77,761,2,0.0809535157010702,1
77,762,2,0.0784123534853018,1
78,760,2,0.0691999351570874,1
78,761,2,0.0763433053669921,1
78,762,2,0.0746886598601095,1
79,761,2,0.0690274715538378,1
83,724,2,0.0686261865505487,1
84,723,2,0.0707773964180951,1
84,724,2,0.0734309148409192,1
84,725,2,0.0705152119690471,1
85,722,2,0.0688943188465743,1
85,723,2,0.0803891590623673,1
85,724,2,0.0820558679769165,1
85,725,2,0.0783063703992775,1
86,722,2,0.0732708740318606,1
86,723,2,0.0885116179600492,1
86,724,2,0.0902241067280224,1
86,725,2,0.0856696612029692,1
87,722,2,0.0719828626775465,1
87,723,2,0.0857146743651413,1
87,724,2,0.087450984469902,1
87,725,2,0.0840541648681368,1
88,723,2,0.0753034863463788,1
88,724,2,0.0782989251084485,1
88,725,2,0.0770055229562695,1
89,724,2,0.0723786670363396,1
89,725,2,0.0722900423194404,1
90,723,2,0.069971783605611,1
90,724,2,0.0763271150040711,1
90,725,2,0.073987484771595,1
91,723,2,0.0778111896767323,1
91,724,2,0.0835952761947733,1
91,725,2,0.0778744357152386,1
91,756,2,0.0678318464953776,1
92,723,2,0.085158673463129,1
92,724,2,0.0898314230422156,1
92,725,2,0.0821435882377295,1
92,756,2,0.070397974095036,1
92,757,2,0.0702612215327538,1
92,758,2,0.0693784604130472,1
93,722,2,0.0706266637200166,1
93,723,2,0.0864965017794904,1
93,724,2,0.0874362496224046,1
93,725,2,0.0799224417525489,1
93,755,2,0.0677790765740555,1
93,756,2,0.0716226795130897,1
93,757,2,0.0730524448921495,1
93,758,2,0.0739595664284301,1
94,722,2,0.0693568852420368,1
94,723,2,0.0798439098072078,1
94,724,2,0.0782246758525223,1
94,725,2,0.0736655762719791,1
94,756,2,0.0711450368529317,1
94,757,2,0.0752965561762347,1
94,758,2,0.0786109205297683,1
94,759,2,0.0714582122600065,1
95,756,2,0.0681037343805825,1
95,757,2,0.0717295850245264,1
95,758,2,0.073619143533036,1
95,759,2,0.0681211226985845,1
96,756,2,0.0689040282725066,1
96,757,2,0.071099748161091,1
96,758,2,0.070135789645988,1
97,756,2,0.0698222249035119,1
97,757,2,0.0707653629593056,1
97,758,2,0.0686000112320268,1
98,756,2,0.0700739392251511,1
98,757,2,0.0705459754555296,1
98,758,2,0.0678815017334889,1
99,755,2,0.0692561072708398,1
99,756,2,0.0741006256392288,1
99,757,2,0.0749333960934014,1
99,758,2,0.0706443694961152,1
100,756,2,0.0772771472913565,1
100,757,2,0.0774261489443428,1
101,729,2,0.0709511118844044,1
102,730,2,0.0691961436292557,1
59,726,3,0.106699594937844,1
59,727,3,0.0967781189766819,1
60,725,3,0.11555926341288,1
60,726,3,0.107996537047288,1
60,727,3,0.101242394422781,1
60,728,3,0.0932303091164957,1
60,729,3,0.0885515517926775,1
61,725,3,0.108338888650363,1
61,726,3,0.11007654645459,1
61,727,3,0.103221008912019,1
61,728,3,0.0923858945389349,1
61,729,3,0.0905609237786225,1
61,730,3,0.090319487911579,1
61,731,3,0.0826741865022472,1
61,754,3,0.0714233457773713,1
61,755,3,0.0881153523885499,1
61,756,3,0.0873711287841964,1
61,757,3,0.0813925842076169,1
62,725,3,0.102059208115274,1
62,726,3,0.108223944860332,1
62,727,3,0.107018945803362,1
62,728,3,0.116490865161243,1
62,729,3,0.132740490920076,1
62,730,3,0.12268408927813,1
62,731,3,0.0957976346712351,1
62,732,3,0.0806315053752724,1
62,754,3,0.105529935555767,1
62,755,3,0.155036854848479,1
62,756,3,0.132193576507353,1
62,757,3,0.0999657756212882,1
62,758,3,0.088132105790359,1
62,759,3,0.0766230099091011,1
63,726,3,0.0933192872301438,1
63,727,3,0.138035859683234,1
63,728,3,0.243101743379238,2
63,729,3,0.30588585040627,2
63,730,3,0.239369753915109,2
63,731,3,0.144285591341296,1
63,732,3,0.100451115142842,1
63,753,3,0.0730185008349268,1
63,754,3,0.163678926762585,1
63,755,3,0.264108197194523,1
63,756,3,0.214995824407769,1
63,757,3,0.126809618965948,1
63,758,3,0.105209063287296,1
63,759,3,0.0964690345862091,1
63,760,3,0.0760647868004134,1
64,726,3,0.0813131837448421,1
64,727,3,0.187015642801613,2
64,728,3,0.390724382353527,2
64,729,3,0.485517106415212,2
64,730,3,0.360273753820039,2
64,731,3,0.199571601679361,2
64,732,3,0.128383863717563,1
64,733,3,0.0919342774529137,1
64,737,3,0.0773815131380213,1
64,738,3,0.0700923218458705,1
64,754,3,0.154389455963555,1
64,755,3,0.253608839681792,1
64,756,3,0.207468281982909,1
64,757,3,0.117713210607787,1
64,758,3,0.0991090520552692,1
64,759,3,0.0988913836170347,1
64,760,3,0.0854022117413398,1
64,761,3,0.0804833183317412,1
64,762,3,0.0749063223085687,1
65,726,3,0.0736369930637442,1
65,727,3,0.171537224585335,2
65,728,3,0.349851352941718,2
65,729,3,0.441832380591671,2
65,730,3,0.34796728106748,2
65,731,3,0.214416253739537,2
65,732,3,0.143037729451524,1
65,733,3,0.100568616566971,1
65,735,3,0.0746580820566646,1
65,736,3,0.0733681959026486,1
65,737,3,0.0752204800388099,1
65,754,3,0.0932319263558551,1
65,755,3,0.148607621601066,1
65,756,3,0.133045059019893,1
65,757,3,0.0940961850593342,1
65,758,3,0.0871462965745768,1
65,759,3,0.0893815789297144,1
65,760,3,0.0847950940960173,1
65,761,3,0.083062910946511,1
65,762,3,0.0790395668271096,1
65,763,3,0.0687137570669766,1
66,727,3,0.116599855114521,1
66,728,3,0.204306567055584,2
66,729,3,0.288165531133032,2
66,730,3,0.282993455906819,2
66,731,3,0.208403118209991,1
66,732,3,0.136332822780851,1
66,733,3,0.0958492006477008,1
66,734,3,0.0796054209096638,1
66,735,3,0.0716359768144899,1
66,736,3,0.0686231677037444,1
66,737,3,0.0684631808026644,1
66,756,3,0.0714076525658089,1
66,757,3,0.0743351672747806,1
66,758,3,0.0756594886476026,1
66,759,3,0.0760232536977519,1
66,760,3,0.0744399224568468,1
66,761,3,0.0725298908960014,1
66,762,3,0.0695262221825246,1
67,728,3,0.111785704907437,1
67,729,3,0.175145776757908,1
67,730,3,0.203276996540689,1
67,731,3,0.161612526125004,1
67,732,3,0.105444545317587,1
67,733,3,0.0821361968548791,1
67,734,3,0.0741564862846602,1
67,760,3,0.0681375526525217,1
67,761,3,0.0694328296044027,1
68,729,3,0.117304396456813,1
68,730,3,0.128969436140752,1
68,731,3,0.106278142360765,1
68,732,3,0.0801203319523946,1
68,733,3,0.0712847723233658,1
69,729,3,0.0931149939603897,1
69,730,3,0.0877373736013635,1
69,731,3,0.0759608522175778,1
70,728,3,0.0860066339877299,1
70,729,3,0.0881997183751359,1
70,730,3,0.0775236085799651,1
71,727,3,0.0732371995145311,1
71,728,3,0.0841297378644275,1
71,729,3,0.0839040431271496,1
71,730,3,0.0740814942965838,1
72,727,3,0.0694179030840922,1
72,728,3,0.0792630273781613,1
72,729,3,0.077602434024301,1
72,730,3,0.069438226392043,1
73,727,3,0.0678129068255455,1
73,728,3,0.0756286592735907,1
73,729,3,0.0732445070405258,1
76,761,3,0.0791717911191852,1
76,762,3,0.0744684996753062,1
77,760,3,0.0726857568316024,1
77,761,3,0.0870827091188724,1
77,762,3,0.0812343942391586,1
78,760,3,0.0720052105295843,1
78,761,3,0.0827124072591094,1
78,762,3,0.0770203596299488,1
79,761,3,0.0701477033092694,1
83,724,3,0.0684492665543975,1
83,725,3,0.0681223506025427,1
84,723,3,0.0717113162095398,1
84,724,3,0.0725515619034184,1
84,725,3,0.0720337518093914,1
85,722,3,0.0695252338695827,1
85,723,3,0.0802197801934515,1
85,724,3,0.0789967878511638,1
85,725,3,0.0787108539426331,1
86,722,3,0.070950381131805,1
86,723,3,0.0858437360558029,1
86,724,3,0.0858735531577713,1
86,725,3,0.0863928127774464,1
87,722,3,0.0679311869204773,1
87,723,3,0.0841149371294006,1
87,724,3,0.085852822545093,1
87,725,3,0.0867230889933037,1
88,723,3,0.0740384577602955,1
88,724,3,0.0769325195736277,1
88,725,3,0.0779825930897351,1
89,724,3,0.0714386915819601,1
89,725,3,0.0737459111397172,1
90,724,3,0.0730581771072126,1
90,725,3,0.0740910899167833,1
91,723,3,0.0769720281322021,1
91,724,3,0.0821800120619701,1
91,725,3,0.0765237413613063,1
92,723,3,0.0887461356364994,1
92,724,3,0.091861897006914,1
92,725,3,0.0802841463199587,1
92,756,3,0.0718086380803278,1
92,757,3,0.07353522078983,1
92,758,3,0.0701891825039523,1
93,722,3,0.0680231000240741,1
93,723,3,0.0919874906176158,1
93,724,3,0.0938880583333206,1
93,725,3,0.0811423014422996,1
93,756,3,0.0734607678815401,1
93,757,3,0.0751427087949454,1
93,758,3,0.0715973367733492,1
94,723,3,0.082460483295331,1
94,724,3,0.083948559137963,1
94,725,3,0.0758234048413486,1
94,756,3,0.0736193411956243,1
94,757,3,0.0755894621833373,1
94,758,3,0.0733773003612649,1
94,759,3,0.068628672307342,1
95,756,3,0.0717095013075919,1
95,757,3,0.0732971990947676,1
95,758,3,0.0720315535618175,1
95,759,3,0.0687535591245459,1
96,756,3,0.0718696439428324,1
96,757,3,0.0734505433349229,1
96,758,3,0.0708745565649472,1
97,756,3,0.0722979188740986,1
97,757,3,0.0742959402356502,1
97,758,3,0.0696955830821142,1
98,756,3,0.0717588510671576,1
98,757,3,0.0736490983998387,1
98,758,3,0.0684287336043076,1
99,756,3,0.0739892817042166,1
99,757,3,0.075555272545323,1
99,758,3,0.0701256010380233,1
100,756,3,0.0764679825420568,1
100,757,3,0.076694551786544,1
59,727,4,0.0972866628881566,1
60,726,4,0.112042534497273,1
60,727,4,0.104716176648731,1
60,728,4,0.0948715015878176,1
60,729,4,0.0869246449356976,1
61,725,4,0.11319579387429,1
61,726,4,0.116547732088942,1
61,727,4,0.10870505560045,1
61,728,4,0.0974847387710399,1
61,729,4,0.0919726898825889,1
61,730,4,0.0875677431618807,1
61,731,4,0.0789374591257726,1
61,754,4,0.0730551163319804,1
61,755,4,0.0956433500363412,1
61,756,4,0.107153404281664,1
61,757,4,0.097446434157322,1
62,725,4,0.108638724827609,1
62,726,4,0.117254729239151,1
62,727,4,0.117377112330235,1
62,728,4,0.130360609396875,1
62,729,4,0.144782622904441,2
62,730,4,0.123868962689737,1
62,731,4,0.0922501302895946,1
62,732,4,0.0758477353090456,1
62,753,4,0.0688512823102861,1
62,754,4,0.107118112524975,1
62,755,4,0.158314112543376,1
62,756,4,0.148042570148416,1
62,757,4,0.11467734086173,1
62,758,4,0.0840534940132914,1
63,725,4,0.0928178591718508,1
63,726,4,0.101530203131014,1
63,727,4,0.151574069850173,1
63,728,4,0.269028366426283,2
63,729,4,0.334430388651129,2
63,730,4,0.249698834092613,2
63,731,4,0.147373080971796,1
63,732,4,0.0964488610226435,1
63,753,4,0.0798811901693314,1
63,754,4,0.17092999313428,1
63,755,4,0.280695059288235,1
63,756,4,0.226276991365523,1
63,757,4,0.124180395072169,1
63,758,4,0.0844691724468798,1
63,759,4,0.074709630063804,1
63,760,4,0.0681814636960192,1
64,726,4,0.0859105999186541,1
64,727,4,0.206403803056951,2
64,728,4,0.439261808578662,2
64,729,4,0.554185137536744,2
64,730,4,0.417370712854192,2
64,731,4,0.239149282261985,2
64,732,4,0.138412448842526,1
64,733,4,0.0874086068089083,1
64,753,4,0.0771710563893749,1
64,754,4,0.190806487798875,1
64,755,4,0.320094196645572,1
64,756,4,0.254158725023116,1
64,757,4,0.124899335834536,1
64,758,4,0.0808048195266295,1
64,759,4,0.0827856382532167,1
64,760,4,0.0829913331304157,1
64,761,4,0.0826669987717606,1
64,762,4,0.0747731935604068,1
65,726,4,0.075504736810227,1
65,727,4,0.185189827482968,2
65,728,4,0.39317283482557,2
65,729,4,0.520539227374558,2
65,730,4,0.441096644499067,2
65,731,4,0.28509797547508,2
65,732,4,0.165799079644654,1
65,733,4,0.0969533318868425,1
65,736,4,0.0703611848944956,1
65,737,4,0.0733187802555535,1
65,754,4,0.110952587046291,1
65,755,4,0.187650127730763,1
65,756,4,0.158506887475025,1
65,757,4,0.0964967492770101,1
65,758,4,0.0777400670835678,1
65,759,4,0.0821563584388939,1
65,760,4,0.0840400948857093,1
65,761,4,0.0844585405955351,1
65,762,4,0.0800098265859392,1
66,727,4,0.122043470818964,1
66,728,4,0.230031981567209,2
66,729,4,0.348582047655995,2
66,730,4,0.366413537160758,2
66,731,4,0.260664771150328,2
66,732,4,0.144931025579887,1
66,733,4,0.0869955698662737,1
66,734,4,0.0728154594282323,1
66,735,4,0.06865131964815,1
66,755,4,0.0751304896531182,1
66,756,4,0.0845820258052942,1
66,757,4,0.0796779031818454,1
66,758,4,0.0742127482450437,1
66,759,4,0.0735618393517319,1
66,760,4,0.0737456535793748,1
66,761,4,0.0747353860980475,1
66,762,4,0.0729549253587732,1
67,727,4,0.0835641293626649,1
67,728,4,0.117611552139605,1
67,729,4,0.196185761335914,2
67,730,4,0.2369351018856,2
67,731,4,0.173339631861695,1
67,732,4,0.0999966109850756,1
67,733,4,0.0736268463842074,1
67,734,4,0.0693561844383143,1
67,760,4,0.0695114214474978,1
67,761,4,0.0743761433283294,1
67,762,4,0.0734447691914321,1
68,728,4,0.0836665844709754,1
68,729,4,0.117280257661929,1
68,730,4,0.132899926761818,1
68,731,4,0.102111498854563,1
68,732,4,0.0740368584902623,1
68,761,4,0.0705030706943003,1
68,762,4,0.0713478266890592,1
69,730,4,0.0852213265138702,1
69,731,4,0.0725677941947672,1
70,729,4,0.0859793745198596,1
70,730,4,0.0754027069759704,1
71,728,4,0.0821197189827387,1
71,729,4,0.0807384647946878,1
71,730,4,0.0713653407923447,1
72,728,4,0.0742717774816646,1
72,729,4,0.0745337702578996,1
73,728,4,0.0708238291570383,1
73,729,4,0.0716032906101022,1
76,761,4,0.0734650865096074,1
76,762,4,0.0721143262681457,1
77,761,4,0.084582097682599,1
77,762,4,0.0802844697678306,1
78,760,4,0.0709163771768281,1
78,761,4,0.083795101092075,1
78,762,4,0.0755822145550967,1
79,761,4,0.0704463235621089,1
83,725,4,0.0677766087865884,1
84,723,4,0.0702601733220579,1
84,724,4,0.0700294232143377,1
84,725,4,0.0714825966356821,1
85,722,4,0.0685492598650163,1
85,723,4,0.0774573317151037,1
85,724,4,0.0748680236846262,1
85,725,4,0.0774700539980649,1
86,723,4,0.081450523305114,1
86,724,4,0.0822278104697057,1
86,725,4,0.0876659754785303,1
86,759,4,0.068884238054567,1
87,723,4,0.0825247535854316,1
87,724,4,0.0868560919561821,1
87,725,4,0.09181390093659,1
88,723,4,0.0754319969777031,1
88,724,4,0.0802981623944074,1
88,725,4,0.0825109052246942,1
89,724,4,0.0707279148834706,1
89,725,4,0.0746537394694957,1
90,725,4,0.0714058017252087,1
91,723,4,0.0702703319811455,1
91,724,4,0.075475057473093,1
91,725,4,0.0718114233258913,1
92,723,4,0.0892601062844915,1
92,724,4,0.0910519535868117,1
92,725,4,0.0753805627762964,1
92,756,4,0.0726924953289335,1
92,757,4,0.0730703303615103,1
93,722,4,0.0695917323561342,1
93,723,4,0.100941971247545,1
93,724,4,0.102370233192978,1
93,725,4,0.0808446155944234,1
93,756,4,0.0749830693008389,1
93,757,4,0.0738019814272878,1
94,723,4,0.0904529760462652,1
94,724,4,0.0933292182777661,1
94,725,4,0.0770095960035452,1
94,756,4,0.0734699142685842,1
94,757,4,0.0723943662376774,1
95,724,4,0.0699451470743828,1
95,756,4,0.0745482415552792,1
95,757,4,0.0744054872380408,1
95,758,4,0.0713426155844564,1
95,759,4,0.0703461984764311,1
96,756,4,0.075876192731997,1
96,757,4,0.0775731500123437,1
96,758,4,0.0739100130165007,1
96,759,4,0.0705519412718335,1
97,756,4,0.0749703410281023,1
97,757,4,0.0793916997334215,1
97,758,4,0.0722619083443609,1
98,756,4,0.0737140635038864,1
98,757,4,0.0791339537079489,1
98,758,4,0.0701024745151828,1
99,756,4,0.0722846635011263,1
99,757,4,0.0762009942931337,1
99,758,4,0.0683101180819532,1
100,756,4,0.073495778118785,1
100,757,4,0.0747057247302397,1
59,727,5,0.0976682355405863,1
60,726,5,0.111656062208561,1
60,727,5,0.104476238225539,1
60,728,5,0.0953603870564116,1
60,729,5,0.0855912430633609,1
60,756,5,0.0736083619373061,1
61,725,5,0.11221504002895,1
61,726,5,0.113662145807809,1
61,727,5,0.107068361450457,1
61,728,5,0.099529654084241,1
61,729,5,0.0924288352388167,1
61,730,5,0.0849021553416146,1
61,731,5,0.0759641585736016,1
61,754,5,0.0757587452158466,1
61,755,5,0.101173284394153,1
61,756,5,0.121008892851831,1
61,757,5,0.110636925882423,1
62,725,5,0.105784297358135,1
62,726,5,0.113464471239878,1
62,727,5,0.119345855669605,1
62,728,5,0.137141957581273,1
62,729,5,0.145213060144629,2
62,730,5,0.118625860706767,1
62,731,5,0.0890034863367952,1
62,732,5,0.0729267913836937,1
62,753,5,0.0745912840813429,1
62,754,5,0.10764482941503,1
62,755,5,0.152117773743278,1
62,756,5,0.152135168051056,1
62,757,5,0.124236291656252,1
62,758,5,0.0896964554330042,1
63,725,5,0.09159777786041,1
63,726,5,0.101087450912593,1
63,727,5,0.151431728827438,1
63,728,5,0.259723561802215,2
63,729,5,0.313019960423398,2
63,730,5,0.235357538798411,2
63,731,5,0.148723691468873,1
63,732,5,0.0952684320243869,1
63,753,5,0.086486199365793,1
63,754,5,0.159154058748484,1
63,755,5,0.249838467736865,1
63,756,5,0.201947841419115,1
63,757,5,0.11738869655587,1
63,758,5,0.0822979327703775,1
63,759,5,0.0749933477554347,1
63,760,5,0.0754065823606577,1
64,726,5,0.0880778923331642,1
64,727,5,0.202327449425212,2
64,728,5,0.415580920044836,2
64,729,5,0.527804202004744,2
64,730,5,0.422607070350056,2
64,731,5,0.264417533155563,2
64,732,5,0.141710814505952,1
64,733,5,0.0806370878459503,1
64,753,5,0.0861638596023479,1
64,754,5,0.188761949841525,1
64,755,5,0.306739369442447,1
64,756,5,0.241382150737634,1
64,757,5,0.121970359620365,1
64,758,5,0.0800822010421634,1
64,759,5,0.0852207395158805,1
64,760,5,0.0911801587395902,1
64,761,5,0.084167251827792,1
64,762,5,0.0706667532868054,1
65,726,5,0.0785966768438541,1
65,727,5,0.182646808436824,2
65,728,5,0.380618553084936,2
65,729,5,0.525661252037482,2
65,730,5,0.491408745340434,2
65,731,5,0.341670493733832,2
65,732,5,0.179200806789204,2
65,733,5,0.0903581099833935,1
65,754,5,0.106864996595891,1
65,755,5,0.177877042465495,1
65,756,5,0.147021217605378,1
65,757,5,0.0914201271116594,1
65,758,5,0.0760550953438074,1
65,759,5,0.081778475488114,1
65,760,5,0.0857454678005008,1
65,761,5,0.0814752910264156,1
65,762,5,0.0746710978386207,1
66,726,5,0.0732053578684757,1
66,727,5,0.122540454463906,1
66,728,5,0.230282929197596,2
66,729,5,0.360385906374731,2
66,730,5,0.402235556686851,2
66,731,5,0.292281417282447,2
66,732,5,0.148742894688823,1
66,733,5,0.0806297204222015,1
66,755,5,0.0792936231509324,1
66,756,5,0.085313149770836,1
66,757,5,0.0783956839403483,1
66,758,5,0.0729418975972663,1
66,759,5,0.0732529346545212,1
66,760,5,0.0748022200120217,1
66,761,5,0.0764076175855206,1
66,762,5,0.0752409291320442,1
67,727,5,0.0834587392644058,1
67,728,5,0.120584637059862,1
67,729,5,0.197073481989656,2
67,730,5,0.241967519508459,2
67,731,5,0.177718385294555,1
67,732,5,0.100508826628874,1
67,759,5,0.0678764104243943,1
67,760,5,0.0718954419055038,1
67,761,5,0.0794432896689887,1
67,762,5,0.0802525502546948,1
67,763,5,0.0700157365775363,1
68,728,5,0.0802411457223228,1
68,729,5,0.106355638074961,1
68,730,5,0.122252346266904,1
68,731,5,0.0959563457501537,1
68,732,5,0.0725862067643636,1
68,738,5,0.0743631754645766,1
68,739,5,0.0865946322699581,1
68,740,5,0.0803166588208595,1
68,761,5,0.0739721030283538,1
68,762,5,0.0761493444598123,1
68,763,5,0.0698530183388714,1
69,730,5,0.0816474551408948,1
69,731,5,0.0716141800217894,1
69,738,5,0.0762002575507588,1
69,739,5,0.0889690091895613,1
69,740,5,0.0818741801195425,1
70,729,5,0.077886924396959,1
70,730,5,0.0707236441736065,1
71,728,5,0.074366919074205,1
71,729,5,0.0730009867316412,1
72,729,5,0.0684049002879692,1
73,729,5,0.0681195174387759,1
76,762,5,0.0688353495077075,1
77,761,5,0.0756754753581598,1
77,762,5,0.0746017422292008,1
78,760,5,0.0702838149655832,1
78,761,5,0.0792670285481321,1
78,762,5,0.0716232964599565,1
79,760,5,0.0700762932068855,1
79,761,5,0.0725806662221135,1
84,723,5,0.0683271350338801,1
84,724,5,0.0690477768924623,1
84,725,5,0.0710107221292396,1
85,723,5,0.0727269485170658,1
85,724,5,0.0722207226486729,1
85,725,5,0.0749902270824484,1
86,723,5,0.0740956241767653,1
86,724,5,0.0778251817920795,1
86,725,5,0.0828287885952376,1
86,726,5,0.0678733736082637,1
86,759,5,0.0710030132882928,1
87,723,5,0.0747037840430083,1
87,724,5,0.0828737059210032,1
87,725,5,0.086880967493441,1
87,726,5,0.0691414869286808,1
88,723,5,0.0715981813316814,1
88,724,5,0.0804369514803275,1
88,725,5,0.0806943860374789,1
89,724,5,0.0684376883185387,1
89,725,5,0.0717251885293788,1
90,725,5,0.068534674761904,1
92,723,5,0.0824127447853494,1
92,724,5,0.0843721500648621,1
92,725,5,0.0716885430834482,1
92,756,5,0.0722466703557294,1
92,757,5,0.0711443240696585,1
93,722,5,0.0697294672415829,1
93,723,5,0.0997162655369982,1
93,724,5,0.100680373796486,1
93,725,5,0.078803018616797,1
93,756,5,0.073478449698537,1
93,757,5,0.0706914551205775,1
94,723,5,0.091967329033601,1
94,724,5,0.0955046867357047,1
94,725,5,0.0776946526064436,1
94,756,5,0.0716896691612244,1
94,757,5,0.0691120052541351,1
95,723,5,0.0686351652238815,1
95,724,5,0.0732296943259481,1
95,725,5,0.0677978784790532,1
95,756,5,0.0771184841306411,1
95,757,5,0.074926861248434,1
95,758,5,0.07157061039549,1
95,759,5,0.071168558700949,1
96,756,5,0.0799683833299088,1
96,757,5,0.0796770226848608,1
96,758,5,0.0755050063501203,1
96,759,5,0.0717982398302239,1
97,756,5,0.0769432113227264,1
97,757,5,0.0815691867456717,1
97,758,5,0.073472585708415,1
98,756,5,0.0739700964535929,1
98,757,5,0.0816044485534836,1
98,758,5,0.0707831166536074,1
99,756,5,0.0698662018345388,1
99,757,5,0.0756049757016375,1
100,756,5,0.0702288348171365,1
100,757,5,0.0722165298058891,1
60,726,6,0.110473165422838,1
60,727,6,0.103672578079837,1
60,728,6,0.0964782528505581,1
60,729,6,0.0870991929807882,1
60,755,6,0.0685991606839193,1
60,756,6,0.0717253742124164,1
61,725,6,0.11001642108907,1
61,726,6,0.109324494213781,1
61,727,6,0.104842237461915,1
61,728,6,0.102983430460337,1
61,729,6,0.09784984553088,1
61,730,6,0.0891148662104598,1
61,731,6,0.078700275999267,1
61,754,6,0.0825158527791791,1
61,755,6,0.103157313640357,1
61,756,6,0.113858107299974,1
61,757,6,0.105084404081558,1
62,725,6,0.10145185686871,1
62,726,6,0.106261287132774,1
62,727,6,0.116655943371417,1
62,728,6,0.140533512170457,1
62,729,6,0.143563511936616,1
62,730,6,0.118456254226386,1
62,731,6,0.0914831694978019,1
62,732,6,0.0759127363517457,1
62,753,6,0.0803475121539731,1
62,754,6,0.113759587474105,1
62,755,6,0.146530930529339,1
62,756,6,0.140703501996464,1
62,757,6,0.116270537262728,1
62,758,6,0.0955776062614908,1
63,726,6,0.0988439206367217,1
63,727,6,0.146697937447194,1
63,728,6,0.237786272929819,2
63,729,6,0.272658266158401,2
63,730,6,0.219832040947446,2
63,731,6,0.157713110458742,2
63,732,6,0.102563427408906,1
63,752,6,0.0693312909317292,1
63,753,6,0.0937799428872519,1
63,754,6,0.152257024041904,1
63,755,6,0.20996841423715,1
63,756,6,0.170945889998206,1
63,757,6,0.108939399573413,1
63,758,6,0.0884381533647012,1
63,759,6,0.085928563255095,1
63,760,6,0.0847492603346147,1
64,726,6,0.0918616094976946,1
64,727,6,0.189066434084486,2
64,728,6,0.361340868247175,2
64,729,6,0.453604541418962,2
64,730,6,0.406855015234155,2
64,731,6,0.291281675849072,2
64,732,6,0.156176517435326,2
64,733,6,0.080235401527709,1
64,753,6,0.0894964807913174,1
64,754,6,0.163585366470752,1
64,755,6,0.238332157101171,1
64,756,6,0.192196451120366,1
64,757,6,0.109816865731661,1
64,758,6,0.0836297832908842,1
64,759,6,0.0893528160282173,1
64,760,6,0.09468237442939,1
64,761,6,0.0834357924348274,1
64,762,6,0.0682516998024237,1
65,726,6,0.0830595087540807,1
65,727,6,0.173751704450489,2
65,728,6,0.34342027484348,2
65,729,6,0.483487482998621,2
65,730,6,0.503791815340879,2
65,731,6,0.382731027074935,2
65,732,6,0.194265595075082,2
65,733,6,0.0877095391150543,1
65,754,6,0.0967963398734653,1
65,755,6,0.142672305233588,1
65,756,6,0.124107463566832,1
65,757,6,0.0866820290828993,1
65,758,6,0.0774740851169128,1
65,759,6,0.0814653060708147,1
65,760,6,0.0850295039565102,1
65,761,6,0.0787031331221354,1
65,762,6,0.0713824056624749,1
66,727,6,0.12070885302222,1
66,728,6,0.219393685224173,2
66,729,6,0.340017675108448,2
66,730,6,0.398798911068415,2
66,731,6,0.306966837153245,2
66,732,6,0.155479127884868,2
66,733,6,0.0791497187968161,1
66,755,6,0.0757238667536606,1
66,756,6,0.0806811905622607,1
66,757,6,0.0739125347119464,1
66,758,6,0.0718411086528008,1
66,759,6,0.073709080010749,1
66,760,6,0.0760394081220205,1
66,761,6,0.0772548233984203,1
66,762,6,0.0765691498486551,1
67,727,6,0.0841071923498014,1
67,728,6,0.120995619509532,1
67,729,6,0.183740589344065,2
67,730,6,0.222810588542873,2
67,731,6,0.173524548208013,2
67,732,6,0.102866234514753,1
67,739,6,0.0688630821678348,1
67,759,6,0.0697961154725195,1
67,760,6,0.075057258659011,1
67,761,6,0.0822404848344637,1
67,762,6,0.0859606744410437,1
67,763,6,0.0753009526713823,1
68,728,6,0.0796613953608279,1
68,729,6,0.0970082880761876,1
68,730,6,0.108237445814096,1
68,731,6,0.0922226851386868,1
68,738,6,0.0804937525204975,1
68,739,6,0.102391329181956,1
68,740,6,0.100429276421714,1
68,741,6,0.0703316553017467,1
68,760,6,0.0706141989973978,1
68,761,6,0.0777403306336857,1
68,762,6,0.0843771036091224,1
68,763,6,0.0784317843167171,1
68,764,6,0.0694256778125685,1
69,738,6,0.08664643783744,1
69,739,6,0.114594490288322,1
69,740,6,0.112985121493729,1
69,741,6,0.0742589893111739,1
69,761,6,0.0686305351274931,1
69,762,6,0.0745314761739193,1
69,763,6,0.0731699582958294,1
69,764,6,0.0685168551800728,1
70,739,6,0.0742033143487801,1
70,740,6,0.0729569858415127,1
78,761,6,0.0684190121988245,1
79,760,6,0.0682344492492559,1
79,761,6,0.0681723472578521,1
84,725,6,0.0707821163611146,1
85,724,6,0.0703822748936983,1
85,725,6,0.0738715167299698,1
85,726,6,0.0679969846033063,1
86,723,6,0.067966844053466,1
86,724,6,0.0750988935878544,1
86,725,6,0.0796476248671707,1
86,726,6,0.071762816298476,1
86,759,6,0.0703518947528417,1
87,723,6,0.067861603699592,1
87,724,6,0.0796721529974561,1
87,725,6,0.0843005842283176,1
87,726,6,0.0742320353218493,1
88,724,6,0.0782332771700046,1
88,725,6,0.0808424592752774,1
88,726,6,0.0701489252234522,1
89,725,6,0.0710355976664985,1
92,723,6,0.0704713488437529,1
92,724,6,0.0727715184358578,1
92,756,6,0.0698823263099303,1
92,757,6,0.0698957074681861,1
93,723,6,0.0878600442016674,1
93,724,6,0.0887256026864095,1
93,725,6,0.0730697673226221,1
93,756,6,0.0690390977078998,1
93,757,6,0.0680557682591355,1
94,723,6,0.0848440844690586,1
94,724,6,0.0884488990217786,1
94,725,6,0.0747115587714846,1
95,723,6,0.068209957057623,1
95,724,6,0.0737624249505101,1
95,725,6,0.0689112639211964,1
95,756,6,0.0727892960892613,1
95,757,6,0.0717284230080978,1
95,758,6,0.0697039328290294,1
95,759,6,0.0694427486724741,1
96,756,6,0.0775893703241417,1
96,757,6,0.0787207730107045,1
96,758,6,0.0751366411524596,1
96,759,6,0.0699565156681024,1
97,756,6,0.0759641226349492,1
97,757,6,0.0830326506011626,1
97,758,6,0.0756287790690988,1
98,756,6,0.072275367369697,1
98,757,6,0.081834863233781,1
98,758,6,0.0725095795676015,1
99,757,6,0.0722162422966696,1
60,727,7,0.10328852566039,1
60,728,7,0.0965654520009108,1
60,729,7,0.0887663810773699,1
60,755,7,0.0705487307522161,1
61,726,7,0.108337139635944,1
61,727,7,0.105783578585087,1
61,728,7,0.105403383581,1
61,729,7,0.102149641744345,1
61,730,7,0.0918755117664106,1
61,731,7,0.0808321329024784,1
61,754,7,0.0871008042303723,1
61,755,7,0.0995827414636596,1
61,756,7,0.0972306225494631,1
61,757,7,0.0913191035596708,1
62,726,7,0.102750500074369,1
62,727,7,0.117267104115139,1
62,728,7,0.140319976677252,1
62,729,7,0.139831821961258,1
62,730,7,0.118826769753417,1
62,731,7,0.0975993171847711,1
62,732,7,0.0793615292347041,1
62,753,7,0.0853097475784057,1
62,754,7,0.114991348847586,1
62,755,7,0.13940168420984,1
62,756,7,0.123558249080354,1
62,757,7,0.103750313385049,1
62,758,7,0.0973186123501694,1
63,726,7,0.0977774950337574,1
63,727,7,0.143360686161836,1
63,728,7,0.211285781480726,1
63,729,7,0.234142381082353,2
63,730,7,0.21278526185573,2
63,731,7,0.180751883089551,2
63,732,7,0.116025543469094,1
63,733,7,0.0729476956998588,1
63,752,7,0.0743624447119771,1
63,753,7,0.0970262873512811,1
63,754,7,0.143577671765675,1
63,755,7,0.1829876985347,1
63,756,7,0.149197159255573,1
63,757,7,0.104503851090158,1
63,758,7,0.0921082205306883,1
63,759,7,0.0919140978995727,1
63,760,7,0.0842965471196943,1
64,726,7,0.0940532084208,1
64,727,7,0.173298302411397,1
64,728,7,0.301771401802951,2
64,729,7,0.387729518609897,2
64,730,7,0.41588352349832,2
64,731,7,0.355734270753949,2
64,732,7,0.196086762328012,2
64,733,7,0.0867926542448628,1
64,752,7,0.0698329885299155,1
64,753,7,0.0878007514149287,1
64,754,7,0.135056509457903,1
64,755,7,0.178187732115777,1
64,756,7,0.148959005785452,1
64,757,7,0.100908188914258,1
64,758,7,0.0853912564421232,1
64,759,7,0.0875528585699981,1
64,760,7,0.0866174053960497,1
64,761,7,0.0768234397737187,1
65,726,7,0.0857832333344323,1
65,727,7,0.161065863282849,2
65,728,7,0.296929722588104,2
65,729,7,0.438138222549003,2
65,730,7,0.526371351891351,2
65,731,7,0.45384221570705,2
65,732,7,0.234057661699018,2
65,733,7,0.0930758088496871,1
65,753,7,0.0684183353542037,1
65,754,7,0.0897251823958488,1
65,755,7,0.11579886640865,1
65,756,7,0.106366838954969,1
65,757,7,0.0852548393072638,1
65,758,7,0.0796418267645782,1
65,759,7,0.0816769308256651,1
65,760,7,0.0826072687314173,1
65,761,7,0.0772833287395749,1
65,762,7,0.072080088711928,1
66,727,7,0.117697840844096,1
66,728,7,0.20407119284125,2
66,729,7,0.322793357156986,2
66,730,7,0.411695616289429,2
66,731,7,0.35270694242762,2
66,732,7,0.184110434016251,2
66,733,7,0.0846658946405215,1
66,755,7,0.0722298750254925,1
66,756,7,0.0758089275541936,1
66,757,7,0.0715756537863814,1
66,758,7,0.0730157335586895,1
66,759,7,0.0770810120957045,1
66,760,7,0.0795251459396798,1
66,761,7,0.0791435732872501,1
66,762,7,0.077745152402887,1
66,763,7,0.0699022303336027,1
67,728,7,0.120200392967601,1
67,729,7,0.172920239767355,2
67,730,7,0.212393650339721,2
67,731,7,0.183497524258111,2
67,732,7,0.113621930455737,1
67,738,7,0.0726611328649105,1
67,739,7,0.0756313247236461,1
67,740,7,0.0715156422265941,1
67,759,7,0.074430278918444,1
67,760,7,0.0804406771206297,1
67,761,7,0.0837393842012534,1
67,762,7,0.087486497848281,1
67,763,7,0.0806067975517248,1
68,729,7,0.095669717027676,1
68,730,7,0.105170788622455,1
68,731,7,0.0987887847541144,1
68,737,7,0.0691565691831518,1
68,738,7,0.090474054065917,1
68,739,7,0.107274433683507,1
68,740,7,0.103270604252376,1
68,741,7,0.0760109087706412,1
68,759,7,0.0680710601557457,1
68,760,7,0.0751255660577349,1
68,761,7,0.0803245773039455,1
68,762,7,0.0907730576643824,1
68,763,7,0.0898038281469226,1
68,764,7,0.0753996462007382,1
69,737,7,0.0710156636939491,1
69,738,7,0.0971265322324669,1
69,739,7,0.122374621542031,1
69,740,7,0.119945587921853,1
69,741,7,0.0831230482915819,1
69,760,7,0.0682124967223949,1
69,761,7,0.0726600487155621,1
69,762,7,0.0830844022606658,1
69,763,7,0.0850724266870658,1
69,764,7,0.0750179297936987,1
70,738,7,0.0685303261849597,1
70,739,7,0.0784642369198639,1
70,740,7,0.077492599512691,1
70,762,7,0.0710517041725638,1
70,763,7,0.0712272824590242,1
76,764,7,0.0691183124876371,1
84,724,7,0.0679874488808608,1
84,725,7,0.0713178478631548,1
84,726,7,0.0697501259769563,1
85,723,7,0.0687156618155556,1
85,724,7,0.0736098474016067,1
85,725,7,0.0771856115436102,1
85,726,7,0.0730102648937443,1
86,723,7,0.0695571713520447,1
86,724,7,0.0811764251927845,1
86,725,7,0.0856798558007093,1
86,726,7,0.0786033913820837,1
86,759,7,0.0703720383675303,1
87,723,7,0.0678783211627486,1
87,724,7,0.0842471494419254,1
87,725,7,0.0903253039834977,1
87,726,7,0.0818585767546113,1
88,724,7,0.0776143896160104,1
88,725,7,0.0846144843982164,1
88,726,7,0.0777835169143591,1
89,725,7,0.0736589156417282,1
89,726,7,0.0709382817854859,1
92,757,7,0.0703578485895948,1
93,723,7,0.0730299652650528,1
93,724,7,0.0761937286955668,1
93,725,7,0.0693180714974093,1
94,723,7,0.0741869203334954,1
94,724,7,0.0803661942634627,1
94,725,7,0.0736295657422415,1
95,724,7,0.0745214193410135,1
95,725,7,0.0715266514337893,1
95,757,7,0.0694500322393671,1
95,758,7,0.0680543247232628,1
95,759,7,0.0684097699753739,1
96,724,7,0.0678336434279993,1
96,756,7,0.0733274055321374,1
96,757,7,0.0765563317292875,1
96,758,7,0.0731607340417049,1
97,756,7,0.0747057247302397,1
97,757,7,0.0832456889430088,1
97,758,7,0.0769640317820358,1
98,756,7,0.0712962547228181,1
98,757,7,0.0801823800358198,1
98,758,7,0.0731372601118909,1
99,757,7,0.0701402280695634,1
60,728,8,0.0957098185740156,1
60,729,8,0.0897704231694863,1
61,726,8,0.108835021747197,1
61,727,8,0.107050511919749,1
61,728,8,0.10829069491745,1
61,729,8,0.10597611392572,1
61,730,8,0.0921522393901431,1
61,754,8,0.0850743793538479,1
61,755,8,0.090808091860729,1
61,756,8,0.0812994312205111,1
62,726,8,0.102356025445716,1
62,727,8,0.121006532880321,1
62,728,8,0.145666102797196,1
62,729,8,0.142184390108609,1
62,730,8,0.120050600664261,1
62,731,8,0.100468850867818,1
62,732,8,0.0793653207625358,1
62,752,8,0.0725555510938384,1
62,753,8,0.0881019532609679,1
62,754,8,0.10809908200223,1
62,755,8,0.126441415492223,1
62,756,8,0.107572748457801,1
62,757,8,0.0900303315038802,1
62,758,8,0.0897976227396025,1
63,726,8,0.0983374611670881,1
63,727,8,0.145837685903461,1
63,728,8,0.201356410995579,1
63,729,8,0.21513174439127,2
63,730,8,0.207759504863123,2
63,731,8,0.192847503768287,2
63,732,8,0.120588171027351,1
63,733,8,0.0724217455010557,1
63,752,8,0.077270241080314,1
63,753,8,0.0956180971432317,1
63,754,8,0.130634054623685,1
63,755,8,0.16364074793415,1
63,756,8,0.135902625131679,1
63,757,8,0.102688038696441,1
63,758,8,0.0924718178671263,1
63,759,8,0.0922512024593922,1
64,726,8,0.0949990897937294,1
64,727,8,0.162173049307448,1
64,728,8,0.261217363870135,2
64,729,8,0.347614986437232,2
64,730,8,0.425578669806012,2
64,731,8,0.407872797871052,2
64,732,8,0.228610631822594,2
64,733,8,0.0947679204017309,1
64,751,8,0.073572668865665,1
64,752,8,0.0779575498387648,1
64,753,8,0.0873738960604337,1
64,754,8,0.117898773849848,1
64,755,8,0.148802337219947,1
64,756,8,0.128982757401254,1
64,757,8,0.100522004134766,1
64,758,8,0.088404999957832,1
64,759,8,0.0855100157190874,1
64,760,8,0.0794276323960788,1
64,761,8,0.0729280192876518,1
64,762,8,0.067889420216575,1
65,726,8,0.086462060570909,1
65,727,8,0.148218346097465,1
65,728,8,0.258254509486271,2
65,729,8,0.402253142667442,2
65,730,8,0.539180989737071,2
65,731,8,0.51187954552076,2
65,732,8,0.273288486367463,2
65,733,8,0.104486935964413,1
65,751,8,0.0805528117059954,1
65,752,8,0.0770093204738765,1
65,753,8,0.0735327589921383,1
65,754,8,0.0868800750169055,1
65,755,8,0.104267242982092,1
65,756,8,0.0976932009244763,1
65,757,8,0.0854485186949995,1
65,758,8,0.0816351042240088,1
65,759,8,0.0821504764794458,1
65,760,8,0.0792623565233158,1
65,761,8,0.0749156004706718,1
65,762,8,0.0732552287385015,1
65,763,8,0.0695965241764586,1
66,727,8,0.111682177629329,1
66,728,8,0.187066028792323,2
66,729,8,0.303533306218019,2
66,730,8,0.413693757446489,2
66,731,8,0.385629024170708,2
66,732,8,0.209699209771327,2
66,733,8,0.0923244094943978,1
66,751,8,0.0718104170436232,1
66,755,8,0.0734052546430822,1
66,756,8,0.0746725773131458,1
66,757,8,0.0710067329388196,1
66,758,8,0.0745770104465517,1
66,759,8,0.0813577297045325,1
66,760,8,0.0821984366111173,1
66,761,8,0.0785765272393901,1
66,762,8,0.0772592738015466,1
66,763,8,0.0739989971199243,1
67,728,8,0.117629904811448,1
67,729,8,0.161457450839757,2
67,730,8,0.198817692608176,2
67,731,8,0.183071998633756,2
67,732,8,0.117740368249475,1
67,737,8,0.0716209364884467,1
67,738,8,0.0825879517057347,1
67,739,8,0.080251178596127,1
67,740,8,0.0719585441894003,1
67,758,8,0.0696117921139671,1
67,759,8,0.0798024126431988,1
67,760,8,0.0848529613162095,1
67,761,8,0.0827938622148484,1
67,762,8,0.0841700490529063,1
67,763,8,0.0837208278770473,1
67,764,8,0.069369475749939,1
68,729,8,0.0950436776818477,1
68,730,8,0.103643851116992,1
68,731,8,0.100676600237981,1
68,737,8,0.0801485557741052,1
68,738,8,0.101222604204841,1
68,739,8,0.102254438854839,1
68,740,8,0.0894433814323479,1
68,741,8,0.0718883799603007,1
68,759,8,0.0715153846662516,1
68,760,8,0.078147557494177,1
68,761,8,0.0805220482195129,1
68,762,8,0.0910392313038505,1
68,763,8,0.0974938851580841,1
68,764,8,0.0781999500596486,1
68,767,8,0.0698744976734754,1
69,737,8,0.0819218527419946,1
69,738,8,0.104267470593557,1
69,739,8,0.110189381843678,1
69,740,8,0.0993960521438221,1
69,741,8,0.076695276549368,1
69,760,8,0.0704457066152421,1
69,761,8,0.0743298004360173,1
69,762,8,0.0870957069315023,1
69,763,8,0.0950771305774872,1
69,764,8,0.0787637855878912,1
69,765,8,0.0685498648323323,1
69,766,8,0.0731624111788185,1
69,767,8,0.0762439709316679,1
69,768,8,0.0709380781331221,1
70,736,8,0.0686723796984757,1
70,737,8,0.072010966703749,1
70,738,8,0.0771783579255941,1
70,739,8,0.0760616960763042,1
70,740,8,0.0700314417686494,1
70,762,8,0.0721327927457207,1
70,763,8,0.0760669610888856,1
70,764,8,0.0681902087681112,1
70,766,8,0.0730246283751666,1
70,767,8,0.0756865923813124,1
71,766,8,0.0708512263897429,1
71,767,8,0.0729200409068117,1
75,763,8,0.0700576051076204,1
75,764,8,0.0734275006689381,1
76,763,8,0.0707901366703826,1
76,764,8,0.0772930980632612,1
76,765,8,0.0754145128232945,1
77,764,8,0.0723553668100124,1
82,727,8,0.068254688700351,1
84,725,8,0.0686429758910102,1
84,726,8,0.0703686361751,1
85,723,8,0.0723792600241048,1
85,724,8,0.0818738866205476,1
85,725,8,0.0852214043809505,1
85,726,8,0.0789055216433107,1
86,723,8,0.0769690751729272,1
86,724,8,0.0995190641613241,1
86,725,8,0.10394045281552,1
86,726,8,0.0877366308692132,1
86,758,8,0.0690107181520287,1
86,759,8,0.0687881620570633,1
87,723,8,0.0730633762322645,1
87,724,8,0.0990660274985318,1
87,725,8,0.106092099936671,1
87,726,8,0.0896527480418705,1
88,724,8,0.0771717991215252,1
88,725,8,0.0866307446258777,1
88,726,8,0.0807156257810667,1
89,725,8,0.0733739880154657,1
89,726,8,0.0743720942401553,1
90,726,8,0.0677606520249083,1
92,756,8,0.0683539153197179,1
92,757,8,0.0734404325940385,1
94,724,8,0.0724267529532947,1
94,725,8,0.0714207102761929,1
94,760,8,0.0715102693980554,1
95,724,8,0.0732437762879263,1
95,725,8,0.0712261683607988,1
95,759,8,0.0697434353978284,1
95,760,8,0.0729122062805814,1
96,757,8,0.0740019081507714,1
96,758,8,0.0713862510982852,1
97,756,8,0.07030873243127,1
97,757,8,0.0808961336526858,1
97,758,8,0.0759978450704819,1
98,757,8,0.0762305059165564,1
98,758,8,0.071027834917573,1
101,739,8,0.0685213714707285,1
102,739,8,0.0756181292484279,1
102,740,8,0.0681336053905295,1
60,728,9,0.0988474426246602,1
60,729,9,0.0943890131993566,1
61,726,9,0.109891378537705,1
61,727,9,0.110714337739764,1
61,728,9,0.113287042112817,1
61,729,9,0.111271434770675,1
61,730,9,0.0960279774742277,1
61,755,9,0.0822779029614216,1
61,756,9,0.0749501435054351,1
62,726,9,0.104453680731362,1
62,727,9,0.122286296313902,1
62,728,9,0.144800496394251,1
62,729,9,0.139662634765155,1
62,730,9,0.120658514949713,1
62,731,9,0.102475221976285,1
62,732,9,0.0809357679965438,1
62,753,9,0.0845012237350744,1
62,754,9,0.097608032307986,1
62,755,9,0.10966706144877,1
62,756,9,0.096254373015228,1
62,757,9,0.0831293315659822,1
62,758,9,0.0816447777112886,1
63,726,9,0.100167421410313,1
63,727,9,0.137764439000511,1
63,728,9,0.182268853608739,1
63,729,9,0.192995307466193,2
63,730,9,0.201304659336076,2
63,731,9,0.192201746081824,2
63,732,9,0.12284511840013,1
63,733,9,0.0746274084168132,1
63,752,9,0.0731241844321808,1
63,753,9,0.0880730406150857,1
63,754,9,0.116798476066966,1
63,755,9,0.142152500544351,1
63,756,9,0.122390446528652,1
63,757,9,0.100701745315133,1
63,758,9,0.0932419592296593,1
63,759,9,0.0890323690338004,1
64,726,9,0.0950347169778411,1
64,727,9,0.138470465807104,1
64,728,9,0.21226407951815,2
64,729,9,0.302122546396321,2
64,730,9,0.415797318650685,2
64,731,9,0.41757498815462,2
64,732,9,0.239262632771758,2
64,733,9,0.100308223060769,1
64,750,9,0.0713242569228387,1
64,751,9,0.0919290184301077,1
64,752,9,0.0875151768929224,1
64,753,9,0.0855802278663902,1
64,754,9,0.108722401990024,1
64,755,9,0.13247258024574,1
64,756,9,0.117246523246845,1
64,757,9,0.10003634116534,1
64,758,9,0.0927275692973888,1
64,759,9,0.0855298119268025,1
64,760,9,0.078059615611674,1
64,762,9,0.0731655198722539,1
65,726,9,0.0860102038938715,1
65,727,9,0.125239087875085,1
65,728,9,0.211963201119983,2
65,729,9,0.35943822806918,2
65,730,9,0.534078899046696,2
65,731,9,0.531361122313322,2
65,732,9,0.295555284764465,2
65,733,9,0.1147995083209,1
65,750,9,0.085780274385382,1
65,751,9,0.115629499519285,1
65,752,9,0.101532587061625,1
65,753,9,0.0798872278629401,1
65,754,9,0.0852675016924709,1
65,755,9,0.0982158866956834,1
65,756,9,0.0923636604926298,1
65,757,9,0.0856371966202716,1
65,758,9,0.0850631904533905,1
65,759,9,0.0831949016373458,1
65,760,9,0.0774730608653184,1
65,761,9,0.0750265790293842,1
65,762,9,0.0753558849016258,1
65,763,9,0.0734430920543185,1
66,727,9,0.100474421358945,1
66,728,9,0.160835784029975,1
66,729,9,0.26784960258559,2
66,730,9,0.389281110030928,2
66,731,9,0.381639833750669,2
66,732,9,0.218449480988357,2
66,733,9,0.0981589538804544,1
66,750,9,0.0757989545781435,1
66,751,9,0.100839450251705,1
66,752,9,0.0858913667498271,1
66,755,9,0.0725886086643012,1
66,756,9,0.0733039735307512,1
66,757,9,0.0717399952541811,1
66,758,9,0.0768187857182287,1
66,759,9,0.0835624821744284,1
66,760,9,0.0823491034216664,1
66,761,9,0.0770759207866099,1
66,762,9,0.0758971749152423,1
66,763,9,0.0766821230025776,1
67,728,9,0.110377939973442,1
67,729,9,0.144113600930303,1
67,730,9,0.177892891411218,2
67,731,9,0.170053772849316,2
67,732,9,0.116024429370868,1
67,738,9,0.0876366974563484,1
67,739,9,0.0817018902197797,1
67,740,9,0.0716446739683786,1
67,758,9,0.0720865456898151,1
67,759,9,0.0834332767291571,1
67,760,9,0.0864720155776329,1
67,761,9,0.0803056975318675,1
67,762,9,0.0782700783500958,1
67,763,9,0.0818793313263912,1
67,764,9,0.0700206481933687,1
68,729,9,0.0909716187190736,1
68,730,9,0.097023124749867,1
68,731,9,0.0951974531858322,1
68,737,9,0.0820820912136416,1
68,738,9,0.0994508945274345,1
68,739,9,0.0911583739264406,1
68,740,9,0.0766162953708716,1
68,759,9,0.0759275251072218,1
68,760,9,0.0808403568641101,1
68,761,9,0.0786297763427447,1
68,762,9,0.085544001704738,1
68,763,9,0.096051145925496,1
68,764,9,0.0780017004732785,1
68,767,9,0.0757761874418273,1
69,736,9,0.0681491728168083,1
69,737,9,0.0809576606256507,1
69,738,9,0.0942390112538775,1
69,739,9,0.0875791117556003,1
69,740,9,0.0766435069205386,1
69,741,9,0.0685176637997525,1
69,759,9,0.0706520124495326,1
69,760,9,0.0751528554744822,1
69,761,9,0.0755182257844402,1
69,762,9,0.0893938998977234,1
69,763,9,0.103493555672519,1
69,764,9,0.0846453257517791,1
69,765,9,0.0716116403570174,1
69,766,9,0.0802414871395209,1
69,767,9,0.0888732386706034,1
69,768,9,0.0836033923404477,1
70,734,9,0.0686147281101981,1
70,735,9,0.0715583014070318,1
70,736,9,0.0731805242596446,1
70,737,9,0.0749102456114593,1
70,738,9,0.0751887462087118,1
70,739,9,0.0683362694413734,1
70,762,9,0.0764199804819575,1
70,763,9,0.0872223008346968,1
70,764,9,0.0758791576708227,1
70,765,9,0.0704681263445848,1
70,766,9,0.0805992564244893,1
70,767,9,0.0877976487112687,1
70,768,9,0.0791372540741973,1
71,735,9,0.0683096748385732,1
71,736,9,0.0695095466477958,1
71,763,9,0.0692069072556593,1
71,766,9,0.0757188233627692,1
71,767,9,0.0803654814801895,1
71,768,9,0.0717550535495505,1
72,767,9,0.0774966545906405,1
74,763,9,0.0723157504354806,1
74,764,9,0.0738168959680474,1
74,765,9,0.068645305913643,1
75,763,9,0.0770231868039402,1
75,764,9,0.0809919580796224,1
75,765,9,0.074939817132636,1
76,729,9,0.0678329665833784,1
76,763,9,0.0744568016439394,1
76,764,9,0.0834348280809871,1
76,765,9,0.0826958814687658,1
77,728,9,0.0702268701708035,1
77,729,9,0.0678879227727236,1
77,764,9,0.0773419566612436,1
81,727,9,0.068058080312442,1
82,727,9,0.0702260016533697,1
82,759,9,0.0689783673750638,1
83,727,9,0.070411313324864,1
83,758,9,0.0698576005170566,1
83,759,9,0.0698701431067556,1
84,725,9,0.0685242166140461,1
84,726,9,0.0719908290788358,1
84,727,9,0.073321224083919,1
85,724,9,0.0871834271923153,1
85,725,9,0.090538875415355,1
85,726,9,0.0826356782361654,1
85,727,9,0.0762028870621618,1
86,723,9,0.08074329854344,1
86,724,9,0.111354045753067,1
86,725,9,0.115871007263633,1
86,726,9,0.0927163923764822,1
86,727,9,0.0740368944289147,1
86,758,9,0.070968434314877,1
86,759,9,0.0681441473952431,1
87,723,9,0.0737815862420322,1
87,724,9,0.103107658402246,1
87,725,9,0.110143344429911,1
87,726,9,0.0894954086215198,1
87,727,9,0.0691645715230935,1
88,724,9,0.0736192753080949,1
88,725,9,0.0823818794726851,1
88,726,9,0.076877820944625,1
89,725,9,0.0695587826016288,1
89,726,9,0.0718225702979209,1
92,756,9,0.0704890126914236,1
92,757,9,0.0736087452829321,1
94,725,9,0.068444073419121,1
94,760,9,0.0749039383779573,1
94,761,9,0.0689621171143888,1
95,759,9,0.0723185895890228,1
95,760,9,0.0812141068698603,1
95,761,9,0.0740506289839194,1
96,757,9,0.0685621738207905,1
96,758,9,0.0693463432373231,1
96,759,9,0.0694901397754821,1
96,760,9,0.0700431996977703,1
97,757,9,0.0743733760520921,1
97,758,9,0.0736716738633419,1
98,757,9,0.0704495819999295,1
98,758,9,0.0683540171458998,1
101,739,9,0.0693627552219341,1
60,729,10,0.0985572979040195,1
61,727,10,0.115564163049162,1
61,728,10,0.116770971018304,1
61,729,10,0.11418378336832,1
61,730,10,0.100508000039868,1
62,726,10,0.11024938741369,1
62,727,10,0.124088140551374,1
62,728,10,0.139097595292056,1
62,729,10,0.133928287342081,1
62,730,10,0.119883881255626,1
62,731,10,0.104733391263247,1
62,732,10,0.086609876248365,1
62,754,10,0.0899214553563351,1
62,755,10,0.092618860863555,1
62,756,10,0.083934111799685,1
62,757,10,0.0759855899900024,1
63,726,10,0.104989561977787,1
63,727,10,0.129238173404094,1
63,728,10,0.159537488231289,1
63,729,10,0.171242048453354,1
63,730,10,0.189142025050103,2
63,731,10,0.182384276580802,2
63,732,10,0.12866095072782,1
63,733,10,0.0851438787178776,1
63,751,10,0.0687708635856923,1
63,752,10,0.0721815854561736,1
63,753,10,0.0858583391282414,1
63,754,10,0.110524294145699,1
63,755,10,0.119219076083373,1
63,756,10,0.10306163296803,1
63,757,10,0.094004960779909,1
63,758,10,0.0912430394017968,1
64,726,10,0.0984648696797377,1
64,727,10,0.120348484174726,1
64,728,10,0.169054881964048,1
64,729,10,0.251365381283226,2
64,730,10,0.365681682442617,2
64,731,10,0.372201433175957,2
64,732,10,0.229155485752576,2
64,733,10,0.110613721492503,1
64,750,10,0.081453877579341,1
64,751,10,0.109635830759806,1
64,752,10,0.0973702861425923,1
64,753,10,0.0908416825212029,1
64,754,10,0.113079364619959,1
64,755,10,0.121385314297412,1
64,756,10,0.103888629278712,1
64,757,10,0.0964252193791181,1
64,758,10,0.0965173121759771,1
64,759,10,0.0858020472189808,1
64,760,10,0.0789685879885548,1
65,727,10,0.107702714604548,1
65,728,10,0.169213491216785,2
65,729,10,0.303297716371772,2
65,730,10,0.476612083360806,2
65,731,10,0.484749744308468,2
65,732,10,0.290648939934341,2
65,733,10,0.127258828162256,1
65,750,10,0.109935930487171,1
65,751,10,0.155337948878561,1
65,752,10,0.128410721870481,1
65,753,10,0.0900718586167663,1
65,754,10,0.0923794375610478,1
65,755,10,0.0965352575430919,1
65,756,10,0.0871850264623486,1
65,757,10,0.085884406630806,1
65,758,10,0.0894359301517435,1
65,759,10,0.0843616499885763,1
65,760,10,0.0771095653550624,1
65,761,10,0.0813469481088027,1
65,762,10,0.0862404508604576,1
65,763,10,0.081364102825564,1
66,727,10,0.0928418602019005,1
66,728,10,0.134405301075821,1
66,729,10,0.219172375002492,2
66,730,10,0.326518614113559,2
66,731,10,0.331631821827087,2
66,732,10,0.207126936662102,2
66,733,10,0.105126667936819,1
66,750,10,0.093788172838659,1
66,751,10,0.128617632672088,1
66,752,10,0.102571597462559,1
66,753,10,0.0692519563564838,1
66,754,10,0.06782434729657,1
66,755,10,0.071998454062927,1
66,756,10,0.0718278353105023,1
66,757,10,0.074381366412483,1
66,758,10,0.0812231634102734,1
66,759,10,0.0847147652180547,1
66,760,10,0.0801443150131181,1
66,761,10,0.0762586219223096,1
66,762,10,0.0775358097524661,1
66,763,10,0.0784361149243352,1
66,764,10,0.0690380794460809,1
67,728,10,0.102275546823368,1
67,729,10,0.126728733038873,1
67,730,10,0.154100341484284,2
67,731,10,0.154099874281802,2
67,732,10,0.115726390126243,1
67,739,10,0.083551706568474,1
67,740,10,0.0734728372789821,1
67,758,10,0.0754766926817787,1
67,759,10,0.0853339522608192,1
67,760,10,0.0847489608458445,1
67,761,10,0.0764935049750595,1
67,762,10,0.0730896953053961,1
67,763,10,0.0754808915143379,1
67,764,10,0.0678496840465351,1
68,729,10,0.087306271496106,1
68,730,10,0.0895783370620085,1
68,731,10,0.090033326391583,1
68,738,10,0.0941297876993589,1
68,739,10,0.085504055892559,1
68,740,10,0.0745283075827298,1
68,741,10,0.0694914754953976,1
68,758,10,0.0715073823263099,1
68,759,10,0.0810520115678376,1
68,760,10,0.0828782581503114,1
68,761,10,0.0770209166790615,1
68,762,10,0.0791867415985973,1
68,763,10,0.0858505404406635,1
68,764,10,0.072396163170299,1
68,766,10,0.0682434458919149,1
68,767,10,0.0773700846465477,1
69,736,10,0.0708276985519502,1
69,737,10,0.0804229413956541,1
69,738,10,0.084755735281828,1
69,739,10,0.0754235873330338,1
69,740,10,0.0684184311906102,1
69,758,10,0.0697568405151859,1
69,759,10,0.077995045832803,1
69,760,10,0.0801000745319733,1
69,761,10,0.0768560840496785,1
69,762,10,0.087358065084037,1
69,763,10,0.100497601789764,1
69,764,10,0.0825107375109829,1
69,765,10,0.06985307224685,1
69,766,10,0.0834420218012491,1
69,767,10,0.095531149563446,1
69,768,10,0.0916151841477383,1
70,735,10,0.0731584579270509,1
70,736,10,0.0743890273352266,1
70,737,10,0.0767221706409386,1
70,738,10,0.0736748544340822,1
70,759,10,0.0680870468663028,1
70,760,10,0.0706764207843098,1
70,762,10,0.0780110624922373,1
70,763,10,0.0925312603982501,1
70,764,10,0.0792310539570469,1
70,765,10,0.071179963233321,1
70,766,10,0.0851887421356645,1
70,767,10,0.0959968905398733,1
70,768,10,0.0883698519557527,1
71,735,10,0.0694184481536541,1
71,736,10,0.0683010555517647,1
71,763,10,0.0705348704119279,1
71,766,10,0.077342184272709,1
71,767,10,0.0850094921168806,1
71,768,10,0.0766286942059609,1
72,767,10,0.0820373116527103,1
74,762,10,0.0684243490887108,1
74,763,10,0.0752445709154907,1
74,764,10,0.0753959924377408,1
74,765,10,0.0702538600987805,1
75,729,10,0.0678930560102461,1
75,762,10,0.0691413012456433,1
75,763,10,0.0807373686657886,1
75,764,10,0.0832598847107197,1
75,765,10,0.0755963803739307,1
76,728,10,0.0721044670978283,1
76,729,10,0.0700472787348214,1
76,763,10,0.076515936683953,1
76,764,10,0.085464199927011,1
76,765,10,0.0843849921433314,1
77,727,10,0.0741734732877101,1
77,728,10,0.0768833255482226,1
77,729,10,0.0706738032524576,1
77,764,10,0.0797872405420967,1
78,727,10,0.0714715395102836,1
78,728,10,0.0716916338075574,1
79,730,10,0.067839549346549,1
80,728,10,0.0698192779340124,1
80,729,10,0.0701295483000155,1
80,730,10,0.0686740029276105,1
81,727,10,0.0720664739524314,1
81,728,10,0.0734153054862126,1
81,729,10,0.0689543543654633,1
82,726,10,0.0703764588217796,1
82,727,10,0.0755705105339545,1
82,728,10,0.0728442522786064,1
82,758,10,0.0695219454828852,1
82,759,10,0.0697040466347621,1
83,726,10,0.0696298692561408,1
83,727,10,0.0757249748621106,1
83,728,10,0.0715810565637972,1
83,758,10,0.072630057910107,1
83,759,10,0.0718872239336475,1
84,726,10,0.0706392482381435,1
84,727,10,0.0757854656039304,1
84,728,10,0.0702023180814165,1
85,724,10,0.0826044535369767,1
85,725,10,0.0849597230730365,1
85,726,10,0.0788559263029534,1
85,727,10,0.076746950341791,1
86,723,10,0.0760225768531311,1
86,724,10,0.106112788620922,1
86,725,10,0.110507882161088,1
86,726,10,0.0901749785901468,1
86,727,10,0.0753625694909783,1
86,758,10,0.0709736873479076,1
87,724,10,0.0931056978289604,1
87,725,10,0.0997022614421002,1
87,726,10,0.0844677528701087,1
87,727,10,0.070739295456741,1
88,724,10,0.0679428969313949,1
88,725,10,0.0757823269616179,1
88,726,10,0.0735160475187571,1
89,726,10,0.0700690934968481,1
92,756,10,0.0687938044254953,1
94,760,10,0.0737594779810106,1
94,761,10,0.0681461899086564,1
95,759,10,0.0720274805145418,1
95,760,10,0.0844471600222647,1
95,761,10,0.0773605129854497,1
96,759,10,0.0695372313897199,1
96,760,10,0.0726466675573063,1
97,758,10,0.0693695596067947,1
61,728,11,0.116213502621317,1
61,729,11,0.110793235061404,1
62,727,11,0.125126935320393,1
62,728,11,0.131336679237848,1
62,729,11,0.127177379196293,1
62,730,11,0.120705522707095,1
62,731,11,0.108628254700201,1
62,754,11,0.0823477137937723,1
62,755,11,0.0804258404469503,1
63,727,11,0.124064025715591,1
63,728,11,0.138835219170195,1
63,729,11,0.152871898446377,1
63,730,11,0.173946623721734,1
63,731,11,0.168535101233913,1
63,732,11,0.130686141710611,1
63,751,11,0.0690554497947568,1
63,752,11,0.0715997506528376,1
63,753,11,0.0831611911813639,1
63,754,11,0.102474802692006,1
63,755,11,0.100321083108565,1
63,756,11,0.0900816758586559,1
63,757,11,0.0891914814276711,1
63,758,11,0.0873350703362555,1
64,727,11,0.111771916444454,1
64,728,11,0.136738546207715,1
64,729,11,0.203468573517257,1
64,730,11,0.2946428502974,2
64,731,11,0.299534627993738,2
64,732,11,0.200402227793938,1
64,733,11,0.115295030460643,1
64,750,11,0.0869580379335831,1
64,751,11,0.114733752566499,1
64,752,11,0.0983854512476367,1
64,753,11,0.0935627536310498,1
64,754,11,0.114167934422597,1
64,755,11,0.11261448617119,1
64,756,11,0.0978207891303881,1
64,757,11,0.0961632445722093,1
64,758,11,0.096825791599134,1
64,759,11,0.0853644761562854,1
65,728,11,0.134754481022858,1
65,729,11,0.239984137157998,2
65,730,11,0.376563307421725,2
65,731,11,0.387076561213396,2
65,732,11,0.250884570031879,2
65,733,11,0.130236788759693,1
65,749,11,0.0735070688454243,1
65,750,11,0.128207776300193,1
65,751,11,0.175097834595563,1
65,752,11,0.137905007049726,1
65,753,11,0.0951055400822353,1
65,754,11,0.0972378761674791,1
65,755,11,0.0972200026776692,1
65,756,11,0.0900494209180974,1
65,757,11,0.0930739400397606,1
65,758,11,0.0946913950311507,1
65,759,11,0.0858383153090609,1
65,760,11,0.0806122242882422,1
65,761,11,0.0878949286536288,1
66,728,11,0.112609778207721,1
66,729,11,0.173253618686873,1
66,730,11,0.252226663068329,2
66,731,11,0.261569370991163,2
66,732,11,0.180004802362329,1
66,733,11,0.108052373733618,1
66,750,11,0.107722133456413,1
66,751,11,0.142013214307072,1
66,752,11,0.10705747203877,1
66,753,11,0.0724056150358888,1
66,754,11,0.0711776811288915,1
66,755,11,0.0751379648928242,1
66,756,11,0.0788070617151957,1
66,757,11,0.0863453078687057,1
66,758,11,0.0900149916890668,1
66,759,11,0.0853876985155324,1
66,760,11,0.0781845084186533,1
66,761,11,0.0744065294589613,1
66,762,11,0.0763052283647396,1
66,763,11,0.0738121161272738,1
67,729,11,0.113338170835678,1
67,730,11,0.134260947488549,1
67,731,11,0.13948440300819,1
67,732,11,0.115287423445879,1
67,740,11,0.0710137349862686,1
67,751,11,0.0748885865835931,1
67,757,11,0.0738304148911375,1
67,758,11,0.0818492386947541,1
67,759,11,0.085790409085368,1
67,760,11,0.0817064783877403,1
67,761,11,0.0726316332210386,1
67,762,11,0.0682826130332913,1
67,763,11,0.0678491269974224,1
68,739,11,0.079813451799271,1
68,740,11,0.0726158681321714,1
68,741,11,0.0683367905518337,1
68,757,11,0.0680771277982314,1
68,758,11,0.0783026687180769,1
68,759,11,0.0848436591950048,1
68,760,11,0.0836212478609314,1
68,761,11,0.0763036350844817,1
68,762,11,0.0733230928938455,1
68,763,11,0.0741994928720714,1
69,737,11,0.0774230222815812,1
69,738,11,0.0782248136173567,1
69,739,11,0.0712568659597518,1
69,758,11,0.0769049067090085,1
69,759,11,0.0843132346339739,1
69,760,11,0.0842965231605927,1
69,761,11,0.0792979657381013,1
69,762,11,0.0826618056364841,1
69,763,11,0.0898106085726816,1
69,764,11,0.0748358286418218,1
69,766,11,0.0784342461144087,1
69,767,11,0.0886498919252844,1
70,736,11,0.0706390625551059,1
70,737,11,0.0736461454405638,1
70,738,11,0.0721949067166754,1
70,759,11,0.0729376628260546,1
70,760,11,0.0737114040436063,1
70,761,11,0.0693879841559419,1
70,762,11,0.0777215586775649,1
70,763,11,0.090688625790267,1
70,764,11,0.0782773679067642,1
70,765,11,0.0706337616038721,1
70,766,11,0.0844564082354907,1
70,767,11,0.0938324552482316,1
70,768,11,0.0874850123839804,1
71,763,11,0.0711863363543524,1
71,767,11,0.0841476712519915,1
73,761,11,0.0704695698804575,1
74,761,11,0.0677908824213797,1
74,762,11,0.0699600316662654,1
74,763,11,0.0725439009806748,1
74,764,11,0.0729915109069497,1
75,731,11,0.0689792658413746,1
75,732,11,0.0683532025364447,1
75,762,11,0.0708459553873861,1
75,763,11,0.0783607096417558,1
75,764,11,0.0801617213004464,1
75,765,11,0.0761787003490745,1
76,729,11,0.0714808176723867,1
76,762,11,0.0695787944412584,1
76,763,11,0.0761380417536222,1
76,764,11,0.0827200202636498,1
77,728,11,0.0811599593001949,1
77,729,11,0.0727896794348872,1
78,728,11,0.0739900603750194,1
78,729,11,0.0698069030580247,1
78,730,11,0.0685115781879406,1
79,727,11,0.0682140540640003,1
79,728,11,0.0692651458419267,1
79,729,11,0.0712908878840548,1
79,730,11,0.0735928963372092,1
80,727,11,0.0689849561280098,1
80,728,11,0.0711717991694434,1
80,729,11,0.0721211905507603,1
80,730,11,0.0715288856200156,1
81,726,11,0.0716144315923564,1
81,727,11,0.0773492701770137,1
81,728,11,0.0760530408508433,1
81,729,11,0.0713653348025693,1
81,730,11,0.0677600829962448,1
82,726,11,0.0764533674900675,1
82,727,11,0.0853196426873755,1
82,728,11,0.0787124232637893,1
82,729,11,0.0677804422428479,1
82,758,11,0.0723119049996703,1
82,759,11,0.0717260091286094,1
83,726,11,0.0736978252227621,1
83,727,11,0.0835719699786707,1
83,728,11,0.0777911299188994,1
83,758,11,0.0740258552728424,1
83,759,11,0.0730863170720674,1
84,726,11,0.069880164001009,1
84,727,11,0.0758824340779694,1
84,728,11,0.073159655882132,1
84,758,11,0.0712076300059189,1
84,759,11,0.0689812185081568,1
85,724,11,0.0770575082170135,1
85,725,11,0.0785514720088691,1
85,726,11,0.0733926761147307,1
85,727,11,0.0708003791863259,1
85,757,11,0.0704323434263125,1
85,758,11,0.0714361279580865,1
86,724,11,0.0914510163834254,1
86,725,11,0.0954159362335219,1
86,726,11,0.0829127113384436,1
86,727,11,0.0702231445305013,1
86,757,11,0.069219060509957,1
86,758,11,0.06993040623711,1
87,724,11,0.0794069497016038,1
87,725,11,0.0845186659610551,1
87,726,11,0.0771784956904285,1
88,725,11,0.0696136130056904,1
88,726,11,0.0690057406486668,1
94,760,11,0.0709202046433122,1
95,759,11,0.0714128636704117,1
95,760,11,0.0812838757737831,1
95,761,11,0.0754671090411299,1
96,759,11,0.0680447470723895,1
96,760,11,0.0717287584355205,1
62,728,12,0.126169323954655,1
62,729,12,0.126224956988621,1
62,730,12,0.12719328803977,1
62,731,12,0.117283767670317,1
63,728,12,0.126693597016344,1
63,729,12,0.140976635754953,1
63,730,12,0.160419458700642,1
63,731,12,0.157116552787459,1
63,732,12,0.13153703722516,1
63,751,12,0.068954911414576,1
63,754,12,0.0839138783383654,1
63,755,12,0.0805896907531668,1
63,756,12,0.0770189520327285,1
63,757,12,0.0790601417056274,1
64,728,12,0.120417474407846,1
64,729,12,0.165420981061959,1
64,730,12,0.225264695362898,1
64,731,12,0.229930035589808,1
64,732,12,0.172923198716406,1
64,733,12,0.116962380281161,1
64,750,12,0.0880046194106291,1
64,751,12,0.107295290081469,1
64,752,12,0.088810375977723,1
64,753,12,0.0842091562965286,1
64,754,12,0.0971249209828828,1
64,755,12,0.0950693678285617,1
64,756,12,0.0885268799077824,1
64,757,12,0.0899584122705868,1
64,758,12,0.089561577670424,1
64,759,12,0.0855551666460938,1
65,728,12,0.11536721923383,1
65,729,12,0.179995901556077,1
65,730,12,0.263057279120084,2
65,731,12,0.272276933096988,2
65,732,12,0.197117590695742,1
65,733,12,0.123407726024415,1
65,749,12,0.0802166834795669,1
65,750,12,0.13089560415654,1
65,751,12,0.163845909721338,1
65,752,12,0.122338826644208,1
65,753,12,0.0863798988216722,1
65,754,12,0.0879993843469247,1
65,755,12,0.0897342748749143,1
65,756,12,0.0896508852217194,1
65,757,12,0.0951346563804813,1
65,758,12,0.092834157350729,1
65,759,12,0.0832239460582869,1
65,760,12,0.0818264116606839,1
66,729,12,0.136566855285493,1
66,730,12,0.182662142261862,1
66,731,12,0.189550371998595,1
66,732,12,0.146676733642259,1
66,749,12,0.0738867666981521,1
66,750,12,0.111621285572557,1
66,751,12,0.135132280116782,1
66,752,12,0.0979275868258676,1
66,753,12,0.0698074002093834,1
66,754,12,0.0692465775381697,1
66,755,12,0.0744678228306854,1
66,756,12,0.0827415954346603,1
66,757,12,0.0941983526584252,1
66,758,12,0.0947016315573186,1
66,759,12,0.0839486310152679,1
66,760,12,0.0761335254629665,1
66,761,12,0.0740317492118414,1
67,730,12,0.114699886376356,1
67,731,12,0.118361364204412,1
67,740,12,0.0702896789557052,1
67,750,12,0.0715561390981104,1
67,751,12,0.0774413749534235,1
67,756,12,0.0701187547247348,1
67,757,12,0.0814752191491107,1
67,758,12,0.0881184191535575,1
67,759,12,0.0854794139565409,1
67,760,12,0.0781229155581589,1
67,761,12,0.0698654471228377,1
68,739,12,0.0780440661547214,1
68,740,12,0.0721339128337215,1
68,757,12,0.0739517916999538,1
68,758,12,0.0841530380907548,1
68,759,12,0.0873960582294339,1
68,760,12,0.0825547384011114,1
68,761,12,0.0741675434100587,1
68,762,12,0.0680475143486268,1
69,739,12,0.0722710008234264,1
69,757,12,0.0714057118785776,1
69,758,12,0.081720153044991,1
69,759,12,0.0868069997569589,1
69,760,12,0.0833923126551591,1
69,761,12,0.0769142148199886,1
69,762,12,0.0751636730088645,1
69,763,12,0.0751058297477739,1
70,737,12,0.0696188181205177,1
70,738,12,0.0710633243368504,1
70,739,12,0.06790722182908,1
70,758,12,0.068851222412532,1
70,759,12,0.0743866793432676,1
70,760,12,0.0721257367902931,1
70,761,12,0.0680564870321842,1
70,762,12,0.0734345985527936,1
70,763,12,0.0801539765208471,1
70,764,12,0.0706819972652123,1
70,767,12,0.0826712694816247,1
71,763,12,0.0683927110950191,1
73,761,12,0.0718406294707684,1
74,761,12,0.0700744124174082,1
74,762,12,0.0712782254988477,1
74,763,12,0.0699318857116352,1
75,732,12,0.0678676653523023,1
75,733,12,0.0679919771510673,1
75,763,12,0.0759920589474403,1
75,764,12,0.078110995905102,1
77,729,12,0.0688684310372719,1
77,761,12,0.0677476062940752,1
78,729,12,0.068203398253554,1
79,729,12,0.0709073985034953,1
79,730,12,0.0729335777992281,1
79,731,12,0.0678864253288722,1
80,727,12,0.0684178621619467,1
80,728,12,0.0690252074187346,1
80,729,12,0.071076969045224,1
80,730,12,0.0711301163223967,1
81,727,12,0.0772430175510961,1
81,728,12,0.0739479522539189,1
81,729,12,0.0707812837823333,1
81,730,12,0.0683653438111915,1
82,726,12,0.0772276178385287,1
82,727,12,0.0874772676043812,1
82,728,12,0.0792842611319736,1
82,729,12,0.0700995455150095,1
82,758,12,0.0747754457159593,1
82,759,12,0.0749311559173998,1
82,760,12,0.0700884225020816,1
83,726,12,0.0731003211669654,1
83,727,12,0.0841164106141504,1
83,728,12,0.0780208497852498,1
83,729,12,0.0704702527148537,1
83,758,12,0.0757412850205397,1
83,759,12,0.0748888082052831,1
84,727,12,0.0712733378421168,1
84,728,12,0.070551462089801,1
84,729,12,0.0693648157046736,1
84,757,12,0.0773091506613479,1
84,758,12,0.0758675734451885,1
85,725,12,0.068438814396315,1
85,756,12,0.0749830872701651,1
85,757,12,0.084627937433777,1
85,758,12,0.0767261598313586,1
86,725,12,0.0763450663609613,1
86,726,12,0.0711590289682789,1
86,756,12,0.0692173414444156,1
86,757,12,0.0756996321223701,1
87,725,12,0.0700628222019986,1
87,726,12,0.06784931268046,1
94,760,12,0.0683360178708064,1
95,758,12,0.0680621593494931,1
95,759,12,0.0708729273460369,1
95,760,12,0.0755639637094363,1
95,761,12,0.0713508095972111,1
96,759,12,0.0680460049252246,1
96,760,12,0.0701828033931455,1
63,729,13,0.128967399617114,1
63,730,13,0.145102357115585,1
63,731,13,0.143490328860712,1
64,729,13,0.135681542521464,1
64,730,13,0.171470091182591,1
64,731,13,0.175488343992897,1
64,732,13,0.146845836981506,1
64,749,13,0.0686238984563438,1
64,750,13,0.0865748959599971,1
64,751,13,0.0939726100029441,1
64,752,13,0.0786066138812518,1
64,754,13,0.0787601258351184,1
64,755,13,0.0796393170486834,1
64,756,13,0.0806418077889698,1
64,757,13,0.0819396423749488,1
64,758,13,0.0802763596119316,1
65,729,13,0.135793203914572,1
65,730,13,0.178232775226826,1
65,731,13,0.184332978131665,1
65,732,13,0.151460383912977,1
65,749,13,0.0819823854122422,1
65,750,13,0.117133340450784,1
65,751,13,0.130263646912611,1
65,752,13,0.0982576474098103,1
65,753,13,0.0765170088537506,1
65,754,13,0.0774400691823851,1
65,755,13,0.0811228825904351,1
65,756,13,0.0860096109061064,1
65,757,13,0.0903226804618701,1
65,758,13,0.0863534599530325,1
65,759,13,0.0789582735953066,1
65,760,13,0.0792761150374222,1
66,730,13,0.135208733610058,1
66,731,13,0.13926045728533,1
66,749,13,0.0771031263465015,1
66,750,13,0.103504684675222,1
66,751,13,0.112230313956234,1
66,752,13,0.0846371676776769,1
66,754,13,0.0677628922009099,1
66,755,13,0.0727451813934,1
66,756,13,0.0813229590583038,1
66,757,13,0.0917237368474116,1
66,758,13,0.091187142817713,1
66,759,13,0.0817649505752484,1
66,760,13,0.0762393947432581,1
66,761,13,0.0752914409080385,1
67,750,13,0.0706893766685118,1
67,751,13,0.0726144006371971,1
67,756,13,0.0722678442117877,1
67,757,13,0.08487431486553,1
67,758,13,0.0890689126535491,1
67,759,13,0.0838500273325431,1
67,760,13,0.0764047964013046,1
67,761,13,0.0701915903936653,1
68,740,13,0.0756317559874753,1
68,757,13,0.0760885602189977,1
68,758,13,0.0830846658107837,1
68,759,13,0.0831043721718676,1
68,760,13,0.0764692883130952,1
68,761,13,0.0685508890839266,1
69,739,13,0.0743685123544628,1
69,740,13,0.0738408191310168,1
69,757,13,0.0708311726216854,1
69,758,13,0.0776527121990545,1
69,759,13,0.0801097120806007,1
69,760,13,0.0755389384277922,1
69,761,13,0.0693693978828588,1
70,759,13,0.0713761044187484,1
70,760,13,0.0693996761975334,1
70,763,13,0.0677434314206176,1
73,761,13,0.0685988971338014,1
74,761,13,0.0702007667295865,1
79,729,13,0.0709855650725367,1
79,730,13,0.0705298390005873,1
80,728,13,0.0682010802104721,1
80,729,13,0.0698101614958453,1
80,730,13,0.0701329624719966,1
80,760,13,0.0689861540830909,1
81,728,13,0.0708565093716505,1
81,729,13,0.0688664304522865,1
81,730,13,0.0680448668678976,1
81,759,13,0.0705819200977378,1
81,760,13,0.0722887545177282,1
82,727,13,0.0796938000457715,1
82,728,13,0.0748995299032589,1
82,729,13,0.0693700387888272,1
82,758,13,0.0722527679470922,1
82,759,13,0.0749784272248997,1
83,727,13,0.0761474876294367,1
83,728,13,0.073406123160516,1
83,729,13,0.0702648752957512,1
83,757,13,0.068104303409246,1
83,758,13,0.0734007084035495,1
83,759,13,0.0741456867196041,1
84,729,13,0.0693044866867898,1
84,730,13,0.067861028681153,1
84,756,13,0.0744619768098897,1
84,757,13,0.0832453175769336,1
84,758,13,0.0768909924607416,1
85,756,13,0.0858535413181416,1
85,757,13,0.0923082311110276,1
85,758,13,0.0793761742355705,1
86,756,13,0.0763597652698063,1
86,757,13,0.0795594913118547,1
95,759,13,0.0691602469052508,1
95,760,13,0.0677564651718998,1
97,744,13,0.0703843174071115,1
97,745,13,0.0835086700321857,1
98,744,13,0.0773071740354641,1
98,745,13,0.0895358336157313,1
64,730,14,0.135659727759437,1
64,731,14,0.138030864210546,1
64,749,14,0.0697464302855312,1
64,750,14,0.0817984873277436,1
64,751,14,0.0813886728842772,1
65,730,14,0.13090549926551,1
65,731,14,0.135403089842414,1
65,749,14,0.0794349399220735,1
65,750,14,0.0985396939541028,1
65,751,14,0.0989203861095479,1
65,752,14,0.0795441335277151,1
65,753,14,0.0686193222679341,1
65,755,14,0.0717025471783462,1
65,756,14,0.0768608339415751,1
65,757,14,0.0800388889762065,1
65,758,14,0.0808052208415816,1
65,759,14,0.0835731319950993,1
66,749,14,0.07642998939666,1
66,750,14,0.090369670249926,1
66,751,14,0.0898636180850199,1
66,752,14,0.0737707806872007,1
66,755,14,0.0680848546085044,1
66,756,14,0.0746297743780984,1
66,757,14,0.0830287812062507,1
66,758,14,0.0856606106523316,1
66,759,14,0.0850082043151684,1
66,760,14,0.0829496982015723,1
67,756,14,0.0700909202384256,1
67,757,14,0.08299124927356,1
67,758,14,0.086749713544981,1
67,759,14,0.082252662047863,1
67,760,14,0.075921649137549,1
68,741,14,0.0715633507876986,1
68,757,14,0.0759308853712242,1
68,758,14,0.0807850352984652,1
68,759,14,0.0784995945640824,1
68,760,14,0.0712595493791334,1
69,740,14,0.0826508742963691,1
69,741,14,0.0717343109573214,1
69,758,14,0.0713134873066596,1
69,759,14,0.0727978914169681,1
69,760,14,0.0698094726716737,1
70,740,14,0.0696498571366689,1
70,759,14,0.0687292825648276,1
70,760,14,0.0705242086117061,1
70,761,14,0.0688377154689927,1
73,736,14,0.0682530295325637,1
74,736,14,0.0684916142665142,1
77,740,14,0.0736099671971148,1
78,739,14,0.0729529547226648,1
78,740,14,0.0848925776907413,1
78,741,14,0.0705046939234351,1
79,730,14,0.0704175247219594,1
79,740,14,0.0749643033344936,1
79,759,14,0.068900931558622,1
80,729,14,0.0712138773416668,1
80,730,14,0.0715573909611702,1
80,731,14,0.0696968828633771,1
80,759,14,0.0718411445914532,1
81,729,14,0.0697157087274765,1
81,730,14,0.0699695074909569,1
81,731,14,0.0682334549465386,1
81,758,14,0.0689033873665382,1
81,759,14,0.0744632765911527,1
82,728,14,0.0718737050105573,1
82,729,14,0.0704989197799443,1
82,730,14,0.0689505568478563,1
82,758,14,0.0701667567848342,1
83,728,14,0.0709267874064828,1
83,729,14,0.0721025563594739,1
83,730,14,0.0710769211270208,1
83,757,14,0.0698016380454433,1
83,758,14,0.0731303119724206,1
84,729,14,0.0713276111970657,1
84,730,14,0.0716012121580365,1
84,756,14,0.07902287931283,1
84,757,14,0.0847518958357931,1
85,755,14,0.0703190228654166,1
85,756,14,0.0890750941017675,1
85,757,14,0.0929970133542282,1
86,755,14,0.0683923936369226,1
97,744,14,0.0833662990605732,1
97,745,14,0.101618432522736,1
65,749,15,0.0728390831024315,1
65,750,15,0.0792727907120722,1
65,751,15,0.0756267485352364,1
65,758,15,0.0735428397841457,1
66,749,15,0.0697369125324119,1
66,750,15,0.0738281267969326,1
66,751,15,0.0709779340986701,1
66,757,15,0.0716109455430704,1
66,758,15,0.0761664033401671,1
66,759,15,0.0807384168764845,1
67,757,15,0.0757319649300087,1
67,758,15,0.0794105974748257,1
67,759,15,0.0754634373088064,1
67,760,15,0.0700244876394036,1
68,757,15,0.0725695072705331,1
68,758,15,0.0774298206766664,1
68,759,15,0.0734704413688199,1
69,741,15,0.0726031218901086,1
69,758,15,0.0677601488837742,1
69,759,15,0.0681882680808798,1
70,740,15,0.0699311729283619,1
70,760,15,0.0688662807079014,1
77,739,15,0.0763426644610237,1
77,740,15,0.0901747270195798,1
77,741,15,0.0760157964273721,1
78,739,15,0.0922677462190621,1
78,740,15,0.113433012939448,1
78,741,15,0.0873631623829071,1
78,758,15,0.0690914183960666,1
78,759,15,0.0693485295053461,1
79,739,15,0.0816218548408119,1
79,740,15,0.094946242005327,1
79,741,15,0.0721575245283699,1
79,757,15,0.0691710943885101,1
79,758,15,0.0755760271171029,1
80,731,15,0.0694132490286022,1
80,758,15,0.0739625852752345,1
81,758,15,0.0697342051539286,1
82,730,15,0.0695914268775885,1
83,729,15,0.0719887925551979,1
83,730,15,0.0718942499401981,1
83,756,15,0.0684456726891542,1
83,757,15,0.0701672419566421,1
84,729,15,0.0718591498563221,1
84,730,15,0.0729745358834507,1
84,756,15,0.0776106340268311,1
85,729,15,0.0680490716902322,1
85,730,15,0.0693837194358532,1
85,733,15,0.0706006621049815,1
85,734,15,0.0691677461040584,1
85,755,15,0.070404532899105,1
86,733,15,0.0691338619445897,1
86,734,15,0.0685128060918987,1
87,734,15,0.0683703392838797,1
87,751,15,0.0684214739965162,1
87,752,15,0.0680464900970324,1
88,751,15,0.077375289761375,1
88,752,15,0.0764162248927782,1
89,751,15,0.0750899029349708,1
66,758,16,0.0717326877281865,1
67,757,16,0.0700880211871294,1
67,758,16,0.0756497253136917,1
67,759,16,0.0726173056782688,1
68,743,16,0.0692916565878712,1
68,757,16,0.0689089758269915,1
68,758,16,0.0755935711692655,1
68,759,16,0.071748650479642,1
69,742,16,0.0680287064538536,1
69,743,16,0.0685295894425848,1
77,738,16,0.0688245379631007,1
77,739,16,0.081952334709033,1
77,740,16,0.0950316981310367,1
77,741,16,0.0760896263990199,1
77,758,16,0.0688585778567299,1
78,738,16,0.0741190022701728,1
78,739,16,0.104604958499003,1
78,740,16,0.12685026558185,1
78,741,16,0.0929597449716554,1
78,757,16,0.0738828553748124,1
78,758,16,0.0764290010837181,1
79,738,16,0.0686163213904559,1
79,739,16,0.0916746146993114,1
79,740,16,0.106389636040162,1
79,741,16,0.0772130447149672,1
79,756,16,0.0736277508402936,1
79,757,16,0.0837552091878746,1
80,739,16,0.0740152473805993,1
80,740,16,0.0754700260617524,1
80,756,16,0.071363232391402,1
81,751,16,0.0688066345244138,1
81,752,16,0.0715477893511952,1
81,753,16,0.0714372660154136,1
81,754,16,0.0683243258292149,1
82,737,16,0.0712468570450492,1
82,738,16,0.0694806938996677,1
82,751,16,0.0720607537169192,1
82,752,16,0.0744502488296458,1
82,753,16,0.0768132751248557,1
82,754,16,0.0736126566062718,1
82,755,16,0.0690540781361889,1
83,731,16,0.0685042886312721,1
83,736,16,0.0689759295364738,1
83,737,16,0.0725078305531831,1
83,739,16,0.0678057430541606,1
83,753,16,0.0701164247021021,1
83,754,16,0.0697516413901339,1
84,731,16,0.0704212383827108,1
84,733,16,0.0704119302717307,1
84,734,16,0.0726720761845763,1
84,735,16,0.0698840693345733,1
84,737,16,0.0690815592257492,1
84,738,16,0.0681386128427685,1
85,730,16,0.0746723017834772,1
85,731,16,0.069666478763419,1
85,732,16,0.0678506424106,1
85,733,16,0.0726404980886387,1
85,734,16,0.0749181880536469,1
85,735,16,0.0716106161054231,1
85,736,16,0.0679300548529256,1
85,737,16,0.0683943283343786,1
86,733,16,0.0695843829017117,1
86,734,16,0.0733397684285743,1
86,735,16,0.0719286731794533,1
86,736,16,0.0688595721594472,1
86,737,16,0.0688377873462976,1
86,751,16,0.0689070111806585,1
86,752,16,0.0697332408000883,1
87,734,16,0.0719858635550247,1
87,735,16,0.0709128791479913,1
87,750,16,0.0713212021373819,1
87,751,16,0.0847514226435361,1
87,752,16,0.08536048097609,1
88,750,16,0.0865626109306405,1
88,751,16,0.115477910283323,1
89,750,16,0.0944980989890409,1
69,743,17,0.0687695638044293,1
72,741,17,0.0685917752908443,1
72,742,17,0.0691546644345729,1
74,742,17,0.0681107663769085,1
75,741,17,0.0688328457815881,1
75,742,17,0.0698186190587178,1
76,740,17,0.0700687640592008,1
77,738,17,0.0714825966356821,1
77,739,17,0.0825092220978053,1
77,740,17,0.0902231902923854,1
77,741,17,0.074610535219496,1
78,737,17,0.0678106486802177,1
78,738,17,0.079727252941411,1
78,739,17,0.103856056880057,1
78,740,17,0.118735281923874,1
78,741,17,0.0904515085512909,1
78,755,17,0.0681640094904877,1
78,757,17,0.0870615592219157,1
79,738,17,0.0757757921166505,1
79,739,17,0.0951852280542296,1
79,740,17,0.10626949312508,1
79,741,17,0.0807134275334929,1
79,755,17,0.0793042550022771,1
79,756,17,0.0931847389052109,1
80,738,17,0.0727121957002421,1
80,739,17,0.0817399552424814,1
80,740,17,0.0842714379811946,1
80,752,17,0.0699462791419345,1
80,753,17,0.0729009155539421,1
80,754,17,0.0748684010404767,1
81,737,17,0.0732762768092764,1
81,738,17,0.0767954136145966,1
81,740,17,0.0748694073227448,1
81,750,17,0.0718717283846735,1
81,751,17,0.0805422038137523,1
81,752,17,0.0873542376175529,1
81,753,17,0.0942597837949837,1
81,754,17,0.0891083972530219,1
82,736,17,0.0722970743157664,1
82,737,17,0.0841626217314035,1
82,740,17,0.0712721159279341,1
82,750,17,0.0850448916895268,1
82,751,17,0.0921964559121863,1
82,752,17,0.0983251881172823,1
82,753,17,0.106394607553749,1
82,754,17,0.098131071475942,1
83,734,17,0.0705908149142149,1
83,735,17,0.0724634163685516,1
83,736,17,0.0776604330195522,1
83,740,17,0.0741888610207267,1
83,750,17,0.0831323264536849,1
83,751,17,0.0881503686155703,1
83,752,17,0.0909799924250904,1
83,753,17,0.0948130294003094,1
84,732,17,0.0693384846519912,1
84,733,17,0.0730961882219357,1
84,734,17,0.0784550545941673,1
84,735,17,0.0771478100710263,1
84,736,17,0.0754671629491086,1
84,737,17,0.0810579833739169,1
84,739,17,0.0780824666048458,1
84,740,17,0.0793332455152395,1
84,741,17,0.078978429189546,1
84,750,17,0.0756621001896794,1
84,751,17,0.0812738009715512,1
85,732,17,0.0706072209090505,1
85,733,17,0.0757564511318663,1
85,734,17,0.0826792478624648,1
85,735,17,0.0824251376306634,1
85,736,17,0.0791892752735938,1
85,737,17,0.0799102465698233,1
85,738,17,0.0776502324320367,1
85,739,17,0.0758367680302782,1
85,740,17,0.0815522596403758,1
85,741,17,0.0843388049851799,1
85,742,17,0.0696362124282952,1
86,733,17,0.0726079915775133,1
86,734,17,0.0810117003793588,1
86,735,17,0.0842037535191128,1
86,736,17,0.0825992184732724,1
86,737,17,0.0800567504864656,1
86,738,17,0.0747257665187464,1
86,739,17,0.0720847727162951,1
86,740,17,0.0757593202342855,1
86,741,17,0.0763481271361935,1
87,733,17,0.0683899198596802,1
87,734,17,0.076274818275006,1
87,735,17,0.079443780830572,1
87,736,17,0.0758523474361078,1
87,737,17,0.0709190965348622,1
87,739,17,0.0688255861737966,1
87,740,17,0.0720648507232965,1
87,741,17,0.0708627806665,1
87,751,17,0.112796467527559,1
88,740,17,0.0701718660632551,1
88,741,17,0.0688036935446897,1
71,743,18,0.0680683048590592,1
72,742,18,0.0744806649091548,1
72,743,18,0.0693649594592833,1
73,742,18,0.0713980629353848,1
73,743,18,0.0678277974072035,1
74,741,18,0.0711932365756195,1
74,742,18,0.071416679157345,1
74,743,18,0.0690676509672577,1
75,740,18,0.0715775765042866,1
75,741,18,0.0720551892155675,1
75,742,18,0.0715818052857228,1
75,743,18,0.0681444888124413,1
76,740,18,0.074577399781953,1
76,741,18,0.0706425785532689,1
76,742,18,0.0681689450654218,1
77,739,18,0.0855676912664666,1
77,740,18,0.0851683888788367,1
77,741,18,0.0730451733048073,1
78,738,18,0.0861484539000051,1
78,739,18,0.102284890873001,1
78,740,18,0.103762412731368,1
78,741,18,0.0818538268627147,1
79,738,18,0.0852139171616936,1
79,739,18,0.10135731425371,1
79,740,18,0.103654249367096,1
79,741,18,0.0799953433090088,1
80,738,18,0.0842481497344181,1
80,740,18,0.0971533244978556,1
80,741,18,0.0750613317062867,1
81,737,18,0.0820341490512962,1
81,741,18,0.0718531241422642,1
82,736,18,0.0821155261399549,1
83,734,18,0.0787609524241244,1
83,735,18,0.0846381080724155,1
83,741,18,0.071761516517213,1
84,734,18,0.0898272122301055,1
84,735,18,0.0926813761494619,1
84,736,18,0.0916056424355174,1
84,740,18,0.0893771644652405,1
84,741,18,0.0845170307523695,1
85,733,18,0.0841255030932159,1
85,734,18,0.0969276237708022,1
85,735,18,0.102720730890604,1
85,736,18,0.0993146031778586,1
85,737,18,0.0976127462612301,1
85,738,18,0.0946055435802641,1
85,739,18,0.0919950796630545,1
85,740,18,0.0987724506365837,1
85,741,18,0.0966680089354032,1
85,742,18,0.0766517009332933,1
86,733,18,0.0817308687531914,1
86,734,18,0.0966677334057345,1
86,737,18,0.100427844865392,1
86,738,18,0.090894230820835,1
86,739,18,0.0889189765955995,1
86,740,18,0.0970966133043166,1
86,741,18,0.0936394646846676,1
86,742,18,0.0754184181568589,1
87,733,18,0.0762095536821881,1
87,734,18,0.0873371787371982,1
87,735,18,0.0975305425835655,1
87,736,18,0.0968038929802516,1
87,737,18,0.0877878973569086,1
87,738,18,0.0811910102958968,1
87,739,18,0.0837506629483419,1
87,740,18,0.0907102069510529,1
87,741,18,0.0875133739705253,1
87,742,18,0.0751061591854212,1
88,734,18,0.0742762518438925,1
88,735,18,0.0771787173121185,1
88,739,18,0.0819071418535988,1
88,740,18,0.0890897750412863,1
88,741,18,0.0861633923998663,1
88,742,18,0.0762285412702234,1
89,739,18,0.0771191190468341,1
89,740,18,0.0826059330115019,1
89,741,18,0.0792115033301235,1
89,742,18,0.0715940603662024,1
90,740,18,0.069728922172021,1
