x,y,z,signal,cytoplasm.p
469,322,1,0.0861557015282457,1
469,323,1,0.0844238837550391,1
470,321,1,0.0890667443548523,1
470,322,1,0.088446053878461,1
470,323,1,0.0879186242051328,1
471,321,1,0.0927243887266485,1
471,322,1,0.0934163814894664,1
471,323,1,0.093163571038928,1
471,325,1,0.0921318022764597,1
471,326,1,0.0926458927199599,1
472,321,1,0.0995265633601317,1
472,322,1,0.101028966745534,1
472,323,1,0.0999811094463263,1
472,324,1,0.0965761437500096,1
472,325,1,0.0993679301482934,1
472,326,1,0.102884311656927,1
472,327,1,0.0954366069484461,1
472,331,1,0.0796133393927499,1
472,332,1,0.0751088725536799,1
473,321,1,0.104174209790494,1
473,322,1,0.106476116417466,1
473,323,1,0.105037528099234,1
473,324,1,0.100503903033491,1
473,325,1,0.104455357868476,1
473,326,1,0.108508830558167,1
473,327,1,0.0987687130167307,1
473,328,1,0.0842475926853054,1
473,330,1,0.0775090174870774,1
473,331,1,0.0808765291177837,1
473,332,1,0.0770708474468415,1
473,333,1,0.0706846327663907,1
474,321,1,0.105819912562696,1
474,322,1,0.107419757614394,1
474,323,1,0.104925770869719,1
474,324,1,0.100710909671503,1
474,325,1,0.104466379055222,1
474,326,1,0.106801948219973,1
474,327,1,0.097086484594106,1
474,328,1,0.0839466963178119,1
474,331,1,0.0787480324785748,1
474,332,1,0.0762810117027753,1
474,333,1,0.0710275773572306,1
475,321,1,0.104618100066242,1
475,322,1,0.104163571949374,1
475,323,1,0.100524591717741,1
475,324,1,0.0975418572693064,1
475,325,1,0.098656991725868,1
475,326,1,0.0970658198689571,1
475,327,1,0.0897406539857211,1
475,332,1,0.07503441964539,1
476,321,1,0.102784893364747,1
476,322,1,0.104085357462129,1
476,323,1,0.101001713267439,1
476,324,1,0.098426612984223,1
476,325,1,0.0949560832063182,1
476,326,1,0.0887128863932237,1
477,320,1,0.0927964756736533,1
477,321,1,0.101044060979555,1
477,322,1,0.106141922888494,1
477,323,1,0.109178391612091,1
477,324,1,0.109647750412863,1
477,325,1,0.0996571524435217,1
477,326,1,0.0869635006087529,1
477,330,1,0.0775638119524866,1
477,331,1,0.0791791166145061,1
478,321,1,0.101237231236382,1
478,322,1,0.113656910744105,1
478,323,1,0.130712496722395,1
478,324,1,0.138781419007503,1
478,325,1,0.118786410646735,1
478,326,1,0.0926330206926135,1
478,327,1,0.0797841198691105,1
478,328,1,0.0748201054813824,1
478,329,1,0.074198822017226,1
478,330,1,0.0743111662447309,1
478,331,1,0.0731876760514787,1
479,321,1,0.101771662957159,1
479,322,1,0.118742781122681,1
479,323,1,0.141743494720564,1
479,324,1,0.15176266391859,1
479,325,1,0.127814859013146,1
479,326,1,0.0963129110902656,1
479,327,1,0.0805915535733179,1
479,328,1,0.0750213259963536,1
479,329,1,0.0738058628017505,1
479,330,1,0.0714859269508075,1
479,331,1,0.0679053410396027,1
480,321,1,0.100694198198122,1
480,322,1,0.113060041604501,1
480,323,1,0.124671053514283,1
480,324,1,0.127725755114214,1
480,325,1,0.112418057476543,1
480,326,1,0.0931808874796252,1
480,327,1,0.0812215282015877,1
480,328,1,0.0747048262639289,1
480,329,1,0.0724925506361237,1
480,330,1,0.0696967450985428,1
481,322,1,0.104410410593833,1
481,323,1,0.104581646293124,1
481,324,1,0.101994794070563,1
481,325,1,0.0984802094945511,1
481,326,1,0.0938687293280871,1
481,327,1,0.0855954478856955,1
481,328,1,0.0772287139674279,1
481,329,1,0.0729966920626755,1
482,324,1,0.0925315359279188,1
482,325,1,0.0965052667376367,1
482,326,1,0.0988986671839277,1
482,327,1,0.0925819159288541,1
482,328,1,0.0855549090857513,1
482,329,1,0.0820543345944127,1
482,330,1,0.0790529479853654,1
482,331,1,0.0729241199438629,1
483,324,1,0.0875264975684387,1
483,325,1,0.0938985344505047,1
483,326,1,0.0984504103619089,1
483,327,1,0.0952583033141763,1
483,328,1,0.0942087029903259,1
483,329,1,0.0965132511082522,1
483,330,1,0.0971295510792713,1
483,331,1,0.0894171641853982,1
483,332,1,0.0727357534869118,1
484,324,1,0.0832528107859659,1
484,325,1,0.0867855024530287,1
484,326,1,0.0895148634120368,1
484,327,1,0.0885228667582607,1
484,328,1,0.0924569752036715,1
484,329,1,0.100056826197227,1
484,330,1,0.105784249439932,1
484,331,1,0.0990786000371079,1
484,332,1,0.0797420896150903,1
485,325,1,0.0799314923031865,1
485,326,1,0.0796702003306739,1
485,327,1,0.0801466390459754,1
485,328,1,0.0856712844321041,1
485,329,1,0.0927034005536277,1
485,330,1,0.0977171180976703,1
485,331,1,0.0916223539088987,1
485,332,1,0.0752951665483406,1
486,326,1,0.0736674690410073,1
486,327,1,0.0738391659530049,1
486,328,1,0.0770739681198277,1
486,329,1,0.0786804258835733,1
486,330,1,0.0794544905489969,1
486,331,1,0.0738398547771765,1
468,322,2,0.0809310240944226,1
468,323,2,0.0781278631126438,1
469,321,2,0.0864058525185041,1
469,322,2,0.0855149033758183,1
469,323,2,0.0830759926159965,1
469,324,2,0.0787954655100107,1
470,320,2,0.0830335790163505,1
470,321,2,0.0895792055794423,1
470,322,2,0.0874858569423126,1
470,323,2,0.0849611306702568,1
470,324,2,0.0807971825629875,1
471,320,2,0.0852986605041302,1
471,321,2,0.0935092709264544,1
471,322,2,0.0926366684658355,1
471,323,2,0.089615809096945,1
471,324,2,0.0847964897136868,1
471,325,2,0.0843922816999998,1
471,326,2,0.0851984515615967,1
471,331,2,0.0722000040155454,1
471,332,2,0.0703932721213427,1
472,320,2,0.0883922597055446,1
472,321,2,0.0971935697988049,1
472,322,2,0.0990720412330389,1
472,323,2,0.0959280560409137,1
472,324,2,0.0909082049668559,1
472,325,2,0.0929522877012756,1
472,326,2,0.0971894668026521,1
472,327,2,0.0882372503078265,1
472,330,2,0.0725120473550685,1
472,331,2,0.0763297145665971,1
472,332,2,0.0730093364785564,1
473,320,2,0.0915867446941132,1
473,321,2,0.101465525536186,1
473,322,2,0.104675961296659,1
473,323,2,0.100198394538935,1
473,324,2,0.0955576842684922,1
473,325,2,0.103412226502063,1
473,326,2,0.110644568835841,1
473,327,2,0.0949503090628273,1
473,328,2,0.0789377885634199,1
473,330,2,0.0736057324259031,1
473,331,2,0.0781662935116453,1
473,332,2,0.0753655943275581,1
473,333,2,0.0690517241544546,1
474,320,2,0.0942858632770991,1
474,321,2,0.104971952038095,1
474,322,2,0.105903673581966,1
474,323,2,0.0996007646978546,1
474,324,2,0.0983630974058235,1
474,325,2,0.11091785832849,1
474,326,2,0.11852221363315,1
474,327,2,0.099776756278818,1
474,328,2,0.0813360287482385,1
474,330,2,0.0729879469905835,1
474,331,2,0.075872293388208,1
474,332,2,0.0743135621548931,1
474,333,2,0.0696560385848873,1
475,320,2,0.0931055960027785,1
475,321,2,0.102450663897122,1
475,322,2,0.101367928135729,1
475,323,2,0.0970426454279134,1
475,324,2,0.09940939137365,1
475,325,2,0.106035388743132,1
475,326,2,0.105467162709518,1
475,327,2,0.0912572591286094,1
475,328,2,0.0793968569300456,1
475,331,2,0.0730154580290208,1
475,332,2,0.0706934137771351,1
476,320,2,0.089188348775134,1
476,321,2,0.0981289570852239,1
476,322,2,0.101616072551226,1
476,323,2,0.101533209998267,1
476,324,2,0.10461880685974,1
476,325,2,0.100569455135528,1
476,326,2,0.090825450229854,1
476,327,2,0.0818490470219412,1
476,330,2,0.0729035989733237,1
476,331,2,0.0746316611573511,1
477,319,2,0.0796078228096014,1
477,320,2,0.0879013437030881,1
477,321,2,0.0963232194937384,1
477,322,2,0.102955506127396,1
477,323,2,0.104508594992279,1
477,324,2,0.107452677420023,1
477,325,2,0.0968591546481424,1
477,326,2,0.0845160663985292,1
477,327,2,0.0780954224890478,1
477,328,2,0.0741445546520525,1
477,329,2,0.0725958323334402,1
477,330,2,0.0733310053871561,1
477,331,2,0.0740312400809319,1
477,332,2,0.0685987413996409,1
478,320,2,0.0886225006823552,1
478,321,2,0.0970518217638346,1
478,322,2,0.109574830887077,1
478,323,2,0.120888857752705,1
478,324,2,0.129877569949076,1
478,325,2,0.111567078105138,1
478,326,2,0.0900768421099037,1
478,327,2,0.0790982067283291,1
478,328,2,0.0738293487111153,1
478,329,2,0.0723493830243823,1
478,330,2,0.0716411160417877,1
478,331,2,0.0705958523153309,1
479,320,2,0.0880790663291436,1
479,321,2,0.0993634018780869,1
479,322,2,0.119301303720139,1
479,323,2,0.138122915078977,1
479,324,2,0.147617403910585,1
479,325,2,0.122424636166666,1
479,326,2,0.0939634995545524,1
479,327,2,0.0791385358861341,1
479,328,2,0.073119638192648,1
479,329,2,0.0716326345198136,1
479,330,2,0.0693405032063028,1
480,321,2,0.096684049553939,1
480,322,2,0.111109830630236,1
480,323,2,0.120419570829238,1
480,324,2,0.121968598626396,1
480,325,2,0.104193269255834,1
480,326,2,0.0873715121298223,1
480,327,2,0.0777659009848916,1
480,328,2,0.0724717421563651,1
480,329,2,0.0707201161958927,1
480,330,2,0.068255515289357,1
481,321,2,0.0925497448451514,1
481,322,2,0.0972454352640408,1
481,323,2,0.0972009252430028,1
481,324,2,0.0955548331353992,1
481,325,2,0.0907151185668854,1
481,326,2,0.0886177328211325,1
481,327,2,0.0823575789538651,1
481,328,2,0.074811546092328,1
481,329,2,0.0703155967138846,1
482,322,2,0.090139956373351,1
482,323,2,0.0875868864840766,1
482,324,2,0.0878463515750905,1
482,325,2,0.0927957389312784,1
482,326,2,0.0989576544921207,1
482,327,2,0.0920059091769876,1
482,328,2,0.0816145952330205,1
482,329,2,0.0741215239656185,1
482,330,2,0.0717436909456063,1
482,331,2,0.0680291856358861,1
483,324,2,0.0857499541422795,1
483,325,2,0.093220845271355,1
483,326,2,0.101880185707955,1
483,327,2,0.0957376830092018,1
483,328,2,0.0887300291304341,1
483,329,2,0.0869104431782112,1
483,330,2,0.0932124116675841,1
483,331,2,0.091606522932502,1
483,332,2,0.0739413515214221,1
484,324,2,0.0825163918589656,1
484,325,2,0.0863295427798385,1
484,326,2,0.0911162897644418,1
484,327,2,0.0858851673322824,1
484,328,2,0.0862800971838664,1
484,329,2,0.0955983069252921,1
484,330,2,0.115040141558039,1
484,331,2,0.116027388319919,1
484,332,2,0.0903195478093331,1
485,325,2,0.0799778771239264,1
485,326,2,0.0801290051471817,1
485,327,2,0.0767259681585456,1
485,328,2,0.0811186478192234,1
485,329,2,0.0924177242054395,1
485,330,2,0.110881117046153,1
485,331,2,0.110122188543179,1
485,332,2,0.0858847600275549,1
486,326,2,0.07402825717278,1
486,327,2,0.0715757316534617,1
486,328,2,0.073772158335544,1
486,329,2,0.0758098679489322,1
486,330,2,0.0828642720247396,1
486,331,2,0.0795140289165273,1
468,322,3,0.0781217235928532,1
469,321,3,0.0826552588119659,1
469,322,3,0.0821757233827798,1
469,323,3,0.0800244895561318,1
470,320,3,0.0826416081138169,1
470,321,3,0.0896279383921411,1
470,322,3,0.086441246101375,1
470,323,3,0.0814424490878674,1
470,324,3,0.0744232049936901,1
471,320,3,0.0848947879178659,1
471,321,3,0.0940436068108251,1
471,322,3,0.0911430700502796,1
471,323,3,0.0843498740901292,1
471,324,3,0.0772681985669007,1
471,325,3,0.0751525559857119,1
471,326,3,0.0763531765168603,1
471,331,3,0.0714572958243694,1
471,332,3,0.0710811858471095,1
472,320,3,0.0841818968286583,1
472,321,3,0.0948817500935363,1
472,322,3,0.0966237265258306,1
472,323,3,0.0903610090346897,1
472,324,3,0.0837165272183061,1
472,325,3,0.0848085052031502,1
472,326,3,0.0886168702934741,1
472,327,3,0.0801993670388697,1
472,330,3,0.0698271784477722,1
472,331,3,0.0746217660483813,1
472,332,3,0.0735275059591078,1
473,320,3,0.0863526393538019,1
473,321,3,0.0987184767704051,1
473,322,3,0.102891607203371,1
473,323,3,0.0954041962737272,1
473,324,3,0.090508399438092,1
473,325,3,0.100170721776562,1
473,326,3,0.108455665311668,1
473,327,3,0.0901668923933494,1
473,328,3,0.0746713673785139,1
473,330,3,0.0718846782791002,1
473,331,3,0.0763149976884259,1
473,332,3,0.075148183449666,1
473,333,3,0.0683996412651632,1
474,320,3,0.0900360876780449,1
474,321,3,0.10342710510417,1
474,322,3,0.104590463242521,1
474,323,3,0.0954925215018562,1
474,324,3,0.0963857587387469,1
474,325,3,0.113800365865065,1
474,326,3,0.124250151996541,1
474,327,3,0.100156537988401,1
474,328,3,0.0793256564698008,1
474,330,3,0.0729210591686307,1
474,331,3,0.0748630761301412,1
474,332,3,0.073535915603777,1
474,333,3,0.0680025550944334,1
475,320,3,0.0894262566644637,1
475,321,3,0.100413469404419,1
475,322,3,0.100944582789621,1
475,323,3,0.0971525458270528,1
475,324,3,0.103264997822597,1
475,325,3,0.110548648572498,1
475,326,3,0.109472741155066,1
475,327,3,0.0901845562410201,1
475,328,3,0.0779986995958004,1
475,331,3,0.0705295455015924,1
475,332,3,0.0681743897712653,1
476,320,3,0.0867651851348533,1
476,321,3,0.0960089000395613,1
476,322,3,0.103520773211961,1
476,323,3,0.108094098509092,1
476,324,3,0.115567649098448,1
476,325,3,0.10702275530052,1
476,326,3,0.0920829017500494,1
476,327,3,0.0793783844626951,1
476,328,3,0.0754900139422804,1
476,329,3,0.0725764913486559,1
476,330,3,0.0707799181135408,1
476,331,3,0.0694453242758984,1
477,320,3,0.086902003584665,1
477,321,3,0.0965753770587577,1
477,322,3,0.108320763589986,1
477,323,3,0.111856671766441,1
477,324,3,0.115379642028021,1
477,325,3,0.101325424689452,1
477,326,3,0.085768456558507,1
477,327,3,0.077086085435473,1
477,328,3,0.0747506660151069,1
477,329,3,0.0730501987263725,1
477,330,3,0.07156351850141,1
477,331,3,0.0695150991695967,1
478,320,3,0.0859460713686052,1
478,321,3,0.0965457276705006,1
478,322,3,0.112654977052931,1
478,323,3,0.120774333246953,1
478,324,3,0.126888791817258,1
478,325,3,0.1123494625686,1
478,326,3,0.0939758384918876,1
478,327,3,0.0810394929372402,1
478,328,3,0.0748572121400193,1
478,329,3,0.0728238690729016,1
478,330,3,0.0713240892091273,1
478,331,3,0.0689630754784537,1
479,320,3,0.0855801619788608,1
479,321,3,0.0991952628926801,1
479,322,3,0.124486173106618,1
479,323,3,0.140141697002084,1
479,324,3,0.145223901638113,1
479,325,3,0.124035238854993,1
479,326,3,0.0993142378015588,1
479,327,3,0.081640854408398,1
479,328,3,0.0733006192565242,1
479,329,3,0.0708094117676373,1
479,330,3,0.0699552518254919,1
479,331,3,0.0679184945863931,1
480,321,3,0.095319812317815,1
480,322,3,0.115774224472631,1
480,323,3,0.125813687029731,1
480,324,3,0.12273875196848,1
480,325,3,0.1038337868951,1
480,326,3,0.0879278664285835,1
480,327,3,0.0778589880844679,1
480,328,3,0.0721663834061946,1
480,329,3,0.069286732992488,1
480,330,3,0.0682168992073179,1
481,322,3,0.0946460045131281,1
481,323,3,0.0971711261103606,1
481,324,3,0.0950903320424808,1
481,325,3,0.0874991602334882,1
481,326,3,0.0856796701176718,1
481,327,3,0.0817100063654541,1
481,328,3,0.0753551721183526,1
481,329,3,0.0696619025750092,1
482,323,3,0.0839661151696764,1
482,324,3,0.0850571467700064,1
482,325,3,0.0888626427579111,1
482,326,3,0.0976798317457713,1
482,327,3,0.0950960702473193,1
482,328,3,0.0825223037672908,1
482,329,3,0.0704712589971218,1
483,324,3,0.083230816330677,1
483,325,3,0.0916115842927196,1
483,326,3,0.105070807291387,1
483,327,3,0.102789924776088,1
483,328,3,0.0889882303788375,1
483,329,3,0.0802706034377669,1
483,330,3,0.0887524907882046,1
483,331,3,0.0924306022225613,1
483,332,3,0.077767931518754,1
484,324,3,0.0800412130090638,1
484,325,3,0.0852415779445161,1
484,326,3,0.0928626027941296,1
484,327,3,0.0897998868747058,1
484,328,3,0.0859562959152223,1
484,329,3,0.0946806074456454,1
484,330,3,0.123650946844529,1
484,331,3,0.132313875156597,1
484,332,3,0.104733618874712,1
485,325,3,0.0800746838740296,1
485,326,3,0.081965422368294,1
485,327,3,0.0786929684732724,1
485,328,3,0.080813025518935,1
485,329,3,0.0947650572890871,1
485,330,3,0.122754037875315,1
485,331,3,0.127174072840269,1
485,332,3,0.0985805921405713,1
486,326,3,0.0742851107217171,1
486,327,3,0.0710026898404209,1
486,328,3,0.0710513148371624,1
486,329,3,0.0744078711686521,1
486,330,3,0.0853440510221528,1
486,331,3,0.0835992354363163,1
486,332,3,0.0684682301833312,1
468,322,4,0.0737793161171535,1
469,321,4,0.078275163669415,1
469,322,4,0.0793958865864299,1
469,323,4,0.0769449423678186,1
470,320,4,0.0819041110272436,1
470,321,4,0.0878713648771837,1
470,322,4,0.0863348856595001,1
470,323,4,0.078409107027032,1
471,320,4,0.0827084360380156,1
471,321,4,0.0926509660597283,1
471,322,4,0.0907887748350464,1
471,323,4,0.0800695506365071,1
471,324,4,0.0697414527821692,1
471,332,4,0.0697511981467539,1
472,320,4,0.0793244105965165,1
472,321,4,0.0937976187144734,1
472,322,4,0.0960085166939353,1
472,323,4,0.084882676591996,1
472,324,4,0.0756837831766472,1
472,325,4,0.0769315731891136,1
472,326,4,0.0798908217281834,1
472,327,4,0.0727660617504635,1
472,331,4,0.0712485761105906,1
472,332,4,0.0719019527913695,1
473,320,4,0.0804983047498056,1
473,321,4,0.0977364770517808,1
473,322,4,0.102719257405854,1
473,323,4,0.0908228566571035,1
473,324,4,0.0847733032930923,1
473,325,4,0.0959868576660692,1
473,326,4,0.103429596850739,1
473,327,4,0.0862421519566727,1
473,328,4,0.0701338010405534,1
473,330,4,0.0677730987782008,1
473,331,4,0.0735652295646114,1
473,332,4,0.0736439831316424,1
474,320,4,0.0821478289987166,1
474,321,4,0.0981947547680529,1
474,322,4,0.101061059962156,1
474,323,4,0.090915326809813,1
474,324,4,0.0933605627724629,1
474,325,4,0.112458716071995,1
474,326,4,0.122444222732242,1
474,327,4,0.098632218014791,1
474,328,4,0.0766664896887694,1
474,331,4,0.072195182246344,1
474,332,4,0.0707975819612116,1
475,321,4,0.0931480994490557,1
475,322,4,0.0967547408832743,1
475,323,4,0.0967932251902544,1
475,324,4,0.105932448463014,1
475,325,4,0.113494587830616,1
475,326,4,0.110556926442108,1
475,327,4,0.0906345920263343,1
475,328,4,0.0768152098223116,1
476,321,4,0.0897035233679827,1
476,322,4,0.10014609780987,1
476,323,4,0.112053495786265,1
476,324,4,0.122730498057971,1
476,325,4,0.112364520863969,1
476,326,4,0.0932935311959004,1
476,327,4,0.0788719848908155,1
476,328,4,0.0747213221053955,1
476,329,4,0.0708766469965637,1
477,320,4,0.0829164010400933,1
477,321,4,0.0924882178721864,1
477,322,4,0.106896754385091,1
477,323,4,0.117827495522523,1
477,324,4,0.122088537889115,1
477,325,4,0.106778588095892,1
477,326,4,0.0871702077579954,1
477,327,4,0.0771928591718508,1
477,328,4,0.0755065876508273,1
477,329,4,0.073326483106725,1
477,330,4,0.0690818467349686,1
478,320,4,0.0812192401073828,1
478,321,4,0.092242409469097,1
478,322,4,0.108991929903719,1
478,323,4,0.119504548779198,1
478,324,4,0.123187901267034,1
478,325,4,0.112735755164049,1
478,326,4,0.0955550008491106,1
478,327,4,0.0819003973664922,1
478,328,4,0.0758283224469565,1
478,329,4,0.0736185265861692,1
478,330,4,0.0709519205040842,1
479,321,4,0.0950384605874695,1
479,322,4,0.120002826215627,1
479,323,4,0.135036407771643,1
479,324,4,0.135926692049258,1
479,325,4,0.121378114587374,1
479,326,4,0.100943193161727,1
479,327,4,0.0834726654922234,1
479,328,4,0.0743758737884361,1
479,329,4,0.0714058137047595,1
479,330,4,0.0708631101041473,1
479,331,4,0.0690102689188733,1
480,321,4,0.0921175825496471,1
480,322,4,0.113978501785624,1
480,323,4,0.125519636975526,1
480,324,4,0.118322238991464,1
480,325,4,0.101735796182031,1
480,326,4,0.0877362954417905,1
480,327,4,0.0789883542473929,1
480,328,4,0.0729782315748758,1
480,329,4,0.0691070576996502,1
480,330,4,0.0679608482882851,1
481,322,4,0.0916059658833893,1
481,323,4,0.0974053862264683,1
481,324,4,0.0940485423857592,1
481,325,4,0.0864490387991775,1
481,326,4,0.0844140784927003,1
481,327,4,0.0829669787036171,1
481,328,4,0.0755890968070376,1
481,329,4,0.0683416003414843,1
482,323,4,0.0821122736919097,1
482,324,4,0.0833502943806898,1
482,325,4,0.0870021226805673,1
482,326,4,0.0971395779633,1
482,327,4,0.0992655289479616,1
482,328,4,0.0826839019179548,1
483,324,4,0.0806237605956731,1
483,325,4,0.0903761811357918,1
483,326,4,0.106834137273002,1
483,327,4,0.109310202609664,1
483,328,4,0.088379118138305,1
483,329,4,0.0743518907277127,1
483,330,4,0.0830679603271778,1
483,331,4,0.0911159423574683,1
483,332,4,0.0782750558534577,1
484,324,4,0.0766432313908699,1
484,325,4,0.0833819743028093,1
484,326,4,0.0921724429025857,1
484,327,4,0.0917258452483543,1
484,328,4,0.0833351522284648,1
484,329,4,0.0914110406223693,1
484,330,4,0.124843642902816,1
484,331,4,0.141645885340557,1
484,332,4,0.113822875441039,1
485,325,4,0.0782501863059742,1
485,326,4,0.0802555151935205,1
485,327,4,0.0772698457551372,1
485,328,4,0.0771558782984974,1
485,329,4,0.0936257421092136,1
485,330,4,0.126293959201292,1
485,331,4,0.137517181071773,1
485,332,4,0.106642188930358,1
486,326,4,0.0714559960431064,1
486,329,4,0.0712730922613252,1
486,330,4,0.0842172964013046,1
486,331,4,0.0850879881235692,1
486,332,4,0.0681417934135088,1
469,321,5,0.0766444652846035,1
469,322,5,0.0775018776747941,1
469,323,5,0.0733464769770284,1
470,320,5,0.0839487867494284,1
470,321,5,0.0870541378901883,1
470,322,5,0.0853906335054811,1
470,323,5,0.0754843595942977,1
471,320,5,0.0822445578817394,1
471,321,5,0.0901955235197875,1
471,322,5,0.0879879738247773,1
471,323,5,0.0761536690776551,1
472,320,5,0.0778041876292833,1
472,321,5,0.0915442472376114,1
472,322,5,0.091164938720285,1
472,323,5,0.0786585452340172,1
472,324,5,0.070235489457612,1
472,325,5,0.0721027660016131,1
472,326,5,0.073839034177946,1
472,332,5,0.0691239848049461,1
473,321,5,0.0961610942428387,1
473,322,5,0.0988032979799219,1
473,323,5,0.0856988913069479,1
473,324,5,0.0804737227115416,1
473,325,5,0.0894972115439168,1
473,326,5,0.0935586087064692,1
473,327,5,0.080370423044899,1
473,331,5,0.069248368481016,1
473,332,5,0.0700389289879062,1
474,321,5,0.0920616859655633,1
474,322,5,0.0954451363886235,1
474,323,5,0.0873739859070648,1
474,324,5,0.0902305637059095,1
474,325,5,0.103074954228532,1
474,326,5,0.107629112244366,1
474,327,5,0.0902015073054176,1
474,328,5,0.0735496920872096,1
475,321,5,0.0860957917946402,1
475,322,5,0.0920068555615017,1
475,323,5,0.0946399608297439,1
475,324,5,0.103031216888522,1
475,325,5,0.106300304529765,1
475,326,5,0.101657425960626,1
475,327,5,0.0865680556364841,1
475,328,5,0.0752915607035466,1
475,329,5,0.0705802070219718,1
476,321,5,0.0831237970135076,1
476,322,5,0.0938241893581721,1
476,323,5,0.106733089761912,1
476,324,5,0.116756451802721,1
476,325,5,0.107555485925082,1
476,326,5,0.0918302590132224,1
476,327,5,0.0795042955314934,1
476,328,5,0.0750002180278248,1
476,329,5,0.0714503956031023,1
477,321,5,0.0864560408466265,1
477,322,5,0.0994472347746618,1
477,323,5,0.112187151634662,1
477,324,5,0.117171016138084,1
477,325,5,0.104756332103049,1
477,326,5,0.0886315632125437,1
477,327,5,0.0791076166654911,1
477,328,5,0.0772268571370522,1
477,329,5,0.0751031762772693,1
477,330,5,0.0697589069877007,1
478,321,5,0.0869364208341448,1
478,322,5,0.100783925033696,1
478,323,5,0.112070279136951,1
478,324,5,0.115759597441091,1
478,325,5,0.108689829591369,1
478,326,5,0.0949514351406035,1
478,327,5,0.0822413653314483,1
478,328,5,0.0767744673700037,1
478,329,5,0.0746803819904992,1
478,330,5,0.0712106788016002,1
479,321,5,0.0882245999021702,1
479,322,5,0.107815502075433,1
479,323,5,0.121870078800527,1
479,324,5,0.122618177789568,1
479,325,5,0.113590280482494,1
479,326,5,0.0983459726379393,1
479,327,5,0.0834342231136712,1
479,328,5,0.0751416366251478,1
479,329,5,0.0717933282143914,1
479,330,5,0.0700148081623484,1
479,331,5,0.0681343541124552,1
480,321,5,0.086448278097701,1
480,322,5,0.104246865766162,1
480,323,5,0.115992120522331,1
480,324,5,0.110176767376674,1
480,325,5,0.098184386466826,1
480,326,5,0.0870415294129598,1
480,327,5,0.0798495941040676,1
480,328,5,0.0739823994522758,1
480,329,5,0.0693649894081604,1
481,322,5,0.0877804820149566,1
481,323,5,0.095508178774766,1
481,324,5,0.0930459977374941,1
481,325,5,0.0865152138378571,1
481,326,5,0.0834781221776178,1
481,327,5,0.0830761004319538,1
481,328,5,0.075645682215293,1
481,329,5,0.0679511089134758,1
482,323,5,0.0814207062031456,1
482,324,5,0.0834341093079385,1
482,325,5,0.0854186177361754,1
482,326,5,0.0934151056673051,1
482,327,5,0.0977061029006997,1
482,328,5,0.0808809855106854,1
483,324,5,0.0796988733855399,1
483,325,5,0.0871870749655372,1
483,326,5,0.101229648180718,1
483,327,5,0.106261694437502,1
483,328,5,0.084586410320891,1
483,329,5,0.0708796957922451,1
483,330,5,0.0754160941240016,1
483,331,5,0.082660164438023,1
483,332,5,0.0707196430036356,1
484,325,5,0.0810161867211375,1
484,326,5,0.0876518455983488,1
484,327,5,0.08822806798213,1
484,328,5,0.0777940229804202,1
484,329,5,0.0847249059078161,1
484,330,5,0.111003404300831,1
484,331,5,0.128941236278143,1
484,332,5,0.104866771581975,1
485,326,5,0.076509126309317,1
485,327,5,0.0733806127070641,1
485,329,5,0.0872521478855422,1
485,330,5,0.113280609094032,1
485,331,5,0.126548836124345,1
485,332,5,0.0995981651353287,1
486,330,5,0.0762527759015139,1
486,331,5,0.077984749408881,1
469,321,6,0.0751456318053432,1
469,322,6,0.0754956203720599,1
470,320,6,0.0829017141107991,1
470,321,6,0.0842410039323594,1
470,322,6,0.0831314639260266,1
470,323,6,0.0718381317344243,1
471,320,6,0.077838898377758,1
471,321,6,0.0844456326295363,1
471,322,6,0.0833012321303436,1
471,323,6,0.0716618346749152,1
472,321,6,0.0842529295751917,1
472,322,6,0.0829695363377152,1
472,323,6,0.0722163261535253,1
472,325,6,0.069035599679063,1
472,326,6,0.0689372355873545,1
472,332,6,0.0678656288286644,1
473,321,6,0.0875596629548588,1
473,322,6,0.0886880947128205,1
473,323,6,0.0803075244133662,1
473,324,6,0.0793733650309053,1
473,325,6,0.084550956840266,1
473,326,6,0.0828371383421528,1
473,327,6,0.0722185244010991,1
474,321,6,0.0823228502360642,1
474,322,6,0.0862962875467873,1
474,323,6,0.0861064715641882,1
474,324,6,0.0924614675352256,1
474,325,6,0.0968111286289414,1
474,326,6,0.0924283740261104,1
474,327,6,0.0795199707737295,1
474,328,6,0.0698640574949437,1
475,321,6,0.0781105945901499,1
475,322,6,0.0856873070813137,1
475,323,6,0.0937621233054207,1
475,324,6,0.102774902419371,1
475,325,6,0.100993076011304,1
475,326,6,0.0930499569790371,1
475,327,6,0.0813983284022308,1
475,328,6,0.0732625662133732,1
475,329,6,0.0698259205949371,1
475,330,6,0.0684571251397295,1
476,321,6,0.0763642456218096,1
476,322,6,0.0872778380322562,1
476,323,6,0.100323538916481,1
476,324,6,0.109021183966799,1
476,325,6,0.101773256237417,1
476,326,6,0.0921263815297177,1
476,327,6,0.081820134376059,1
476,328,6,0.0757482870679886,1
476,329,6,0.072436522276981,1
476,330,6,0.0696461794145699,1
477,321,6,0.0784376662761653,1
477,322,6,0.0898335374329337,1
477,323,6,0.102554167216129,1
477,324,6,0.108791955262032,1
477,325,6,0.100556888586727,1
477,326,6,0.0913034822254134,1
477,327,6,0.0825059576702093,1
477,328,6,0.0787494101269181,1
477,329,6,0.076125097848971,1
477,330,6,0.0706992118797276,1
478,321,6,0.0791890536519038,1
478,322,6,0.0901045568007047,1
478,323,6,0.101806188022596,1
478,324,6,0.107706320449342,1
478,325,6,0.102295588611875,1
478,326,6,0.093087536829931,1
478,327,6,0.0820374853561971,1
478,328,6,0.0771879415662429,1
478,329,6,0.0746469889926137,1
478,330,6,0.069907848742933,1
479,321,6,0.0800121985369998,1
479,322,6,0.092974791287474,1
479,323,6,0.10528712204038,1
479,324,6,0.109068095887775,1
479,325,6,0.103137667177027,1
479,326,6,0.0931097229580329,1
479,327,6,0.0813080984255228,1
479,328,6,0.0745901220649142,1
479,329,6,0.0712323198601402,1
479,330,6,0.0677435991343289,1
480,322,6,0.0912461720543339,1
480,323,6,0.101271708383616,1
480,324,6,0.0999798336241649,1
480,325,6,0.091690002432328,1
480,326,6,0.0841956253938876,1
480,327,6,0.0779283137450108,1
480,328,6,0.0731467059877053,1
480,329,6,0.068467828868379,1
481,322,6,0.0833260657391747,1
481,323,6,0.0903633690061995,1
481,324,6,0.0898719438728335,1
481,325,6,0.0835602060597743,1
481,326,6,0.0798706900930456,1
481,327,6,0.078679209959166,1
481,328,6,0.0724436800585905,1
482,323,6,0.0810315385155017,1
482,324,6,0.082751149126432,1
482,325,6,0.0808403149356823,1
482,326,6,0.083902246194528,1
482,327,6,0.0863413845658151,1
482,328,6,0.0732842731594427,1
483,324,6,0.0781982190145564,1
483,325,6,0.079796063481269,1
483,326,6,0.086599711599502,1
483,327,6,0.0898780534437471,1
483,328,6,0.0730566856531366,1
484,326,6,0.0762136027703622,1
484,327,6,0.075313267649616,1
484,330,6,0.0863035771034558,1
484,331,6,0.0993919671169955,1
484,332,6,0.0820525855799943,1
485,330,6,0.0875616635398442,1
485,331,6,0.0986839756640696,1
469,322,7,0.0729466115505104,1
470,321,7,0.0828329814380215,1
470,322,7,0.0805491878918751,1
470,323,7,0.0688493416230547,1
471,321,7,0.0811076745506806,1
471,322,7,0.0799081082200036,1
471,323,7,0.0685976392809663,1
471,332,7,0.071547106516799,1
471,333,7,0.0775385470798264,1
472,322,7,0.0765790868860528,1
472,323,7,0.0690255069075048,1
472,325,7,0.0679104503180235,1
472,332,7,0.073513106539033,1
472,333,7,0.0791009500454648,1
473,322,7,0.0781083484243728,1
473,323,7,0.0783850700583299,1
473,324,7,0.0843599369128103,1
473,325,7,0.0848578669422666,1
473,326,7,0.0762503560322501,1
474,322,7,0.0779529496912534,1
474,323,7,0.0889019895925496,1
474,324,7,0.102850133998464,1
474,325,7,0.100250415738331,1
474,326,7,0.0853855781350389,1
474,327,7,0.0732225365443385,1
474,328,7,0.068169406278128,1
475,322,7,0.0794421576014371,1
475,323,7,0.0938391937455628,1
475,324,7,0.107277859835039,1
475,325,7,0.103188592247525,1
475,326,7,0.0899031446129206,1
475,327,7,0.0779685111277568,1
475,328,7,0.0723057415207781,1
475,329,7,0.071073836392687,1
475,330,7,0.0699779051560753,1
476,321,7,0.0713415074760064,1
476,322,7,0.080637393324496,1
476,323,7,0.0933343814641656,1
476,324,7,0.102240746228262,1
476,325,7,0.0985434974614853,1
476,326,7,0.0921523951243036,1
476,327,7,0.0821262538277061,1
476,328,7,0.0764436640539107,1
476,329,7,0.0754914335190515,1
476,330,7,0.0732663218025525,1
477,321,7,0.0726796233015872,1
477,322,7,0.0821583650136548,1
477,323,7,0.09331243492708,1
477,324,7,0.0991830138019759,1
477,325,7,0.0951575612816318,1
477,326,7,0.0908727694555572,1
477,327,7,0.0826666034465839,1
477,328,7,0.0787930516305223,1
477,329,7,0.0775707840510586,1
477,330,7,0.0726331785830932,1
478,321,7,0.0734545744537708,1
478,322,7,0.082347192683312,1
478,323,7,0.0923004983109792,1
478,324,7,0.0976065767925625,1
478,325,7,0.0938706640255431,1
478,326,7,0.0887882737064769,1
478,327,7,0.0801948687175402,1
478,328,7,0.0762833297458572,1
478,329,7,0.0744966276606103,1
478,330,7,0.0700875120562199,1
479,321,7,0.0741389901507008,1
479,322,7,0.0827908194089424,1
479,323,7,0.0918426698278625,1
479,324,7,0.0963479752354892,1
479,325,7,0.0933020366769761,1
479,326,7,0.0877903232159478,1
479,327,7,0.0787160171290326,1
479,328,7,0.0727126988413762,1
479,329,7,0.0701789160289073,1
480,322,7,0.0820945080180571,1
480,323,7,0.089796640416436,1
480,324,7,0.0915212944182577,1
480,325,7,0.0865320031783186,1
480,326,7,0.0812097103747127,1
480,327,7,0.0749491551924932,1
480,328,7,0.0697884006417972,1
481,322,7,0.079492914958223,1
481,323,7,0.086202918927767,1
481,324,7,0.0879675187417677,1
481,325,7,0.0823195498698158,1
481,326,7,0.0769850618834844,1
481,327,7,0.0735059128187711,1
482,323,7,0.0800856092243691,1
482,324,7,0.0827433444490787,1
482,325,7,0.0786312438377191,1
482,326,7,0.0759778811490555,1
482,327,7,0.0743204384170586,1
483,324,7,0.077179729584162,1
483,325,7,0.0750808463945577,1
483,326,7,0.0745102124712299,1
483,327,7,0.0735017918532921,1
470,322,8,0.0743746279151518,1
470,333,8,0.0683095670226159,1
471,322,8,0.0747112113645111,1
471,332,8,0.0788722125022809,1
471,333,8,0.0936223518963341,1
471,334,8,0.070103408920146,1
472,332,8,0.0824236641459136,1
472,333,8,0.0989580198684204,1
472,334,8,0.0735023189535278,1
473,323,8,0.0770701047146912,1
473,324,8,0.0906650620138219,1
473,325,8,0.0872625940538493,1
473,326,8,0.0731832975256573,1
473,332,8,0.0679455743610012,1
473,333,8,0.0749136418141142,1
474,322,8,0.0689240520916871,1
474,323,8,0.0902845136129865,1
474,324,8,0.113884390434453,1
474,325,8,0.106628699956145,1
474,326,8,0.0838355799942651,1
474,327,8,0.0694874503663251,1
475,322,8,0.0716377617675607,1
475,323,8,0.0906500216877788,1
475,324,8,0.110655745756747,1
475,325,8,0.10576486652672,1
475,326,8,0.0894204346027696,1
475,327,8,0.0757039028322342,1
475,328,8,0.0717097289190573,1
475,329,8,0.0737490557718051,1
475,330,8,0.0721591597370556,1
476,322,8,0.0737443058799085,1
476,323,8,0.0855552804518265,1
476,324,8,0.0955521377364667,1
476,325,8,0.0938173849733115,1
476,326,8,0.0900205442108677,1
476,327,8,0.0805421738648753,1
476,328,8,0.0771780105186206,1
476,329,8,0.0809310181046472,1
476,330,8,0.0771737577780827,1
477,322,8,0.0776023621469962,1
477,323,8,0.088055628337982,1
477,324,8,0.0915946392180976,1
477,325,8,0.0871716453040928,1
477,326,8,0.0858372431392633,1
477,327,8,0.0793275073104011,1
477,328,8,0.0767555696285994,1
477,329,8,0.0784271422407778,1
477,330,8,0.0728402630881864,1
478,321,8,0.0679391054035633,1
478,322,8,0.0782927676193317,1
478,323,8,0.087932586371603,1
478,324,8,0.0898296021504923,1
478,325,8,0.0836748743201365,1
478,326,8,0.0809705206734463,1
478,327,8,0.075021553607819,1
478,328,8,0.0717238048912602,1
478,329,8,0.0706926770347602,1
479,321,8,0.0686355306001813,1
479,322,8,0.0764303547729597,1
479,323,8,0.0832197412359523,1
479,324,8,0.0856524166395769,1
479,325,8,0.0824013162938758,1
479,326,8,0.0798898573743431,1
479,327,8,0.0731551994892303,1
480,322,8,0.0742350661482045,1
480,323,8,0.0796928117328296,1
480,324,8,0.0821879125757299,1
480,325,8,0.0792209551957133,1
480,326,8,0.0756271558399639,1
480,327,8,0.0695815856765974,1
481,323,8,0.0798729721974751,1
481,324,8,0.0830897870687553,1
481,325,8,0.078488303837443,1
481,326,8,0.0723788527193772,1
482,323,8,0.0754328595053615,1
482,324,8,0.0789056114899418,1
482,325,8,0.0749513654196178,1
482,326,8,0.0693304523631725,1
483,324,8,0.0722686648110183,1
483,325,8,0.0695609988185288,1
471,332,9,0.0827775640359701,1
471,333,9,0.104000242753618,1
471,334,9,0.0744835759400018,1
472,324,9,0.0685404309360687,1
472,332,9,0.0898594012831345,1
472,333,9,0.116432812258013,1
472,334,9,0.0836400138272767,1
473,323,9,0.0757303357110985,1
473,324,9,0.0918310736226775,1
473,325,9,0.0871603366081272,1
473,326,9,0.0713522531330838,1
473,332,9,0.0692845167755879,1
473,333,9,0.0829046131620954,1
474,323,9,0.0886110063033521,1
474,324,9,0.115479815031902,1
474,325,9,0.107824342983932,1
474,326,9,0.0828367310374253,1
475,323,9,0.0851443459203592,1
475,324,9,0.107498031999393,1
475,325,9,0.103590697850044,1
475,326,9,0.0863580960391963,1
475,327,9,0.0725840983634208,1
475,328,9,0.0728000357565633,1
475,329,9,0.0831601130217909,1
475,330,9,0.0816180812823065,1
475,331,9,0.068141398088332,1
476,322,9,0.0678047547412187,1
476,323,9,0.0784209428232332,1
476,324,9,0.0881356996556023,1
476,325,9,0.0873793467560526,1
476,326,9,0.0823989084041628,1
476,327,9,0.0747853348351537,1
476,328,9,0.0780799149605231,1
476,329,9,0.0922865541138353,1
476,330,9,0.0888015949669786,1
476,331,9,0.0701832885649533,1
477,322,9,0.0724736588844949,1
477,323,9,0.0828118315410648,1
477,324,9,0.0834650345183569,1
477,325,9,0.0782178115699077,1
477,326,9,0.07563950675685,1
477,327,9,0.071684847392023,1
477,328,9,0.0729741764969263,1
477,329,9,0.0801242133268573,1
477,330,9,0.0756252990095882,1
478,322,9,0.0735191202735401,1
478,323,9,0.083988475001265,1
478,324,9,0.0815520080698088,1
478,325,9,0.0736881756945839,1
478,326,9,0.070332296207715,1
479,322,9,0.070027949729588,1
479,323,9,0.0759031467213215,1
479,324,9,0.0749947134242271,1
479,325,9,0.0716630985175258,1
479,326,9,0.0700060990289089,1
480,323,9,0.0709702492168249,1
480,324,9,0.0728418204297918,1
480,325,9,0.0718470744691046,1
480,326,9,0.0687314209146473,1
481,323,9,0.0729833408532967,1
481,324,9,0.0766546119641403,1
481,325,9,0.0739848732295182,1
482,324,9,0.0742752635309506,1
482,325,9,0.0710437437610499,1
471,324,10,0.0693969328803977,1
471,332,10,0.0796060019178782,1
471,333,10,0.10057243804368,1
471,334,10,0.0726943222104322,1
472,323,10,0.069864890073725,1
472,324,10,0.0740548158369278,1
472,325,10,0.069783950238671,1
472,332,10,0.0896427511067188,1
472,333,10,0.119653442616227,1
472,334,10,0.0876506596228186,1
473,323,10,0.0738013704701964,1
473,324,10,0.0880482429449071,1
473,325,10,0.085928695030154,1
473,326,10,0.0728245459175224,1
473,332,10,0.068046202587813,1
473,333,10,0.0851120131127205,1
474,323,10,0.0819773120724738,1
474,324,10,0.104220259183811,1
474,325,10,0.101487663746084,1
474,326,10,0.0817290838001205,1
475,323,10,0.0788880854071054,1
475,324,10,0.0977198434454798,1
475,325,10,0.0959696071129014,1
475,326,10,0.080285997160559,1
475,327,10,0.0688202492839104,1
475,328,10,0.0730194292501146,1
475,329,10,0.0901047724326193,1
475,330,10,0.090429544044879,1
475,331,10,0.0687999858737137,1
476,323,10,0.074085854853079,1
476,324,10,0.0829663437874241,1
476,325,10,0.081591750229624,1
476,326,10,0.0735820788028269,1
476,327,10,0.068337503335107,1
476,328,10,0.0781789019888738,1
476,329,10,0.100554540594768,1
476,330,10,0.100432409074251,1
476,331,10,0.0723856091860346,1
477,323,10,0.0782334808223684,1
477,324,10,0.0788664623178917,1
477,325,10,0.0726284646298491,1
477,328,10,0.0692271167578774,1
477,329,10,0.0792492149560763,1
477,330,10,0.077545824656944,1
478,323,10,0.0780202987259125,1
478,324,10,0.0743321424382009,1
481,324,10,0.0683277879193993,1
481,325,10,0.0686281751559833,1
470,324,11,0.0729629816066935,1
471,323,11,0.0757566967126579,1
471,324,11,0.0864834740179835,1
471,325,11,0.071030847774602,1
471,332,11,0.0722772002409711,1
471,333,11,0.0849859403199863,1
472,323,11,0.0764031492130681,1
472,324,11,0.0876397462520298,1
472,325,11,0.0760395159379777,1
472,332,11,0.0826178886032112,1
472,333,11,0.105107596491928,1
472,334,11,0.0816169611943056,1
473,323,11,0.0698156900585445,1
473,324,11,0.0825997036450802,1
473,325,11,0.0810527722693141,1
473,326,11,0.0741022848070161,1
473,333,11,0.0794144668697376,1
474,323,11,0.0716481120994613,1
474,324,11,0.0856382927491708,1
474,325,11,0.0875882162142166,1
474,326,11,0.0792783911520763,1
475,323,11,0.0709135380232859,1
475,324,11,0.0826730005267169,1
475,325,11,0.0829948131899263,1
475,326,11,0.0732913830228489,1
475,328,11,0.0701209230234316,1
475,329,11,0.088085439450175,1
475,330,11,0.0907238516594265,1
476,323,11,0.0701279430402068,1
476,324,11,0.0772276417976303,1
476,325,11,0.0751401811097243,1
476,328,11,0.0732606375056927,1
476,329,11,0.0974885722272994,1
476,330,11,0.101543069168585,1
476,331,11,0.0725422897310907,1
477,323,11,0.0719896670624071,1
477,324,11,0.0736038815853028,1
477,329,11,0.0734753889233048,1
477,330,11,0.0749343784165679,1
478,323,11,0.069541058856204,1
470,324,12,0.0744963401513909,1
471,323,12,0.0792268191858352,1
471,324,12,0.0975064517068847,1
471,325,12,0.0734868174147784,1
472,323,12,0.0754214609627649,1
472,324,12,0.0933547467005442,1
472,325,12,0.0753608683947632,1
472,332,12,0.0699067286549322,1
472,333,12,0.0809422848721849,1
472,334,12,0.0679101089008254,1
473,324,12,0.0721932834875405,1
473,325,12,0.0710647798522739,1
473,326,12,0.0710572087761614,1
473,333,12,0.0689571875292301,1
474,325,12,0.072591944969202,1
474,326,12,0.0741340845246438,1
475,324,12,0.068619232421303,1
475,325,12,0.069759871341541,1
475,329,12,0.0779244084114464,1
475,330,12,0.0814664381383663,1
476,324,12,0.0694074928544375,1
476,329,12,0.0838885715372773,1
476,330,12,0.0884389080764023,1
489,321,12,0.0692898416859234,1
470,324,13,0.0701536751153487,1
471,323,13,0.0785701301592571,1
471,324,13,0.0981363664374004,1
471,325,13,0.0741975162461876,1
472,323,13,0.0728362499386647,1
472,324,13,0.0928786673717671,1
472,325,13,0.0749933058270068,1
473,324,13,0.0686496245417103,1
474,326,13,0.0701955855738607,1
475,329,13,0.0684128906483601,1
475,330,13,0.0699020087119127,1
476,329,13,0.0699067226651568,1
476,330,13,0.071071488400728,1
489,321,13,0.0703113319937959,1
471,323,14,0.0704603396365577,1
471,324,14,0.0853689804673903,1
471,325,14,0.0693421563843147,1
472,324,14,0.0818808108009163,1
472,325,14,0.0694325900133864,1
471,324,15,0.0685514401432639,1
472,324,15,0.0703324938703034,1
474,328,19,0.0691870571399656,1
474,327,20,0.0720690315865295,1
474,328,20,0.085655609189868,1
474,329,20,0.0728483552747591,1
475,327,20,0.0791344688286338,1
475,328,20,0.0847452951032963,1
476,327,20,0.0712798607075334,1
474,327,21,0.0769551729042111,1
474,328,21,0.0924722311616293,1
474,329,21,0.0745930750241891,1
475,326,21,0.073655854866496,1
475,327,21,0.0906796231578326,1
475,328,21,0.0969776923034165,1
475,329,21,0.0695952483542972,1
476,326,21,0.0830259660118101,1
476,327,21,0.0872679848517142,1
476,328,21,0.0755433528922661,1
477,326,21,0.0699315682535387,1
474,327,22,0.0768189654114909,1
474,328,22,0.0895557316496282,1
474,329,22,0.0722031546374087,1
475,326,22,0.0810589057993293,1
475,327,22,0.0998942936415994,1
475,328,22,0.104904315494217,1
475,329,22,0.0735968915174047,1
476,326,22,0.094055999656139,1
476,327,22,0.101880389360319,1
476,328,22,0.0891662584834387,1
477,326,22,0.0773549365045473,1
477,327,22,0.0739464488202922,1
474,327,23,0.073940788482534,1
474,328,23,0.0807654127942369,1
475,326,23,0.0824835020022142,1
475,327,23,0.102328184969631,1
475,328,23,0.103521923248839,1
475,329,23,0.0753843902427805,1
476,326,23,0.0948543049426285,1
476,327,23,0.108607673831908,1
476,328,23,0.0962205307841871,1
477,326,23,0.0787149629285612,1
477,327,23,0.0805907449536382,1
474,328,24,0.0702007727193619,1
475,326,24,0.0751601031027228,1
475,327,24,0.0930056925387907,1
475,328,24,0.0917518588429402,1
475,329,24,0.0716150665085494,1
476,326,24,0.0865004490414826,1
476,327,24,0.102883221517803,1
476,328,24,0.0920978282703599,1
477,326,24,0.0745582384904309,1
477,327,24,0.0798801659177371,1
477,328,24,0.0685695951525179,1
475,327,25,0.0770910389797333,1
475,328,25,0.0752453076578656,1
476,326,25,0.07446981143612,1
476,327,25,0.0880158262804127,1
476,328,25,0.0813305301344163,1
477,327,25,0.0727320757648129,1
480,319,25,0.0678619511065655,1
476,327,26,0.0737270014187622,1
476,328,26,0.070463106912795,1
