x,y,z,signal,cytoplasm.p
493,645,1,0.067887958711376,1
493,646,1,0.0720769321002893,1
493,647,1,0.0775040100348384,1
493,648,1,0.0711455220247396,1
494,644,1,0.0707708855322294,1
494,645,1,0.0758014043962843,1
494,646,1,0.0888163537735777,1
494,647,1,0.104707563351698,1
494,648,1,0.0953866821704416,1
495,632,1,0.0684164964931542,1
495,645,1,0.077508346632232,1
495,646,1,0.101412743635313,1
495,647,1,0.12884413003927,1
495,648,1,0.11745562630625,1
495,649,1,0.0849825740662084,1
496,631,1,0.0695641314710658,1
496,632,1,0.0700971915332752,1
496,646,1,0.0849565904204995,1
496,647,1,0.107151176085213,1
496,648,1,0.101117914910305,1
496,649,1,0.0779936741742352,1
497,631,1,0.0684976040419196,1
497,632,1,0.0719694336010875,1
497,647,1,0.068262828805127,1
497,648,1,0.0695469348258767,1
498,631,1,0.0706913952228235,1
498,632,1,0.0760579884053282,1
498,633,1,0.0688619261411816,1
499,631,1,0.069868819366391,1
499,632,1,0.0737382142783212,1
504,620,1,0.0700565688764753,1
505,620,1,0.0707145936229688,1
506,620,1,0.068175300217127,1
507,620,1,0.0685027432692175,1
507,621,1,0.0686539970777563,1
508,620,1,0.0685298889313551,1
508,621,1,0.0746796093094719,1
508,622,1,0.0687647899534312,1
509,621,1,0.069239904928368,1
526,619,1,0.0744869122449027,1
526,620,1,0.0834515874725716,1
527,619,1,0.103215031116164,1
527,620,1,0.11794475136586,1
527,621,1,0.0865727456306266,1
528,619,1,0.101670759200678,1
528,620,1,0.114534568575166,1
528,621,1,0.0841150988533366,1
529,619,1,0.0700282791672353,1
529,620,1,0.0764657124171782,1
542,646,1,0.0734834331916743,1
542,647,1,0.0839745607529981,1
543,645,1,0.0720496366937666,1
543,646,1,0.112971788253677,1
543,647,1,0.130481483064557,1
543,648,1,0.0958737347677616,1
544,645,1,0.0785544968454488,1
544,646,1,0.119639989580666,1
544,647,1,0.136597031773986,1
544,648,1,0.100393295840853,1
545,645,1,0.0680627163986059,1
545,646,1,0.0863579942130144,1
545,647,1,0.0945620398414942,1
545,648,1,0.0769018519235517,1
546,645,1,0.072432311464871,1
546,646,1,0.0774292935764307,1
546,647,1,0.0774022916689028,1
546,648,1,0.070550132359661,1
547,645,1,0.0922444939109381,1
547,646,1,0.103824598579628,1
547,647,1,0.0965579048838999,1
547,648,1,0.0805916973279276,1
493,647,2,0.0695826638361703,1
494,646,2,0.0757262506842719,1
494,647,2,0.0894957141000655,1
494,648,2,0.0808726537330964,1
495,645,2,0.0681449859637999,1
495,646,2,0.0868023457014688,1
495,647,2,0.112034843625652,1
495,648,2,0.103037925436976,1
495,649,2,0.0790794227926575,1
496,646,2,0.0706936413886005,1
496,647,2,0.0913797859743036,1
496,648,2,0.0899190594461729,1
496,649,2,0.075601142245378,1
508,620,2,0.0696448916128577,1
508,621,2,0.0701524112727381,1
527,619,2,0.0829713093112353,1
527,620,2,0.096901442462505,1
527,621,2,0.0709144304998214,1
528,619,2,0.0837671767591347,1
528,620,2,0.0972195294854122,1
528,621,2,0.0714381105737457,1
540,623,2,0.112913100434254,1
540,624,2,0.0837284348918122,1
541,624,2,0.114334917381351,1
541,625,2,0.070822643181508,1
543,646,2,0.0883985968879235,1
543,647,2,0.102877926556345,1
543,648,2,0.0744061281440092,1
544,646,2,0.0985495531244202,1
544,647,2,0.112865074415053,1
544,648,2,0.0809859024166875,1
545,646,2,0.071476079760041,1
545,647,2,0.0793594268235368,1
546,646,2,0.0702465286136842,1
546,647,2,0.0743528371122267,1
546,648,2,0.0683367546131813,1
547,645,2,0.0782707791538182,1
547,646,2,0.0889417497216911,1
547,647,2,0.0881931475915161,1
547,648,2,0.0764064316099903,1
494,646,3,0.071912153378885,1
494,647,3,0.0803793058818253,1
494,648,3,0.0767551443545456,1
494,649,3,0.0687016277717805,1
495,646,3,0.0782337024440584,1
495,647,3,0.0947620564116089,1
495,648,3,0.0938052436985646,1
495,649,3,0.083312612703614,1
495,650,3,0.0733118201365324,1
496,647,3,0.0811693033498274,1
496,648,3,0.0864691584547645,1
496,649,3,0.0826911615257463,1
496,650,3,0.0750015178090877,1
498,630,3,0.0694947159638919,1
508,620,3,0.0705561341146173,1
540,623,3,0.118565244179663,1
540,624,3,0.0911897244109128,1
541,624,3,0.138093181833864,1
541,625,3,0.0859252029910926,1
543,647,3,0.0694280916920569,1
544,646,3,0.0708133889785066,1
544,647,3,0.0777910580415945,1
547,646,3,0.0753902542329024,1
547,647,3,0.0791118753958044,1
547,648,3,0.0718797187450644,1
494,649,4,0.0697714735365014,1
495,647,4,0.0748705753289489,1
495,648,4,0.0795977180584924,1
495,649,4,0.0855461400545578,1
495,650,4,0.0826138754536895,1
496,647,4,0.0697343908369662,1
496,648,4,0.0784604993000109,1
496,649,4,0.0870644822323136,1
496,650,4,0.0826227702701667,1
496,651,4,0.0736497393058071,1
496,652,4,0.0692422708896532,1
496,653,4,0.0714943964932309,1
498,630,4,0.0758782232658594,1
499,630,4,0.0707564142348498,1
505,659,4,0.0742672671807843,1
506,659,4,0.0704705881422764,1
540,623,4,0.103721873931424,1
540,624,4,0.0877706827423933,1
541,624,4,0.147838786009571,1
541,625,4,0.0931812828048019,1
542,625,4,0.0935907678106211,1
547,647,4,0.0678536792267305,1
494,649,5,0.0742624693706845,1
495,648,5,0.07364793638341,1
495,649,5,0.0874422933057887,1
495,650,5,0.0896560903365468,1
495,651,5,0.0799403152423588,1
496,648,5,0.0754401490620299,1
496,649,5,0.0879423976237171,1
496,650,5,0.0867150087862817,1
496,651,5,0.0775286040526533,1
496,652,5,0.0699498131094237,1
496,653,5,0.0720385017012879,1
497,649,5,0.0678946612700547,1
497,650,5,0.0683702733963502,1
497,651,5,0.068676446755976,1
497,652,5,0.0711192987880145,1
497,653,5,0.0746531165328535,1
498,630,5,0.0729737033046693,1
505,658,5,0.0699959164107196,1
505,659,5,0.0803805337857834,1
506,659,5,0.0723476459895147,1
540,623,5,0.080331483514988,1
540,624,5,0.074337359532579,1
541,624,5,0.129702057550145,1
541,625,5,0.0847118961156354,1
542,625,5,0.0885121031318571,1
488,637,6,0.0678716305836207,1
492,649,6,0.0694708467089011,1
493,648,6,0.0686953924155835,1
493,649,6,0.0780589687159302,1
494,625,6,0.0941707338040307,1
494,649,6,0.0822963275105688,1
494,650,6,0.0845544368997766,1
495,625,6,0.110304098022243,1
495,626,6,0.0982336463797606,1
495,648,6,0.073968161756137,1
495,649,6,0.0895047466813769,1
495,650,6,0.0946500296422005,1
495,651,6,0.0807141762554186,1
496,625,6,0.107622799021089,1
496,648,6,0.0738616036516738,1
496,649,6,0.0854518070816971,1
496,650,6,0.087922068325991,1
496,651,6,0.0800469931423301,1
496,652,6,0.0726343765381743,1
496,653,6,0.0699664407259493,1
497,649,6,0.0678828314636289,1
497,650,6,0.0718940283185081,1
497,651,6,0.0735399527124003,1
497,652,6,0.072989875698264,1
497,653,6,0.0701458824175462,1
505,659,6,0.0724725867146973,1
492,649,7,0.0724067830420929,1
493,625,7,0.0919334209150307,1
493,648,7,0.0693622460910246,1
493,649,7,0.0792739287693992,1
493,650,7,0.0753951598589595,1
494,624,7,0.119513713135568,1
494,625,7,0.143508142452768,1
494,626,7,0.117511642685842,1
494,648,7,0.0704192138386238,1
494,649,7,0.084644511142324,1
494,650,7,0.0856373164157797,1
495,624,7,0.134312052252309,1
495,625,7,0.162412568446362,1
495,626,7,0.130849722476934,1
495,627,7,0.0819171926967291,1
495,635,7,0.0682573301913048,1
495,648,7,0.0729803579451448,1
495,649,7,0.0864765258785132,1
495,650,7,0.0894009858020281,1
495,651,7,0.0767862971764295,1
496,624,7,0.116987201910441,1
496,625,7,0.13691071631197,1
496,626,7,0.115097068383493,1
496,635,7,0.0780962251189521,1
496,636,7,0.0784867345162868,1
496,648,7,0.071527813450218,1
496,649,7,0.0803263922058934,1
496,650,7,0.0835406314737493,1
496,651,7,0.0800210873637015,1
496,652,7,0.0764494381974015,1
496,653,7,0.0688518034207464,1
497,625,7,0.0951815623116815,1
497,627,7,0.0746866233364716,1
497,628,7,0.0728578430790014,1
497,629,7,0.078034075209345,1
497,630,7,0.0726367484892349,1
497,635,7,0.0729664856253057,1
497,636,7,0.0743165570425958,1
497,649,7,0.0697200033964422,1
497,650,7,0.0753605509366667,1
497,651,7,0.0769174492987075,1
497,652,7,0.0761441333552096,1
497,653,7,0.0699730594277723,1
498,629,7,0.0724559950368242,1
463,620,8,0.0696693718249398,1
463,621,8,0.0686641497470686,1
491,649,8,0.0693530457960019,1
492,649,8,0.0715490651733566,1
493,624,8,0.0927851909367894,1
493,625,8,0.116564215950858,1
493,626,8,0.0996091683527485,1
493,648,8,0.0686341769109396,1
493,649,8,0.0778066913554028,1
493,650,8,0.0732277596284921,1
494,623,8,0.0800893348646713,1
494,624,8,0.15283368367929,1
494,625,8,0.204845838514888,1
494,626,8,0.167006522529989,1
494,627,8,0.0946495384806173,1
494,648,8,0.0736480861277952,1
494,649,8,0.0882096194738811,1
494,650,8,0.0863143886480627,1
495,623,8,0.0902053108128001,1
495,624,8,0.172017628531955,1
495,625,8,0.226862863277482,1
495,626,8,0.181980793329939,1
495,627,8,0.102446902318168,1
495,634,8,0.068368099107878,1
495,635,8,0.0783365528775456,1
495,636,8,0.0751367369888661,1
495,648,8,0.074548061862017,1
495,649,8,0.0856459896105668,1
495,650,8,0.0839537223243625,1
495,651,8,0.0715323057817721,1
496,623,8,0.0862572282213683,1
496,624,8,0.134511272182295,1
496,625,8,0.164571355379796,1
496,626,8,0.135307337292783,1
496,627,8,0.0869602541504831,1
496,634,8,0.0772402562646342,1
496,635,8,0.095822480259617,1
496,636,8,0.0960844550665258,1
496,637,8,0.0744690327653173,1
496,649,8,0.0782391591294528,1
496,650,8,0.0786478415053676,1
496,651,8,0.0779613233972703,1
496,652,8,0.0778072663738417,1
497,624,8,0.0872744717784784,1
497,625,8,0.096326004739302,1
497,626,8,0.0905266383042016,1
497,627,8,0.075735912192001,1
497,628,8,0.0742928555013164,1
497,629,8,0.0811815823894086,1
497,630,8,0.0769131306706402,1
497,634,8,0.07168110977217,1
497,635,8,0.0866824303978514,1
497,636,8,0.0880183599554092,1
497,637,8,0.0699540538704108,1
497,650,8,0.0764682341126239,1
497,651,8,0.076327660073633,1
497,652,8,0.0760847267627382,1
497,653,8,0.0703122364498822,1
498,625,8,0.0777384139055559,1
498,626,8,0.0803595635820889,1
498,627,8,0.0749311319582981,1
498,628,8,0.0729707922738222,1
498,629,8,0.0755948829300793,1
498,630,8,0.0713239754033946,1
499,626,8,0.0699879619889811,1
499,627,8,0.0681553003570481,1
503,625,8,0.0735782273772412,1
504,658,8,0.0716340241477077,1
520,669,8,0.0801198707396884,1
462,620,9,0.0752640496651093,1
462,621,9,0.0692663497867832,1
463,620,9,0.0766813024033471,1
463,621,9,0.0761673018064779,1
464,622,9,0.070773730675547,1
465,622,9,0.0687625138387771,1
465,623,9,0.069826525562253,1
493,624,9,0.0959577653269248,1
493,625,9,0.124516229799602,1
493,626,9,0.106831801260594,1
493,649,9,0.0733880220592407,1
493,650,9,0.0690386963929477,1
494,623,9,0.0829979638117896,1
494,624,9,0.163949317203938,1
494,625,9,0.229813833946942,1
494,626,9,0.189196615863149,1
494,627,9,0.107189414811402,1
494,648,9,0.0746263661958927,1
494,649,9,0.0867155239069666,1
494,650,9,0.0847346752315024,1
495,623,9,0.0978817770235666,1
495,624,9,0.192447758137278,1
495,625,9,0.264034690670748,1
495,626,9,0.213224959288695,1
495,627,9,0.118936861825369,1
495,634,9,0.0701475236160073,1
495,635,9,0.0809552826848148,1
495,636,9,0.0773123611809652,1
495,648,9,0.0727983047114711,1
495,649,9,0.0820326755665465,1
495,650,9,0.0806885879348865,1
495,651,9,0.0698031594483963,1
496,623,9,0.0919344271972988,1
496,624,9,0.143509040919079,1
496,625,9,0.180693902063626,1
496,626,9,0.147747441934638,1
496,627,9,0.0932675295808652,1
496,634,9,0.0812287398911758,1
496,635,9,0.102316001766457,1
496,636,9,0.101524476905726,1
496,637,9,0.0763010115628541,1
496,648,9,0.0718671521962638,1
496,649,9,0.0771893731225648,1
496,650,9,0.0766331446090871,1
496,651,9,0.07684125935555,1
496,652,9,0.0767014340384848,1
497,624,9,0.090885869094369,1
497,625,9,0.0996138104286877,1
497,626,9,0.0939166235722292,1
497,627,9,0.0817129114065258,1
497,628,9,0.0774844354488134,1
497,629,9,0.0781584349263133,1
497,630,9,0.0747785783684963,1
497,634,9,0.0740597993300652,1
497,635,9,0.0913935265190837,1
497,636,9,0.0912528027357077,1
497,637,9,0.0688171585598012,1
497,649,9,0.0732001168149959,1
497,650,9,0.0718796348882088,1
497,651,9,0.0705417945922966,1
497,652,9,0.071794430333066,1
498,624,9,0.0787290089518871,1
498,625,9,0.082398674802922,1
498,626,9,0.0876450891316915,1
498,627,9,0.0886086822704948,1
498,628,9,0.0843799846910924,1
498,629,9,0.0773283239324208,1
498,630,9,0.0726063503790522,1
498,635,9,0.0693139505319304,1
498,648,9,0.0699508014223656,1
499,625,9,0.0703581840170175,1
499,626,9,0.076878132412946,1
499,627,9,0.0813958246761113,1
499,628,9,0.0746551231076143,1
499,647,9,0.069367481154729,1
499,648,9,0.0756198902423971,1
499,649,9,0.0716640688611415,1
500,648,9,0.0740261547616127,1
500,649,9,0.0684117825399101,1
502,625,9,0.0709013308610096,1
502,626,9,0.0684805631308911,1
503,625,9,0.0783236209524452,1
503,626,9,0.07351158513608,1
519,669,9,0.0814573875877286,1
520,669,9,0.0839230426947357,1
520,670,9,0.0783842374795485,1
548,648,9,0.0689644710961232,1
549,647,9,0.121189808028177,1
549,648,9,0.142445316704822,1
550,647,9,0.165247421329811,1
550,648,9,0.189992848687348,1
462,620,10,0.0792821527310309,1
462,621,10,0.0748579369028434,1
463,620,10,0.0752995271048358,1
463,621,10,0.075257221321147,1
464,622,10,0.0785616126986305,1
464,623,10,0.0805472651739699,1
465,622,10,0.0843469450899559,1
465,623,10,0.0932487216860921,1
465,624,10,0.0687241014091018,1
466,623,10,0.0704625438739069,1
467,625,10,0.0689259748095922,1
467,626,10,0.0679529238154237,1
468,625,10,0.0695859282637663,1
468,626,10,0.0700201031238068,1
469,631,10,0.0692203722707708,1
469,632,10,0.0752211988118586,1
470,632,10,0.0696895034600776,1
485,637,10,0.0684567897123068,1
489,636,10,0.068832977556647,1
493,624,10,0.0900543804521332,1
493,625,10,0.1179061891918,1
493,626,10,0.106018928840318,1
493,649,10,0.0697277122373891,1
494,623,10,0.0805301763447381,1
494,624,10,0.154217573368519,1
494,625,10,0.2231138388921,1
494,626,10,0.194288571853537,1
494,627,10,0.119675257378253,1
494,635,10,0.0683781619305592,1
494,648,10,0.0701364664906088,1
494,649,10,0.0798532838057174,1
494,650,10,0.0777509924339074,1
495,623,10,0.0990300768665482,1
495,624,10,0.191821383364027,1
495,625,10,0.271455615093391,1
495,626,10,0.230333962084051,1
495,627,10,0.137796232728363,1
495,628,10,0.0745122250357661,1
495,634,10,0.0703960873157833,1
495,635,10,0.0790173507501307,1
495,636,10,0.0768477942005174,1
495,637,10,0.0683155747673475,1
495,648,10,0.0689514493243917,1
495,649,10,0.0788001075859499,1
495,650,10,0.0792323237894328,1
495,651,10,0.0695168661533413,1
496,623,10,0.0919746545289219,1
496,624,10,0.144281350580309,1
496,625,10,0.189034352847415,1
496,626,10,0.160198268274469,1
496,627,10,0.104399569100349,1
496,628,10,0.0707398105774258,1
496,634,10,0.0790968710084137,1
496,635,10,0.0960877254838972,1
496,636,10,0.0945498865871966,1
496,637,10,0.0728250011404532,1
496,648,10,0.0726515432344864,1
496,649,10,0.07823860208034,1
496,650,10,0.0776022902696913,1
496,651,10,0.0751528614642576,1
496,652,10,0.0721976440440357,1
497,624,10,0.0953937141667676,1
497,625,10,0.109923914997708,1
497,626,10,0.103045616308596,1
497,627,10,0.0890630726225288,1
497,628,10,0.0792335996115942,1
497,629,10,0.0729967699297557,1
497,630,10,0.0686706786022605,1
497,634,10,0.0714387095512863,1
497,635,10,0.0877266698727139,1
497,636,10,0.0869095566914512,1
497,649,10,0.0754969261430983,1
497,650,10,0.0700135862481657,1
498,623,10,0.0701642171200623,1
498,624,10,0.0830805388555293,1
498,625,10,0.0904443088412535,1
498,626,10,0.0940882605864728,1
498,627,10,0.0976337524035771,1
498,628,10,0.0897464700576398,1
498,629,10,0.0744247503557447,1
498,630,10,0.0681039560022725,1
498,635,10,0.0690005415236149,1
498,647,10,0.0708135147637901,1
498,648,10,0.0784005296686514,1
498,649,10,0.0812289974515183,1
499,624,10,0.06908711174755,1
499,625,10,0.0741084063574805,1
499,626,10,0.0806025388214115,1
499,627,10,0.08905592682047,1
499,628,10,0.0799323069126417,1
499,647,10,0.0741096222818878,1
499,648,10,0.0895320900061029,1
499,649,10,0.0976942131965198,1
499,650,10,0.0893800395574351,1
500,648,10,0.0908004668766378,1
500,649,10,0.102372844735055,1
500,650,10,0.0930188820242336,1
500,651,10,0.0729165788166274,1
501,649,10,0.071523027619669,1
501,650,10,0.0702520152479556,1
502,625,10,0.068315670603754,1
503,625,10,0.0718427079228341,1
503,626,10,0.0694754109177601,1
519,669,10,0.0729333382082119,1
520,669,10,0.0730423521205913,1
520,670,10,0.0680317971779628,1
547,659,10,0.0697188952879922,1
547,660,10,0.0692613123856672,1
548,647,10,0.0729955899440009,1
548,648,10,0.0921352104586654,1
548,649,10,0.0677974831538765,1
549,646,10,0.0822770464235387,1
549,647,10,0.178300112281934,1
549,648,10,0.23382073014308,1
549,649,10,0.155855285780331,1
550,646,10,0.110060290204139,1
550,647,10,0.24615439647598,1
550,648,10,0.316072230174514,2
550,649,10,0.20405434959281,1
551,647,10,0.184666620601301,1
551,648,10,0.227624043936009,1
462,620,11,0.0769433610671116,1
462,621,11,0.0775405836034642,1
463,620,11,0.0704475334967408,1
463,621,11,0.0726267515540832,1
464,622,11,0.0814988248539836,1
464,623,11,0.0909096784516057,1
464,624,11,0.0690284478872289,1
465,622,11,0.0926859822867487,1
465,623,11,0.110385031867522,1
465,624,11,0.082365731038192,1
466,623,11,0.0795738428137262,1
467,625,11,0.0745136386227618,1
467,626,11,0.071828200686802,1
468,625,11,0.0759047280220286,1
468,626,11,0.0738369617156557,1
469,631,11,0.079652961757057,1
469,632,11,0.087818882465081,1
470,631,11,0.0743410312649026,1
470,632,11,0.0812593716025994,1
473,621,11,0.0680407878308464,1
473,622,11,0.0762884270447272,1
474,622,11,0.0682326822655113,1
484,635,11,0.0711582443077008,1
484,636,11,0.0825935221968618,1
484,637,11,0.0719955070934275,1
485,635,11,0.0702567112318735,1
485,636,11,0.080994108408993,1
485,637,11,0.0735928364394552,1
489,636,11,0.0719333212451679,1
492,634,11,0.0737944283205015,1
493,624,11,0.0826144384925777,1
493,625,11,0.105458765044399,1
493,626,11,0.101289977198602,1
493,633,11,0.0691542511400699,1
493,634,11,0.0767777976851291,1
493,635,11,0.073291856215106,1
494,623,11,0.0735983829714806,1
494,624,11,0.13020292256955,1
494,625,11,0.18908923116968,1
494,626,11,0.179318961098853,1
494,627,11,0.125486142151458,1
494,628,11,0.0751392287354348,1
494,634,11,0.0710885592606336,1
494,635,11,0.0747722172270157,1
494,636,11,0.0752196354804777,1
494,637,11,0.0751721185921862,1
494,638,11,0.0710520935079652,1
494,649,11,0.0690442668840748,1
495,623,11,0.0894970737790825,1
495,624,11,0.166421357411528,1
495,625,11,0.237935466255618,1
495,626,11,0.216681083656749,1
495,627,11,0.144694537267328,1
495,628,11,0.0855578800143525,1
495,634,11,0.070973160247672,1
495,635,11,0.0774136363035208,1
495,636,11,0.079327004169267,1
495,637,11,0.0760186655297913,1
495,638,11,0.0686639880231326,1
495,649,11,0.0733559827505969,1
495,650,11,0.074649917992787,1
496,623,11,0.083485747161709,1
496,624,11,0.135730419088772,1
496,625,11,0.182393381039419,1
496,626,11,0.1626310395145,1
496,627,11,0.11375862911004,1
496,628,11,0.0795592038026353,1
496,634,11,0.0754732545506959,1
496,635,11,0.0859174522217179,1
496,636,11,0.086462917108792,1
496,637,11,0.0714517972105472,1
496,648,11,0.0706214765745155,1
496,649,11,0.0772596212085201,1
496,650,11,0.0774125042359692,1
496,651,11,0.0718301234047072,1
497,623,11,0.0735976162802287,1
497,624,11,0.101657737428947,1
497,625,11,0.124493253021147,1
497,626,11,0.115170850436937,1
497,627,11,0.0945363137561278,1
497,628,11,0.0796180114175661,1
497,629,11,0.0709226065432498,1
497,634,11,0.0705301864075608,1
497,635,11,0.0843178946792394,1
497,636,11,0.0864965676670199,1
497,649,11,0.0773299471615557,1
497,650,11,0.0713838132596952,1
498,624,11,0.0858806809905038,1
498,625,11,0.10268492401323,1
498,626,11,0.103796147146452,1
498,627,11,0.100355626143328,1
498,628,11,0.0872414561364434,1
498,629,11,0.072178207222845,1
498,635,11,0.0677776270484074,1
498,636,11,0.07143448076985,1
498,646,11,0.0679801054162137,1
498,647,11,0.0730937204344686,1
498,648,11,0.0802484652278683,1
499,625,11,0.0783188111627946,1
499,626,11,0.084874284916653,1
499,627,11,0.0898530281621031,1
499,628,11,0.0777966225429462,1
499,646,11,0.0698481546412422,1
499,647,11,0.0765174341278044,1
499,648,11,0.0911767445676091,1
499,649,11,0.113037987251458,1
499,650,11,0.115633728300721,1
500,648,11,0.0878200504712851,1
500,649,11,0.12149740695435,1
500,650,11,0.135336243948889,1
500,651,11,0.110917678635228,1
501,649,11,0.0886566543817172,1
501,650,11,0.107438625406921,1
501,651,11,0.094356991860039,1
547,659,11,0.0737716252455329,1
547,660,11,0.0754017306425793,1
548,647,11,0.0776666144677706,1
548,648,11,0.0993188559183965,1
548,649,11,0.0708012956219629,1
548,659,11,0.0723416681936601,1
548,660,11,0.0708136046104212,1
549,646,11,0.0891253483174194,1
549,647,11,0.20255197016651,1
549,648,11,0.266639068976145,2
549,649,11,0.168818561365201,1
550,646,11,0.119008978721251,1
550,647,11,0.281184376020658,2
550,648,11,0.365812523096574,2
550,649,11,0.224553972572387,2
551,647,11,0.189893478313371,1
551,648,11,0.241574302732641,2
462,620,12,0.0689000630411882,1
462,621,12,0.073825886620931,1
463,621,12,0.0678548352533838,1
464,622,12,0.0730699769647613,1
464,623,12,0.0860271908969214,1
464,624,12,0.0678838317561216,1
465,622,12,0.0852521738572084,1
465,623,12,0.106744973476316,1
465,624,12,0.0814546502603684,1
466,623,12,0.0750078490016913,1
467,625,12,0.0692264998110106,1
468,625,12,0.0750548088408702,1
468,626,12,0.0713465748259994,1
469,631,12,0.0747473117408798,1
469,632,12,0.0818399425633249,1
470,631,12,0.0703763869444747,1
470,632,12,0.075349727412509,1
473,622,12,0.0710764239756621,1
483,636,12,0.0713175363948337,1
484,635,12,0.0944611899929924,1
484,636,12,0.103821759426086,1
484,637,12,0.0770956930352233,1
485,635,12,0.0882900681473519,1
485,636,12,0.094461094156586,1
485,637,12,0.0730387882042251,1
487,639,12,0.0688413931910917,1
489,635,12,0.0681905621648601,1
489,636,12,0.0705915516565898,1
491,634,12,0.074820261215543,1
492,633,12,0.0887414875707848,1
492,634,12,0.0986474799625241,1
492,635,12,0.0779048517947476,1
493,625,12,0.0911941029367342,1
493,626,12,0.0909828675172851,1
493,633,12,0.0917378128196144,1
493,634,12,0.100815946373014,1
493,635,12,0.0855079133079201,1
493,636,12,0.0726329509716278,1
493,637,12,0.0682984679687895,1
494,624,12,0.102918968497423,1
494,625,12,0.15115433034886,1
494,626,12,0.158210201919642,1
494,627,12,0.123139695554571,1
494,628,12,0.0791213871591482,1
494,633,12,0.068886454271467,1
494,634,12,0.0782677303581368,1
494,635,12,0.0796135610144399,1
494,636,12,0.083102988533749,1
494,637,12,0.0836712864446687,1
494,638,12,0.0737655336439455,1
495,623,12,0.0771290321251301,1
495,624,12,0.132362919437617,1
495,625,12,0.192941111978324,1
495,626,12,0.193914546318119,1
495,627,12,0.145348189477776,1
495,628,12,0.0925060614131193,1
495,634,12,0.0680240344290374,1
495,635,12,0.0743368444118941,1
495,636,12,0.0813905536737545,1
495,637,12,0.0811207442406153,1
495,638,12,0.0694895587672678,1
495,650,12,0.0677964349431805,1
496,623,12,0.0785431222619539,1
496,624,12,0.128858349766082,1
496,625,12,0.173800041938011,1
496,626,12,0.16320894502517,1
496,627,12,0.120562834277386,1
496,628,12,0.085504499135939,1
496,634,12,0.0697327316691789,1
496,635,12,0.0742035299806947,1
496,636,12,0.0765205787598922,1
496,649,12,0.0726951008812349,1
496,650,12,0.0730210884179019,1
497,623,12,0.0764090731009441,1
497,624,12,0.11937488212122,1
497,625,12,0.147573462918211,1
497,626,12,0.131210378833648,1
497,627,12,0.0957770058847387,1
497,628,12,0.0760879432721309,1
497,635,12,0.0761201023762829,1
497,636,12,0.0819293758999039,1
497,650,12,0.0699693876954488,1
498,624,12,0.10129009699411,1
498,625,12,0.126771643789878,1
498,626,12,0.120177116700376,1
498,627,12,0.096162885185685,1
498,628,12,0.0788909425299738,1
498,629,12,0.0682942272078025,1
498,636,12,0.0716884712061433,1
498,646,12,0.0710570410624501,1
498,647,12,0.0758950126063209,1
498,648,12,0.0812766880432966,1
499,625,12,0.0869813681087874,1
499,626,12,0.0913505259214479,1
499,627,12,0.0839165497781962,1
499,628,12,0.0720136501231306,1
499,646,12,0.0740724257766199,1
499,647,12,0.0815917622091748,1
499,648,12,0.0925672230097845,1
499,649,12,0.118355098899338,1
499,650,12,0.127602473556819,1
500,627,12,0.0686730685226473,1
500,648,12,0.0813933568886442,1
500,649,12,0.125414204948839,1
500,650,12,0.157144860466026,1
500,651,12,0.129869843138803,1
501,649,12,0.0908349739727487,1
501,650,12,0.123581082104199,1
501,651,12,0.108342206985937,1
547,660,12,0.0708759162439642,1
548,647,12,0.0815750387562428,1
548,648,12,0.0980899097393556,1
548,649,12,0.0686702173895543,1
548,659,12,0.0678513012858946,1
548,660,12,0.0693862351415235,1
549,646,12,0.0928125342615153,1
549,647,12,0.203217577968667,1
549,648,12,0.25336934450198,1
549,649,12,0.154079281433958,1
550,647,12,0.28375262400081,1
550,648,12,0.350883415203181,2
550,649,12,0.206464659175071,1
551,648,12,0.216756147522131,1
464,623,13,0.0701780535012489,1
465,622,13,0.0696118040935179,1
465,623,13,0.0852105568976912,1
465,624,13,0.070678535175028,1
483,635,13,0.071626938243403,1
483,636,13,0.0725343952071063,1
484,635,13,0.0976290564196592,1
484,636,13,0.102154745032991,1
484,637,13,0.0723712756534893,1
485,635,13,0.0867310194559406,1
485,636,13,0.0892246108754387,1
487,638,13,0.0684692664144764,1
487,639,13,0.0743092255574995,1
490,635,13,0.070321436744905,1
491,633,13,0.0697781221872015,1
491,634,13,0.0909288517226786,1
491,635,13,0.0867004775911481,1
491,636,13,0.0711264805287256,1
492,633,13,0.108942214767854,1
492,634,13,0.12882921549851,1
492,635,13,0.104120014302625,1
492,636,13,0.0741240815997166,1
493,625,13,0.0784783727898208,1
493,626,13,0.0791777150070612,1
493,632,13,0.0692402822842186,1
493,633,13,0.112090871984795,1
493,634,13,0.125715047408354,1
493,635,13,0.100479027496232,1
493,636,13,0.0793826791316608,1
493,637,13,0.0712826399633215,1
494,624,13,0.0815779018688866,1
494,625,13,0.115089006145797,1
494,626,13,0.129560099873036,1
494,627,13,0.1107857837808,1
494,628,13,0.0757561875817485,1
494,633,13,0.0782090844671419,1
494,634,13,0.0880741547133111,1
494,635,13,0.0853663988741906,1
494,636,13,0.0893725882768307,1
494,637,13,0.0877579245207796,1
494,638,13,0.0734407141134826,1
495,624,13,0.104626258140344,1
495,625,13,0.147841050144675,1
495,626,13,0.161130672652736,1
495,627,13,0.134595057160666,1
495,628,13,0.0916748842392046,1
495,635,13,0.0744556755661632,1
495,636,13,0.0857646650306753,1
495,637,13,0.084197344459429,1
495,638,13,0.0692209832278622,1
496,623,13,0.0851067840387915,1
496,624,13,0.131381003575848,1
496,625,13,0.164285319645083,1
496,626,13,0.15130959730692,1
496,627,13,0.115850809740966,1
496,628,13,0.0843340191546309,1
496,636,13,0.0728693913659831,1
496,649,13,0.06859518347305,1
497,623,13,0.0956901661209103,1
497,624,13,0.154856011549437,1
497,625,13,0.180542851907451,1
497,626,13,0.143002833020012,1
497,627,13,0.0921898252308124,1
497,628,13,0.0714478080201272,1
497,635,13,0.0688599854539502,1
497,636,13,0.0769765743717349,1
497,650,13,0.0679099591564403,1
498,623,13,0.0800390207512654,1
498,624,13,0.13508290040834,1
498,625,13,0.166185695687975,1
498,626,13,0.136500740144567,1
498,627,13,0.0882875524416816,1
498,628,13,0.0692959991750402,1
498,636,13,0.0726684883091085,1
498,646,13,0.0743806117007819,1
498,647,13,0.0763695345934926,1
499,624,13,0.0815000886965942,1
499,625,13,0.104398526879429,1
499,626,13,0.0994389868539284,1
499,627,13,0.0787131180777364,1
499,646,13,0.0792331743375404,1
499,647,13,0.0833230349128195,1
499,648,13,0.0920089999010968,1
499,649,13,0.116570936478863,1
500,628,13,0.0750848475645286,1
500,648,13,0.0777980181606157,1
500,649,13,0.121137876675412,1
500,650,13,0.159166253931209,1
501,626,13,0.0933429288736692,1
501,627,13,0.111196598516759,1
501,628,13,0.0891709784264582,1
501,649,13,0.085604540364761,1
501,650,13,0.120658395154205,1
501,651,13,0.107752010456135,1
502,626,13,0.0903039204853002,1
502,627,13,0.104232538223392,1
502,628,13,0.0830108777675637,1
503,627,13,0.0720637006864187,1
548,647,13,0.0833429209671657,1
548,648,13,0.0944803213356375,1
548,649,13,0.0679857358050948,1
549,646,13,0.0936523546813401,1
549,647,13,0.181101554198171,1
549,648,13,0.212586832576098,1
549,649,13,0.131161969468821,1
550,647,13,0.247862153321383,1
550,648,13,0.287923520247549,1
483,635,14,0.0711505893747326,1
483,636,14,0.0693615512770776,1
484,635,14,0.0867757091702407,1
484,636,14,0.0883840417336883,1
485,635,14,0.0736515781668566,1
485,636,14,0.0751615586181464,1
487,639,14,0.0701293266783255,1
490,635,14,0.0813368253883675,1
490,636,14,0.0742420082978994,1
491,633,14,0.0743943043273588,1
491,634,14,0.110852078614988,1
491,635,14,0.116804633556083,1
491,636,14,0.0916855759883034,1
492,633,14,0.119850590083922,1
492,634,14,0.157218534703513,1
492,635,14,0.13652795768401,1
492,636,14,0.0927756432347931,1
493,632,14,0.0694626946245743,1
493,633,14,0.120239757771566,1
493,634,14,0.142497835055577,1
493,635,14,0.11387001497348,1
493,636,14,0.0845758024286479,1
493,637,14,0.0719806404708711,1
494,625,14,0.0900820112860786,1
494,626,14,0.104915684087936,1
494,627,14,0.0960186933223492,1
494,628,14,0.0677882529099766,1
494,633,14,0.0811074469392152,1
494,634,14,0.0916509670660106,1
494,635,14,0.0864582091453233,1
494,636,14,0.091370441924671,1
494,637,14,0.0916127343295975,1
494,638,14,0.0737707806872007,1
495,624,14,0.088456985218576,1
495,625,14,0.116074168465835,1
495,626,14,0.132776621245321,1
495,627,14,0.120319134275239,1
495,628,14,0.0849495584241735,1
495,635,14,0.0722087311183112,1
495,636,14,0.0878007693842549,1
495,637,14,0.0893739779047248,1
495,638,14,0.0717969460387363,1
496,623,14,0.0915772808489726,1
496,624,14,0.134045627042274,1
496,625,14,0.153992142181359,1
496,626,14,0.132870085700748,1
496,627,14,0.104403582249871,1
496,628,14,0.0773534510402467,1
496,636,14,0.070755988960796,1
496,637,14,0.0692952624326653,1
497,623,14,0.112346012457966,1
497,624,14,0.18253550643024,1
497,625,14,0.204358103083172,1
497,626,14,0.143991062105058,1
497,627,14,0.086572529998712,1
497,636,14,0.0681419191987923,1
497,651,14,0.0690914124062912,1
498,623,14,0.091520988939712,1
498,624,14,0.161095536630208,1
498,625,14,0.195822110091497,1
498,626,14,0.140670510313531,1
498,627,14,0.0804536929025857,1
498,636,14,0.071106941881353,1
498,642,14,0.0682033084069229,1
498,646,14,0.0736752377797081,1
499,624,14,0.0874319789125405,1
499,625,14,0.114963819839823,1
499,626,14,0.0990952276536334,1
499,646,14,0.0770294461192389,1
499,647,14,0.0756540199826574,1
499,648,14,0.0860918684917496,1
499,649,14,0.111229003201703,1
500,627,14,0.111081846399541,1
500,628,14,0.0897265780135183,1
500,648,14,0.0741632427513176,1
500,649,14,0.111031364572424,1
500,650,14,0.139294455250532,1
501,626,14,0.121116529115867,1
501,627,14,0.165931417742462,1
501,628,14,0.129921187493579,1
501,629,14,0.0707157915780499,1
501,649,14,0.0757231899090398,1
501,650,14,0.0994833770794584,1
501,651,14,0.0917669890156144,1
502,626,14,0.111758846754519,1
502,627,14,0.152494398841223,1
502,628,14,0.121250544350789,1
503,626,14,0.072920148722769,1
503,627,14,0.0903581638913721,1
503,628,14,0.0768913698165921,1
548,647,14,0.0733781389298217,1
548,648,14,0.0805661928642512,1
549,647,14,0.141078174427627,1
549,648,14,0.159706411877274,1
549,649,14,0.103905652220415,1
481,634,15,0.0684961365469453,1
482,634,15,0.069216874241934,1
484,635,15,0.068188759242463,1
484,636,15,0.0696936783335352,1
490,634,15,0.0682573062322032,1
490,635,15,0.0902886824966687,1
490,636,15,0.0819258958403933,1
491,633,15,0.0738688572696898,1
491,634,15,0.116446480925488,1
491,635,15,0.13079131018718,1
491,636,15,0.102782293802221,1
492,633,15,0.114378391171244,1
492,634,15,0.161846474772791,1
492,635,15,0.149209941436289,1
492,636,15,0.100733574981638,1
493,633,15,0.112742224121487,1
493,634,15,0.144936260643591,1
493,635,15,0.121240205998439,1
493,636,15,0.0854952688920391,1
493,637,15,0.0680189550994935,1
494,627,15,0.077968690821019,1
494,633,15,0.0776944729131814,1
494,634,15,0.0912095565572803,1
494,635,15,0.0848150580174438,1
494,636,15,0.08424470561356,1
494,637,15,0.0864896374968757,1
494,638,15,0.0720819575218545,1
495,624,15,0.0812720160184803,1
495,625,15,0.0945077305478929,1
495,626,15,0.105030040879978,1
495,627,15,0.0985325361724933,1
495,628,15,0.0745157889521324,1
495,636,15,0.0794723640388069,1
495,637,15,0.087936323991456,1
495,638,15,0.0746407716057428,1
496,623,15,0.0920704909354093,1
496,624,15,0.132277948483715,1
496,625,15,0.14126597784569,1
496,626,15,0.114486877983387,1
496,627,15,0.0904977076889932,1
496,628,15,0.0705683592462198,1
496,637,15,0.0692342445906099,1
497,623,15,0.116680369675521,1
497,624,15,0.188001655669758,1
497,625,15,0.203811452220568,1
497,626,15,0.136386203659264,1
497,627,15,0.0815062881141389,1
497,651,15,0.071940191517558,1
498,623,15,0.0964075076132441,1
498,624,15,0.167517426412974,1
498,625,15,0.197475096430592,1
498,626,15,0.133774266257305,1
498,627,15,0.0755228798399302,1
499,624,15,0.0881300213485179,1
499,625,15,0.112479991754236,1
499,626,15,0.0927658259929035,1
499,648,15,0.0822356570754869,1
500,627,15,0.124169266069465,1
500,628,15,0.101717551326146,1
500,629,15,0.0711561718454105,1
500,648,15,0.0719946685248707,1
500,649,15,0.0935536851110859,1
501,626,15,0.137476774046888,1
501,627,15,0.202470605057402,1
501,628,15,0.161264017032813,1
501,629,15,0.0847540880935915,1
501,650,15,0.0724276154809531,1
502,626,15,0.133689211446547,1
502,627,15,0.19896621507913,1
502,628,15,0.159400765617884,1
502,629,15,0.0801258605150938,1
503,626,15,0.0946710537538737,1
503,627,15,0.128446804277524,1
503,628,15,0.104442372035397,1
504,626,15,0.0700919804286724,1
504,627,15,0.0815037903777948,1
504,628,15,0.0706363671561735,1
509,623,15,0.0767472258714596,1
509,624,15,0.0722952474342677,1
510,623,15,0.0789262342866628,1
510,624,15,0.0690831285469054,1
513,620,15,0.0706061487392529,1
513,621,15,0.0679294139469572,1
482,634,16,0.0702430844928261,1
490,634,16,0.0680716830923878,1
490,635,16,0.094817204273767,1
490,636,16,0.0854847748055288,1
491,634,16,0.104526492441191,1
491,635,16,0.121789348607612,1
491,636,16,0.0966374371217337,1
492,633,16,0.100065475432912,1
492,634,16,0.145379635798655,1
492,635,16,0.137333905923917,1
492,636,16,0.0923810967288351,1
493,633,16,0.100460273509437,1
493,634,16,0.13685207641075,1
493,635,16,0.118861750041785,1
493,636,16,0.0802704956218096,1
494,633,16,0.0725732029619583,1
494,634,16,0.0888307891323048,1
494,635,16,0.08200473326428,1
494,636,16,0.0743717408434064,1
494,637,16,0.0748395962105518,1
495,625,16,0.0785066145808576,1
495,626,16,0.0817826383820208,1
495,627,16,0.0767016017521962,1
495,636,16,0.0690105204894404,1
495,637,16,0.080591835092762,1
495,638,16,0.0743490875128229,1
496,624,16,0.116100942761898,1
496,625,16,0.122360114305999,1
496,626,16,0.0983505787752261,1
496,627,16,0.0767442309837569,1
497,623,16,0.100798516126584,1
497,624,16,0.160729118109554,1
497,625,16,0.17405677569144,1
497,626,16,0.120549141650809,1
497,627,16,0.0750096339547622,1
498,624,16,0.141426803315326,1
498,625,16,0.163632458084989,1
498,626,16,0.115329926892156,1
498,627,16,0.0702370108605649,1
499,625,16,0.0934588070686633,1
499,626,16,0.0803171739415444,1
500,627,16,0.11525671985715,1
500,628,16,0.102283525204208,1
500,648,16,0.0708079023442352,1
501,626,16,0.134870383176954,1
501,627,16,0.202692298624709,1
501,628,16,0.167917387675898,1
501,629,16,0.0919667480253867,1
502,626,16,0.163825388750799,1
502,627,16,0.246860207650659,1
502,628,16,0.194990873019828,1
502,629,16,0.0915716324907652,1
503,626,16,0.147577020844802,1
503,627,16,0.208173877525673,1
503,628,16,0.157900350837917,1
503,629,16,0.0749950548414253,1
504,626,16,0.102867983529172,1
504,627,16,0.129501867276544,1
504,628,16,0.0992600303341394,1
505,627,16,0.0689280532616579,1
509,623,16,0.0721126131923797,1
510,623,16,0.0775133780435726,1
512,620,16,0.0684338908009317,1
512,621,16,0.0681234287621156,1
513,619,16,0.0735840434491599,1
513,620,16,0.0954315935064318,1
513,621,16,0.0878317844413044,1
514,619,16,0.0763355545976174,1
514,620,16,0.0960325356933112,1
514,621,16,0.0867441011254261,1
515,620,16,0.0694721704492657,1
490,635,17,0.0876704678100844,1
490,636,17,0.078743677911855,1
491,634,17,0.0812371435460697,1
491,635,17,0.0932263798238297,1
491,636,17,0.0774031901352137,1
492,633,17,0.0795566761174142,1
492,634,17,0.10887154739762,1
492,635,17,0.102517785320316,1
492,636,17,0.0736995981962822,1
493,633,17,0.0836539640141961,1
493,634,17,0.111763219290565,1
493,635,17,0.0993906373868555,1
493,636,17,0.0702835274563638,1
494,634,17,0.0796161905258429,1
494,635,17,0.0731004529420243,1
496,625,17,0.100206738296075,1
496,626,17,0.0835117008585409,1
497,624,17,0.114006270384404,1
497,625,17,0.128044542940844,1
497,626,17,0.0987420645059518,1
497,627,17,0.0682101607099868,1
498,625,17,0.113990349561376,1
498,626,17,0.0907963459111589,1
500,627,17,0.0929833147378759,1
500,628,17,0.0905256619708105,1
501,626,17,0.114467638824785,1
501,627,17,0.167365226219921,1
501,628,17,0.145627253113917,1
501,629,17,0.0899832937976211,1
502,626,17,0.165201144325028,1
502,627,17,0.249196579445314,1
502,628,17,0.197796172351427,1
502,629,17,0.0947209425932258,1
503,625,17,0.0747284858767805,1
503,626,17,0.175410608687685,1
503,627,17,0.255617355129855,1
503,628,17,0.193855403275765,1
503,629,17,0.0892205318383876,1
504,626,17,0.115366847867755,1
504,627,17,0.153476027193772,1
504,628,17,0.116173478942058,1
504,629,17,0.070895131443465,1
504,630,17,0.0691030325705778,1
504,631,17,0.0691605823326735,1
505,630,17,0.0726522739870858,1
505,631,17,0.0710260379849514,1
512,620,17,0.0728416646956312,1
512,621,17,0.0727638275642372,1
513,619,17,0.0853121075499154,1
513,620,17,0.117267295787952,1
513,621,17,0.107682049879399,1
513,622,17,0.0689901852019388,1
514,619,17,0.0951165792383076,1
514,620,17,0.13101230894054,1
514,621,17,0.115271742213867,1
515,619,17,0.0734111066536534,1
515,620,17,0.0962484730864536,1
515,621,17,0.082582387204383,1
490,635,18,0.0713951099761099,1
491,635,18,0.0688871730445156,1
492,634,18,0.0787972983812848,1
492,635,18,0.0724839732777431,1
493,633,18,0.0705385181851498,1
493,634,18,0.0854887160777456,1
493,635,18,0.0751645175671967,1
497,625,18,0.0885942289424414,1
497,626,18,0.0792061125322585,1
501,627,18,0.122082763745624,1
501,628,18,0.112101833273787,1
502,626,18,0.143324915223115,1
502,627,18,0.221027288650056,1
502,628,18,0.179648746153127,1
502,629,18,0.0895193797026925,1
503,625,18,0.0700437627366584,1
503,626,18,0.171751886156316,1
503,627,18,0.260918258445487,1
503,628,18,0.203639186279907,1
503,629,18,0.0952823762215308,1
504,626,18,0.112137676089813,1
504,627,18,0.156860741459443,1
504,628,18,0.122531960962382,1
504,629,18,0.0758938146512398,1
504,630,18,0.0773921988973446,1
504,631,18,0.0776723107441812,1
505,630,18,0.0824485097342955,1
505,631,18,0.0807019750829177,1
512,620,18,0.0786739569261354,1
512,621,18,0.0827276152988639,1
512,622,18,0.0705404768417074,1
513,619,18,0.0925864082604082,1
513,620,18,0.134480149309288,1
513,621,18,0.127931084615113,1
513,622,18,0.0843661303405796,1
514,619,18,0.108361961265225,1
514,620,18,0.157404121904676,1
514,621,18,0.137646955545708,1
514,622,18,0.0760828280039347,1
515,619,18,0.0830828149701834,1
515,620,18,0.114553280633532,1
515,621,18,0.0946490233599324,1
501,627,19,0.0906812943051707,1
502,626,19,0.11417551747826,1
502,627,19,0.173103263344645,1
502,628,19,0.144498096593131,1
503,626,19,0.145989179303016,1
503,627,19,0.219112261616523,1
503,628,19,0.175012600091543,1
503,629,19,0.0879493337836367,1
504,626,19,0.104603113648178,1
504,627,19,0.143527429529574,1
504,628,19,0.113710938518262,1
504,629,19,0.0721017657091204,1
504,630,19,0.0703792500571185,1
504,631,19,0.0695779199340492,1
504,639,19,0.0684699372693218,1
505,627,19,0.0687617830861776,1
505,630,19,0.0770018212750689,1
505,631,19,0.0765663586133162,1
512,620,19,0.079024268940724,1
512,621,19,0.0873038875654946,1
512,622,19,0.0777915192543008,1
513,619,19,0.0896143176428691,1
513,620,19,0.14046781631381,1
513,621,19,0.140285092225291,1
513,622,19,0.0980813802991783,1
514,619,19,0.109240349848885,1
514,620,19,0.165782979128364,1
514,621,19,0.148108972798561,1
514,622,19,0.0871331490175618,1
515,619,19,0.0852756298176962,1
515,620,19,0.117642986480933,1
515,621,19,0.0963370199362726,1
502,626,20,0.0831921583202101,1
502,627,20,0.115322942814033,1
502,628,20,0.0981413439407624,1
503,626,20,0.113729339108307,1
503,627,20,0.153586574488655,1
503,628,20,0.122316736352512,1
503,629,20,0.0700526335940339,1
504,626,20,0.0948507949342409,1
504,627,20,0.117818199391094,1
504,628,20,0.0925498766202103,1
504,638,20,0.0832606034837684,1
504,639,20,0.0855773707435218,1
512,620,20,0.080074498190992,1
512,621,20,0.0940728968125578,1
512,622,20,0.0840079357815574,1
513,619,20,0.0836211400449741,1
513,620,20,0.144020915145679,1
513,621,20,0.157635782458257,1
513,622,20,0.113915585184765,1
514,619,20,0.0994421254962409,1
514,620,20,0.159442718004824,1
514,621,20,0.156888677771934,1
514,622,20,0.0999397859858039,1
515,619,20,0.0759067944945435,1
515,620,20,0.103859830438563,1
515,621,20,0.092295664562227,1
484,641,21,0.0832171356836509,1
484,642,21,0.079873768837604,1
485,641,21,0.0991614386309654,1
485,642,21,0.0966869126665828,1
485,643,21,0.0683311122447493,1
486,641,21,0.0820804859538329,1
486,642,21,0.0794853438821105,1
502,627,21,0.0688536183226942,1
503,626,21,0.0841548470029272,1
503,627,21,0.0938003979702616,1
503,628,21,0.0748429205359019,1
503,638,21,0.068764418587356,1
504,626,21,0.0811319870490514,1
504,627,21,0.0879023200364792,1
504,628,21,0.0708209480750683,1
504,638,21,0.0907190897879792,1
504,639,21,0.0885366851701211,1
505,638,21,0.069790155645991,1
512,620,21,0.0728833415529025,1
512,621,21,0.0879238353097356,1
512,622,21,0.0772786267658816,1
513,619,21,0.073917152828784,1
513,620,21,0.127317779531797,1
513,621,21,0.149256446052537,1
513,622,21,0.110142050638424,1
514,619,21,0.0822815207857665,1
514,620,21,0.131624212416411,1
514,621,21,0.144033697326394,1
514,622,21,0.0991846370311108,1
515,620,21,0.0819899744576809,1
515,621,21,0.0817715093793174,1
484,640,22,0.0700847328004318,1
484,641,22,0.110106507311168,1
484,642,22,0.109993324515106,1
484,643,22,0.0688250770428872,1
485,640,22,0.0842012078645655,1
485,641,22,0.153924433760176,1
485,642,22,0.155650543277421,1
485,643,22,0.0910874250367628,1
486,640,22,0.0710480324402402,1
486,641,22,0.123118479770085,1
486,642,22,0.123603280211852,1
486,643,22,0.0748741991430692,1
504,638,22,0.0837011394852895,1
504,639,22,0.078506680468387,1
506,653,22,0.0681845005121498,1
512,622,22,0.0683645351915118,1
513,620,22,0.0971091738633419,1
513,621,22,0.115714853818812,1
513,622,22,0.0911648967918571,1
514,620,22,0.0944127027610852,1
514,621,22,0.108948623827537,1
514,622,22,0.0820709202825104,1
484,640,23,0.0719268283286284,1
484,641,23,0.121336892953034,1
484,642,23,0.126679413228184,1
484,643,23,0.0751857932494369,1
485,640,23,0.0954478976750854,1
485,641,23,0.191849691042593,1
485,642,23,0.203097854337862,1
485,643,23,0.111639183021469,1
486,640,23,0.0807370931361199,1
486,641,23,0.155945899102665,1
486,642,23,0.164512404010255,1
486,643,23,0.0929195955071126,1
487,641,23,0.0772526311406219,1
487,642,23,0.0788248992663531,1
513,622,23,0.0687181116336964,1
514,621,23,0.0709749751496198,1
518,625,23,0.0750916759084908,1
518,626,23,0.0721848678530958,1
519,625,23,0.086173389335018,1
519,626,23,0.102931810575892,1
519,627,23,0.0810988156728559,1
520,626,23,0.0870830205871935,1
520,627,23,0.075220599834318,1
484,640,24,0.0688862685884294,1
484,641,24,0.11467526839944,1
484,642,24,0.123359843759823,1
484,643,24,0.0745632399528945,1
485,640,24,0.0934334763084736,1
485,641,24,0.191887869871027,1
485,642,24,0.210807845321573,1
485,643,24,0.116680932714409,1
486,640,24,0.0815836221043988,1
486,641,24,0.164697955272766,1
486,642,24,0.181358371808456,1
486,643,24,0.10197480020026,1
487,641,24,0.0823207478248969,1
487,642,24,0.0885914496866533,1
508,646,24,0.0679651189981492,1
518,625,24,0.0682844758534424,1
518,626,24,0.0854070754389691,1
518,627,24,0.0822479121559665,1
519,625,24,0.0885344390043441,1
519,626,24,0.142339645087119,1
519,627,24,0.153702500601853,1
519,628,24,0.107258908185656,1
520,625,24,0.068606084864288,1
520,626,24,0.126420762746625,1
520,627,24,0.14678238130086,1
520,628,24,0.106847937715536,1
521,627,24,0.0759910167265197,1
484,641,25,0.0958420907842945,1
484,642,25,0.105321659085368,1
484,643,25,0.0714436930444236,1
485,640,25,0.0819645358815339,1
485,641,25,0.155165910549365,1
485,642,25,0.17324161517696,1
485,643,25,0.103577268773585,1
486,640,25,0.0757318870629285,1
486,641,25,0.144070833933908,1
486,642,25,0.161905905324364,1
486,643,25,0.0974939630251643,1
487,641,25,0.0775142046325785,1
487,642,25,0.086368667992787,1
505,639,25,0.0699629786357649,1
508,646,25,0.0795535434648771,1
518,626,25,0.0742296034730347,1
518,627,25,0.0873784842283943,1
518,628,25,0.0785633677028243,1
519,625,25,0.0694075527521916,1
519,626,25,0.12866036372983,1
519,627,25,0.174043202860372,1
519,628,25,0.155684014142387,1
519,629,25,0.0975792274780611,1
520,626,25,0.120624756575528,1
520,627,25,0.17354341600054,1
520,628,25,0.160714610873522,1
520,629,25,0.101453138680647,1
521,627,25,0.0865644737507916,1
521,628,25,0.0830702064929549,1
484,642,26,0.0812414262354846,1
485,641,26,0.105680039327428,1
485,642,26,0.117497494836334,1
485,643,26,0.0789764825125392,1
486,641,26,0.104887627979937,1
486,642,26,0.119170954227766,1
486,643,26,0.0807946129493386,1
487,642,26,0.0737435032500042,1
508,646,26,0.0777222475017365,1
518,626,26,0.0697342470823564,1
518,627,26,0.0789976204299451,1
518,628,26,0.0786071290019367,1
519,626,26,0.098705622712385,1
519,627,26,0.146420994191547,1
519,628,26,0.157667025126772,1
519,629,26,0.117394075374184,1
520,626,26,0.0900251024299513,1
520,627,26,0.147710616795445,1
520,628,26,0.16666883097218,1
520,629,26,0.124792610016361,1
520,630,26,0.0696325826243995,1
521,627,26,0.0711572260458819,1
521,628,26,0.0799421001954296,1
525,624,26,0.0707874712203271,1
525,625,26,0.0686097625863869,1
485,642,27,0.0699444223115588,1
486,642,27,0.0748411475623818,1
518,625,27,0.0691295552960732,1
518,626,27,0.087608341859579,1
518,627,27,0.0756801473829761,1
519,626,27,0.0877715512598271,1
519,627,27,0.108591525397414,1
519,628,27,0.123054628764262,1
519,629,27,0.109091983112092,1
519,630,27,0.0744385448085035,1
520,627,27,0.102027078959999,1
520,628,27,0.129343701267187,1
520,629,27,0.115669798728213,1
520,630,27,0.0790712048208013,1
515,637,28,0.102611716978224,1
515,638,28,0.115280271654044,1
515,639,28,0.0725013675855206,1
516,637,28,0.103573878560706,1
516,638,28,0.117545688569247,1
516,639,28,0.0750985342013301,1
517,625,28,0.0764209029073699,1
517,626,28,0.0805679957866482,1
517,638,28,0.0697905509711678,1
518,625,28,0.0915963642734144,1
518,626,28,0.107811429028158,1
518,627,28,0.0744783708251745,1
519,626,28,0.0860504731539225,1
519,627,28,0.0805322068786006,1
519,628,28,0.083819623232585,1
519,629,28,0.0854613008757148,1
519,630,28,0.0722092701980977,1
520,628,28,0.0840286064964817,1
520,629,28,0.0868970081119768,1
520,630,28,0.0715462859175684,1
514,637,29,0.0852894781784336,1
514,638,29,0.0998275375947055,1
515,636,29,0.0710220428047559,1
515,637,29,0.159663453208066,1
515,638,29,0.198129167925318,1
515,639,29,0.132403697828577,1
516,636,29,0.0728170886471426,1
516,637,29,0.167626859609631,1
516,638,29,0.214979532218666,1
516,639,29,0.148512743558643,1
517,625,29,0.0741814396889994,1
517,626,29,0.0721700371691919,1
517,637,29,0.100209906887264,1
517,638,29,0.129074916085642,1
517,639,29,0.0931480994490557,1
518,625,29,0.0796196466262518,1
518,626,29,0.0870783725214789,1
514,637,30,0.0988709764522282,1
514,638,30,0.120005162228035,1
514,639,30,0.0826006380500435,1
515,636,30,0.0826084367376214,1
515,637,30,0.199233574694129,1
515,638,30,0.260036347873888,1
515,639,30,0.183481232069008,1
515,640,30,0.075972688013779,1
516,636,30,0.0887869260070106,1
516,637,30,0.221301716200033,1
516,638,30,0.299717723448332,1
516,639,30,0.218484868581453,1
516,640,30,0.0886322280776137,1
517,637,30,0.137261669232527,1
517,638,30,0.186457587406636,1
517,639,30,0.13932087016007,1
514,637,31,0.0952733795788718,1
514,638,31,0.118302580548583,1
515,636,31,0.082532779884475,1
515,637,31,0.196233931109724,1
515,638,31,0.263858998578554,1
515,639,31,0.195630964378758,1
516,636,31,0.0941198446721858,1
516,637,31,0.231759600507856,1
516,638,31,0.322051080229639,1
516,639,31,0.243778779672868,1
516,640,31,0.0994450844452912,1
517,636,31,0.0687607588345833,1
517,637,31,0.151631811285082,1
517,638,31,0.207821439140815,1
517,639,31,0.158433356992148,1
518,638,31,0.0748966907497167,1
514,637,32,0.0786766583148433,1
514,638,32,0.0986853892510653,1
515,636,32,0.0690756832560764,1
515,637,32,0.155424009971586,1
515,638,32,0.212785860833271,1
515,639,32,0.161561948461481,1
516,636,32,0.0837495907785443,1
516,637,32,0.194052610641215,1
516,638,32,0.2721722318229,1
516,639,32,0.208305484870882,1
516,640,32,0.0886085205465589,1
517,637,32,0.132205915444689,1
517,638,32,0.179912835350754,1
517,639,32,0.136935789511817,1
518,638,32,0.071282130832412,1
515,637,33,0.100755078275343,1
515,638,33,0.135822038693374,1
516,637,33,0.130321292511113,1
516,638,33,0.178110056708318,1
516,639,33,0.136702835166748,1
517,637,33,0.0946529766117,1
517,638,33,0.122121637388006,1
516,637,34,0.074120984885832,1
516,638,34,0.0913908251303758,1
