x,y,z,signal,cytoplasm.p
697,275,29,0.245692033732882,2
696,275,30,0.277939978233635,2
697,274,30,0.2711145093636,2
697,275,30,0.351086540466731,2
697,276,30,0.260634846232403,2
698,275,30,0.263073211922662,2
695,275,31,0.148831112100995,1
696,274,31,0.21449814594888,1
696,275,31,0.296742578045336,2
696,276,31,0.235044920440449,1
697,274,31,0.279091117230159,2
697,275,31,0.390107579241374,2
697,276,31,0.302863242022961,2
697,277,31,0.154393217542509,1
698,275,31,0.28452774885648,2
698,276,31,0.224167823731548,1
699,275,31,0.145651164297335,1
682,278,32,0.0723804280303088,1
682,279,32,0.0684077394415114,1
683,277,32,0.0683826003541347,1
683,278,32,0.0689591761346647,1
684,276,32,0.0678450779092483,1
690,271,32,0.0686255636139066,1
691,271,32,0.0708005888284651,1
692,271,32,0.0747924566781108,1
692,272,32,0.0709183298436103,1
693,271,32,0.0811896206680028,1
693,272,32,0.0783738272498938,1
693,273,32,0.0716897170794277,1
693,274,32,0.0694291818311807,1
693,275,32,0.0685549920800794,1
694,272,32,0.0892680846653316,1
694,273,32,0.0840100381927247,1
694,274,32,0.0863639959679707,1
694,275,32,0.0912271185787691,1
694,276,32,0.0857746739453779,1
695,272,32,0.093098911413426,1
695,273,32,0.093364671758391,1
695,274,32,0.112614797639511,1
695,275,32,0.139560748685508,1
695,276,32,0.128831671306427,1
695,277,32,0.0926962427720182,1
696,273,32,0.109624534043392,1
696,274,32,0.188288721645841,1
696,275,32,0.271991077055538,2
696,276,32,0.232103197984215,1
696,277,32,0.136912237714923,1
696,278,32,0.0775961567396761,1
697,273,32,0.125957836964639,1
697,274,32,0.252046754174251,2
697,275,32,0.371873888297685,2
697,276,32,0.310583607297674,2
697,277,32,0.168648739252905,1
697,278,32,0.0888011097951708,1
698,274,32,0.192217499191141,1
698,275,32,0.27479450757721,2
698,276,32,0.234371214461944,1
698,277,32,0.140479520334952,1
698,278,32,0.0840428621619467,1
699,274,32,0.118173381093087,1
699,275,32,0.141058779534864,1
699,276,32,0.130062246704378,1
699,277,32,0.0977704929863084,1
699,278,32,0.0704638376653945,1
700,275,32,0.0957440800893349,1
700,276,32,0.0921093765573416,1
700,277,32,0.0788687384325457,1
701,276,32,0.0822708889344218,1
701,277,32,0.0717688120636568,1
702,276,32,0.0751824030365574,1
702,277,32,0.0715283525300045,1
682,278,33,0.070631647213154,1
682,279,33,0.0687689947757658,1
683,277,33,0.0680730727202819,1
684,276,33,0.069443736985416,1
690,270,33,0.0732456091592004,1
690,271,33,0.0680610572308185,1
691,270,33,0.075439544094714,1
691,271,33,0.070142570071747,1
692,270,33,0.0778452056112599,1
692,271,33,0.0758158277754607,1
692,272,33,0.068921392631407,1
693,270,33,0.0820050387428257,1
693,271,33,0.0849717026238475,1
693,272,33,0.0768111367750359,1
694,271,33,0.094607388431089,1
694,272,33,0.0878355520100345,1
694,273,33,0.0788622814546587,1
694,274,33,0.0791413930090025,1
694,275,33,0.0831532966573795,1
694,276,33,0.0768615347452975,1
695,271,33,0.0935679827049787,1
695,272,33,0.0919826269199866,1
695,273,33,0.0904350666178029,1
695,274,33,0.103079566355594,1
695,275,33,0.123456231225648,1
695,276,33,0.11574185572634,1
695,277,33,0.0849947752387093,1
696,272,33,0.0911603625318752,1
696,273,33,0.103293077889698,1
696,274,33,0.154495618742841,1
696,275,33,0.219614444386517,1
696,276,33,0.194884925872456,1
696,277,33,0.124441992523227,1
696,278,33,0.0716153060995656,1
697,272,33,0.0919430524738827,1
697,273,33,0.118438979714116,1
697,274,33,0.212100558649581,1
697,275,33,0.314083145557868,2
697,276,33,0.272329211856727,1
697,277,33,0.158626155882899,1
697,278,33,0.0830073617694007,1
698,273,33,0.109412436096284,1
698,274,33,0.171311469950303,1
698,275,33,0.246711685179705,1
698,276,33,0.216634962386127,1
698,277,33,0.136896879930783,1
698,278,33,0.0802372403887585,1
699,273,33,0.102806899799587,1
699,274,33,0.116080529607316,1
699,275,33,0.138912750823043,1
699,276,33,0.129973514171521,1
699,277,33,0.0998304186766756,1
699,278,33,0.0704951761703159,1
700,274,33,0.0975656187083399,1
700,275,33,0.0969739367142373,1
700,276,33,0.0946044294820387,1
700,277,33,0.0824709114943119,1
701,275,33,0.0908173580432813,1
701,276,33,0.0864325070190584,1
701,277,33,0.0762579870061167,1
702,275,33,0.08279920509451,1
702,276,33,0.0795104769797118,1
682,278,34,0.0682970663613447,1
682,279,34,0.0679838070974143,1
684,275,34,0.0680250526908563,1
684,276,34,0.0690944791712988,1
685,275,34,0.0690440093237323,1
689,270,34,0.0706430577353014,1
689,271,34,0.0680267058688682,1
690,270,34,0.0743981258040674,1
690,271,34,0.0695836222002352,1
691,269,34,0.08110729719483,1
691,270,34,0.0781522594678703,1
691,271,34,0.0720397895030001,1
692,269,34,0.081093706394435,1
692,270,34,0.0830738842150538,1
692,271,34,0.0791278441370353,1
692,272,34,0.0694142732801965,1
693,269,34,0.0801522334962041,1
693,270,34,0.0872882482619109,1
693,271,34,0.0877085987203156,1
693,272,34,0.075565850488689,1
694,270,34,0.0896988633227172,1
694,271,34,0.0953617766843057,1
694,272,34,0.0843243816060035,1
694,273,34,0.0731793322943389,1
694,274,34,0.0715299937284656,1
694,275,34,0.0735699614871817,1
695,270,34,0.0872983709823462,1
695,271,34,0.0939358807001578,1
695,272,34,0.0889050204189048,1
695,273,34,0.086058547371169,1
695,274,34,0.0943854313136641,1
695,275,34,0.106929602313414,1
695,276,34,0.0983467393291912,1
695,277,34,0.0729005322083161,1
696,271,34,0.0902530073943538,1
696,272,34,0.0904288312616058,1
696,273,34,0.0980799607224072,1
696,274,34,0.12789395998715,1
696,275,34,0.167601990062148,1
696,276,34,0.150328579911463,1
696,277,34,0.102102861598429,1
697,271,34,0.0895678369857227,1
697,272,34,0.0927446281777436,1
697,273,34,0.112234446901264,1
697,274,34,0.174344907847545,1
697,275,34,0.244165958755077,1
697,276,34,0.214361914497058,1
697,277,34,0.132226352558372,1
697,278,34,0.0723519825869083,1
698,272,34,0.0951654258567391,1
698,273,34,0.108433191674346,1
698,274,34,0.15464215260836,1
698,275,34,0.210945250769375,1
698,276,34,0.185177165097761,1
698,277,34,0.119784151495125,1
698,278,34,0.0708305436952678,1
699,273,34,0.103025622438293,1
699,274,34,0.11538509272364,1
699,275,34,0.135000145671338,1
699,276,34,0.123972813415717,1
699,277,34,0.0938125512245593,1
700,273,34,0.100410875831668,1
700,274,34,0.100231476068499,1
700,275,34,0.0996896829137488,1
700,276,34,0.0952800761477751,1
700,277,34,0.0805899962317125,1
701,274,34,0.097343026674722,1
701,275,34,0.0936714321160065,1
701,276,34,0.0889759453494809,1
701,277,34,0.0767146714421309,1
702,275,34,0.0854901955522707,1
702,276,34,0.0825728454921621,1
703,275,34,0.0800803981197664,1
685,275,35,0.06815850488689,1
689,270,35,0.0715207934334428,1
689,271,35,0.0700911298805648,1
689,272,35,0.0689627580203572,1
690,270,35,0.0761652952317171,1
690,271,35,0.07211911808847,1
690,272,35,0.0687131041814574,1
691,269,35,0.0831299005946457,1
691,270,35,0.0807794468380119,1
691,271,35,0.0746000531125365,1
691,272,35,0.067944064937599,1
692,269,35,0.085632165208931,1
692,270,35,0.0877143429149295,1
692,271,35,0.0819023320639482,1
692,272,35,0.0711143632130804,1
693,269,35,0.0856671155484219,1
693,270,35,0.0911128875720115,1
693,271,35,0.088087535871567,1
693,272,35,0.0745748720967319,1
694,269,35,0.0818119703121813,1
694,270,35,0.0910316482481872,1
694,271,35,0.0930845539217791,1
694,272,35,0.0807003159151303,1
695,270,35,0.0887928498948866,1
695,271,35,0.0931122446534786,1
695,272,35,0.0859903837270549,1
695,273,35,0.0797525537527237,1
695,274,35,0.0826174333802804,1
695,275,35,0.0873255765422378,1
695,276,35,0.0781981770861286,1
696,271,35,0.0922371384667402,1
696,272,35,0.0900254618164756,1
696,273,35,0.0917626464284455,1
696,274,35,0.105486737295543,1
696,275,35,0.122427079995032,1
696,276,35,0.108771446271044,1
696,277,35,0.0767893160232338,1
697,271,35,0.0920326894628254,1
697,272,35,0.0929142346581247,1
697,273,35,0.103802100983205,1
697,274,35,0.137847672919545,1
697,275,35,0.173363842533884,1
697,276,35,0.151219726716737,1
697,277,35,0.0974488360572596,1
698,272,35,0.0956729874450474,1
698,273,35,0.105464107924061,1
698,274,35,0.134988669261661,1
698,275,35,0.166226006876454,1
698,276,35,0.143632142783212,1
698,277,35,0.0941312252454562,1
699,272,35,0.0963814221413533,1
699,273,35,0.101638713902259,1
699,274,35,0.111208685883527,1
699,275,35,0.122151083123899,1
699,276,35,0.108403482388335,1
699,277,35,0.080366463803356,1
700,273,35,0.0996284135011263,1
700,274,35,0.100650041573833,1
700,275,35,0.0984563043009079,1
700,276,35,0.0897187014588601,1
700,277,35,0.0720733861532493,1
701,273,35,0.0956971741581347,1
701,274,35,0.0969451678229649,1
701,275,35,0.0923737293050864,1
701,276,35,0.0849960929892985,1
701,277,35,0.069899990157601,1
702,274,35,0.089289851509155,1
702,275,35,0.0861711132203639,1
702,276,35,0.0816427471774262,1
703,275,35,0.0804844563890682,1
689,270,36,0.0719897509192628,1
689,271,36,0.0713044487355728,1
689,272,36,0.0705096594472463,1
690,270,36,0.0767052375458673,1
690,271,36,0.0735606713455278,1
690,272,36,0.0706255076933634,1
691,269,36,0.0842065747033288,1
691,270,36,0.0812706503496879,1
691,271,36,0.0758490231107578,1
691,272,36,0.0694663603671224,1
692,269,36,0.0891046835922705,1
692,270,36,0.0888960177864704,1
692,271,36,0.0823361655067906,1
692,272,36,0.0711542071990775,1
693,269,36,0.0897449187058098,1
693,270,36,0.0918670601933135,1
693,271,36,0.0866980038139056,1
693,272,36,0.073124424023197,1
694,269,36,0.0858197589848548,1
694,270,36,0.091029977100849,1
694,271,36,0.0903678253991011,1
694,272,36,0.0782215551795361,1
695,270,36,0.0896855181031138,1
695,271,36,0.0923106390007406,1
695,272,36,0.0843252381438865,1
695,273,36,0.074255341537952,1
695,274,36,0.0689782236204541,1
696,270,36,0.0892066355594469,1
696,271,36,0.0934850602542655,1
696,272,36,0.0898436960920213,1
696,273,36,0.0844850094130518,1
696,274,36,0.0814163755955274,1
696,275,36,0.0809874298094159,1
696,276,36,0.0710097457958485,1
697,271,36,0.0931183063061889,1
697,272,36,0.0931708845546981,1
697,273,36,0.0937345224203523,1
697,274,36,0.098820776144555,1
697,275,36,0.104716500096603,1
697,276,36,0.090591333868356,1
698,271,36,0.0914581801548103,1
698,272,36,0.0958753639866718,1
698,273,36,0.0990129101702361,1
698,274,36,0.105627616813079,1
698,275,36,0.111110429607776,1
698,276,36,0.0948264285278915,1
699,272,36,0.0954997092323427,1
699,273,36,0.0990490764341343,1
699,274,36,0.100141060408754,1
699,275,36,0.0983376169012486,1
699,276,36,0.0842160744871219,1
700,272,36,0.0922005349492374,1
700,273,36,0.0978497796433506,1
700,274,36,0.0975947469861367,1
700,275,36,0.0910931752211521,1
700,276,36,0.0782779668843048,1
701,273,36,0.0940232236051203,1
701,274,36,0.0950193771630277,1
701,275,36,0.0886618594965445,1
701,276,36,0.0774818538556136,1
702,274,36,0.0898179879759811,1
702,275,36,0.0855668646774607,1
702,276,36,0.078269934595486,1
703,274,36,0.0835585229328854,1
703,275,36,0.0806682825962619,1
689,271,37,0.0712104212412578,1
689,272,37,0.07064222515652,1
690,270,37,0.0767246623875072,1
690,271,37,0.0745525182549187,1
690,272,37,0.0719243665309368,1
691,269,37,0.0838614857728938,1
691,270,37,0.0814263306022513,1
691,271,37,0.0770778195454134,1
691,272,37,0.0712562550026604,1
692,269,37,0.0888836788491351,1
692,270,37,0.0876380511455901,1
692,271,37,0.0820303515336892,1
692,272,37,0.0721887192786815,1
693,269,37,0.089926654481387,1
693,270,37,0.0903209314474517,1
693,271,37,0.0853998817187071,1
693,272,37,0.0735959091942382,1
694,269,37,0.0886454115732811,1
694,270,37,0.0912863095393259,1
694,271,37,0.0889037865251712,1
694,272,37,0.0774916710975032,1
695,269,37,0.0863656731050842,1
695,270,37,0.0920312459269527,1
695,271,37,0.0921812418826564,1
695,272,37,0.0835209850104193,1
695,273,37,0.070852484242578,1
696,270,37,0.0919455262511251,1
696,271,37,0.0942782203236817,1
696,272,37,0.0903026386733635,1
696,273,37,0.0810258182799895,1
696,274,37,0.0703240602665326,1
697,271,37,0.0935915584609747,1
697,272,37,0.0947951978389274,1
697,273,37,0.0900080794882489,1
697,274,37,0.08085800873223,1
697,275,37,0.0723174036134925,1
698,271,37,0.0910703242279802,1
698,272,37,0.0969765782051911,1
698,273,37,0.0961208010236862,1
698,274,37,0.0894576850160162,1
698,275,37,0.0804465231414254,1
699,272,37,0.095534443939919,1
699,273,37,0.0980421352907217,1
699,274,37,0.0930619425196235,1
699,275,37,0.0823477736915264,1
700,272,37,0.091712529977628,1
700,273,37,0.0962313842572218,1
700,274,37,0.0933111591049186,1
700,275,37,0.082288013702306,1
701,273,37,0.0917877555669452,1
701,274,37,0.0907377659076934,1
701,275,37,0.082011130344413,1
702,273,37,0.0881706440053178,1
702,274,37,0.0876819382299859,1
702,275,37,0.0816028013652471,1
702,276,37,0.0702143455504307,1
703,274,37,0.0833773322268701,1
703,275,37,0.0788159325725712,1
673,297,38,0.0701900929498139,1
689,271,38,0.0693066969139144,1
689,272,38,0.0679567093534799,1
690,270,38,0.0758574087963254,1
690,271,38,0.0732322100316184,1
690,272,38,0.0703289539130388,1
691,269,38,0.0831976988624602,1
691,270,38,0.0809410689477776,1
691,271,38,0.0761662176571295,1
691,272,38,0.0708230385066848,1
692,269,38,0.0865542012859712,1
692,270,38,0.0846203244292367,1
692,271,38,0.0794244458355631,1
692,272,38,0.0717325200144751,1
693,269,38,0.087852562972186,1
693,270,38,0.0874995795177665,1
693,271,38,0.0826427222120423,1
693,272,38,0.073238792794789,1
694,269,38,0.0910920251842742,1
694,270,38,0.0931906328442099,1
694,271,38,0.0878549768516744,1
694,272,38,0.0764818548618959,1
695,269,38,0.0909902289512584,1
695,270,38,0.0967356095406293,1
695,271,38,0.0928232739288173,1
695,272,38,0.0827773843427079,1
695,273,38,0.0689835784796666,1
696,270,38,0.0941840251156554,1
696,271,38,0.0941722252581066,1
696,272,38,0.0904308797647945,1
696,273,38,0.0790660416344017,1
697,271,38,0.0924596047150745,1
697,272,38,0.0955305326165792,1
697,273,38,0.087897576134358,1
697,274,38,0.0694713378704844,1
698,271,38,0.0894891912346489,1
698,272,38,0.0958257327076622,1
698,273,38,0.0927376141507438,1
698,274,38,0.0774416984012954,1
699,271,38,0.084666301945249,1
699,272,38,0.0931308429061125,1
699,273,38,0.0950329859327489,1
699,274,38,0.0848715176404157,1
699,275,38,0.0689123840091972,1
700,272,38,0.0894602546296651,1
700,273,38,0.0935971289521017,1
700,274,38,0.0876438192993055,1
700,275,38,0.0733224280287754,1
701,272,38,0.0847128185410479,1
701,273,38,0.0887076094010915,1
701,274,38,0.0854239186874092,1
701,275,38,0.074767641038606,1
702,273,38,0.0872562928101228,1
702,274,38,0.084852422236423,1
702,275,38,0.0771047915040642,1
703,273,38,0.0860792420451949,1
703,274,38,0.0828449789581586,1
703,275,38,0.0771142912878573,1
703,276,38,0.068995432245194,1
704,274,38,0.0801208830117319,1
704,275,38,0.0778404736886896,1
672,297,39,0.0735869904186594,1
673,297,39,0.0685698287537587,1
673,298,39,0.0772912412328855,1
674,298,39,0.0755251379852581,1
675,298,39,0.0708717114216296,1
690,271,39,0.0717783298167761,1
690,272,39,0.0687935708242544,1
691,270,39,0.0819304480697014,1
691,271,39,0.0755276596807038,1
691,272,39,0.0703592322277134,1
692,269,39,0.0844777617848112,1
692,270,39,0.0825019325411368,1
692,271,39,0.0772701692030091,1
692,272,39,0.0715792596311755,1
693,269,39,0.0860909999743158,1
693,270,39,0.086716829678005,1
693,271,39,0.0814122606198239,1
693,272,39,0.0736896371997829,1
694,269,39,0.0939924421493116,1
694,270,39,0.0983660204162213,1
694,271,39,0.0894490118212291,1
694,272,39,0.0769907821189966,1
695,269,39,0.0965522265768156,1
695,270,39,0.104058391493254,1
695,271,39,0.0952684080652853,1
695,272,39,0.0830810419966634,1
695,273,39,0.0683203366387949,1
696,270,39,0.0964110715296104,1
696,271,39,0.0942997236173873,1
696,272,39,0.0906423607650352,1
696,273,39,0.0783341749367096,1
697,271,39,0.0931844573857668,1
697,272,39,0.0963231775653106,1
697,273,39,0.0873246421372745,1
698,271,39,0.0911928930021023,1
698,272,39,0.0961568774409533,1
698,273,39,0.0920264121782005,1
698,274,39,0.0724734612219065,1
699,271,39,0.0873815989116051,1
699,272,39,0.0942654081940894,1
699,273,39,0.0957353649661199,1
699,274,39,0.0806913851600008,1
700,272,39,0.0912087718967022,1
700,273,39,0.0954896344301107,1
700,274,39,0.084840544511794,1
701,272,39,0.0857123263731824,1
701,273,39,0.0890468463209554,1
701,274,39,0.0825091262613988,1
701,275,39,0.06861992723525,1
702,273,39,0.0871907107592083,1
702,274,39,0.0832142126732531,1
702,275,39,0.0729063243211332,1
703,273,39,0.085448261134657,1
703,274,39,0.0820110524773328,1
703,275,39,0.0753556572901604,1
704,274,39,0.0802661170959882,1
704,275,39,0.0802516398088332,1
671,297,40,0.0718716984357965,1
672,297,40,0.0711056840285178,1
672,298,40,0.0769205520023675,1
673,298,40,0.0752623545586695,1
674,298,40,0.0716332095382525,1
674,299,40,0.0790602315522584,1
676,299,40,0.0727230431835014,1
677,299,40,0.0682085314910765,1
690,271,40,0.0693480503233137,1
691,271,40,0.0751267759923668,1
691,272,40,0.0682589294613381,1
692,270,40,0.0815710136271703,1
692,271,40,0.0759153598733733,1
692,272,40,0.0708273211960997,1
693,269,40,0.0849653594516931,1
693,270,40,0.0862508910389893,1
693,271,40,0.0807845261675558,1
693,272,40,0.074586839667992,1
694,269,40,0.0965782341816261,1
694,270,40,0.102766983936285,1
694,271,40,0.0918434125600128,1
694,272,40,0.0788618861294819,1
695,269,40,0.100306012833645,1
695,270,40,0.10891468576009,1
695,271,40,0.0973072856848776,1
695,272,40,0.0834707847027461,1
695,273,40,0.0696729656901831,1
696,270,40,0.0974352272875384,1
696,271,40,0.0943114935260591,1
696,272,40,0.0904178699726138,1
696,273,40,0.0783457711418946,1
697,271,40,0.0940776586840051,1
697,272,40,0.0966039422976663,1
697,273,40,0.0871357306107616,1
698,271,40,0.0927812796134496,1
698,272,40,0.0972341984453801,1
698,273,40,0.0930437755308187,1
698,274,40,0.0723980080211239,1
699,271,40,0.0896060936812374,1
699,272,40,0.0960443595099616,1
699,273,40,0.0978095043935242,1
699,274,40,0.0805343092897679,1
700,272,40,0.0936608901112929,1
700,273,40,0.0986656050229011,1
700,274,40,0.0853678783487157,1
701,272,40,0.0867872933958749,1
701,273,40,0.0906969515780806,1
701,274,40,0.0824960745407903,1
702,273,40,0.0860690414576794,1
702,274,40,0.0823250424938626,1
702,275,40,0.0699183847578712,1
703,273,40,0.0826236867058037,1
703,274,40,0.0808274429083359,1
703,275,40,0.0742089147887842,1
704,274,40,0.0810111553097969,1
704,275,40,0.0839710627241614,1
663,259,41,0.07094299573873,1
664,259,41,0.0753785681810863,1
664,260,41,0.0686963028614451,1
665,259,41,0.0814939371972528,1
665,260,41,0.0744105306289322,1
666,259,41,0.0883993575894,1
667,258,41,0.0926630474367211,1
667,259,41,0.08995114667302,1
668,258,41,0.0893519834494359,1
668,259,41,0.0847873313470919,1
669,258,41,0.0823062106399879,1
670,258,41,0.0765032862782967,1
670,297,41,0.06910542848074,1
671,297,41,0.0719667921101337,1
671,298,41,0.0746595914800668,1
672,297,41,0.0693328123346822,1
672,298,41,0.0770328243525676,1
673,298,41,0.073248927494775,1
673,299,41,0.0786991738805924,1
674,258,41,0.0838172033633212,1
674,299,41,0.0768474827321963,1
675,299,41,0.0739909528515548,1
676,299,41,0.0713110075396418,1
677,299,41,0.0683337896743556,1
691,271,41,0.075575673720354,1
692,271,41,0.0762010482011123,1
692,272,41,0.0704583270720214,1
693,270,41,0.0838503328110888,1
693,271,41,0.0804663492980175,1
693,272,41,0.0762096195697175,1
693,273,41,0.069929933044853,1
694,270,41,0.0990455244973189,1
694,271,41,0.0920497663125064,1
694,272,41,0.0818661538204992,1
694,273,41,0.072127581641118,1
695,270,41,0.104047190613246,1
695,271,41,0.0967159810466256,1
695,272,41,0.0849199270052426,1
695,273,41,0.072930223525001,1
696,270,41,0.0963916347084196,1
696,271,41,0.0953333312409051,1
696,272,41,0.0902328278410128,1
696,273,41,0.0794757722210126,1
697,270,41,0.0928680235408715,1
697,271,41,0.0965099507420038,1
697,272,41,0.0956875425992827,1
697,273,41,0.0872018936698904,1
698,271,41,0.0946254476039365,1
698,272,41,0.0961424001537983,1
698,273,41,0.0920581879367265,1
698,274,41,0.0734643916956604,1
699,271,41,0.0911601708590622,1
699,272,41,0.0949061164998858,1
699,273,41,0.0949486319257137,1
699,274,41,0.0797544105830994,1
700,272,41,0.0927078269976524,1
700,273,41,0.0957066439930507,1
700,274,41,0.0833943371992462,1
701,272,41,0.0859009683598021,1
701,273,41,0.0893733489783072,1
701,274,41,0.0808096173367293,1
702,273,41,0.0832182078534485,1
702,274,41,0.0792752465199884,1
703,273,41,0.0786713992920373,1
703,274,41,0.0778660200807939,1
703,275,41,0.0732485860775769,1
704,274,41,0.0804725487155621,1
704,275,41,0.0860592541646669,1
663,258,42,0.0699515261851897,1
663,259,42,0.069573337755864,1
664,258,42,0.0750341081770689,1
664,259,42,0.0767990733673693,1
664,260,42,0.0692365386745902,1
665,258,42,0.0825704016637967,1
665,259,42,0.0848348781842604,1
665,260,42,0.07522557733768,1
666,258,42,0.0897258772097959,1
666,259,42,0.0893793507332635,1
666,260,42,0.0765127680927635,1
667,257,42,0.0922220442327184,1
667,258,42,0.094365293688751,1
667,259,42,0.091552734749361,1
667,260,42,0.0765922104839662,1
668,257,42,0.0913894055536048,1
668,258,42,0.0905214032404972,1
668,259,42,0.0856234980039193,1
668,260,42,0.0734263686013865,1
669,257,42,0.0869971032487775,1
669,258,42,0.0838097460929414,1
669,259,42,0.078893560061826,1
669,260,42,0.0710223123446492,1
670,257,42,0.0815004960013218,1
670,258,42,0.0784053753969544,1
670,259,42,0.0755887014818609,1
670,260,42,0.0725711724280959,1
671,257,42,0.078383506726949,1
671,258,42,0.0758166543644666,1
671,259,42,0.0754284869693155,1
671,260,42,0.0756398122353957,1
671,261,42,0.0707402478310304,1
671,297,42,0.0689658667137926,1
671,298,42,0.0730954754386624,1
672,257,42,0.076768711195839,1
672,258,42,0.0762074931994486,1
672,259,42,0.0777925794445475,1
672,260,42,0.077605195310763,1
672,261,42,0.0728236354716608,1
672,298,42,0.0744075896492081,1
673,257,42,0.0760422412857872,1
673,258,42,0.0790885392308247,1
673,259,42,0.0831630959299428,1
673,260,42,0.0834184640145794,1
673,261,42,0.0806685581259306,1
673,262,42,0.0687741998905932,1
673,298,42,0.0687195491797937,1
674,257,42,0.0775317187358641,1
674,258,42,0.0828550537603906,1
674,259,42,0.0878189064241827,1
674,260,42,0.0871991323834284,1
674,261,42,0.0862112686746822,1
674,262,42,0.0742500166276165,1
675,258,42,0.0869198710846995,1
675,259,42,0.0890219228654932,1
675,260,42,0.0834379487539734,1
675,261,42,0.0793911067456563,1
675,262,42,0.0687393393977334,1
675,299,42,0.0681694122679034,1
676,258,42,0.0845037454305201,1
676,259,42,0.0863072548255547,1
676,260,42,0.0804441032721616,1
676,261,42,0.074498927734366,1
677,259,42,0.0797575312560856,1
677,260,42,0.0788678878844382,1
677,261,42,0.0745075230620729,1
678,259,42,0.0749605776941914,1
678,260,42,0.0762593287158075,1
678,261,42,0.07244751351485,1
679,259,42,0.0706786968989639,1
679,260,42,0.0722383385781404,1
679,261,42,0.070953483835465,1
680,260,42,0.0701019653842733,1
680,261,42,0.072149977411359,1
680,262,42,0.0707695977305172,1
681,261,42,0.0719358429406136,1
681,262,42,0.072618240083232,1
681,263,42,0.0705198959734142,1
682,262,42,0.0696907972515652,1
682,263,42,0.0701427857036616,1
683,263,42,0.0690097058799852,1
683,264,42,0.0713341580215839,1
684,263,42,0.0699176240563947,1
684,264,42,0.0772671862948572,1
684,265,42,0.0761843906357097,1
685,264,42,0.0765551158048801,1
685,265,42,0.0775772649880473,1
685,266,42,0.068533374980641,1
686,265,42,0.0765019445686058,1
686,266,42,0.07211867484509,1
687,266,42,0.0760481292350108,1
690,269,42,0.073152965303004,1
690,270,42,0.0717366948879327,1
691,270,42,0.0820225827949883,1
691,271,42,0.0741994389640928,1
692,269,42,0.0773769369496115,1
692,270,42,0.0792998285582524,1
692,271,42,0.0751185879693876,1
692,272,42,0.0682605227415959,1
693,269,42,0.079613075842632,1
693,270,42,0.0802347186933128,1
693,271,42,0.0784299394658922,1
693,272,42,0.0765121810947738,1
693,273,42,0.0710484457347432,1
694,270,42,0.0903934796071627,1
694,271,42,0.0893891799547039,1
694,272,42,0.0864374605633187,1
694,273,42,0.0772995969695762,1
695,271,42,0.0942391729778135,1
695,272,42,0.0897074766197503,1
695,273,42,0.0784060762006768,1
696,271,42,0.0948970899083497,1
696,272,42,0.090398181580856,1
696,273,42,0.0807956791293608,1
697,271,42,0.0972885436776339,1
697,272,42,0.0936065808176915,1
697,273,42,0.0869373492493326,1
698,272,42,0.0956084955332568,1
698,273,42,0.0918499653743063,1
698,274,42,0.0747676530181568,1
699,272,42,0.0941062179331384,1
699,273,42,0.0928163976666518,1
699,274,42,0.0798914626341518,1
700,272,42,0.0909752305536431,1
700,273,42,0.0919435256661397,1
700,274,42,0.0814764470530688,1
701,273,42,0.0878877588924685,1
701,274,42,0.0792968935683038,1
702,274,42,0.0772248505622914,1
703,274,42,0.0760801385947776,1
703,275,42,0.0731914436202088,1
704,275,42,0.0871396119852243,1
658,261,43,0.0786331066578702,1
659,261,43,0.0871688600585292,1
660,259,43,0.0863020377311766,1
660,260,43,0.0902735942524224,1
660,261,43,0.0696576977526746,1
661,259,43,0.0687167100262515,1
662,258,43,0.0685710506679414,1
663,257,43,0.0758544019290719,1
663,258,43,0.0704911809901204,1
663,259,43,0.0684455109652183,1
664,257,43,0.0749582776204357,1
664,258,43,0.0778304647739871,1
664,259,43,0.0801006974686155,1
664,260,43,0.0702458278099618,1
665,257,43,0.0797560398020097,1
665,258,43,0.0864413000093536,1
665,259,43,0.0900170461820309,1
665,260,43,0.0766329169976217,1
666,257,43,0.0852938926429074,1
666,258,43,0.0892511934986882,1
666,259,43,0.0892410408293759,1
666,260,43,0.0745452885960043,1
667,256,43,0.0893531754147416,1
667,257,43,0.0908480197035818,1
667,258,43,0.0929495084454875,1
667,259,43,0.0899869595401692,1
667,260,43,0.074014193180128,1
668,256,43,0.0896567851504938,1
668,257,43,0.0910221005461909,1
668,258,43,0.0909446767092998,1
668,259,43,0.0860899637431707,1
668,260,43,0.0722186501863826,1
669,256,43,0.0881821144252192,1
669,257,43,0.089521721704876,1
669,258,43,0.0861431170101188,1
669,259,43,0.0798281327387898,1
669,260,43,0.070085002340325,1
670,256,43,0.0859944028663519,1
670,257,43,0.0874603884172886,1
670,258,43,0.0825791527256641,1
670,259,43,0.0760222773643608,1
670,260,43,0.0706503712510714,1
671,256,43,0.0837508546211548,1
671,257,43,0.0840074805586266,1
671,258,43,0.0790429570399891,1
671,259,43,0.0741649438475327,1
671,260,43,0.0713123432595572,1
671,298,43,0.0724104667539672,1
671,299,43,0.0713842804621768,1
672,257,43,0.0784182713834024,1
672,258,43,0.0763573993085212,1
672,259,43,0.0754413949353143,1
672,260,43,0.073352364926252,1
672,261,43,0.0690878305205987,1
672,298,43,0.072100268265269,1
672,299,43,0.0748451726914543,1
673,257,43,0.0762824492488726,1
673,258,43,0.0782645977055998,1
673,259,43,0.0808675145057985,1
673,260,43,0.0802892496086041,1
673,261,43,0.0782836990993678,1
673,299,43,0.072299092870078,1
674,257,43,0.0771970699839608,1
674,258,43,0.0826697780275488,1
674,259,43,0.0876587098809635,1
674,260,43,0.0867611899546579,1
674,261,43,0.0853060998051837,1
674,262,43,0.070051866902782,1
675,257,43,0.080371309531659,1
675,258,43,0.0885907249238292,1
675,259,43,0.0931080937391226,1
675,260,43,0.0855698415958372,1
675,261,43,0.0763755243688981,1
675,300,43,0.0700380125522692,1
676,257,43,0.0797360938499095,1
676,258,43,0.0874657312969503,1
676,259,43,0.091987670310878,1
676,260,43,0.081877600281299,1
676,261,43,0.0677886063067256,1
676,300,43,0.0685220003971461,1
677,258,43,0.0800242020469123,1
677,259,43,0.0845061652997839,1
677,260,43,0.0784526886328822,1
677,300,43,0.0707340603930366,1
678,258,43,0.0739736064619805,1
678,259,43,0.0778165085972923,1
678,260,43,0.0759309692280799,1
678,300,43,0.0702269779867608,1
679,258,43,0.0713330199642569,1
679,259,43,0.0728783880086421,1
679,260,43,0.0730203097470992,1
679,261,43,0.068387553898395,1
680,259,43,0.0696248917527789,1
680,260,43,0.0708865960135122,1
680,261,43,0.0695257310209414,1
681,260,43,0.068023201850256,1
681,261,43,0.0689741685425046,1
681,262,43,0.0683698361427456,1
682,262,43,0.0681319162738652,1
684,263,43,0.0678453773980186,1
684,264,43,0.0709430915751365,1
684,265,43,0.0688194885824339,1
685,263,43,0.06801816444914,1
685,264,43,0.0720484986364396,1
685,265,43,0.0713298034548641,1
686,264,43,0.0709853554303975,1
686,265,43,0.0743201089794113,1
686,266,43,0.0709099082193902,1
687,264,43,0.0703178488694371,1
687,265,43,0.0780159561387435,1
687,266,43,0.0780510202839671,1
688,264,43,0.0696544273353032,1
688,265,43,0.0753447499091471,1
688,266,43,0.0755280669854313,1
689,265,43,0.0703238925528212,1
689,266,43,0.0711698465026612,1
689,267,43,0.0688887483554473,1
690,266,43,0.070111297454355,1
690,267,43,0.0715664055731554,1
690,268,43,0.0714876520061243,1
690,269,43,0.0678535175027946,1
691,267,43,0.0737320208505519,1
691,268,43,0.0739574160990596,1
691,269,43,0.073528602088007,1
691,270,43,0.075028112411888,1
691,271,43,0.0696879880469,1
692,268,43,0.0763692410944978,1
692,269,43,0.0755126493035377,1
692,270,43,0.0769062424289239,1
692,271,43,0.073124040677571,1
693,268,43,0.0792989600408186,1
693,269,43,0.0781938225194088,1
693,270,43,0.078196026756758,1
693,271,43,0.076431732421303,1
693,272,43,0.0738968415003841,1
694,269,43,0.0815500733723528,1
694,270,43,0.0810763420355346,1
694,271,43,0.0829247088585807,1
694,272,43,0.0857815861461958,1
694,273,43,0.0764260840630956,1
695,270,43,0.0845610436220488,1
695,271,43,0.0884925704742599,1
695,272,43,0.0929303531437408,1
695,273,43,0.0817365350807249,1
696,270,43,0.0875152727293289,1
696,271,43,0.0904458242544311,1
696,272,43,0.0916145073031175,1
696,273,43,0.082256399667716,1
697,270,43,0.0890665107536115,1
697,271,43,0.0933893196841845,1
697,272,43,0.0929094068991479,1
697,273,43,0.0863752507559576,1
697,274,43,0.0683883385589731,1
698,271,43,0.094312793307322,1
698,272,43,0.0950113688333106,1
698,273,43,0.0900862101186378,1
698,274,43,0.0759397143001719,1
699,272,43,0.0920331446857563,1
699,273,43,0.0890647677289685,1
699,274,43,0.0798670303402729,1
700,272,43,0.0885316956872084,1
700,273,43,0.0874003828472766,1
700,274,43,0.0803143587471038,1
701,272,43,0.0847000962580867,1
701,273,43,0.0853553177896905,1
701,274,43,0.0782654063252795,1
702,273,43,0.0812453195894982,1
702,274,43,0.0764628253454328,1
703,274,43,0.0757093475380777,1
703,275,43,0.0738440176710833,1
704,275,43,0.0870387202082947,1
658,261,44,0.0754772796797684,1
659,260,44,0.103828839340615,1
659,261,44,0.083162892277579,1
660,259,44,0.0825826747136025,1
660,260,44,0.0859152000661655,1
660,261,44,0.0712080133515448,1
661,259,44,0.0686786150546728,1
662,258,44,0.0702078646134419,1
663,257,44,0.0799998476201137,1
663,258,44,0.0711654320381874,1
664,257,44,0.0769452358668135,1
664,258,44,0.0788194785196112,1
664,259,44,0.0802353536095057,1
664,260,44,0.06856622889874,1
665,257,44,0.0798117207541788,1
665,258,44,0.087678571976208,1
665,259,44,0.0916552377758747,1
665,260,44,0.0755152848047161,1
666,256,44,0.0839771663052995,1
666,257,44,0.0831205026370346,1
666,258,44,0.08719339417859,1
666,259,44,0.087603717752966,1
666,260,44,0.0721500013704606,1
667,256,44,0.0886537193917685,1
667,257,44,0.0878340006582044,1
667,258,44,0.0891681991706701,1
667,259,44,0.0858527686371143,1
667,260,44,0.0704840950858158,1
668,256,44,0.087553595312373,1
668,257,44,0.0881331719703812,1
668,258,44,0.0885096173750638,1
668,259,44,0.0834716172815275,1
668,260,44,0.0693746988340926,1
669,256,44,0.0872812462144619,1
669,257,44,0.0896428050146975,1
669,258,44,0.085246082255621,1
669,259,44,0.0774855615265896,1
670,256,44,0.0895603497664658,1
670,257,44,0.0938473578094404,1
670,258,44,0.0849514931216294,1
670,259,44,0.0742490822226533,1
671,256,44,0.087291632485015,1
671,257,44,0.0901767575534422,1
671,258,44,0.0814447671309493,1
671,259,44,0.0723741747047855,1
671,298,44,0.0689966661389275,1
671,299,44,0.0699320414457957,1
672,257,44,0.0797472048832866,1
672,258,44,0.0757318571140515,1
672,259,44,0.0721801958282796,1
672,260,44,0.0683650622917475,1
672,299,44,0.0712632450705586,1
673,257,44,0.0756780389820334,1
673,258,44,0.0758212065937748,1
673,259,44,0.0754534283941038,1
673,260,44,0.0737581362713198,1
673,261,44,0.0700115796734049,1
674,257,44,0.0762584003006196,1
674,258,44,0.0803389707342449,1
674,259,44,0.082770663814703,1
674,260,44,0.080759962098618,1
674,261,44,0.0754490199194054,1
675,257,44,0.0780829817255307,1
675,258,44,0.0862090344884559,1
675,259,44,0.0908232759413819,1
675,260,44,0.0827517361244217,1
675,261,44,0.0685694394183573,1
676,257,44,0.0780898100694929,1
676,258,44,0.0859927976065433,1
676,259,44,0.0912665372907124,1
676,260,44,0.0789064800073756,1
677,257,44,0.0752314173687003,1
677,258,44,0.0803455714667417,1
677,259,44,0.0846221333414092,1
677,260,44,0.0740551153256981,1
678,258,44,0.0740628002075433,1
678,259,44,0.0765755708878898,1
678,260,44,0.0713405371323907,1
679,258,44,0.0721110139223464,1
679,259,44,0.0722213935035183,1
679,260,44,0.0708597618196957,1
679,300,44,0.0692782933989417,1
680,258,44,0.0697842137887888,1
680,259,44,0.0696288929227497,1
680,260,44,0.0692034870939028,1
681,259,44,0.0684278351379968,1
681,260,44,0.0682813611702315,1
682,260,44,0.0681713289960331,1
686,265,44,0.0691974074718663,1
687,264,44,0.0684788380755743,1
687,265,44,0.0753727341398414,1
687,266,44,0.07651064771227,1
688,264,44,0.0683374853657807,1
688,265,44,0.0729905285837833,1
688,266,44,0.0737766506670981,1
689,265,44,0.0683054640264631,1
689,266,44,0.0685190174889942,1
690,266,44,0.068080829479432,1
690,267,44,0.0682108315648322,1
691,266,44,0.0707425059763583,1
691,267,44,0.0716920351225096,1
691,268,44,0.0699825292626884,1
692,266,44,0.0747850413361588,1
692,267,44,0.0765277605006034,1
692,268,44,0.0748651066640037,1
692,269,44,0.0728829582072765,1
692,270,44,0.0715809247887382,1
693,267,44,0.0790153621446961,1
693,268,44,0.078428813388116,1
693,269,44,0.0766186014344027,1
693,270,44,0.074984740448177,1
693,271,44,0.0718387067528632,1
694,268,44,0.0808594882067552,1
694,269,44,0.0772944577422783,1
694,270,44,0.0739787936074817,1
694,271,44,0.0751672788536586,1
694,272,44,0.077768818005514,1
694,273,44,0.069153765968262,1
695,269,44,0.08017492276544,1
695,270,44,0.0773206570199018,1
695,271,44,0.0812122979576878,1
695,272,44,0.088375248743393,1
695,273,44,0.0783158282546427,1
696,269,44,0.0829266255867105,1
696,270,44,0.0818364026060602,1
696,271,44,0.0839291582554247,1
696,272,44,0.0888698724168255,1
696,273,44,0.0800567444966902,1
697,270,44,0.0844487053843193,1
697,271,44,0.0873805866395616,1
697,272,44,0.0909693605737457,1
697,273,44,0.0839779509658776,1
698,270,44,0.084404339117891,1
698,271,44,0.0906143286161376,1
698,272,44,0.0950309613886619,1
698,273,44,0.0885230943697261,1
698,274,44,0.0734279199532165,1
699,271,44,0.0888688841038836,1
699,272,44,0.091798507213798,1
699,273,44,0.0866815199519898,1
699,274,44,0.0765729533560376,1
700,272,44,0.087570480489241,1
700,273,44,0.0828824090646673,1
700,274,44,0.0763224130303778,1
701,273,44,0.0816514802699673,1
701,274,44,0.0743247091269227,1
702,273,44,0.080523940988541,1
702,274,44,0.0737392804583434,1
702,275,44,0.0680769481049692,1
703,274,44,0.0743300040883811,1
703,275,44,0.0731347743550977,1
704,275,44,0.085137325903584,1
658,261,45,0.068015918283363,1
659,260,45,0.083033986321078,1
659,261,45,0.0746597532040027,1
660,259,45,0.0772915047830034,1
660,260,45,0.0774038969287115,1
660,261,45,0.0694527276382996,1
661,259,45,0.0681583132140771,1
662,258,45,0.0720443057936558,1
663,257,45,0.0827109098152581,1
663,258,45,0.0725114244184264,1
664,257,45,0.0802140060499607,1
664,258,45,0.0796283437801406,1
664,259,45,0.078472688492961,1
665,257,45,0.0825029088745279,1
665,258,45,0.0888659491139349,1
665,259,45,0.0904200921792892,1
665,260,45,0.0742616308021277,1
666,256,45,0.0844394811301949,1
666,257,45,0.0847116625143946,1
666,258,45,0.0881376762814861,1
666,259,45,0.0870315863857868,1
666,260,45,0.0714633215384273,1
667,256,45,0.0886173015573033,1
667,257,45,0.0875694682171975,1
667,258,45,0.0877987268708417,1
667,259,45,0.0836469260280946,1
667,260,45,0.0689992117934748,1
668,256,45,0.086900542079466,1
668,257,45,0.0876290005949524,1
668,258,45,0.0871605522400418,1
668,259,45,0.0820906865413484,1
668,260,45,0.0680053463297723,1
669,256,45,0.0864444266721153,1
669,257,45,0.0901799021855301,1
669,258,45,0.0843172118448432,1
669,259,45,0.0760821930877417,1
670,256,45,0.0909832628424618,1
670,257,45,0.0978213401897254,1
670,258,45,0.0859761520206915,1
670,259,45,0.0732786427705615,1
671,257,45,0.0931597076337915,1
671,258,45,0.0819173124922373,1
671,259,45,0.0715000029230104,1
671,299,45,0.068804556072348,1
672,257,45,0.0806645928946122,1
672,258,45,0.0748212615080357,1
672,259,45,0.0705368889662395,1
672,299,45,0.0683152093910478,1
672,300,45,0.0688526719381801,1
673,257,45,0.0752588445502819,1
673,258,45,0.0730280125982706,1
673,259,45,0.070931621155235,1
674,257,45,0.0755701152087777,1
674,258,45,0.0765859032504642,1
674,259,45,0.0765903895922429,1
674,260,45,0.0717592703514359,1
675,257,45,0.0763655454030726,1
675,258,45,0.0802598937193419,1
675,259,45,0.0834435072655497,1
675,260,45,0.0749594516164152,1
676,257,45,0.0777231220089458,1
676,258,45,0.0807042452077963,1
676,259,45,0.0845291121293623,1
676,260,45,0.0720360039649438,1
677,257,45,0.0760743404921851,1
677,258,45,0.0771591606954196,1
677,259,45,0.0795949507822551,1
678,257,45,0.0744933153148111,1
678,258,45,0.0727881460523834,1
678,259,45,0.0731994818988029,1
679,257,45,0.0759990609948892,1
679,258,45,0.0729381539876379,1
679,259,45,0.0715805055044598,1
679,260,45,0.0691707170326595,1
679,301,45,0.0698823862076844,1
680,258,45,0.0718936210137805,1
680,259,45,0.0708629903086392,1
680,260,45,0.0690407568756871,1
680,300,45,0.0716793308088746,1
681,258,45,0.0694167710165406,1
681,259,45,0.0718227739502847,1
681,260,45,0.070160755029878,1
682,259,45,0.0726788566103353,1
682,260,45,0.0730839870494347,1
683,259,45,0.0687966315994866,1
683,260,45,0.0708873686945395,1
687,265,45,0.0685763156805228,1
687,266,45,0.0690605231345252,1
688,266,45,0.067952648285755,1
691,265,45,0.0704669403690545,1
691,266,45,0.0696463710873829,1
692,265,45,0.0731916652418988,1
692,266,45,0.0737540572342686,1
692,267,45,0.0733562163518377,1
692,268,45,0.07119161933626,1
693,266,45,0.074014061405069,1
693,267,45,0.0762913919835529,1
693,268,45,0.0751665960192624,1
693,269,45,0.0722877602150109,1
693,270,45,0.0691620138889954,1
694,267,45,0.0780123862326019,1
694,268,45,0.0773356793766187,1
694,269,45,0.0730084380122456,1
694,270,45,0.0683448527895295,1
695,268,45,0.079195408803609,1
695,269,45,0.0759760782266585,1
695,270,45,0.0713736246517305,1
695,271,45,0.0727143280602865,1
695,272,45,0.0774443398922492,1
695,273,45,0.0706890592104154,1
696,269,45,0.0803538133976996,1
696,270,45,0.0766079755728334,1
696,271,45,0.0775477773237262,1
696,272,45,0.0826212967854169,1
696,273,45,0.0765539597782269,1
697,269,45,0.0817484307746802,1
697,270,45,0.0800728270436539,1
697,271,45,0.0817148880324096,1
697,272,45,0.0870319697314127,1
697,273,45,0.0817688020008342,1
698,270,45,0.0820671706831066,1
698,271,45,0.0862269199578166,1
698,272,45,0.0935682941732998,1
698,273,45,0.088910740654417,1
698,274,45,0.0714919346955392,1
699,271,45,0.0858377762292744,1
699,272,45,0.0930714423034165,1
699,273,45,0.08951180862658,1
699,274,45,0.0768999232158711,1
700,272,45,0.0888600971033638,1
700,273,45,0.0837790604735392,1
700,274,45,0.0770697992361455,1
700,275,45,0.0685986036348066,1
701,272,45,0.0907818087262498,1
701,273,45,0.0816664307493794,1
701,274,45,0.074441935021383,1
701,275,45,0.0696861611654014,1
702,273,45,0.0834149599959672,1
702,274,45,0.0746858326861181,1
702,275,45,0.0701505604321379,1
703,274,45,0.0766202007044359,1
703,275,45,0.0749119047792466,1
703,276,45,0.0695626340272145,1
704,275,45,0.0856920989016381,1
659,260,46,0.0713121396071934,1
660,259,46,0.0726298842066202,1
660,260,46,0.0699784382460864,1
662,258,46,0.0727408627653327,1
663,257,46,0.0818573668199794,1
663,258,46,0.0725926697320261,1
664,257,46,0.0808454242141031,1
664,258,46,0.0776882734956368,1
664,259,46,0.0744898951530546,1
665,256,46,0.0801367139881285,1
665,257,46,0.083081539148022,1
665,258,46,0.085962273711077,1
665,259,46,0.0850963558398106,1
665,260,46,0.07118430582049,1
666,256,46,0.0817630997346482,1
666,257,46,0.0844635001295708,1
666,258,46,0.0861599362994573,1
666,259,46,0.0835641353524403,1
666,260,46,0.0690746530147067,1
667,256,46,0.0838955915540525,1
667,257,46,0.0846888714189768,1
667,258,46,0.0835302032747683,1
667,259,46,0.0792665793149767,1
668,256,46,0.0820144666493139,1
668,257,46,0.0830474213873125,1
668,258,46,0.0809485741363606,1
668,259,46,0.0764897853245327,1
669,256,46,0.0820369163275336,1
669,257,46,0.085150886755102,1
669,258,46,0.0790484137253835,1
669,259,46,0.0713731754185751,1
670,256,46,0.0869221651686797,1
670,257,46,0.092181900757951,1
670,258,46,0.0813484215935524,1
670,259,46,0.0683196897430511,1
671,257,46,0.0880980539171789,1
671,258,46,0.0777458711759357,1
672,257,46,0.0769582935771974,1
672,258,46,0.0707967493824302,1
673,257,46,0.0721102891595224,1
673,258,46,0.0683405701001145,1
674,256,46,0.0752028401502408,1
674,257,46,0.0725079503486912,1
674,258,46,0.0704766018767835,1
674,259,46,0.0687193275581037,1
675,256,46,0.0772444431176426,1
675,257,46,0.074186057805837,1
675,258,46,0.0732670585449273,1
675,259,46,0.0728548961095019,1
676,256,46,0.0819962158036534,1
676,257,46,0.0769033613469539,1
676,258,46,0.0747943674164652,1
676,259,46,0.074156114918585,1
677,256,46,0.0821390300186459,1
677,257,46,0.0767382292288006,1
677,258,46,0.0734033259354017,1
677,259,46,0.0712740985435933,1
678,257,46,0.0755304149773903,1
678,258,46,0.0709676496542989,1
679,257,46,0.0769600485813912,1
679,258,46,0.072673519720449,1
679,259,46,0.0692467452518811,1
680,257,46,0.0750410623063146,1
680,258,46,0.0729752426769485,1
680,259,46,0.0710919015553099,1
680,301,46,0.0748019983903317,1
681,258,46,0.0715710716081962,1
681,259,46,0.0738487376141028,1
681,260,46,0.0704941698880477,1
682,258,46,0.0686998428187097,1
682,259,46,0.0753133754655733,1
682,260,46,0.0759350662344573,1
683,259,46,0.0711949796002625,1
683,260,46,0.0750170552864895,1
683,261,46,0.068170262816011,1
684,259,46,0.0682983601528322,1
684,260,46,0.0709603421283043,1
684,261,46,0.0683553468760398,1
685,260,46,0.0689083169516969,1
685,261,46,0.067836254970076,1
691,265,46,0.0691370904335332,1
692,265,46,0.0711388014967347,1
692,266,46,0.0712727987623303,1
692,267,46,0.0678425202751502,1
693,265,46,0.0694441083514911,1
693,266,46,0.0721373150261518,1
693,267,46,0.0718294166112093,1
693,268,46,0.0693888946018036,1
694,266,46,0.071661625032776,1
694,267,46,0.0741842309243383,1
694,268,46,0.0725511306395892,1
694,269,46,0.0682782404972453,1
695,267,46,0.0750193014522666,1
695,268,46,0.0753232945336447,1
695,269,46,0.0720876478084897,1
695,270,46,0.0679586680100375,1
696,268,46,0.0786659605759691,1
696,269,46,0.0775409669490902,1
696,270,46,0.0727626355989315,1
696,271,46,0.0717538555944694,1
696,272,46,0.0736708352947851,1
696,273,46,0.0693386343963763,1
697,269,46,0.0815781474496782,1
697,270,46,0.077254464011896,1
697,271,46,0.0764710193581874,1
697,272,46,0.0789615200535764,1
697,273,46,0.075073670643622,1
698,269,46,0.0842063291225372,1
698,270,46,0.0806804777789874,1
698,271,46,0.0811410615587907,1
698,272,46,0.0860715332042481,1
698,273,46,0.0834594400681282,1
699,270,46,0.0817465739443045,1
699,271,46,0.0833557151274318,1
699,272,46,0.0903395237103103,1
699,273,46,0.0889868407509434,1
699,274,46,0.0735847921710856,1
700,271,46,0.0827316823563642,1
700,272,46,0.0871913756242784,1
700,273,46,0.0834708925187034,1
700,274,46,0.0744420727862173,1
701,272,46,0.0914655236194574,1
701,273,46,0.0827679803953213,1
701,274,46,0.0733498671899079,1
701,275,46,0.0693486073724264,1
702,273,46,0.0882253665934221,1
702,274,46,0.0760966883442229,1
702,275,46,0.0707433864733429,1
703,274,46,0.0794803603889731,1
703,275,46,0.0762446956944919,1
703,276,46,0.0708692616034887,1
704,274,46,0.0825183265564216,1
704,275,46,0.084597461456514,1
662,258,47,0.0719582746495071,1
663,257,47,0.0791521805945077,1
663,258,47,0.072027690156681,1
664,257,47,0.0811070875526909,1
664,258,47,0.0755775844587083,1
664,259,47,0.0705044303733173,1
665,256,47,0.0798646883380894,1
665,257,47,0.0838663315011968,1
665,258,47,0.0814692832816839,1
665,259,47,0.0774205604838895,1
666,256,47,0.0788946621805006,1
666,257,47,0.0848120152115378,1
666,258,47,0.0826950848286368,1
666,259,47,0.0776402774253128,1
667,256,47,0.0778131183844129,1
667,257,47,0.081993047212464,1
667,258,47,0.0787794368710257,1
667,259,47,0.0736039953910355,1
668,257,47,0.0779969745404836,1
668,258,47,0.0744262358200453,1
668,259,47,0.0699529577415116,1
669,256,47,0.0769762988420662,1
669,257,47,0.0781647840882431,1
669,258,47,0.0726012590699575,1
670,256,47,0.081271686580833,1
670,257,47,0.082092010281713,1
670,258,47,0.0736620363147145,1
671,257,47,0.0814697265250639,1
671,258,47,0.0716142279399926,1
672,257,47,0.0757550794732984,1
673,257,47,0.0714297308779535,1
674,256,47,0.0754935778586467,1
674,257,47,0.069924009156977,1
675,255,47,0.0809042497983602,1
675,256,47,0.0765422677366354,1
675,257,47,0.0716697531580013,1
675,258,47,0.0679285574090742,1
676,255,47,0.0821420668347765,1
676,256,47,0.0798565003151101,1
676,257,47,0.0740779902779716,1
676,258,47,0.0690653688628282,1
677,255,47,0.0806325296268667,1
677,256,47,0.0800628301085021,1
677,257,47,0.0743595396709054,1
677,258,47,0.0684566219985954,1
678,256,47,0.0787570530803354,1
678,257,47,0.0747453890229747,1
678,258,47,0.0684333397415944,1
679,257,47,0.0764875571280819,1
679,258,47,0.072099825021889,1
680,257,47,0.076214782756117,1
680,258,47,0.0745163400114697,1
680,259,47,0.0706464000299776,1
681,257,47,0.073007779136951,1
681,258,47,0.0737955783573793,1
681,259,47,0.073681455166579,1
681,260,47,0.0694484509386601,1
682,258,47,0.0707013023113441,1
682,259,47,0.0740686881567669,1
682,260,47,0.074240199385727,1
683,258,47,0.0680579245782815,1
683,259,47,0.0709516629437417,1
683,260,47,0.0744211145620736,1
683,261,47,0.0689322221453401,1
684,259,47,0.0688537321284269,1
684,260,47,0.0714235913581629,1
684,261,47,0.0689589545129747,1
685,259,47,0.0694688461239157,1
685,260,47,0.0699370069696068,1
685,261,47,0.0686316312563923,1
692,264,47,0.0677515595458428,1
692,265,47,0.0689303772945152,1
693,265,47,0.0685683672485598,1
693,266,47,0.0694123086338635,1
693,267,47,0.0682244822629812,1
694,266,47,0.0699663269202166,1
694,267,47,0.0711086669366698,1
694,268,47,0.06848047328426,1
695,266,47,0.0703901933767843,1
695,267,47,0.0728177535122126,1
695,268,47,0.071535983503871,1
696,267,47,0.0750888487344994,1
696,268,47,0.0758244949804724,1
696,269,47,0.0730687370812524,1
696,270,47,0.0690862791687687,1
697,268,47,0.0799373263444314,1
697,269,47,0.0793585343470014,1
697,270,47,0.0752656609146933,1
697,271,47,0.0721566859598131,1
697,272,47,0.0703542008163728,1
698,269,47,0.0833492761188709,1
698,270,47,0.0788321169457167,1
698,271,47,0.0761304407286327,1
698,272,47,0.0763998009286164,1
698,273,47,0.074075396705221,1
699,269,47,0.0851772597362122,1
699,270,47,0.0808723961727539,1
699,271,47,0.0799453825923518,1
699,272,47,0.0833186384176719,1
699,273,47,0.0831841559802684,1
699,274,47,0.067879405312097,1
700,270,47,0.0808493415272183,1
700,271,47,0.080724478669116,1
700,272,47,0.0828540654474487,1
700,273,47,0.0819506635616949,1
700,274,47,0.0707992890472021,1
701,271,47,0.0829534298316499,1
701,272,47,0.0866590103760161,1
701,273,47,0.0835675075959936,1
701,274,47,0.0726128672546933,1
701,275,47,0.067996655165659,1
702,272,47,0.0933633540078019,1
702,273,47,0.0907359090773178,1
702,274,47,0.0774530370461379,1
702,275,47,0.0710206831257389,1
703,273,47,0.0900697741749252,1
703,274,47,0.0817875260387516,1
703,275,47,0.0772694923583883,1
703,276,47,0.071001983046923,1
704,274,47,0.0830369752190054,1
704,275,47,0.0823390465887606,1
704,276,47,0.0776423978058063,1
705,275,47,0.0850989434227858,1
662,258,48,0.0721067492022577,1
663,257,48,0.0777732624188649,1
663,258,48,0.0727372689000894,1
664,257,48,0.0809941922658487,1
664,258,48,0.0749701313859631,1
664,259,48,0.0692872001949696,1
665,257,48,0.0832983210994966,1
665,258,48,0.0779326623219551,1
665,259,48,0.0722728995822299,1
666,256,48,0.075465869157621,1
666,257,48,0.0826131147522131,1
666,258,48,0.0782166255943774,1
666,259,48,0.0720738413761801,1
667,257,48,0.0778603178146079,1
667,258,48,0.0737037551004135,1
667,259,48,0.0683447509633476,1
668,257,48,0.0717704053439147,1
669,256,48,0.0720943803160455,1
669,257,48,0.0702498768981359,1
670,256,48,0.0770439174166185,1
670,257,48,0.0717654877383068,1
671,257,48,0.0762902479364505,1
672,257,48,0.0774215907252593,1
673,257,48,0.0722002376167862,1
674,256,48,0.0768080999589053,1
675,255,48,0.0803215584571412,1
675,256,48,0.0771890197258159,1
675,257,48,0.069641896725155,1
676,255,48,0.080344127930869,1
676,256,48,0.0779293499761559,1
676,257,48,0.0706248548078442,1
677,256,48,0.0773190397805423,1
677,257,48,0.070697061550357,1
678,256,48,0.0774302938689234,1
678,257,48,0.0723658489169719,1
679,256,48,0.0777396897277173,1
679,257,48,0.0750817388710931,1
679,258,48,0.070989218835534,1
680,257,48,0.0767632545104446,1
680,258,48,0.0754753569618632,1
680,259,48,0.0699832420459616,1
681,257,48,0.0765978768114998,1
681,258,48,0.0763111342832894,1
681,259,48,0.0730708754310722,1
682,257,48,0.0744287036075123,1
682,258,48,0.0733632183992867,1
682,259,48,0.072186539000434,1
682,260,48,0.0697273408713139,1
683,258,48,0.0716553717072528,1
683,259,48,0.0709153289661322,1
683,260,48,0.0714806319893491,1
684,258,48,0.0706240761370415,1
684,259,48,0.0699805166981521,1
684,260,48,0.0705728875164264,1
684,261,48,0.067764281828804,1
685,259,48,0.0706148578726924,1
685,260,48,0.0716940117483934,1
685,261,48,0.0687128286517888,1
686,259,48,0.0722508691882886,1
686,260,48,0.072424482828416,1
686,261,48,0.0679543973001734,1
687,260,48,0.0685688045021644,1
693,265,48,0.068060518151032,1
694,265,48,0.0689726710986532,1
694,266,48,0.0691048115338732,1
694,267,48,0.0688315040718972,1
695,266,48,0.0701385149937975,1
695,267,48,0.070730712108585,1
696,266,48,0.070678756796718,1
696,267,48,0.0736058522214112,1
696,268,48,0.0722926598512926,1
697,267,48,0.0752221631656989,1
697,268,48,0.0779411797825817,1
697,269,48,0.0757772835707265,1
697,270,48,0.0721586086777183,1
698,268,48,0.0817524678833035,1
698,269,48,0.0815903785710562,1
698,270,48,0.0771788371076266,1
698,271,48,0.0720268156494718,1
698,272,48,0.0681428056855523,1
699,268,48,0.0836924483211762,1
699,269,48,0.0851288264122836,1
699,270,48,0.0806936313257779,1
699,271,48,0.0770851031123065,1
699,272,48,0.076391463161252,1
699,273,48,0.0743146822428939,1
700,269,48,0.0841092947609687,1
700,270,48,0.0815820827321196,1
700,271,48,0.0794394861616062,1
700,272,48,0.0795168441109678,1
700,273,48,0.0787707636762385,1
700,274,48,0.0683003966764701,1
701,270,48,0.0797253302235058,1
701,271,48,0.080336742537794,1
701,272,48,0.0819321431761412,1
701,273,48,0.0823715051816828,1
701,274,48,0.0722492279898275,1
702,271,48,0.0824780153679428,1
702,272,48,0.0872853072821868,1
702,273,48,0.0886145762094938,1
702,274,48,0.0775468788574154,1
702,275,48,0.0681230214573881,1
703,272,48,0.0851070236298077,1
703,273,48,0.0887583368090003,1
703,274,48,0.0820826602423051,1
703,275,48,0.0754161240728786,1
703,276,48,0.0679965653190279,1
704,273,48,0.0860353908994515,1
704,274,48,0.084680024520703,1
704,275,48,0.0801101493342053,1
704,276,48,0.0735196533635512,1
705,275,48,0.0805043005149865,1
705,276,48,0.0766484424954727,1
706,275,48,0.0827278309307785,1
651,277,49,0.0687038260193543,1
661,259,49,0.0690351204970306,1
662,258,49,0.071513174439127,1
662,259,49,0.0681863813016271,1
663,257,49,0.0764713547856101,1
663,258,49,0.0724289871395209,1
663,259,49,0.0686654435385561,1
664,257,49,0.0794342630774527,1
664,258,49,0.07408660956478,1
664,259,49,0.0690613077951033,1
665,257,49,0.0803726811902268,1
665,258,49,0.0750911847469076,1
665,259,49,0.0690524069888508,1
666,256,49,0.0721553801887747,1
666,257,49,0.0776010623657332,1
666,258,49,0.0735377245159495,1
667,257,49,0.0722641724794642,1
667,258,49,0.0686028743446706,1
669,256,49,0.0680691134787389,1
671,257,49,0.0723196917076974,1
672,257,49,0.0804120160453145,1
673,257,49,0.0731233398738486,1
674,256,49,0.0789480909771173,1
675,255,49,0.0801930118871645,1
675,256,49,0.0778180359900208,1
676,255,49,0.0790045805489663,1
676,256,49,0.0759806544150682,1
677,256,49,0.0740836386361789,1
678,256,49,0.074273837964404,1
678,257,49,0.0696701624752934,1
679,256,49,0.075639093462347,1
679,257,49,0.0729364708607489,1
679,258,49,0.0688757265837158,1
680,257,49,0.0761091171281892,1
680,258,49,0.0745668338181378,1
680,259,49,0.0685838328486567,1
681,257,49,0.0787512190390905,1
681,258,49,0.076851777401162,1
681,259,49,0.0708466621808839,1
682,257,49,0.077416918700443,1
682,258,49,0.0744450197557168,1
682,259,49,0.0687934689980725,1
683,258,49,0.0729858625487424,1
683,259,49,0.0684240735590421,1
684,258,49,0.0713888806096882,1
684,259,49,0.068552829771158,1
685,258,49,0.0703109366686192,1
685,259,49,0.0700825225733072,1
685,260,49,0.0698742161540313,1
686,259,49,0.0737665039875612,1
686,260,49,0.0749679451179401,1
686,261,49,0.0682852784833467,1
687,259,49,0.0716631823743815,1
687,260,49,0.0707309397200504,1
694,263,49,0.0678024606572384,1
694,264,49,0.0680667594970045,1
694,265,49,0.0689512336924771,1
695,265,49,0.0684293924796022,1
695,266,49,0.0690300351777114,1
695,267,49,0.0677863781102747,1
696,265,49,0.0679808062199361,1
696,266,49,0.0704799381816844,1
696,267,49,0.0717182104410315,1
696,268,49,0.0680125640091359,1
697,266,49,0.0700828220620775,1
697,267,49,0.0738087139348435,1
697,268,49,0.0740099943475687,1
697,269,49,0.0704135834497426,1
698,267,49,0.074651750864061,1
698,268,49,0.0781347154157077,1
698,269,49,0.0775939465125515,1
698,270,49,0.0731599553709022,1
699,267,49,0.0749033933083954,1
699,268,49,0.0802115083136166,1
699,269,49,0.0824960925101165,1
699,270,49,0.078732656725109,1
699,271,49,0.0733119519115913,1
699,272,49,0.0681767916712029,1
700,268,49,0.0803977424105233,1
700,269,49,0.0836135390199846,1
700,270,49,0.0812420012539235,1
700,271,49,0.0774928331139318,1
700,272,49,0.0743707585202399,1
700,273,49,0.071274817316642,1
701,269,49,0.078102220884133,1
701,270,49,0.0785664704064844,1
701,271,49,0.0779184066564901,1
701,272,49,0.0771716613566908,1
701,273,49,0.0769150114601175,1
701,274,49,0.069458154374817,1
702,270,49,0.0765450889208514,1
702,271,49,0.079860531433958,1
702,272,49,0.0814435751656436,1
702,273,49,0.0829279313577489,1
702,274,49,0.0770900386872406,1
703,272,49,0.0833838431127358,1
703,273,49,0.0857899778215388,1
703,274,49,0.0827603434316794,1
703,275,49,0.0739365716806486,1
704,273,49,0.0885495631872429,1
704,274,49,0.0879571863791932,1
704,275,49,0.0796988673957645,1
704,276,49,0.0705053168600773,1
705,274,49,0.087218389511357,1
705,275,49,0.0797297926061829,1
705,276,49,0.073169095768171,1
706,276,49,0.077247683586137,1
651,278,50,0.0738006816460248,1
661,259,50,0.0690973362941672,1
662,259,50,0.0689957317339643,1
663,258,50,0.071331205062309,1
663,259,50,0.0695445329259392,1
664,257,50,0.0775060106198239,1
664,258,50,0.0729427661147001,1
664,259,50,0.0690926463000247,1
665,257,50,0.0762088828273427,1
665,258,50,0.07205899272295,1
666,257,50,0.0718798864587758,1
666,258,50,0.0690681900470442,1
671,257,50,0.0695663177390888,1
672,257,50,0.0811932325025723,1
673,256,50,0.0932082607532281,1
673,257,50,0.0734251586667546,1
674,255,50,0.0795980594756905,1
674,256,50,0.0793980908237791,1
675,255,50,0.0791360800782178,1
675,256,50,0.0772009393788727,1
676,255,50,0.0774781461846377,1
676,256,50,0.0745008085238433,1
677,256,50,0.0719932968663028,1
678,256,50,0.0714036034776348,1
679,256,50,0.0731076766111633,1
679,257,50,0.0707401579843994,1
680,257,50,0.0754536679851201,1
680,258,50,0.0728574417640492,1
681,257,50,0.0798594952028128,1
681,258,50,0.0758876332030214,1
682,257,50,0.0794140415956838,1
682,258,50,0.07457277567534,1
683,257,50,0.0775650757950972,1
683,258,50,0.0728943747191993,1
684,258,50,0.0712688515003381,1
685,258,50,0.0701129985505702,1
685,259,50,0.068655057268003,1
686,258,50,0.0697154451773587,1
686,259,50,0.0726289438118816,1
686,260,50,0.0717844992854438,1
687,259,50,0.0707045787184909,1
687,260,50,0.0686997110436508,1
696,264,50,0.0678885277400395,1
696,265,50,0.0677673905222394,1
696,266,50,0.0677473127950803,1
697,265,50,0.0685507812679693,1
697,266,50,0.068237138658413,1
697,267,50,0.0699523947026235,1
697,268,50,0.0678245569387092,1
698,266,50,0.0688029627920902,1
698,267,50,0.0717722621742904,1
698,268,50,0.0726428700396993,1
698,269,50,0.0717539753899775,1
699,267,50,0.0732090535599008,1
699,268,50,0.0755076777899511,1
699,269,50,0.0780405202076813,1
699,270,50,0.0749773131266743,1
700,268,50,0.0775666511060288,1
700,269,50,0.0809464537558671,1
700,270,50,0.0794686324087292,1
700,271,50,0.0739608003221637,1
700,272,50,0.0682409840942233,1
701,269,50,0.0765037415012275,1
701,270,50,0.0768889739064299,1
701,271,50,0.0753162325884417,1
701,272,50,0.0730022206253747,1
701,273,50,0.0719468761069105,1
702,270,50,0.0748552894221141,1
702,271,50,0.0770400360421558,1
702,272,50,0.0772506724840643,1
702,273,50,0.0781428615102591,1
702,274,50,0.0752085424164268,1
703,271,50,0.0799418306555364,1
703,272,50,0.0822258098847203,1
703,273,50,0.0830075594319891,1
703,274,50,0.0812605515883543,1
703,275,50,0.0717476801360264,1
704,273,50,0.089259537255828,1
704,274,50,0.0875201004883057,1
704,275,50,0.0777506390371585,1
705,274,50,0.0888082795563311,1
705,275,50,0.0794752750696539,1
705,276,50,0.0697097009827448,1
706,276,50,0.0752869066480565,1
706,277,50,0.0688968884602233,1
661,259,51,0.0689482088558973,1
662,258,51,0.0690043090923449,1
662,259,51,0.0689429079046635,1
663,258,51,0.0712758116193593,1
663,259,51,0.069892868314644,1
664,258,51,0.0730561106346977,1
664,259,51,0.0700581322078561,1
665,258,51,0.0704882519899471,1
671,257,51,0.0698313832701069,1
672,257,51,0.0809879808687532,1
673,256,51,0.08968176850371,1
673,257,51,0.0749617337208447,1
674,255,51,0.0789554344417644,1
674,256,51,0.0786186772889184,1
674,257,51,0.0679069163505343,1
675,255,51,0.0768631040664537,1
675,256,51,0.0755813100990105,1
676,255,51,0.0755842331094084,1
676,256,51,0.0740644174469028,1
677,255,51,0.0733770667600241,1
677,256,51,0.0721850415565826,1
678,256,51,0.0705115402367236,1
679,256,51,0.0712871502642018,1
679,257,51,0.0700050927466407,1
680,256,51,0.0746185016207853,1
680,257,51,0.0756498870376277,1
680,258,51,0.0727949085088162,1
681,257,51,0.0795941062239229,1
681,258,51,0.0756128342869695,1
682,257,51,0.0796778313045405,1
682,258,51,0.0748240767024763,1
683,257,51,0.0776537544199751,1
683,258,51,0.0721599204385321,1
684,257,51,0.0781203399547346,1
684,258,51,0.0717067220518038,1
685,258,51,0.0700077941353486,1
686,258,51,0.0688041248085189,1
686,259,51,0.0703687200319557,1
687,259,51,0.0683944121912343,1
696,264,51,0.0703549375587477,1
696,265,51,0.0687109838009639,1
697,265,51,0.0717053623727868,1
697,266,51,0.0682323947562919,1
698,265,51,0.0715992654810298,1
698,266,51,0.0694771060241998,1
698,267,51,0.0699286512329162,1
698,268,51,0.0684851752579533,1
699,266,51,0.0704453412389424,1
699,267,51,0.0718990836889503,1
699,268,51,0.0719526083219735,1
699,269,51,0.0731715455863118,1
699,270,51,0.0699701184480482,1
700,267,51,0.0734263805809373,1
700,268,51,0.074502192161962,1
700,269,51,0.0768871949431345,1
700,270,51,0.0761931716464541,1
700,271,51,0.0691275846599648,1
701,268,51,0.0727646242043661,1
701,269,51,0.0738631550035038,1
701,270,51,0.0741851293906491,1
701,271,51,0.0722402253573931,1
701,272,51,0.0685855339448718,1
702,269,51,0.07105438160217,1
702,270,51,0.0724436501097135,1
702,271,51,0.0748018726050482,1
702,272,51,0.0742967608348808,1
702,273,51,0.0730200941151846,1
702,274,51,0.069174107245539,1
703,271,51,0.0783580861201282,1
703,272,51,0.0805465883293491,1
703,273,51,0.0794773535217196,1
703,274,51,0.076016119875244,1
704,272,51,0.0864521175437359,1
704,273,51,0.0880358740586948,1
704,274,51,0.0844832424293072,1
704,275,51,0.0745841921872628,1
705,273,51,0.0907809761474685,1
705,274,51,0.0905264646007149,1
705,275,51,0.0808499464945343,1
662,259,52,0.0688349541825308,1
663,258,52,0.0718687394867462,1
663,259,52,0.0709208096106282,1
663,260,52,0.0683885062726845,1
664,258,52,0.0737524100460321,1
664,259,52,0.0715377205387386,1
665,258,52,0.06918763814818,1
672,257,52,0.0770140164577944,1
673,256,52,0.0843559597019411,1
673,257,52,0.0732008954857986,1
674,255,52,0.0765706592720573,1
674,256,52,0.0752430674818639,1
675,255,52,0.0736905176967675,1
675,256,52,0.07184552910705,1
676,255,52,0.0730315226066583,1
676,256,52,0.0726088121767438,1
677,255,52,0.0718040738714688,1
677,256,52,0.0724050939254285,1
677,257,52,0.0696489826294596,1
678,255,52,0.070087320383407,1
678,256,52,0.0697983256996441,1
678,257,52,0.0690278608892392,1
679,256,52,0.0694909843338143,1
679,257,52,0.0691409298795681,1
680,256,52,0.0723936714237303,1
680,257,52,0.0738784708592155,1
680,258,52,0.071965600144828,1
681,256,52,0.0741026621628667,1
681,257,52,0.077574970904067,1
681,258,52,0.0754152615452202,1
682,257,52,0.0781299176056079,1
682,258,52,0.0742046141300431,1
683,257,52,0.0769863496851966,1
683,258,52,0.0705100368030968,1
684,257,52,0.0778044152407487,1
684,258,52,0.0700142211643587,1
696,264,52,0.0682348385846573,1
697,264,52,0.074944159719805,1
697,265,52,0.0712080972084005,1
698,265,52,0.072005545957007,1
699,266,52,0.0688628246074924,1
699,267,52,0.0689915868093837,1
699,268,52,0.0681682083230469,1
700,267,52,0.070896269500792,1
700,268,52,0.0713126966563061,1
700,269,52,0.0721731039341995,1
700,270,52,0.0700186835470357,1
701,268,52,0.0705915935850176,1
701,269,52,0.0707781092013684,1
701,270,52,0.0706287301925315,1
701,271,52,0.0677524400428274,1
702,269,52,0.0690611281018411,1
702,270,52,0.0696932650390323,1
702,271,52,0.0716343356160287,1
702,272,52,0.0701776282271952,1
703,270,52,0.0708618282922106,1
703,271,52,0.0761161670938415,1
703,272,52,0.077872003866424,1
703,273,52,0.0744487214369174,1
703,274,52,0.0693223661663751,1
704,271,52,0.0808731448946796,1
704,272,52,0.085356138388921,1
704,273,52,0.0846800664491308,1
704,274,52,0.0812404618816443,1
704,275,52,0.0712786328035752,1
705,273,52,0.0897241641340299,1
705,274,52,0.0932184313918666,1
705,275,52,0.0838675953438074,1
706,274,52,0.0971281195229494,1
706,275,52,0.0914643376439271,1
662,259,53,0.0689252021285649,1
662,260,53,0.0678150811140177,1
663,259,53,0.0707944373291237,1
663,260,53,0.0688741273136825,1
664,258,53,0.0715282207549455,1
664,259,53,0.0709746277426463,1
672,257,53,0.0684964540050418,1
673,256,53,0.0783709880963516,1
673,257,53,0.0690724907057853,1
674,256,53,0.073548398295722,1
675,256,53,0.0711976270809917,1
676,256,53,0.0727167479295503,1
676,257,53,0.0704764581221738,1
677,256,53,0.0734320109698184,1
677,257,53,0.0739846216589512,1
678,256,53,0.0698760969435087,1
678,257,53,0.0710270083285671,1
679,256,53,0.068693170208908,1
679,257,53,0.0687967334256685,1
680,256,53,0.0711316257457989,1
680,257,53,0.0715363728392724,1
680,258,53,0.0707851771363468,1
681,257,53,0.0752456610546145,1
681,258,53,0.0752066736065003,1
681,259,53,0.067806413909006,1
682,257,53,0.0765140858433527,1
682,258,53,0.0735623904110692,1
683,257,53,0.0765029029326707,1
683,258,53,0.0699591212204038,1
684,257,53,0.0759829964172518,1
684,258,53,0.0686542366687725,1
697,264,53,0.0745208383327992,1
697,265,53,0.0700484587205763,1
698,264,53,0.0764500850931453,1
698,265,53,0.073334401589811,1
699,265,53,0.0718012646668036,1
699,266,53,0.0694334166023924,1
700,266,53,0.070715156661857,1
700,267,53,0.069797762660756,1
700,268,53,0.0686884502658885,1
701,267,53,0.0695386988846942,1
701,268,53,0.0682921787046138,1
701,269,53,0.0677852160938461,1
702,268,53,0.0686742065799743,1
702,269,53,0.0677904691268767,1
702,271,53,0.0679311809307018,1
703,269,53,0.0694940271397203,1
703,270,53,0.0693913504097198,1
703,271,53,0.0729493189289937,1
703,272,53,0.0743611329511633,1
703,273,53,0.0693172928266066,1
704,271,53,0.0782583024516486,1
704,272,53,0.0817156846725385,1
704,273,53,0.0802900103100806,1
704,274,53,0.0770629888615095,1
705,272,53,0.0843262444261546,1
705,273,53,0.0875282585624079,1
705,274,53,0.0928445196621805,1
705,275,53,0.0848122727718802,1
706,273,53,0.0906290215352072,1
706,274,53,0.100074849431422,1
706,275,53,0.0958777539070586,1
706,276,53,0.0770633482480338,1
662,260,54,0.070606268534761,1
663,259,54,0.070552600147128,1
663,260,54,0.0701838575936168,1
664,259,54,0.0686683485796278,1
674,257,54,0.0702493977161034,1
675,257,54,0.0741729282181482,1
676,256,54,0.0786616419479018,1
676,257,54,0.0786976944060673,1
677,256,54,0.0768242244342969,1
677,257,54,0.0798366921278442,1
677,258,54,0.0692949809132213,1
678,256,54,0.0712701033633979,1
678,257,54,0.0736590114781347,1
678,258,54,0.0678692107143569,1
679,257,54,0.0703671387312487,1
680,257,54,0.0715953661372408,1
680,258,54,0.0703916249331062,1
681,257,54,0.0744370293953259,1
681,258,54,0.0745008264931696,1
681,259,54,0.0702287329909546,1
682,257,54,0.0752233491412291,1
682,258,54,0.0721709296457273,1
682,259,54,0.0678162131815694,1
683,257,54,0.075056120601684,1
683,258,54,0.0682901421809759,1
697,263,54,0.0697414228332922,1
697,264,54,0.071602326256262,1
697,265,54,0.0681616195701009,1
698,264,54,0.07566558024919,1
698,265,54,0.0735765562299031,1
699,265,54,0.0726495785881534,1
699,266,54,0.0701595630645723,1
700,266,54,0.0720456475033466,1
700,267,54,0.068109370759239,1
701,267,54,0.0686250245341201,1
703,271,54,0.0690791393564854,1
703,272,54,0.0693040494331852,1
704,271,54,0.0752000309455757,1
704,272,54,0.0776511788165507,1
704,273,54,0.0763306669408866,1
704,274,54,0.071438853305896,1
705,272,54,0.0824730738032333,1
705,273,54,0.086006532161548,1
705,274,54,0.0893707194669042,1
705,275,54,0.0820137059478374,1
706,273,54,0.091614794812337,1
706,274,54,0.10106672628969,1
706,275,54,0.0972049563618507,1
706,276,54,0.0764912647990579,1
707,275,54,0.0924770469410552,1
661,261,55,0.0680116895019267,1
662,260,55,0.0786102257158213,1
662,261,55,0.071494354564803,1
663,259,55,0.0707165582693018,1
663,260,55,0.0733679083934291,1
663,261,55,0.068853570404491,1
673,257,55,0.0755369078939298,1
674,257,55,0.090748218065776,1
675,257,55,0.0976692837512823,1
675,258,55,0.0714189193333466,1
676,256,55,0.0925759501125503,1
676,257,55,0.0929328329107587,1
676,258,55,0.0720522182869664,1
677,256,55,0.0817131270384404,1
677,257,55,0.0850313787562121,1
677,258,55,0.0723096049259146,1
678,256,55,0.0737326258178679,1
678,257,55,0.0765090783911137,1
678,258,55,0.0695321161215236,1
679,257,55,0.0740649924653417,1
679,258,55,0.0691383902147962,1
680,257,55,0.0736585682347547,1
680,258,55,0.0696769848294802,1
681,257,55,0.0746642635048831,1
681,258,55,0.071916082671551,1
681,259,55,0.0682576835880537,1
682,257,55,0.0754748118923013,1
682,258,55,0.0713598541580733,1
682,259,55,0.0679949840183209,1
683,257,55,0.0734347003789755,1
694,261,55,0.0687082644429298,1
698,264,55,0.0721426099876103,1
698,265,55,0.0706665316651154,1
699,265,55,0.0725578811164711,1
699,266,55,0.0698702149840605,1
700,265,55,0.0742274052254609,1
700,266,55,0.0726380602500487,1
701,266,55,0.0731836089939784,1
703,269,55,0.0686959434749208,1
704,270,55,0.0731271074425787,1
704,271,55,0.0731147804847942,1
704,272,55,0.0731600212584317,1
704,273,55,0.0706833030362507,1
705,271,55,0.0789685580396778,1
705,272,55,0.0793395767078431,1
705,273,55,0.0814657013959914,1
705,274,55,0.0813811676956941,1
705,275,55,0.073992965416091,1
706,272,55,0.0822210659825992,1
706,273,55,0.0880232536019155,1
706,274,55,0.0944241013036818,1
706,275,55,0.0899128061206496,1
706,276,55,0.0727601917705661,1
707,274,55,0.090679880718175,1
707,275,55,0.0890660735000069,1
707,276,55,0.0768903455649978,1
661,261,56,0.0817556304847175,1
662,260,56,0.0923203304573467,1
662,261,56,0.0866386571191883,1
663,260,56,0.0798288814607155,1
663,261,56,0.0766031298445304,1
664,260,56,0.0685824851491905,1
673,257,56,0.0975879785399285,1
673,258,56,0.0736651629774761,1
674,257,56,0.131888038063921,1
674,258,56,0.0942509069478328,1
675,257,56,0.135960342607486,1
675,258,56,0.0962847232072075,1
676,257,56,0.110629678254183,1
676,258,56,0.0830922967846502,1
677,257,56,0.0879013856315159,1
677,258,56,0.0745806162913457,1
678,256,56,0.0755903786189744,1
678,257,56,0.0803427682518519,1
678,258,56,0.0739995781281386,1
679,257,56,0.0806144105562652,1
679,258,56,0.0756023042618067,1
680,257,56,0.076935065228175,1
680,258,56,0.0724175586480473,1
681,257,56,0.075517159604418,1
681,258,56,0.0718305187298839,1
682,257,56,0.0768790548383585,1
682,258,56,0.072883659010999,1
682,259,56,0.0681332160551282,1
683,257,56,0.0733294420557753,1
683,258,56,0.0692706204966473,1
692,260,56,0.0698169299420535,1
693,260,56,0.0758605534284133,1
693,261,56,0.0695449701795438,1
694,261,56,0.0703295109621515,1
697,263,56,0.0700478357839341,1
698,263,56,0.0724668604894097,1
698,264,56,0.0696935166095993,1
699,264,56,0.0718518722792044,1
699,265,56,0.0722344152752498,1
699,266,56,0.0683937892545921,1
700,265,56,0.0752557358568465,1
700,266,56,0.0713279825631409,1
701,266,56,0.0717588151285051,1
703,268,56,0.0696806685413546,1
703,269,56,0.0686125238728489,1
704,269,56,0.0731257597431124,1
704,270,56,0.0719152680620959,1
704,271,56,0.0695735234389016,1
705,270,56,0.0767219430294731,1
705,271,56,0.0762598019080645,1
705,272,56,0.0743834388747733,1
705,273,56,0.0735780237248774,1
705,274,56,0.0703564949003531,1
706,271,56,0.0798570873130998,1
706,272,56,0.078103682389332,1
706,273,56,0.0799127562857182,1
706,274,56,0.0819477225819708,1
706,275,56,0.0773025738879527,1
707,273,56,0.0805581665652079,1
707,274,56,0.0839895950892659,1
707,275,56,0.0814168907162123,1
707,276,56,0.0706845608890858,1
708,275,56,0.0777598093833042,1
657,290,57,0.0747996264392712,1
661,262,57,0.0769141728915607,1
662,261,57,0.105461735973,1
662,262,57,0.0818534435170888,1
663,260,57,0.0853037338438986,1
663,261,57,0.0872297760744028,1
663,262,57,0.072784180821065,1
664,260,57,0.0708514180625559,1
664,261,57,0.0732629555487746,1
673,257,57,0.129893442853901,1
673,258,57,0.0956134670468433,1
674,257,57,0.181204266866824,1
674,258,57,0.129496847844754,1
675,256,57,0.163808868950231,1
675,257,57,0.173110678686597,1
675,258,57,0.124399453138297,1
676,257,57,0.124995735279911,1
676,258,57,0.0956466923310174,1
677,257,57,0.0919266285097209,1
677,258,57,0.0810017094339825,1
678,256,57,0.0796890920823028,1
678,257,57,0.0873048818682119,1
678,258,57,0.0837940528813791,1
679,256,57,0.079652548462554,1
679,257,57,0.0870123771760614,1
679,258,57,0.0841882280212619,1
680,257,57,0.0777203547327084,1
680,258,57,0.0747853408249291,1
681,257,57,0.073652087297766,1
681,258,57,0.0708199777314526,1
682,257,57,0.0736160048907235,1
682,258,57,0.0707560368789993,1
692,260,57,0.0716362822930355,1
693,260,57,0.076524328359296,1
693,261,57,0.0711736799589207,1
694,261,57,0.0699529098233083,1
699,264,57,0.0718249003205536,1
699,265,57,0.0703732423123868,1
700,265,57,0.0746652038996217,1
700,266,57,0.0699258300487002,1
701,266,57,0.0700483928330468,1
703,268,57,0.0685901880003619,1
703,269,57,0.0679195667561907,1
704,269,57,0.0717769581582083,1
704,270,57,0.0697688859535262,1
705,270,57,0.0739193930047857,1
705,271,57,0.0726089199927011,1
705,272,57,0.0692298241363606,1
706,271,57,0.0757691913841537,1
706,272,57,0.0740865436772506,1
706,273,57,0.0718469546735965,1
706,274,57,0.0684982629172142,1
707,272,57,0.0773177819277071,1
707,273,57,0.0762595084090697,1
707,274,57,0.074227968264349,1
707,275,57,0.069887699138469,1
656,289,58,0.0726137417619025,1
656,290,58,0.0855090753243487,1
657,289,58,0.0791071794118865,1
657,290,58,0.0893709590579205,1
661,262,58,0.0968813407762442,1
662,261,58,0.121971437779938,1
662,262,58,0.102202100197346,1
663,260,58,0.08858408825268,1
663,261,58,0.099509121134151,1
663,262,58,0.0890504761248511,1
664,260,58,0.0733039974898528,1
664,261,58,0.0843966003280672,1
664,262,58,0.0841009749629305,1
664,263,58,0.0683837024728093,1
665,261,58,0.082828291443879,1
665,262,58,0.0871901656896465,1
665,263,58,0.0709317050120907,1
666,261,58,0.0787939620763839,1
666,262,58,0.0808810813470919,1
673,258,58,0.110214874327803,1
674,258,58,0.151270244482506,1
674,259,58,0.0773682338059474,1
675,257,58,0.187470877711979,1
675,258,58,0.139770139254132,1
675,259,58,0.0752994731968572,1
676,257,58,0.128492122918242,1
676,258,58,0.102752332945643,1
677,257,58,0.0966644210599353,1
677,258,58,0.0878387385705502,1
678,257,58,0.0945274189396507,1
678,258,58,0.0921134615841681,1
678,259,58,0.0687121877458204,1
679,257,58,0.0889148975585484,1
679,258,58,0.0877837883709804,1
679,259,58,0.0686484146070784,1
680,257,58,0.0753853246477437,1
680,258,58,0.074318952952758,1
681,257,58,0.0716432064734042,1
681,258,58,0.0700239126209647,1
682,258,58,0.0690428173584266,1
691,260,58,0.0679553556642383,1
691,261,58,0.0693193652888969,1
692,260,58,0.0876815069661567,1
692,261,58,0.0893836813408817,1
693,260,58,0.0864368076777995,1
693,261,58,0.0855289134604916,1
694,261,58,0.0694040367540286,1
699,264,58,0.0727077572766667,1
699,265,58,0.069561903274615,1
700,265,58,0.0747969609892157,1
700,266,58,0.0688729533177031,1
701,266,58,0.0688627108017597,1
704,268,58,0.0707355099186847,1
704,269,58,0.0703653657577286,1
704,270,58,0.0683824625893004,1
705,269,58,0.0711390949957295,1
705,270,58,0.0708095615120225,1
705,271,58,0.0687692163974558,1
706,270,58,0.0704315947043869,1
706,271,58,0.0709497881440398,1
706,272,58,0.0702753933413632,1
655,289,59,0.0736417429556408,1
656,289,59,0.0846913272268931,1
656,290,59,0.0898338309319286,1
657,288,59,0.0785292739012164,1
657,289,59,0.0941063077797695,1
657,290,59,0.0881952799515604,1
658,289,59,0.0708059676467792,1
661,262,59,0.107895273904283,1
662,261,59,0.125320141515871,1
662,262,59,0.111297094968512,1
662,263,59,0.0720184299639042,1
663,260,59,0.0881040257232582,1
663,261,59,0.104426858517096,1
663,262,59,0.0991311722958416,1
663,263,59,0.0745736202336722,1
664,260,59,0.0759149286095441,1
664,261,59,0.0975070147457728,1
664,262,59,0.107150972432849,1
664,263,59,0.0903375231253249,1
665,260,59,0.0771994778736738,1
665,261,59,0.113799227807738,1
665,262,59,0.133371358024881,1
665,263,59,0.111034024032704,1
666,260,59,0.0775053697138555,1
666,261,59,0.116918403350134,1
666,262,59,0.13140082973244,1
666,263,59,0.102948641844782,1
667,261,59,0.0871435652369919,1
667,262,59,0.0919376017782637,1
667,263,59,0.0704370693591074,1
672,258,59,0.0703817058650347,1
673,258,59,0.108533819901158,1
674,258,59,0.14255785260514,1
674,259,59,0.0793353898548347,1
675,258,59,0.129866764394245,1
675,259,59,0.0767049200877708,1
676,258,59,0.100112249589053,1
676,259,59,0.0685342914162781,1
677,258,59,0.0887743834173116,1
678,257,59,0.0964315505717217,1
678,258,59,0.0913674410471929,1
678,259,59,0.0699564857192254,1
679,258,59,0.0821165084631214,1
680,258,59,0.0702526920925764,1
691,260,59,0.0762342255670832,1
691,261,59,0.0850183270356036,1
692,260,59,0.10958358793872,1
692,261,59,0.124630526693889,1
692,262,59,0.0840834129414417,1
693,260,59,0.100266294632931,1
693,261,59,0.110228099751899,1
693,262,59,0.0744952619918179,1
694,261,59,0.0737861983690944,1
701,266,59,0.067822664169681,1
704,268,59,0.0692083268324304,1
704,269,59,0.0679098154018306,1
705,269,59,0.0682946225329792,1
655,289,60,0.0815884917918035,1
656,288,60,0.0773069943422019,1
656,289,60,0.0931336221619007,1
656,290,60,0.0875939783781567,1
657,287,60,0.0700233795309536,1
657,288,60,0.100388354276144,1
657,289,60,0.110273442351718,1
657,290,60,0.083599319293172,1
658,288,60,0.0763987467281451,1
658,289,60,0.081972041070117,1
661,262,60,0.0975130105109537,1
662,261,60,0.113143922419279,1
662,262,60,0.103184435343393,1
662,263,60,0.0695129069117983,1
663,261,60,0.100448018428958,1
663,262,60,0.0975861816073069,1
663,263,60,0.0753958726422327,1
664,260,60,0.0772894562798147,1
664,261,60,0.10909151590961,1
664,262,60,0.124470875220232,1
664,263,60,0.107308323832751,1
665,260,60,0.0876370628326482,1
665,261,60,0.147178161700552,1
665,262,60,0.177814317537449,1
665,263,60,0.14954958566088,1
665,264,60,0.0819496093612235,1
666,260,60,0.0911894967994474,1
666,261,60,0.157864747612907,1
666,262,60,0.183334231001007,1
666,263,60,0.143524398703218,1
666,264,60,0.0748390751000915,1
667,260,60,0.0715913889263716,1
667,261,60,0.115725443741729,1
667,262,60,0.128490948922262,1
667,263,60,0.0970264670445432,1
668,262,60,0.0682400736483617,1
672,258,60,0.0690845660930027,1
673,258,60,0.0946113356930812,1
674,258,60,0.116279378171227,1
674,259,60,0.0745685888223316,1
675,258,60,0.109204411196452,1
675,259,60,0.0735867807765202,1
676,258,60,0.091435041652419,1
676,259,60,0.0687475394002634,1
677,258,60,0.0854215706954503,1
678,258,60,0.0874506190936023,1
678,259,60,0.0691394623845938,1
679,258,60,0.0776643982508706,1
691,260,60,0.078310233804414,1
691,261,60,0.0940983293989294,1
692,260,60,0.121182524461284,1
692,261,60,0.150883951887057,1
692,262,60,0.0981664830281391,1
693,260,60,0.108029492791569,1
693,261,60,0.131658797379603,1
693,262,60,0.085215857848925,1
694,261,60,0.0795801560370036,1
655,289,61,0.079939195154358,1
656,288,61,0.0851396499364413,1
656,289,61,0.0917598851419835,1
656,290,61,0.0790025020969006,1
657,287,61,0.0742980845752454,1
657,288,61,0.110073779178352,1
657,289,61,0.113029577606789,1
657,290,61,0.0781300493806668,1
658,288,61,0.0829881405801246,1
658,289,61,0.0873587479184332,1
662,262,61,0.0836901302780943,1
663,261,61,0.0898295063140858,1
663,262,61,0.0868066882886378,1
663,263,61,0.0693599819559214,1
664,260,61,0.0780730686472346,1
664,261,61,0.112778030998861,1
664,262,61,0.128623011490402,1
664,263,61,0.110593631785793,1
665,260,61,0.0951138658700489,1
665,261,61,0.163924651308819,1
665,262,61,0.198132162813021,1
665,263,61,0.165531971600223,1
665,264,61,0.0899385322060161,1
666,260,61,0.0989724192884952,1
666,261,61,0.1771466133139,1
666,262,61,0.209433024152308,1
666,263,61,0.164536866253011,1
666,264,61,0.085132791643602,1
667,260,61,0.0776941913937374,1
667,261,61,0.131594706782764,1
667,262,61,0.150937081194904,1
667,263,61,0.114615370645385,1
668,261,61,0.0707864769176098,1
668,262,61,0.0762877382205556,1
673,258,61,0.0757064784356585,1
674,258,61,0.0857080257144412,1
675,258,61,0.0856722547757198,1
676,258,61,0.0791982539469266,1
677,258,61,0.077966726174686,1
678,258,61,0.0810351982682745,1
679,258,61,0.0743227504703651,1
691,260,61,0.0748031783760866,1
691,261,61,0.0921017635528013,1
692,260,61,0.111908770832918,1
692,261,61,0.147251728122082,1
692,262,61,0.101615557430542,1
693,260,61,0.101803768153332,1
693,261,61,0.133531273048656,1
693,262,61,0.0931730768124965,1
694,261,61,0.0820655234948701,1
655,289,62,0.0697151936067917,1
655,290,62,0.0739487009758446,1
656,288,62,0.0779526741615848,1
656,289,62,0.0797208319021763,1
656,290,62,0.0685793884353058,1
657,288,62,0.0964423860754302,1
657,289,62,0.098932323731931,1
657,290,62,0.0707366779248888,1
658,288,62,0.0759962577799995,1
658,289,62,0.0820372817038333,1
663,262,62,0.0718753941272217,1
664,261,62,0.105949459425166,1
664,262,62,0.119735873905357,1
664,263,62,0.101697581414944,1
665,260,62,0.0905887522751563,1
665,261,62,0.159602177805668,1
665,262,62,0.193672032291502,1
665,263,62,0.160334547644494,1
665,264,62,0.0892463477703852,1
666,260,62,0.0935503847448375,1
666,261,62,0.174280841209808,1
666,262,62,0.211720926684382,1
666,263,62,0.167835639221164,1
666,264,62,0.0886020575788964,1
667,260,62,0.0736304043107982,1
667,261,62,0.128643748092856,1
667,262,62,0.152069556051264,1
667,263,62,0.118052267834389,1
668,261,62,0.0691996476478679,1
668,262,62,0.0758930898884158,1
674,258,62,0.0691140837062008,1
675,257,62,0.0739938039846478,1
675,258,62,0.0730679284615727,1
675,259,62,0.067954804604901,1
676,257,62,0.073583216860154,1
676,258,62,0.0698602479977858,1
677,257,62,0.0774316235990634,1
677,258,62,0.0698947730632229,1
678,257,62,0.084319248368481,1
678,258,62,0.0746457431193294,1
679,258,62,0.0704129006153464,1
691,260,62,0.068695739822557,1
691,261,62,0.0808913598016876,1
692,260,62,0.0894214408850377,1
692,261,62,0.116476118334195,1
692,262,62,0.0884348949268807,1
693,260,62,0.084455126423554,1
693,261,62,0.111975293278571,1
693,262,62,0.0881274397553182,1
694,261,62,0.0738293487111153,1
656,271,63,0.0741144141022122,1
657,288,63,0.0717418460947814,1
657,289,63,0.0768096812596124,1
658,289,63,0.0695935592376329,1
664,261,63,0.0927490606115436,1
664,262,63,0.102914727736436,1
664,263,63,0.0862571323849618,1
665,261,63,0.135310775423865,1
665,262,63,0.163372358077782,1
665,263,63,0.132845347928324,1
665,264,63,0.0793456683094305,1
666,260,63,0.0815348353837213,1
666,261,63,0.147997239528148,1
666,262,63,0.18290689646448,1
666,263,63,0.14496652098894,1
666,264,63,0.08276626132978,1
667,261,63,0.107011410665902,1
667,262,63,0.128244577480285,1
667,263,63,0.102158410775539,1
668,262,63,0.0694232160148769,1
674,258,63,0.069328008534807,1
674,259,63,0.0802151201481861,1
674,260,63,0.0687524030978927,1
675,258,63,0.0710318780159717,1
675,259,63,0.0783953784618027,1
677,257,63,0.0690156956553907,1
678,257,63,0.0726318488529532,1
691,261,63,0.0713338225941612,1
692,260,63,0.0683094172782307,1
692,261,63,0.0834812488403795,1
692,262,63,0.072978471165892,1
693,261,63,0.084981328192924,1
693,262,63,0.078474874760984,1
664,262,64,0.0865954049509854,1
664,263,64,0.0729894204753332,1
665,261,64,0.107281609434443,1
665,262,64,0.130545513763641,1
665,263,64,0.106201724806142,1
665,264,64,0.0699775397797756,1
666,260,64,0.0682776415197047,1
666,261,64,0.116901284572025,1
666,262,64,0.147719565519901,1
666,263,64,0.118476092362528,1
666,264,64,0.0752962746567907,1
667,261,64,0.0847395089802546,1
667,262,64,0.103178613281699,1
667,263,64,0.0854283810700863,1
673,259,64,0.0742773719318933,1
674,258,64,0.0761352924467111,1
674,259,64,0.104605521537891,1
674,260,64,0.0852348813756128,1
675,258,64,0.0710815871620617,1
675,259,64,0.0929749110829821,1
675,260,64,0.0751253084973925,1
693,262,64,0.0679501984676142,1
665,262,65,0.0941266969752497,1
665,263,65,0.0813111651905304,1
666,261,65,0.0837668053930596,1
666,262,65,0.105117299928084,1
666,263,65,0.0897116634727587,1
667,262,65,0.0791000695484802,1
667,263,65,0.0709046252374826,1
673,259,65,0.0813868639721047,1
674,258,65,0.0820135741727785,1
674,259,65,0.121521773360699,1
674,260,65,0.0984553818754955,1
675,258,65,0.070354158887945,1
675,259,65,0.101148247132958,1
675,260,65,0.0828502978787186,1
666,262,66,0.0705334508351568,1
673,259,66,0.0753338065894813,1
674,258,66,0.0745351419164675,1
674,259,66,0.111598009305332,1
674,260,66,0.095588333949242,1
675,259,66,0.0931481413774835,1
675,260,66,0.0836427751137386,1
674,259,67,0.0818209609650649,1
674,260,67,0.0777596237002667,1
675,259,67,0.0728185681216678,1
675,260,67,0.0739867719883218,1
