x,y,z,signal,cytoplasm.p
681,659,1,0.068118589023588,1
683,660,1,0.0693141841331712,1
687,651,1,0.0796657559173231,1
687,652,1,0.0772609988568633,1
688,650,1,0.0722400696232326,1
688,651,1,0.0904557073838501,1
688,652,1,0.0867873952220568,1
689,651,1,0.0771026291951429,1
689,652,1,0.0749464058855821,1
690,629,1,0.071435115686043,1
690,636,1,0.0690468724363761,1
690,637,1,0.0690094004014395,1
691,629,1,0.0716186663635681,1
691,636,1,0.0679772243342436,1
691,637,1,0.0691023497361815,1
691,662,1,0.0690525747025621,1
692,629,1,0.0695986445569521,1
692,662,1,0.0679021185404345,1
693,629,1,0.0681088376692279,1
696,652,1,0.0834953907001118,1
696,653,1,0.0856710148922109,1
696,654,1,0.0690847218271633,1
697,652,1,0.0817209017669167,1
697,653,1,0.0857949373555745,1
697,654,1,0.070924750882845,1
698,653,1,0.0707526766149968,1
702,632,1,0.0717780423075567,1
703,633,1,0.0725644878387434,1
687,651,2,0.0753635218652678,1
687,652,2,0.0725324425403241,1
688,650,2,0.0705480898462477,1
688,651,2,0.0894178769686715,1
688,652,2,0.08471366309938,1
689,651,2,0.0723674362074544,1
689,652,2,0.0696277848142997,1
691,629,2,0.0689774509394268,1
696,652,2,0.0695340747780812,1
696,653,2,0.0733205352597473,1
697,653,2,0.0733771925453076,1
688,651,3,0.0802457159209572,1
688,652,3,0.0762176219096592,1
680,658,5,0.0677736019193349,1
675,655,8,0.0682577015573799,1
677,656,8,0.0711956744142095,1
675,656,9,0.0737936855883512,1
677,656,9,0.075160917712178,1
675,656,10,0.0696089529604249,1
676,656,10,0.0767937724161355,1
677,656,10,0.0736386282724299,1
677,657,10,0.0776300708480219,1
676,656,11,0.069164918930067,1
676,657,11,0.0758226800785245,1
677,657,11,0.0716478964675467,1
677,658,11,0.071451809190098,1
675,657,12,0.0687727084365172,1
676,657,12,0.0693991311279715,1
676,658,12,0.0736763698472598,1
701,627,12,0.0707606909344893,1
692,626,13,0.0729403642147625,1
693,625,13,0.0783491134365709,1
693,626,13,0.0696553377811649,1
694,623,13,0.0720777347301937,1
694,625,13,0.0769696262322645,1
694,626,13,0.0701597966658131,1
695,626,13,0.0740197876303567,1
696,627,13,0.0694343869460081,1
700,628,13,0.0731987092177756,1
701,627,13,0.0688635673396427,1
692,626,14,0.0748970082078132,1
693,624,14,0.078239398720469,1
693,625,14,0.0765877121626367,1
693,626,14,0.0718978258361151,1
694,623,14,0.0692344841816261,1
694,624,14,0.0735186830199355,1
694,625,14,0.0756332055131235,1
694,626,14,0.0715042436839975,1
695,625,14,0.0768759102062706,1
695,626,14,0.0735286859448626,1
696,626,14,0.077700199138469,1
696,627,14,0.0727029954052193,1
697,626,14,0.0812636303329127,1
697,627,14,0.0841049042555965,1
698,626,14,0.0777293813242445,1
698,628,14,0.0805167412785037,1
700,628,14,0.0777062068832007,1
701,628,14,0.068879482172895,1
704,649,14,0.068466247567672,1
680,660,15,0.0678060844713587,1
687,625,15,0.0677802266109333,1
688,624,15,0.0731299765449979,1
688,625,15,0.0763941166317567,1
688,626,15,0.0681222248172591,1
689,626,15,0.0746191065881013,1
691,626,15,0.0783923476354475,1
692,625,15,0.080781471382099,1
692,626,15,0.0753764238414912,1
693,623,15,0.0721476294194,1
693,624,15,0.0717258713637751,1
693,625,15,0.075270812121542,1
693,626,15,0.0748765291657019,1
694,624,15,0.0684097340367214,1
694,625,15,0.0743485963512397,1
694,626,15,0.0741768754801404,1
695,625,15,0.0729956618213057,1
695,626,15,0.0738005917993937,1
696,625,15,0.0726782276839177,1
696,626,15,0.0752283386241419,1
696,627,15,0.0737141593402929,1
697,625,15,0.0708580367643789,1
697,626,15,0.0767933591216325,1
697,627,15,0.0810111373404707,1
697,628,15,0.0710592572793501,1
698,626,15,0.0723604161906792,1
698,627,15,0.0823799148263521,1
698,628,15,0.0812097223542635,1
699,626,15,0.0683647328541002,1
699,628,15,0.0857504333243119,1
700,627,15,0.0717830377802448,1
700,628,15,0.0780874021797799,1
701,628,15,0.0691837507839418,1
704,648,15,0.0739615670134156,1
684,659,16,0.0763747337185446,1
684,660,16,0.0706053401195732,1
685,658,16,0.0762898586010491,1
685,659,16,0.0822384543006012,1
685,660,16,0.0704005556882357,1
686,658,16,0.0782783861685831,1
686,659,16,0.081464808919456,1
686,660,16,0.068780003982961,1
687,659,16,0.069655769044994,1
688,625,16,0.072221669033187,1
688,626,16,0.0698246807114282,1
689,623,16,0.0680258673003114,1
689,625,16,0.0799436695165858,1
689,626,16,0.0751132989977045,1
690,626,16,0.0779120395252341,1
691,625,16,0.081703106144187,1
691,626,16,0.0750735328787877,1
692,623,16,0.0737280077010303,1
692,624,16,0.0707315087487139,1
692,625,16,0.072852769739233,1
692,626,16,0.0727936446662056,1
693,625,16,0.0710840250006517,1
693,626,16,0.0744075057923524,1
694,625,16,0.0709946934902546,1
694,626,16,0.0744729920068603,1
695,625,16,0.0678266773192027,1
695,626,16,0.0722772900876021,1
695,627,16,0.0693109855931047,1
696,626,16,0.0716561623576063,1
696,627,16,0.0737743505933424,1
697,626,16,0.0719449414094545,1
697,627,16,0.0787656424182669,1
697,628,16,0.0748085571944007,1
698,626,16,0.068157205105627,1
698,627,16,0.0784315746745779,1
698,628,16,0.08180936475988,1
699,627,16,0.0752327470988403,1
699,628,16,0.0826788705066143,1
699,629,16,0.0721417833986043,1
700,627,16,0.0678897137155698,1
700,628,16,0.0753095959172924,1
700,629,16,0.0723009137618013,1
701,629,16,0.0690799479761651,1
684,658,17,0.091029785428036,1
684,659,17,0.103019177439957,1
684,660,17,0.0820311182249411,1
685,657,17,0.0776957607148936,1
685,658,17,0.138543337414686,1
685,659,17,0.153882792841557,1
685,660,17,0.104301228967742,1
686,657,17,0.0820434391929501,1
686,658,17,0.149371317965263,1
686,659,17,0.162968347726684,1
686,660,17,0.107656677190782,1
687,658,17,0.100349558500843,1
687,659,17,0.109637639671979,1
687,660,17,0.0815328347987359,1
689,626,17,0.0720858568656435,1
690,625,17,0.0738865690355637,1
690,626,17,0.0735041218759248,1
691,625,17,0.0706179426070263,1
691,626,17,0.0711554770314635,1
692,626,17,0.0691257757477923,1
693,626,17,0.0712411907175157,1
694,626,17,0.0716315563602406,1
695,626,17,0.0688685268736784,1
695,627,17,0.0695359136391307,1
696,627,17,0.0721034488360093,1
697,627,17,0.0742192052229308,1
697,628,17,0.0723258791456913,1
698,627,17,0.0735058948494448,1
698,628,17,0.0765866639519407,1
699,627,17,0.0699683095358758,1
699,628,17,0.0755177346228569,1
699,629,17,0.0737537158170705,1
700,628,17,0.0704060722713842,1
700,629,17,0.0741347853283662,1
701,629,17,0.0689863816945563,1
684,657,18,0.0680945221060089,1
684,658,18,0.109549925400941,1
684,659,18,0.128256149726368,1
685,657,18,0.0947462733534155,1
685,658,18,0.204520473914864,1
685,659,18,0.244883342175839,1
686,657,18,0.0999108014626169,1
686,658,18,0.224839589022821,1
686,659,18,0.267725422561883,1
687,658,18,0.129715989767739,1
687,659,18,0.153902151795668,1
687,660,18,0.101038873834054,1
690,626,18,0.0709450981498973,1
691,626,18,0.0685772021672828,1
695,627,18,0.0682785339962401,1
696,627,18,0.0696359668475036,1
697,627,18,0.0695338112279634,1
697,628,18,0.0717591505559278,1
698,627,18,0.0695591060495006,1
698,628,18,0.0755541404777713,1
698,629,18,0.0731617942319517,1
699,628,18,0.0743588867853863,1
699,629,18,0.0769895362457123,1
700,628,18,0.069385192920603,1
700,629,18,0.0757901975265007,1
700,630,18,0.0683371379588072,1
701,629,18,0.0691456078941598,1
684,657,19,0.0723137977686985,1
684,658,19,0.110935324513573,1
685,657,19,0.101778539219324,1
685,658,19,0.226774765660819,1
686,657,19,0.107214523949901,1
686,658,19,0.253769916721996,1
687,657,19,0.0706187332573798,1
687,658,19,0.138135026404847,1
687,659,19,0.178200382521433,1
697,628,19,0.0686684743649113,1
698,628,19,0.0713826033250633,1
698,629,19,0.0717050209555886,1
699,628,19,0.0706937192556808,1
699,629,19,0.0728345488424496,1
700,629,19,0.0707537847234468,1
685,657,20,0.0926814240676651,1
686,657,20,0.098736098689648,1
687,657,20,0.0694485168261896,1
687,658,20,0.123099013000017,1
698,629,20,0.0730640710462115,1
699,629,20,0.0722616328146923,1
699,630,20,0.0682544311400086,1
700,630,20,0.0681536950972395,1
684,655,21,0.0703469531881322,1
687,657,21,0.0693289309602195,1
697,629,21,0.0688674906425333,1
683,655,22,0.0713203156506219,1
684,654,22,0.0699990430734812,1
684,655,22,0.0750149169366698,1
684,656,22,0.0689829675225752,1
702,652,22,0.0772199808748867,1
682,630,23,0.071468412847522,1
682,632,23,0.0747317083759486,1
683,652,23,0.0693358790996898,1
683,654,23,0.068566642193243,1
683,655,23,0.0723631475282641,1
684,652,23,0.0739910966061645,1
684,653,23,0.0717408458022887,1
684,654,23,0.0729054857525765,1
684,655,23,0.0749783613373702,1
702,651,23,0.0681655249036652,1
702,652,23,0.0707722691703481,1
703,649,23,0.070554121550081,1
684,652,24,0.0748062930592974,1
684,653,24,0.0693919254281587,1
684,654,24,0.0688420460766109,1
684,655,24,0.0682362641512038,1
685,652,24,0.0693381312552423,1
684,651,25,0.0693698710751158,1
684,652,25,0.0733881119058718,1
685,652,25,0.0709984011612306,1
682,633,26,0.0705385421442514,1
684,651,26,0.0722348704981806,1
684,652,26,0.0689283108220004,1
685,651,26,0.0734818099625395,1
685,652,26,0.0708699384481096,1
679,633,27,0.0700293034188296,1
682,633,27,0.0707882918195577,1
685,651,27,0.0726844450707886,1
