x,y,z,signal,cytoplasm.p
120,511,1,0.0939890040182288,1
120,512,1,0.095751231881169,1
121,511,1,0.0941130882055285,1
121,512,1,0.0941244148708202,1
121,513,1,0.0875934572676964,1
121,514,1,0.081190495175212,1
121,515,1,0.0755292050427584,1
121,516,1,0.0716393849966956,1
121,517,1,0.0715589123641231,1
121,518,1,0.074071024169175,1
121,519,1,0.0770220187977361,1
121,520,1,0.0770722370747355,1
122,507,1,0.0743880629813863,1
122,508,1,0.0782453944856498,1
122,509,1,0.082540758265315,1
122,510,1,0.0865458455492806,1
122,511,1,0.0897430618754341,1
122,512,1,0.0881107282819369,1
122,513,1,0.0830692840675424,1
122,514,1,0.0782815847086497,1
122,515,1,0.0727956692102927,1
122,516,1,0.0688064488413762,1
122,517,1,0.06826346372132,1
122,518,1,0.0709741246015122,1
122,519,1,0.0748228248394165,1
122,520,1,0.0763705947837394,1
122,521,1,0.0765089286467286,1
122,522,1,0.0771651265117235,1
122,523,1,0.0795144961190089,1
122,524,1,0.0835076877090192,1
123,505,1,0.0733319697409964,1
123,506,1,0.0742917294235402,1
123,507,1,0.074884034354285,1
123,508,1,0.0767518379985218,1
123,509,1,0.0801527006986857,1
123,510,1,0.0833951158700489,1
123,511,1,0.0846891888770733,1
123,512,1,0.0810408586060326,1
123,513,1,0.0752855529588149,1
123,514,1,0.0703610052012335,1
123,520,1,0.0696071680073541,1
123,521,1,0.0718194436351592,1
123,522,1,0.0745414012317662,1
123,523,1,0.0783999426706616,1
123,524,1,0.0830755733317182,1
123,525,1,0.0869511197429898,1
124,502,1,0.0827540960959315,1
124,503,1,0.0766331685681887,1
124,504,1,0.0731902097264752,1
124,505,1,0.0735489613346101,1
124,506,1,0.074507924377025,1
124,507,1,0.0743211991185351,1
124,508,1,0.0747594949440545,1
124,509,1,0.077212643400015,1
124,510,1,0.0792181819297006,1
124,511,1,0.0784899510256796,1
124,512,1,0.0738257129174442,1
124,522,1,0.0688396741255503,1
124,523,1,0.0740830995563924,1
124,524,1,0.0794934540380095,1
124,525,1,0.0845721726247522,1
124,526,1,0.0869526052072903,1
125,500,1,0.0788988849721614,1
125,501,1,0.0790848615087257,1
125,502,1,0.0770571009122859,1
125,503,1,0.0741577022090675,1
125,504,1,0.0719908590277128,1
125,505,1,0.0713652569354891,1
125,506,1,0.0710820723338695,1
125,507,1,0.0708707290984631,1
125,508,1,0.0712092532350537,1
125,509,1,0.0725823733081041,1
125,510,1,0.072301884105417,1
125,511,1,0.0698858303285425,1
125,524,1,0.07347797650628,1
125,525,1,0.0800439323670979,1
125,526,1,0.0849946913818536,1
125,527,1,0.0869588705123644,1
126,499,1,0.0795188926141565,1
126,500,1,0.0763477378007921,1
126,501,1,0.073717795133964,1
126,502,1,0.0723176851329366,1
126,503,1,0.0717621634129568,1
126,504,1,0.0699615231203414,1
126,525,1,0.0734238109672884,1
126,526,1,0.0798063419358647,1
126,527,1,0.0849463119659037,1
127,499,1,0.0800348758266848,1
127,500,1,0.0751820855784609,1
127,501,1,0.0711978906311096,1
127,502,1,0.0695516787279979,1
127,503,1,0.0688376196325862,1
127,526,1,0.0726141251075284,1
127,527,1,0.0800023753053348,1
128,500,1,0.0784238658336311,1
128,501,1,0.0723396975575517,1
129,500,1,0.0833207707777163,1
129,501,1,0.0727318781022245,1
130,500,1,0.080699291663536,1
131,499,1,0.0856674330065184,1
131,500,1,0.0720649645290292,1
131,526,1,0.0694458094477063,1
131,527,1,0.0798459044024178,1
132,498,1,0.0847637436115452,1
132,499,1,0.0762945665645178,1
132,526,1,0.0753299431843448,1
132,527,1,0.0860393321716683,1
133,498,1,0.0781803694838481,1
133,499,1,0.0684294883160087,1
133,525,1,0.0688279521350818,1
133,526,1,0.0811121189640314,1
134,497,1,0.0810427813239378,1
134,498,1,0.0712158120391227,1
134,525,1,0.0739033943146777,1
134,526,1,0.0864721054242639,1
135,497,1,0.0772360813911766,1
135,525,1,0.0774405483644175,1
135,526,1,0.0905484171275759,1
136,497,1,0.0704100554720288,1
136,525,1,0.0807130202287653,1
136,526,1,0.093521142661308,1
137,524,1,0.0686758657477616,1
137,525,1,0.0846179045599729,1
137,526,1,0.0970258381181257,1
138,496,1,0.0746829396245973,1
138,524,1,0.0756461793666517,1
138,525,1,0.0932088537409933,1
138,526,1,0.105642902719914,1
139,490,1,0.0837647568898709,1
139,495,1,0.0802864823323668,1
139,496,1,0.0697250587668845,1
139,524,1,0.0832681446110039,1
139,525,1,0.102276205698663,1
140,490,1,0.0854072850811083,1
140,495,1,0.0754805620766906,1
140,523,1,0.0766549833302155,1
140,524,1,0.0909776504229069,1
140,525,1,0.105678721576839,1
141,490,1,0.0868416086792516,1
141,495,1,0.0718271464863307,1
141,521,1,0.0690232008439737,1
141,522,1,0.0921592534171429,1
141,523,1,0.102717053168505,1
141,524,1,0.104198300667175,1
141,525,1,0.108560426483509,1
142,490,1,0.0887903821074196,1
142,520,1,0.070547251277691,1
142,521,1,0.120510351865283,1
142,522,1,0.159725123935641,1
142,523,1,0.156977805629967,1
142,524,1,0.131626236960499,1
143,491,1,0.0929570016545197,1
143,494,1,0.076086068472429,1
143,520,1,0.0980421772191495,1
143,521,1,0.176601507813351,1
143,522,1,0.228617556002962,1
143,523,1,0.210589697701306,1
143,524,1,0.162219649760102,1
144,492,1,0.0943698279487329,1
144,493,1,0.0854953767079964,1
144,494,1,0.072198919866197,1
144,519,1,0.0695961827592605,1
144,520,1,0.1099481735881,1
144,521,1,0.191965629135341,1
144,522,1,0.242064481992723,1
144,523,1,0.225617588970686,1
144,524,1,0.180422445442251,1
145,492,1,0.106832723686006,1
145,493,1,0.0908002692140495,1
145,494,1,0.0732170439202917,1
145,519,1,0.0725145331118618,1
145,520,1,0.104154251858843,1
145,521,1,0.164076791604117,1
145,522,1,0.202672795915989,1
145,523,1,0.199048191145329,1
145,524,1,0.175579148988044,1
146,493,1,0.0938992053053501,1
146,494,1,0.0730464970451719,1
146,519,1,0.0720159442071109,1
146,520,1,0.0907006053410779,1
146,521,1,0.123413931431735,1
146,522,1,0.14665310996806,1
146,523,1,0.151983315264976,1
147,493,1,0.0962004171183756,1
147,494,1,0.0738860479251035,1
147,519,1,0.068753678920054,1
147,520,1,0.0796292422464514,1
147,521,1,0.0953253648396159,1
147,522,1,0.108434545363588,1
147,523,1,0.115581772988854,1
148,493,1,0.0953311928910854,1
148,494,1,0.0716654465094847,1
148,520,1,0.07520681736111,1
148,521,1,0.0849932059175531,1
148,522,1,0.0943956618500567,1
148,523,1,0.102528962241223,1
149,492,1,0.117412643677941,1
149,493,1,0.0920352351173728,1
149,494,1,0.0681918140279198,1
149,520,1,0.0761887452024295,1
149,521,1,0.0849736852395067,1
149,522,1,0.0941503266392242,1
150,493,1,0.0890216054073967,1
150,519,1,0.0711908466552327,1
150,520,1,0.0802350241718584,1
150,521,1,0.0887786840760527,1
150,522,1,0.0976539738853459,1
151,493,1,0.0880893268144132,1
151,494,1,0.0712456111717649,1
151,518,1,0.070839115063873,1
151,519,1,0.0772669107651885,1
151,520,1,0.0870773362903337,1
151,521,1,0.0957986948614819,1
152,493,1,0.0893768769560211,1
152,494,1,0.0775791337979738,1
152,517,1,0.0681266153226313,1
152,518,1,0.0730568952952758,1
152,519,1,0.0790726423668986,1
152,520,1,0.0884535470874933,1
153,492,1,0.0927029213715953,1
153,493,1,0.0896373722884047,1
153,494,1,0.083669651235983,1
153,495,1,0.0724789897846058,1
153,518,1,0.0705644419331047,1
154,492,1,0.0859854601316716,1
154,493,1,0.087546814886614,1
154,494,1,0.0866443414160481,1
154,495,1,0.080063375178064,1
155,492,1,0.0803143048391252,1
155,493,1,0.084294504606281,1
155,494,1,0.0880364370975829,1
155,495,1,0.0858022927997724,1
155,496,1,0.0757435970738462,1
156,493,1,0.0816416929769548,1
156,494,1,0.0881609525487117,1
156,495,1,0.0899352198602169,1
156,496,1,0.0818005178616061,1
156,497,1,0.0706619195380532,1
157,494,1,0.0874471030954393,1
157,495,1,0.089835699741855,1
157,496,1,0.0835441235128106,1
157,497,1,0.0731238909331859,1
158,496,1,0.0819763776675105,1
158,497,1,0.0742413434328294,1
158,498,1,0.0679880598379521,1
119,511,2,0.0808773976352175,1
119,512,2,0.0825877240942693,1
120,510,2,0.0872932137857221,1
120,511,2,0.096571525633172,1
120,512,2,0.0982789710102537,1
120,513,2,0.0896535566615503,1
121,510,2,0.0842107555665618,1
121,511,2,0.0939955987609503,1
121,512,2,0.0948108850607143,1
121,513,2,0.0864010846572813,1
121,514,2,0.07867173471946,1
122,508,2,0.0750321854591637,1
122,509,2,0.0772504209134973,1
122,510,2,0.0808760858744037,1
122,511,2,0.0852439439058012,1
122,512,2,0.0848614488279591,1
122,513,2,0.0787651332873574,1
122,514,2,0.0733496815068703,1
122,515,2,0.0684682840913099,1
122,519,2,0.070921899749752,1
122,520,2,0.0717456675714901,1
122,521,2,0.0726345622212119,1
122,522,2,0.0733636556528913,1
122,523,2,0.0759930233012805,1
122,524,2,0.0794965267927925,1
123,505,2,0.0700473925405541,1
123,506,2,0.0715610686832691,1
123,507,2,0.0739020286458852,1
123,508,2,0.0756663289711157,1
123,509,2,0.077822869738773,1
123,510,2,0.0800254778690737,1
123,511,2,0.0811078003359641,1
123,512,2,0.0784093526078236,1
123,513,2,0.0722232742929957,1
123,521,2,0.0688084673956878,1
123,522,2,0.0714786014554867,1
123,523,2,0.076118760666592,1
123,524,2,0.0815473600040941,1
123,525,2,0.0878205416328684,1
124,503,2,0.0722075271734547,1
124,504,2,0.0702308713407743,1
124,505,2,0.0709536874878288,1
124,506,2,0.0727440193769714,1
124,507,2,0.0747354160469246,1
124,508,2,0.075808460351712,1
124,509,2,0.0786072847360972,1
124,510,2,0.0813803111578111,1
124,511,2,0.0825611534505706,1
124,512,2,0.079085795913689,1
124,513,2,0.0696333972338546,1
124,523,2,0.0728679358505596,1
124,524,2,0.0806680430052457,1
124,525,2,0.0900203106096269,1
124,526,2,0.090940927109896,1
125,501,2,0.0757014230652163,1
125,502,2,0.0740553309576127,1
125,503,2,0.0719777114706978,1
125,504,2,0.0706958156770727,1
125,505,2,0.0707348091149623,1
125,506,2,0.0710632165208931,1
125,507,2,0.0721000706026807,1
125,508,2,0.0726382519228617,1
125,509,2,0.0745978788240643,1
125,510,2,0.0749037347255935,1
125,511,2,0.0745031864646793,1
125,512,2,0.0703667553856227,1
125,524,2,0.074088795832803,1
125,525,2,0.0855812820668616,1
125,526,2,0.0892810824779615,1
126,500,2,0.0735042177123313,1
126,501,2,0.0721553921683255,1
126,502,2,0.0715086162200435,1
126,503,2,0.070962067183621,1
126,504,2,0.0695298100579925,1
126,505,2,0.0679136967762933,1
126,525,2,0.0752876913086346,1
126,526,2,0.0816976195099156,1
126,527,2,0.083984264189155,1
127,500,2,0.0727051097959375,1
127,501,2,0.0698907898625783,1
127,502,2,0.0689036149780036,1
127,503,2,0.0682848651888437,1
127,526,2,0.0701920995245748,1
128,500,2,0.0748971459726475,1
128,501,2,0.0704239637305203,1
129,501,2,0.0706736834569495,1
130,500,2,0.0767221886102648,1
131,500,2,0.0696509113371402,1
132,499,2,0.074752367111322,1
132,526,2,0.0730700069136384,1
133,498,2,0.0759463270122195,1
133,526,2,0.0793822478678316,1
134,498,2,0.0679479043836339,1
134,525,2,0.0727428573605427,1
134,526,2,0.0849085703910739,1
135,525,2,0.076993992638614,1
135,526,2,0.0888401691205898,1
136,525,2,0.0798574466996242,1
136,526,2,0.0915831927572977,1
137,525,2,0.0816779730465857,1
137,526,2,0.0936737621386392,1
138,524,2,0.0715069390829299,1
138,525,2,0.0871528793377474,1
139,496,2,0.0692732799569273,1
139,524,2,0.0791987211494082,1
139,525,2,0.0951367048836699,1
140,490,2,0.0767378159342976,1
140,523,2,0.0728407662293204,1
140,524,2,0.0861383850875485,1
140,525,2,0.0988164515267123,1
141,522,2,0.0838001444829664,1
141,523,2,0.0931926513985215,1
141,524,2,0.0957001989947144,1
141,525,2,0.101352210965065,1
142,521,2,0.116710797734581,1
142,522,2,0.167168426159199,1
142,523,2,0.153518003539814,1
142,524,2,0.120366142032621,1
143,520,2,0.0901306183134939,1
143,521,2,0.199109083202101,1
143,522,2,0.282154408168022,2
143,523,2,0.23607901922555,1
143,524,2,0.157247956480304,1
143,525,2,0.119352995481888,1
144,494,2,0.0717916390977271,1
144,520,2,0.104804489897309,1
144,521,2,0.226479637447041,1
144,522,2,0.312302241575213,2
144,523,2,0.261979023710694,2
144,524,2,0.178350031070163,1
145,493,2,0.0881342022117509,1
145,494,2,0.0707931135887591,1
145,520,2,0.0986212028178204,1
145,521,2,0.181626929378535,1
145,522,2,0.239865228136649,1
145,523,2,0.211615626432754,1
145,524,2,0.1666957130842,1
146,493,2,0.0886284185804558,1
146,494,2,0.0684719138952056,1
146,520,2,0.0845290103031804,1
146,521,2,0.123400358600666,1
146,522,2,0.149022844811724,1
146,523,2,0.142376578042269,1
146,524,2,0.13165107056933,1
147,493,2,0.0889099859427159,1
147,494,2,0.068202098472291,1
147,520,2,0.0754161120933278,1
147,521,2,0.0920216143681007,1
147,522,2,0.103418372011629,1
147,523,2,0.106141599440622,1
148,493,2,0.0879965871218104,1
148,520,2,0.0721407112288067,1
148,521,2,0.0813187722052954,1
148,522,2,0.0892214003558214,1
149,493,2,0.0846464338602291,1
149,520,2,0.0725289385217119,1
149,521,2,0.0789190106175238,1
149,522,2,0.0861793371819956,1
150,493,2,0.0849261384023381,1
150,520,2,0.0743184378320731,1
150,521,2,0.079903490103166,1
151,494,2,0.0687745113589142,1
151,518,2,0.0690069745424003,1
151,519,2,0.072302800541054,1
151,520,2,0.0804122196976783,1
151,521,2,0.0871980362545292,1
152,494,2,0.0752869485764844,1
152,517,2,0.0705458856088985,1
152,518,2,0.0725975813478586,1
152,519,2,0.075321246030456,1
152,520,2,0.0836250214194369,1
153,493,2,0.0865877260589156,1
153,494,2,0.0817842735907065,1
153,495,2,0.0711751294845688,1
153,517,2,0.0685146389631728,1
153,518,2,0.0706043398270805,1
154,492,2,0.0807094443328483,1
154,493,2,0.0844865008671278,1
154,494,2,0.0849764405361932,1
154,495,2,0.0784706459795477,1
155,493,2,0.082079246070324,1
155,494,2,0.0864710092953647,1
155,495,2,0.0843946057328572,1
155,496,2,0.0745163040728173,1
156,494,2,0.0843684423938861,1
156,495,2,0.088106253919709,1
156,496,2,0.0816543194235095,1
156,497,2,0.0708288366092773,1
157,495,2,0.088344359471627,1
157,496,2,0.0849384893192242,1
157,497,2,0.0746534579500516,1
158,496,2,0.0822999453349137,1
158,497,2,0.0753205572062844,1
158,498,2,0.0695238921598919,1
119,511,3,0.0830308716378672,1
119,512,3,0.0820743644033685,1
119,513,3,0.0805532848982524,1
120,510,3,0.0923230438256053,1
120,511,3,0.100471318655285,1
120,512,3,0.101386927703315,1
120,513,3,0.0933025038794577,1
120,514,3,0.0821756634850258,1
121,510,3,0.085472723377413,1
121,511,3,0.0993910566711339,1
121,512,3,0.101605314914598,1
121,513,3,0.0908763932696775,1
121,514,3,0.0790432146003315,1
122,509,3,0.0731975591808977,1
122,510,3,0.0771836169484001,1
122,511,3,0.0844287893810962,1
122,512,3,0.0857159681566289,1
122,513,3,0.0789726730153814,1
122,514,3,0.0713418608727553,1
122,519,3,0.0681947370383177,1
122,520,3,0.069200210686756,1
122,521,3,0.0705340917411252,1
122,522,3,0.072056806454927,1
123,507,3,0.0732329168251162,1
123,508,3,0.0768434695826746,1
123,509,3,0.0777552631437715,1
123,510,3,0.0798544877505739,1
123,511,3,0.0822664864494988,1
123,512,3,0.0803680271347368,1
123,513,3,0.0730744393474384,1
123,521,3,0.0678573509590541,1
123,522,3,0.0707328264993031,1
123,523,3,0.0747391955952054,1
123,524,3,0.0805834374276435,1
124,506,3,0.0687310974667754,1
124,507,3,0.0756937321935957,1
124,508,3,0.0805094397422844,1
124,509,3,0.0826949290944763,1
124,510,3,0.086649953835603,1
124,511,3,0.0909840295337137,1
124,512,3,0.0868337980121229,1
124,513,3,0.0725457098928472,1
124,523,3,0.0712213286222712,1
124,524,3,0.0814893250701906,1
124,525,3,0.0926670725657936,1
125,501,3,0.069566910726854,1
125,502,3,0.0684246545672565,1
125,503,3,0.0677913915522891,1
125,506,3,0.0678923851554007,1
125,507,3,0.0720401488895244,1
125,508,3,0.075560783138696,1
125,509,3,0.077719180736729,1
125,510,3,0.080303325580807,1
125,511,3,0.0830937523000738,1
125,512,3,0.0779004612893753,1
125,524,3,0.0757567805695136,1
125,525,3,0.0897004625927505,1
125,526,3,0.0929259326894916,1
126,500,3,0.0694246236120972,1
126,501,3,0.0686234612027392,1
126,502,3,0.0680873223959715,1
126,525,3,0.0760518309162114,1
126,526,3,0.083391246475137,1
127,500,3,0.070989470406101,1
127,501,3,0.0688243462902877,1
127,526,3,0.068594015466846,1
128,500,3,0.0735883021794732,1
128,501,3,0.0693920092850144,1
129,500,3,0.0762784001606985,1
129,501,3,0.0699622898115933,1
130,500,3,0.0756086893623889,1
131,499,3,0.0799668020292017,1
131,500,3,0.0718913988071051,1
132,499,3,0.0798687194569373,1
132,526,3,0.0724469924043898,1
133,498,3,0.0799274132661354,1
133,499,3,0.0722967269087929,1
134,498,3,0.0716660514768007,1
134,525,3,0.0737569502957895,1
134,526,3,0.0846229539406397,1
135,525,3,0.0783178048805265,1
135,526,3,0.0875100795940523,1
136,497,3,0.0688390272298065,1
136,525,3,0.0812592338377651,1
136,526,3,0.0902750497678459,1
137,525,3,0.0829442954241566,1
138,524,3,0.0732845546788867,1
138,525,3,0.0876831781134948,1
139,491,3,0.0715732818353209,1
139,524,3,0.0811522624387989,1
139,525,3,0.093412667828715,1
140,523,3,0.0753476309911171,1
140,524,3,0.0894777447738491,1
140,525,3,0.0979587875659546,1
141,522,3,0.0804983766271105,1
141,523,3,0.0919562838877533,1
141,524,3,0.0988153913364655,1
142,521,3,0.110283984356432,1
142,522,3,0.172649394103071,2
142,523,3,0.155215721521637,1
142,524,3,0.121847653081409,1
143,520,3,0.0825662627289915,1
143,521,3,0.218549342523917,2
143,522,3,0.348485204967239,2
143,523,3,0.28381836777566,2
143,524,3,0.170131508154528,1
144,494,3,0.0714095034064092,1
144,520,3,0.10129112723548,1
144,521,3,0.270910593449697,2
144,522,3,0.42295399814154,2
144,523,3,0.343801104763759,2
144,524,3,0.199907472345447,2
145,492,3,0.0944762003701585,1
145,493,3,0.0834918028246439,1
145,520,3,0.0947132756807068,1
145,521,3,0.208352300955451,1
145,522,3,0.308691509124393,2
145,523,3,0.25751807857972,2
145,524,3,0.172160927918755,1
146,493,3,0.0812406236055803,1
146,520,3,0.082011765260606,1
146,521,3,0.129454823580509,1
146,522,3,0.165298981316501,1
146,523,3,0.14787599449439,1
147,493,3,0.0794502378084591,1
147,520,3,0.0749247228986143,1
147,521,3,0.0943407475891394,1
147,522,3,0.106600667807248,1
148,493,3,0.0778528605442281,1
148,520,3,0.070457183024919,1
148,521,3,0.0801908855168956,1
148,522,3,0.0877093953604446,1
149,493,3,0.0741135515745538,1
149,520,3,0.0684952620397361,1
149,521,3,0.0736885470606591,1
149,522,3,0.0794598753570865,1
150,493,3,0.0751729751300692,1
150,520,3,0.0687885873311171,1
150,521,3,0.0727973463474062,1
151,519,3,0.0677808016293723,1
151,520,3,0.0732950427756217,1
152,494,3,0.0710268525944065,1
152,517,3,0.0721017657091204,1
152,518,3,0.0715207934334428,1
152,519,3,0.0709888115308064,1
153,493,3,0.0811928431671709,1
153,494,3,0.0769874997220744,1
153,495,3,0.0678731040683705,1
153,517,3,0.0687027538495568,1
154,493,3,0.0798682941828835,1
154,494,3,0.0809219615642342,1
154,495,3,0.074326841486967,1
155,493,3,0.0786527950496279,1
155,494,3,0.0828880574228747,1
155,495,3,0.0803484884873642,1
155,496,3,0.0718834743342436,1
156,494,3,0.0801311195378999,1
156,495,3,0.084736160695803,1
156,496,3,0.0812293568380426,1
156,497,3,0.0699246261038437,1
157,495,3,0.0865103561300032,1
157,496,3,0.0860613565758342,1
157,497,3,0.0751753351015789,1
119,512,4,0.0818488852980052,1
120,511,4,0.0987016395117403,1
120,512,4,0.100498212746855,1
120,513,4,0.0933560225227056,1
121,510,4,0.0847920333207852,1
121,511,4,0.100638445368648,1
121,512,4,0.105546371499479,1
121,513,4,0.0933134771480005,1
121,514,4,0.0784734551842129,1
122,509,4,0.0693990113324634,1
122,510,4,0.0739556551050904,1
122,511,4,0.0830391135688251,1
122,512,4,0.085639520653129,1
122,513,4,0.0777990663713116,1
122,522,4,0.0735976821677582,1
123,507,4,0.0709343405132691,1
123,508,4,0.0771819338215112,1
123,509,4,0.0779271936570099,1
123,510,4,0.0808666699474663,1
123,511,4,0.0856700026201674,1
123,512,4,0.0837171082265205,1
123,513,4,0.0737294991551062,1
123,521,4,0.069477950582532,1
123,522,4,0.0732168282883771,1
123,523,4,0.0769505308282719,1
124,507,4,0.0747914503958427,1
124,508,4,0.0845475546478357,1
124,509,4,0.0868216088191728,1
124,510,4,0.0917300740297906,1
124,511,4,0.0990518077717192,1
124,512,4,0.0937269872828922,1
124,513,4,0.0746251143328329,1
124,523,4,0.0732647464916208,1
124,524,4,0.084854075414435,1
124,525,4,0.095236716163615,1
125,507,4,0.070988140675961,1
125,508,4,0.0786196296632079,1
125,509,4,0.0813003656254744,1
125,510,4,0.0853764856559734,1
125,511,4,0.0903996191269533,1
125,512,4,0.0837888837052042,1
125,524,4,0.0787454029671718,1
125,525,4,0.0930258661023563,1
125,526,4,0.0949458406903748,1
126,509,4,0.0678255752005281,1
126,525,4,0.0753251932924482,1
126,526,4,0.0824731037521103,1
127,500,4,0.0681026142925816,1
128,500,4,0.0702658995473455,1
129,500,4,0.0725778330583467,1
129,501,4,0.0681385289859128,1
130,500,4,0.0727932193921518,1
131,500,4,0.0726234931162626,1
132,499,4,0.0819898187235204,1
132,500,4,0.0698106706267548,1
133,498,4,0.0806413226171619,1
133,499,4,0.074530038627822,1
134,498,4,0.07302076497003,1
134,525,4,0.0733543535316866,1
135,525,4,0.0781528824045124,1
136,497,4,0.068797080832642,1
136,525,4,0.0809942521636027,1
137,524,4,0.0686816039526001,1
137,525,4,0.0824561347183866,1
138,524,4,0.0758193437736237,1
138,525,4,0.0870146353213893,1
139,524,4,0.0835844347012894,1
139,525,4,0.0905813848514076,1
140,523,4,0.0767101311923736,1
140,524,4,0.091586565000851,1
140,525,4,0.0946033453326903,1
141,522,4,0.0743709561828283,1
141,523,4,0.0880817916769531,1
141,524,4,0.0986231255357255,1
142,521,4,0.0970947684534917,1
142,522,4,0.163098912850972,2
142,523,4,0.147639146795307,2
142,524,4,0.118809051997767,1
143,520,4,0.0723482210079537,1
143,521,4,0.223959738933962,2
143,522,4,0.392385323114361,2
143,523,4,0.319718326259329,2
143,524,4,0.175657734841364,2
144,520,4,0.0947889804520565,1
144,521,4,0.310428999214908,2
144,522,4,0.534190213032831,2
144,523,4,0.433486467132713,2
144,524,4,0.219701751352827,2
145,492,4,0.0855312255137981,1
145,493,4,0.0760929806732469,1
145,520,4,0.087903278400544,1
145,521,4,0.234165070351589,2
145,522,4,0.387264304733705,2
145,523,4,0.315281028761656,2
145,524,4,0.175824034965721,2
146,493,4,0.0716310951475344,1
146,520,4,0.0768343830933845,1
146,521,4,0.132179248964583,1
146,522,4,0.183350415374153,2
146,523,4,0.156386459063287,2
147,493,4,0.0681959769218266,1
147,520,4,0.0722236815977232,1
147,521,4,0.0912522816252475,1
147,522,4,0.104631265592583,1
148,521,4,0.0759444522125176,1
148,522,4,0.0827006193811115,1
150,492,4,0.0808769364225113,1
151,493,4,0.071750555228221,1
152,493,4,0.0762348604832762,1
152,517,4,0.0724772108213103,1
153,493,4,0.0755528586658346,1
153,494,4,0.0715936350921486,1
154,493,4,0.0742448594309924,1
154,494,4,0.0756796861702699,1
154,495,4,0.0694617362605094,1
155,494,4,0.0773276410980245,1
155,495,4,0.0752222709816561,1
155,496,4,0.0688113424878824,1
156,495,4,0.0793988694945818,1
156,496,4,0.0793272796989357,1
156,497,4,0.0691884407780843,1
157,496,4,0.0848406163890989,1
157,497,4,0.0746921399196201,1
120,512,5,0.0939660631784259,1
121,511,5,0.0937882866443917,1
121,512,5,0.0997057235322846,1
121,513,5,0.088706465353989,1
122,510,5,0.0719715300224794,1
122,511,5,0.0795560292216704,1
122,512,5,0.0822112607202604,1
122,513,5,0.0746193461791175,1
123,507,5,0.0688578351245797,1
123,508,5,0.0766867710682923,1
123,509,5,0.0770160889200847,1
123,510,5,0.0790396806328423,1
123,511,5,0.0838637978262003,1
123,512,5,0.0823068994641595,1
123,513,5,0.0720561475796324,1
123,521,5,0.0678220831614667,1
123,522,5,0.0712917743708148,1
123,523,5,0.0738173511909782,1
124,507,5,0.0734389531195134,1
124,508,5,0.0865808318274239,1
124,509,5,0.0880726632592352,1
124,510,5,0.0905907468703663,1
124,511,5,0.0973090945970501,1
124,512,5,0.0920332525017136,1
124,513,5,0.0739660773142959,1
124,523,5,0.0709027324684545,1
124,524,5,0.0795583652340785,1
125,507,5,0.0689770076960468,1
125,508,5,0.0796569449577016,1
125,509,5,0.0818163188891257,1
125,510,5,0.084163574105693,1
125,511,5,0.0881775921447881,1
125,512,5,0.0814479956198929,1
125,524,5,0.073402577213476,1
125,525,5,0.0846964544746402,1
126,509,5,0.0679605847381673,1
126,525,5,0.0694801009119026,1
129,500,5,0.0698822903712779,1
130,500,5,0.0701014862022409,1
131,500,5,0.0709025288160907,1
132,499,5,0.0794779165606077,1
132,500,5,0.069244025893847,1
133,498,5,0.0786181801375598,1
133,499,5,0.073766456069358,1
134,498,5,0.0725450989357559,1
134,525,5,0.0728023717689714,1
135,497,5,0.0708921784841901,1
135,525,5,0.0773167037681342,1
136,524,5,0.0685038154390151,1
136,525,5,0.080182811299649,1
137,524,5,0.0695376866126507,1
137,525,5,0.0823287681341648,1
138,524,5,0.07678733939735,1
138,525,5,0.0868574696045253,1
139,524,5,0.0847737225773706,1
139,525,5,0.0898291768764385,1
140,523,5,0.0767053693209262,1
140,524,5,0.0933849411583631,1
140,525,5,0.0950388259637692,1
141,522,5,0.0729046172351427,1
141,523,5,0.0878328326520004,1
141,524,5,0.101529340603355,1
142,521,5,0.0883341409147853,1
142,522,5,0.147144559060527,2
142,523,5,0.138265124326653,2
142,524,5,0.119331132801659,1
143,520,5,0.0707775521522557,1
143,521,5,0.208358817831092,2
143,522,5,0.375019167281297,2
143,523,5,0.308842307710001,2
143,524,5,0.169495417965569,2
144,520,5,0.0966862597810636,2
144,521,5,0.312792732303616,2
144,522,5,0.554968120977746,2
144,523,5,0.451740235803561,2
144,524,5,0.220386789986399,2
145,493,5,0.0712530864114709,1
145,520,5,0.089850752047449,1
145,521,5,0.23639058338304,2
145,522,5,0.405646470230145,2
145,523,5,0.327943797314434,2
145,524,5,0.171883625276584,2
146,520,5,0.07812344864817,1
146,521,5,0.130437050910599,1
146,522,5,0.185683912076614,2
146,523,5,0.157206171807076,2
147,520,5,0.0713171889878602,1
147,521,5,0.0873534469671994,1
147,522,5,0.0994693550152342,1
148,521,5,0.0717082434547568,1
148,522,5,0.0778460801184691,1
149,492,5,0.0786745139752481,1
150,492,5,0.0718901110053929,1
151,492,5,0.0771222876380236,1
152,493,5,0.069708389221931,1
152,517,5,0.0686271568941644,1
154,494,5,0.0693834019777567,1
155,495,5,0.0693890922643919,1
156,496,5,0.0744442171258125,1
122,510,6,0.0696681559005325,1
122,511,6,0.0750196907876679,1
122,513,6,0.0702481698121453,1
123,507,6,0.068428517972393,1
123,508,6,0.0741668366165608,1
123,509,6,0.0745701701230386,1
123,510,6,0.0756687548301549,1
123,511,6,0.0799458258357318,1
123,512,6,0.0787207310822767,1
123,513,6,0.0695017838988704,1
123,522,6,0.0691252606271074,1
124,507,6,0.0719739798406202,1
124,508,6,0.0831002512063887,1
124,509,6,0.0856184246641509,1
124,510,6,0.0878645664820985,1
124,511,6,0.0934833112398471,1
124,512,6,0.0888166233134709,1
124,513,6,0.0727994787074506,1
124,523,6,0.0687112353715309,1
125,508,6,0.0767259621687702,1
125,509,6,0.0805824131760492,1
125,510,6,0.0835870821820186,1
125,511,6,0.0867090549495287,1
125,512,6,0.0801482023773562,1
126,509,6,0.0678115411567531,1
126,510,6,0.0679506177518926,1
129,500,6,0.0685852104969999,1
132,500,6,0.0687314149248719,1
133,499,6,0.0706187931551338,1
134,497,6,0.0697237589856215,1
134,498,6,0.0695802259975803,1
134,525,6,0.0728967047418321,1
135,525,6,0.0773966253413693,1
136,524,6,0.0691744426729617,1
136,525,6,0.0801432727921975,1
137,524,6,0.070076167421602,1
137,525,6,0.0826265917468754,1
138,524,6,0.0762959981208397,1
138,525,6,0.0863314235693158,1
139,524,6,0.0841825616937283,1
139,525,6,0.0893198483043856,1
140,523,6,0.0784383730696631,1
140,524,6,0.093088806662317,1
141,522,6,0.0741685017741236,1
141,523,6,0.0881704283734032,1
141,524,6,0.101195482501806,1
142,521,6,0.0841798063970418,1
142,522,6,0.130213596349323,2
142,523,6,0.127299989898843,1
142,524,6,0.115763670488367,1
143,520,6,0.0726361315423681,1
143,521,6,0.185655592418497,2
143,522,6,0.322496959110822,2
143,523,6,0.273784415811934,2
143,524,6,0.159127020902304,1
144,520,6,0.0999881354528769,1
144,521,6,0.288812882099753,2
144,522,6,0.502041555049199,2
144,523,6,0.416809590694208,2
144,524,6,0.210640347242135,2
145,520,6,0.0936939836204081,1
145,521,6,0.225354781584996,2
145,522,6,0.379103187825556,2
145,523,6,0.313075234070839,2
145,524,6,0.168376180512855,2
146,520,6,0.0799552956706478,1
146,521,6,0.128421707118575,1
146,522,6,0.179304645535634,2
146,523,6,0.155405070301754,2
147,520,6,0.0718586946333912,1
147,521,6,0.0874663841824695,1
147,522,6,0.0973148387916639,1
148,521,6,0.0717849964368024,1
148,522,6,0.076956382838843,1
149,492,6,0.0759965213301173,1
122,511,7,0.0718074461150221,1
122,512,7,0.072374402316251,1
123,508,7,0.0695788543390125,1
123,509,7,0.0701181916858467,1
123,510,7,0.0727728781148749,1
123,511,7,0.0764849695451068,1
123,512,7,0.07530756538343,1
123,513,7,0.0680867353979818,1
123,522,7,0.0678031554711854,1
124,507,7,0.0707690167223029,1
124,508,7,0.0757145646324559,1
124,509,7,0.0797317213138635,1
124,510,7,0.0858128887124647,1
124,511,7,0.0904111254855072,1
124,512,7,0.085271682555704,1
124,513,7,0.0719592030646949,1
124,523,7,0.0686602144646272,1
125,508,7,0.071095758970671,1
125,509,7,0.0775064658427547,1
125,510,7,0.085320151818285,1
125,511,7,0.0881415217172964,1
125,512,7,0.0807311991971209,1
126,510,7,0.0706861901079961,1
126,511,7,0.0691366471901532,1
131,501,7,0.0694357466250251,1
132,500,7,0.0708023797713113,1
133,499,7,0.070212991861189,1
134,525,7,0.0710562923405244,1
135,525,7,0.0753595746032756,1
136,524,7,0.0686524756748033,1
136,525,7,0.0786438523149476,1
137,524,7,0.0691174319906525,1
137,525,7,0.0813846118165523,1
138,524,7,0.0742805465128582,1
138,525,7,0.0851666997621724,1
139,524,7,0.0807420227212786,1
139,525,7,0.0869848062398701,1
140,523,7,0.0794093695708676,1
140,524,7,0.0900651440785368,1
141,522,7,0.0781532358012614,1
141,523,7,0.0893780509520005,1
141,524,7,0.0987607705745431,1
142,521,7,0.086334011152291,1
142,522,7,0.125181286542422,1
142,523,7,0.125615784850334,1
142,524,7,0.114231234369082,1
143,520,7,0.0755067314054371,1
143,521,7,0.169200217874486,1
143,522,7,0.282481761373481,2
143,523,7,0.254833293529279,2
143,524,7,0.158040930866683,1
144,520,7,0.100608795980391,1
144,521,7,0.255959970283047,2
144,522,7,0.436290257040909,2
144,523,7,0.38420851299465,2
144,524,7,0.208095627099776,2
145,520,7,0.0971642139095427,1
145,521,7,0.209470256596228,2
145,522,7,0.343796049393317,2
145,523,7,0.302742775660006,2
146,520,7,0.0861626556574914,1
146,521,7,0.129711617231693,1
146,522,7,0.17323113307,2
146,523,7,0.157864747612907,1
147,520,7,0.0772775785551857,1
147,521,7,0.0930416491605497,1
147,522,7,0.0993612575384917,1
148,521,7,0.0744587423311708,1
148,522,7,0.0784023685297009,1
123,511,8,0.0707694899145599,1
123,512,8,0.0704231311517389,1
124,509,8,0.0700493811459887,1
124,510,8,0.0785376595867841,1
124,511,8,0.082397285175028,1
124,512,8,0.078007720197561,1
124,513,8,0.0683891591582037,1
125,509,8,0.0706774330563533,1
125,510,8,0.0813837612684447,1
125,511,8,0.0844748387744134,1
125,512,8,0.0775689631593353,1
126,510,8,0.0687836098277551,1
126,511,8,0.068129963607083,1
131,501,8,0.0711446055891026,1
132,501,8,0.069414590738293,1
134,525,8,0.068278162630165,1
135,525,8,0.0724608587344534,1
136,524,8,0.0682031347034362,1
136,525,8,0.0764726545668731,1
137,524,8,0.0686418438234586,1
137,525,8,0.0789976563685976,1
138,524,8,0.0721211725814341,1
138,525,8,0.0827485615434568,1
139,524,8,0.0770061818315641,1
139,525,8,0.083873573139662,1
140,523,8,0.0778709197170756,1
140,524,8,0.0856756449885993,1
141,522,8,0.0777574973299977,1
141,523,8,0.0858511034795516,1
141,524,8,0.0930574501880694,1
142,521,8,0.0867466467799734,1
142,522,8,0.122843764710888,1
142,523,8,0.123714761911699,1
142,524,8,0.109912774015453,1
143,520,8,0.0753538903064158,1
143,521,8,0.157852804000748,1
143,522,8,0.263408040367828,2
143,523,8,0.251362170763609,2
143,524,8,0.15856989991229,1
144,520,8,0.0961053294338138,1
144,521,8,0.231721385740769,2
144,522,8,0.404210505433541,2
144,523,8,0.382315767925625,2
144,524,8,0.213837258089743,2
145,520,8,0.0950993646237923,1
145,521,8,0.19515206985554,2
145,522,8,0.326109488494264,2
145,523,8,0.308554391185811,2
146,520,8,0.0875595671184523,1
146,521,8,0.127822034764081,1
146,522,8,0.168883167082724,2
146,523,8,0.16133370207988,1
147,520,8,0.0807400880238226,1
147,521,8,0.095896861290602,1
147,522,8,0.0976409341442882,1
148,521,8,0.0764293484906916,1
124,510,9,0.0701670323145029,1
124,511,9,0.0734920345091566,1
124,512,9,0.0717022177406989,1
124,523,9,0.0685536204215115,1
124,524,9,0.068583689094047,1
125,510,9,0.0755729962907477,1
125,511,9,0.0792789601807398,1
125,512,9,0.0745805923322441,1
125,523,9,0.0704835859549063,1
125,524,9,0.0725408641645442,1
125,525,9,0.0708682373518944,1
126,523,9,0.0684306742915389,1
126,524,9,0.0728272652755565,1
126,525,9,0.0725238412228419,1
132,501,9,0.0710522252830241,1
135,525,9,0.071383322098112,1
136,525,9,0.0757169485630673,1
137,525,9,0.0770833001899094,1
138,524,9,0.0701960587661178,1
138,525,9,0.080770348369171,1
139,524,9,0.0740123962475063,1
140,523,9,0.074680483816681,1
140,524,9,0.0821603296599878,1
141,522,9,0.0741176126422787,1
141,523,9,0.0828398577001869,1
141,524,9,0.089292642744494,1
142,521,9,0.0823884203074279,1
142,522,9,0.116310261453217,1
142,523,9,0.122275083454343,1
143,520,9,0.0712453715807487,1
143,521,9,0.139136313200277,1
143,522,9,0.235499999616654,2
143,523,9,0.240462049358049,2
144,520,9,0.0876992486809077,1
144,521,9,0.202555060890619,2
144,522,9,0.366104464749836,2
144,523,9,0.372848712265373,2
144,524,9,0.217649031362272,2
145,520,9,0.0876995601492288,1
145,521,9,0.174473711977864,1
145,522,9,0.302118377512639,2
145,523,9,0.308756150780568,2
146,520,9,0.0823720622307955,1
146,521,9,0.119376187892258,1
146,522,9,0.162802011663674,1
147,520,9,0.0778666969254147,1
147,521,9,0.092772732203946,1
124,516,10,0.0678778599500424,1
124,519,10,0.0682735744622044,1
124,523,10,0.0684697755453858,1
124,524,10,0.0683758438874773,1
125,510,10,0.0698575466090779,1
125,511,10,0.0740338216741317,1
125,512,10,0.0702600954549776,1
125,515,10,0.0683256136309271,1
125,516,10,0.0691700401880387,1
125,519,10,0.0686385434572102,1
125,523,10,0.0734609116361498,1
125,524,10,0.0764797524507286,1
125,525,10,0.0725910405131158,1
126,511,10,0.0689587688299372,1
126,515,10,0.06842743981282,1
126,516,10,0.0693109137157998,1
126,523,10,0.074382977662067,1
126,524,10,0.081019828504584,1
126,525,10,0.0777633673098951,1
126,526,10,0.0732220753316323,1
127,524,10,0.0738260483448669,1
127,525,10,0.0725901839752328,1
132,501,10,0.0714430161998028,1
135,525,10,0.0699740956589175,1
136,500,10,0.0705733427393572,1
136,524,10,0.0677600410678169,1
136,525,10,0.07427754563538,1
137,499,10,0.0766856929087193,1
137,500,10,0.0797991122769503,1
137,525,10,0.074236713336441,1
138,499,10,0.0677699900847654,1
138,524,10,0.0677480675067814,1
138,525,10,0.0769425464576564,1
139,524,10,0.0699324786994003,1
140,523,10,0.0704151467811234,1
140,524,10,0.0767821402722981,1
141,522,10,0.0704701448988964,1
141,523,10,0.0795029478320271,1
141,524,10,0.0829670386013712,1
142,521,10,0.0754676601004672,1
142,522,10,0.10523763451598,1
142,523,10,0.115029707369283,1
143,521,10,0.117292704415222,1
143,522,10,0.196070122731936,1
143,523,10,0.209116141074257,1
144,520,10,0.0804338487766674,1
144,521,10,0.169473507367136,1
144,522,10,0.305447878028622,2
144,523,10,0.323476167594108,2
145,520,10,0.081487084894189,1
145,521,10,0.151390890538723,1
145,522,10,0.262537294737585,1
146,520,10,0.0760317771481539,1
146,521,10,0.107524614622642,1
147,520,10,0.0723610151682197,1
124,517,11,0.0682513464056747,1
124,518,11,0.0688944086932054,1
124,523,11,0.0680844113651244,1
124,524,11,0.068257509884567,1
125,511,11,0.0687616812599957,1
125,515,11,0.0683806357078017,1
125,516,11,0.0699426912664666,1
125,517,11,0.0685935302950381,1
125,518,11,0.0696656701437393,1
125,519,11,0.0696369731297717,1
125,523,11,0.0747499951602615,1
125,524,11,0.0778705243918988,1
125,525,11,0.0750810740060231,1
125,526,11,0.0722857057220468,1
126,511,11,0.069107956165961,1
126,515,11,0.0719795623112981,1
126,516,11,0.0727553280729369,1
126,523,11,0.0784476093033383,1
126,524,11,0.0846611866770528,1
126,525,11,0.0809696102275846,1
126,526,11,0.0754789807759836,1
127,515,11,0.0685469837503623,1
127,516,11,0.0685752734596023,1
127,523,11,0.0723879571779935,1
127,524,11,0.0781094804919244,1
127,525,11,0.0747990574106076,1
135,525,11,0.0682233322261034,1
136,500,11,0.0805797597055446,1
136,524,11,0.0678416517577164,1
136,525,11,0.0730633343038367,1
137,499,11,0.0721466710553352,1
137,500,11,0.0839361483233229,1
140,523,11,0.0681440635383875,1
140,524,11,0.0730654486945548,1
141,522,11,0.0696801654002205,1
141,523,11,0.0799083178621428,1
142,521,11,0.0718273561284699,1
142,522,11,0.0975396230830802,1
142,523,11,0.110348697889912,1
143,521,11,0.101092614098992,1
143,522,11,0.158247949484247,1
143,523,11,0.174464571580595,1
144,520,11,0.0785045960265459,1
144,521,11,0.139683479183566,1
144,522,11,0.233410622200619,1
145,520,11,0.0801743836856535,1
145,521,11,0.131946390455921,1
146,520,11,0.0734259493171081,1
124,517,12,0.068801040074185,1
124,518,12,0.069572583044163,1
125,516,12,0.0691306514249724,1
125,517,12,0.0707212901918721,1
125,518,12,0.0720636827170925,1
125,519,12,0.0691531550111707,1
125,523,12,0.073272563148525,1
125,524,12,0.0753109795554111,1
125,525,12,0.072578605739374,1
125,526,12,0.0714986312644425,1
125,527,12,0.073675249759259,1
125,528,12,0.0725398039742974,1
126,514,12,0.0688187099116312,1
126,515,12,0.0710580054162903,1
126,516,12,0.0730844123234885,1
126,517,12,0.0694009340503686,1
126,518,12,0.0686316671950447,1
126,522,12,0.0678434127516856,1
126,523,12,0.07894199937553,1
126,524,12,0.0827895615561072,1
126,525,12,0.0778020612590144,1
126,526,12,0.0745233420589187,1
127,513,12,0.0704238319554614,1
127,514,12,0.072256990738753,1
127,515,12,0.0735291531473443,1
127,516,12,0.0746196696269894,1
127,517,12,0.0686800106723422,1
127,523,12,0.0754917449873726,1
127,524,12,0.0787771248177192,1
127,525,12,0.0729714451593414,1
128,524,12,0.0687025861358454,1
132,499,12,0.0692900333587364,1
132,500,12,0.0690946828236625,1
134,500,12,0.0689093172441896,1
135,500,12,0.0772571893597055,1
135,501,12,0.0727090929965821,1
136,500,12,0.0781720916142378,1
136,501,12,0.0688534146703304,1
136,525,12,0.0704285159598284,1
137,500,12,0.070019426279186,1
141,522,12,0.0678762367209075,1
141,523,12,0.0777093694846148,1
142,522,12,0.088572108701869,1
143,521,12,0.0858188365594423,1
143,522,12,0.124399117710875,1
144,520,12,0.0741209010289763,1
144,521,12,0.111664232262215,1
145,520,12,0.0769223129963368,1
124,517,13,0.0681807688820722,1
125,517,13,0.0713892040575601,1
125,518,13,0.0713124091470867,1
125,523,13,0.0712510438980577,1
125,524,13,0.0731292757412754,1
125,525,13,0.0708280699180254,1
125,526,13,0.0701954478090264,1
125,527,13,0.0734298067324692,1
125,528,13,0.0745432221234894,1
125,529,13,0.0703259230866836,1
126,516,13,0.0696931931617274,1
126,517,13,0.0700175095510563,1
126,518,13,0.0689061726121018,1
126,522,13,0.0684731358093883,1
126,523,13,0.0766634468828634,1
126,524,13,0.077819886830621,1
126,525,13,0.0726869787457851,1
126,526,13,0.0722615309885104,1
126,527,13,0.0774766307714601,1
126,528,13,0.0786413665581543,1
127,513,13,0.0699654404334566,1
127,514,13,0.0713874550431417,1
127,515,13,0.0718726088816581,1
127,516,13,0.0730055988587034,1
127,517,13,0.0694985314508252,1
127,523,13,0.075808047057209,1
127,524,13,0.0758214042563631,1
127,525,13,0.0701057748814312,1
128,524,13,0.0681866149028679,1
130,500,13,0.0685016291709921,1
131,499,13,0.0708868535738546,1
131,500,13,0.0693475471821796,1
133,500,13,0.0686516071573695,1
133,523,13,0.0681362408917079,1
134,500,13,0.07785606507407,1
134,501,13,0.0754876479809953,1
135,500,13,0.0821175207351649,1
135,501,13,0.0797089961059751,1
136,500,13,0.0691593723980416,1
143,521,13,0.0802214633203405,1
144,520,13,0.07367002068533,1
125,517,14,0.0691903395368878,1
125,524,14,0.0696838011938916,1
125,525,14,0.0704501091001652,1
125,526,14,0.0698453933547802,1
125,527,14,0.0720183221479469,1
125,528,14,0.0730648137783618,1
126,517,14,0.0690935267970093,1
126,518,14,0.0683595876370269,1
126,523,14,0.0711000536396367,1
126,524,14,0.0715694843177138,1
126,525,14,0.068602407142189,1
126,526,14,0.0701497697817843,1
126,527,14,0.0761359393424549,1
127,523,14,0.0717831695553037,1
127,524,14,0.0706292513029918,1
131,500,14,0.0677986212112035,1
132,523,14,0.0677738115614741,1
133,499,14,0.0694433117113622,1
133,500,14,0.0719002097667265,1
133,501,14,0.06896885561172,1
134,499,14,0.0722922585363404,1
134,500,14,0.082009740716519,1
134,501,14,0.0795531421499249,1
135,499,14,0.0681289393554887,1
135,500,14,0.0787129683333512,1
135,501,14,0.0745612932758877,1
125,525,15,0.0718045889921537,1
125,526,15,0.0705655919699825,1
125,527,15,0.0699202535677977,1
126,526,15,0.0683543585630979,1
133,498,15,0.0703864258080543,1
133,499,15,0.0749503411680235,1
133,500,15,0.0754098707473553,1
133,501,15,0.0722815488179154,1
134,498,15,0.0736136269498875,1
134,499,15,0.0814704752469896,1
134,500,15,0.0825650947227874,1
134,501,15,0.0756917795268135,1
135,499,15,0.0733426794594213,1
135,500,15,0.073453424416893,1
125,525,16,0.0695167104191808,1
125,526,16,0.0687648258920836,1
133,498,16,0.0698186969257981,1
133,499,16,0.0785002953678048,1
133,500,16,0.0784397507180064,1
133,501,16,0.0730970267904924,1
134,498,16,0.0791508688336939,1
134,499,16,0.0919458976172003,1
134,500,16,0.0864512669956283,1
134,501,16,0.0714142952267336,1
135,499,16,0.0797935118369462,1
135,500,16,0.0730767753598465,1
132,500,17,0.0684549149126049,1
133,498,17,0.0699783903278832,1
133,499,17,0.0854431458664608,1
133,500,17,0.0868743967098212,1
133,501,17,0.0761546813496986,1
134,498,17,0.0824973024447484,1
134,499,17,0.101385286504854,1
134,500,17,0.0947950241354406,1
134,501,17,0.0729296485065621,1
135,499,17,0.0842728276090887,1
135,500,17,0.0753301108980561,1
132,499,18,0.0733715441871003,1
132,500,18,0.0822422637977591,1
132,501,18,0.0803339932308829,1
132,502,18,0.0685770164842453,1
133,498,18,0.0732396373531211,1
133,499,18,0.0928958640169561,1
133,500,18,0.101062090203526,1
133,501,18,0.0896987495169845,1
133,502,18,0.0682342455968921,1
134,498,18,0.0824277371931893,1
134,499,18,0.102713087937187,1
134,500,18,0.100875688392908,1
134,501,18,0.0797391366558154,1
135,499,18,0.0833959484488303,1
135,500,18,0.0750904000863294,1
129,503,19,0.07030895405296,1
129,504,19,0.0695862097832104,1
130,502,19,0.067801759853516,1
130,503,19,0.0725132393203742,1
130,504,19,0.0699102446530952,1
131,500,19,0.0693353280403525,1
131,501,19,0.0753013060681312,1
131,502,19,0.074755158346661,1
131,503,19,0.0706116293837489,1
132,499,19,0.077104551913048,1
132,500,19,0.0892620409819475,1
132,501,19,0.093972298534623,1
132,502,19,0.0827710232012273,1
133,498,19,0.0772387228821304,1
133,499,19,0.0915063738877227,1
133,500,19,0.101398487969848,1
133,501,19,0.0982662427375171,1
133,502,19,0.0793608164514309,1
134,498,19,0.0809177447623487,1
134,499,19,0.0925886544261853,1
134,500,19,0.0917698401487074,1
134,501,19,0.0794207920725658,1
135,499,19,0.0776669319258671,1
135,500,19,0.0704307261869531,1
129,502,20,0.0684881941047576,1
129,503,20,0.071480482244964,1
129,504,20,0.0707104726574899,1
130,501,20,0.0750143179591292,1
130,502,20,0.0783436387818503,1
130,503,20,0.0763515592775008,1
130,504,20,0.0717170124859504,1
131,500,20,0.0769857686769822,1
131,501,20,0.0907719255968308,1
131,502,20,0.0890713025739359,1
131,503,20,0.0767931315101671,1
132,499,20,0.076810501858843,1
132,500,20,0.0922805044406757,1
132,501,20,0.105963463520064,1
132,502,20,0.0970395786629058,1
132,503,20,0.0749729705395053,1
133,499,20,0.0863317949353909,1
133,500,20,0.0939224636032495,1
133,501,20,0.0984201380370097,1
133,502,20,0.0857560277745406,1
134,497,20,0.071767913597346,1
134,498,20,0.082539811880801,1
134,499,20,0.0831057917486387,1
134,500,20,0.0798246167406268,1
134,501,20,0.073688708784595,1
129,501,21,0.0716237157442349,1
129,502,21,0.0742984259924435,1
129,503,21,0.0722388656783761,1
129,504,21,0.070517218543808,1
130,500,21,0.0736006411168085,1
130,501,21,0.0903212908339761,1
130,502,21,0.0908732845762421,1
130,503,21,0.0791971338589257,1
130,504,21,0.070994759377784,1
131,500,21,0.0857217243307935,1
131,501,21,0.10539659117569,1
131,502,21,0.100718768256835,1
131,503,21,0.0806546917958669,1
132,499,21,0.0775386608855591,1
132,500,21,0.0933338064457267,1
132,501,21,0.108536479361438,1
132,502,21,0.0999241107435678,1
132,503,21,0.078147144199674,1
133,497,21,0.0774697545092946,1
133,498,21,0.0826979479412806,1
133,499,21,0.0830920991220618,1
133,500,21,0.0864064754551463,1
133,501,21,0.0906278894676556,1
133,502,21,0.0820701056730553,1
133,503,21,0.0688098031156032,1
134,496,21,0.071430743149997,1
134,497,21,0.0804655526578886,1
134,498,21,0.0848072653196413,1
134,499,21,0.0806420533697614,1
134,500,21,0.0740097248076755,1
134,501,21,0.0681700771329734,1
135,497,21,0.0721191540271225,1
135,498,21,0.0763362613911153,1
129,501,22,0.0791996855032485,1
129,502,22,0.0811908006537576,1
129,503,22,0.0735427080090868,1
130,500,22,0.0853042369850327,1
130,501,22,0.107635569222253,1
130,502,22,0.104023147654768,1
130,503,22,0.0827190738791357,1
130,504,22,0.0686700916042708,1
131,499,22,0.0776935684570952,1
131,500,22,0.0997981517565663,1
131,501,22,0.119923449711954,1
131,502,22,0.108964305059549,1
131,503,22,0.0834098626970972,1
132,499,22,0.0842045801081188,1
132,500,22,0.0990589955022058,1
132,501,22,0.108000023096574,1
132,502,22,0.0954587032299169,1
132,503,22,0.07694843440688,1
133,497,22,0.0808464664350237,1
133,498,22,0.082804242495626,1
133,499,22,0.0849680368812993,1
133,500,22,0.0860749353966784,1
133,501,22,0.08408228087389,1
133,502,22,0.0744922371552381,1
134,496,22,0.0782927017318022,1
134,497,22,0.0899829284213214,1
134,498,22,0.0895452136040162,1
134,499,22,0.0838839234715626,1
134,500,22,0.0758471602906066,1
135,496,22,0.0730711928891686,1
135,497,22,0.0828255960449465,1
135,498,22,0.083760384353825,1
135,499,22,0.0789811784964571,1
136,498,22,0.0703075883841675,1
129,500,23,0.0685508890839266,1
129,501,23,0.0791143012548436,1
129,502,23,0.079308729364505,1
129,503,23,0.0711401432064255,1
130,499,23,0.0758185531232702,1
130,500,23,0.0932419712092101,1
130,501,23,0.10837194023105,1
130,502,23,0.102767630832029,1
130,503,23,0.0836994743277268,1
130,504,23,0.0686388788846329,1
131,498,23,0.0697045497758961,1
131,499,23,0.089098663867988,1
131,500,23,0.107891296693414,1
131,501,23,0.116170963236388,1
131,502,23,0.103768606159138,1
131,503,23,0.0847411921071436,1
131,504,23,0.0688072215224035,1
132,498,23,0.0745413652931137,1
132,499,23,0.0911264304542032,1
132,500,23,0.102131013542834,1
132,501,23,0.0996106058988458,1
132,502,23,0.0872591259738896,1
132,503,23,0.0765802728615831,1
133,496,23,0.0730969968416154,1
133,497,23,0.0798414539992916,1
133,498,23,0.0814007183226175,1
133,499,23,0.0856648034951154,1
133,500,23,0.0860388469998605,1
133,501,23,0.0781082765470679,1
133,502,23,0.0689040282725066,1
134,495,23,0.0731139479060128,1
134,496,23,0.0818348871928826,1
134,497,23,0.094354170675823,1
134,498,23,0.090471304759006,1
134,499,23,0.0832951345389809,1
134,500,23,0.0760767423921227,1
135,496,23,0.0792721797549808,1
135,497,23,0.091176654720978,1
135,498,23,0.0871346045329854,1
135,499,23,0.0780757101381884,1
136,497,23,0.0728524642606873,1
136,498,23,0.072283004333339,1
129,500,24,0.0678926786543955,1
129,501,24,0.0729351051919565,1
129,502,24,0.0726114117392698,1
130,499,24,0.0810030571334487,1
130,500,24,0.0923459966449591,1
130,501,24,0.0957284767244036,1
130,502,24,0.0919550799428968,1
130,503,24,0.0813225098251484,1
131,498,24,0.0746984291837958,1
131,499,24,0.0964069805130084,1
131,500,24,0.107150253659801,1
131,501,24,0.101060784432487,1
131,502,24,0.0929932457854982,1
131,503,24,0.0853535987241491,1
131,504,24,0.0724148153309116,1
132,498,24,0.0775226981341035,1
132,499,24,0.0974883565953848,1
132,500,24,0.102915590264094,1
132,501,24,0.0883519724761674,1
132,502,24,0.0797659409007549,1
132,503,24,0.0776217510499837,1
132,504,24,0.0690987738402645,1
133,496,24,0.0722570805853841,1
133,497,24,0.0768722025352946,1
133,498,24,0.0827695796653546,1
133,499,24,0.0916801732108876,1
133,500,24,0.0907157175444259,1
133,501,24,0.0746081872275371,1
134,495,24,0.0752570416278849,1
134,496,24,0.0835085442469022,1
134,497,24,0.0946265077941833,1
134,498,24,0.0911345046714498,1
134,499,24,0.0855856546029076,1
134,500,24,0.0793729996546056,1
135,495,24,0.0735890988196021,1
135,496,24,0.0834081795702082,1
135,497,24,0.0948569284642561,1
135,498,24,0.0875480487803476,1
135,499,24,0.0760355027884561,1
136,496,24,0.071035220310648,1
136,497,24,0.0757305393634623,1
136,498,24,0.0720709902430871,1
130,500,25,0.0845177674947443,1
130,501,25,0.0824332118479099,1
130,502,25,0.0814757881777742,1
131,499,25,0.0947464650262285,1
131,500,25,0.0964646800194893,1
131,501,25,0.0873782326578272,1
131,502,25,0.0848899901077661,1
131,503,25,0.0823913073791733,1
132,498,25,0.0790871436131552,1
132,499,25,0.096441319895408,1
132,500,25,0.0959079483648776,1
132,501,25,0.0800840458929883,1
132,502,25,0.0755537930707978,1
132,503,25,0.075823189209434,1
133,497,25,0.0752443492938007,1
133,498,25,0.0836272376363369,1
133,499,25,0.0961837535631976,1
133,500,25,0.0934747758098943,1
133,501,25,0.0745095236470583,1
134,496,25,0.0824493782517293,1
134,497,25,0.0904653089938251,1
134,498,25,0.0876182010298964,1
134,499,25,0.0869500954913954,1
134,500,25,0.0821372690246767,1
135,496,25,0.0835391400196733,1
135,497,25,0.0913251053146271,1
135,498,25,0.0825290183055203,1
136,497,25,0.0746197594736205,1
