x,y,z,signal,cytoplasm.p
630,733,1,0.0682982762959766,1
630,734,1,0.0710198625265084,1
630,735,1,0.0740626804120352,1
630,736,1,0.0796822038405865,1
630,737,1,0.0866491032874954,1
631,733,1,0.0700705310429454,1
631,734,1,0.0727540103223477,1
631,738,1,0.0953642684308744,1
632,732,1,0.0686458749423065,1
632,733,1,0.0717255359363524,1
632,738,1,0.0812588025739359,1
632,739,1,0.109125741486277,1
633,729,1,0.0690451114424069,1
633,730,1,0.0695839276787809,1
633,731,1,0.0685432700896109,1
633,732,1,0.0690194272854683,1
633,733,1,0.0711441024479685,1
633,734,1,0.0706144805168419,1
633,738,1,0.0680584337091909,1
633,739,1,0.0741092748749143,1
633,740,1,0.0964343058684082,1
633,743,1,0.131221447938597,1
633,744,1,0.123988578504584,1
634,723,1,0.0686406398786021,1
634,728,1,0.0682245721096123,1
634,729,1,0.0692579281625631,1
634,730,1,0.0684853669307662,1
634,741,1,0.0745460492974808,1
634,742,1,0.0875588663147298,1
634,743,1,0.094982863492156,1
634,744,1,0.0999064528856725,1
634,745,1,0.112535469054041,1
635,722,1,0.0749025128114108,1
635,723,1,0.0708756407142956,1
635,743,1,0.0718101534935054,1
635,744,1,0.0782291981329535,1
635,745,1,0.0883323200230621,1
635,746,1,0.0977155607560649,1
636,721,1,0.0733307837654661,1
636,722,1,0.0711565252421594,1
636,745,1,0.0693074875642679,1
636,746,1,0.078263537515353,1
636,747,1,0.0847255947319877,1
637,721,1,0.06963273835856,1
637,746,1,0.0688961097894206,1
637,747,1,0.0776574201625232,1
637,748,1,0.0846467034001224,1
638,719,1,0.0784113591825845,1
638,720,1,0.0718956036294397,1
638,747,1,0.0713449036786613,1
638,748,1,0.0815807110735518,1
638,749,1,0.0879358208503219,1
639,718,1,0.0806065280118316,1
639,719,1,0.0774444596877573,1
639,720,1,0.0717238827583404,1
639,748,1,0.079120704324752,1
639,749,1,0.087312387056795,1
640,718,1,0.0786349155700426,1
640,719,1,0.0762241507648512,1
640,720,1,0.071766362245516,1
640,748,1,0.0747101931026922,1
640,749,1,0.0848271334046612,1
640,750,1,0.0898076136849788,1
641,717,1,0.0794149220926684,1
641,718,1,0.0778775983166527,1
641,719,1,0.076659733222112,1
641,720,1,0.0732985947124371,1
641,748,1,0.0684883797877952,1
641,749,1,0.0809004163421007,1
641,750,1,0.0884101930931085,1
642,717,1,0.0784393374235034,1
642,718,1,0.0770384787005503,1
642,719,1,0.0773582368707957,1
642,720,1,0.0749489695094556,1
642,721,1,0.0680760855773108,1
642,749,1,0.0759336646270124,1
642,750,1,0.0860083470634958,1
643,717,1,0.0777577608801156,1
643,718,1,0.0767571269702048,1
643,719,1,0.0783590684432948,1
643,720,1,0.0763676478142399,1
643,721,1,0.0682830562766713,1
643,749,1,0.0709443733870733,1
643,750,1,0.0824582910375326,1
643,751,1,0.088371259552973,1
644,716,1,0.0804083383232156,1
644,717,1,0.0773441848576944,1
644,718,1,0.0769493089140892,1
644,719,1,0.0783889993509959,1
644,720,1,0.0753243966523193,1
644,750,1,0.0766436985933516,1
644,751,1,0.0843275322278668,1
645,716,1,0.0809129050238211,1
645,717,1,0.0784903044224285,1
645,718,1,0.0783779302460466,1
645,719,1,0.078096961861327,1
645,720,1,0.0728683311757364,1
645,728,1,0.0696713005326204,1
645,750,1,0.0722962896551883,1
645,751,1,0.0813221384590733,1
646,715,1,0.0846364968228314,1
646,716,1,0.0811572998399149,1
646,717,1,0.0796493798713645,1
646,718,1,0.0794924896841692,1
646,719,1,0.0769416779402226,1
646,720,1,0.0696390815307144,1
646,750,1,0.0697327436487297,1
646,751,1,0.0788013654387851,1
647,714,1,0.0874580583946559,1
647,715,1,0.084426171849244,1
647,716,1,0.0807830586725814,1
647,717,1,0.0792986665418238,1
647,718,1,0.0780966623725567,1
647,719,1,0.0737395499982366,1
647,750,1,0.0685673250276392,1
647,751,1,0.076823236121355,1
647,752,1,0.0853189598529793,1
648,714,1,0.0871864160902426,1
648,715,1,0.0842444300838914,1
648,716,1,0.0802842721052422,1
648,717,1,0.0784153184241275,1
648,718,1,0.0754121288926832,1
648,719,1,0.0694092897870592,1
648,751,1,0.0745057800374299,1
648,752,1,0.0832470486220258,1
649,715,1,0.0844643686470046,1
649,716,1,0.0805516137509143,1
649,717,1,0.0788471692513107,1
649,718,1,0.074566630165774,1
649,751,1,0.0728498467288351,1
649,752,1,0.0816099112286534,1
650,716,1,0.0809098142997119,1
650,717,1,0.079244824450704,1
650,718,1,0.0747579076535721,1
650,751,1,0.0733188042146552,1
650,752,1,0.0806300798087259,1
651,717,1,0.0791373918390316,1
651,718,1,0.0747004417483321,1
651,751,1,0.07533984428309,1
651,752,1,0.0815900371538581,1
652,717,1,0.079922621445811,1
652,718,1,0.075277975892927,1
652,719,1,0.0681173371605283,1
652,750,1,0.068671690874304,1
652,751,1,0.078615880063804,1
652,752,1,0.0842687605515884,1
653,716,1,0.082357489107234,1
653,717,1,0.082587232932686,1
653,718,1,0.0777189291661619,1
653,719,1,0.0702924761808195,1
653,750,1,0.0703751231018641,1
653,751,1,0.0824650954223932,1
653,752,1,0.088610856558967,1
654,716,1,0.0859182129231944,1
654,717,1,0.0870164861619896,1
654,718,1,0.0809678971518187,1
654,719,1,0.072062508721113,1
654,750,1,0.0719422639798483,1
654,751,1,0.086180199709654,1
654,752,1,0.0925257617844279,1
655,717,1,0.0910999496571357,1
655,718,1,0.0831140696182491,1
655,719,1,0.0725273751903311,1
655,729,1,0.0832473241516945,1
655,730,1,0.0793018710716657,1
655,750,1,0.073542001215589,1
655,751,1,0.0883803400524877,1
655,752,1,0.094688076695576,1
656,717,1,0.0936159368468749,1
656,718,1,0.0833350743613845,1
656,719,1,0.0717292196482267,1
656,728,1,0.0722917494054309,1
656,729,1,0.0974468354722741,1
656,730,1,0.0930092205165046,1
656,750,1,0.0752931539838044,1
656,751,1,0.0883077739234505,1
657,717,1,0.0936549422643153,1
657,718,1,0.082334709991367,1
657,719,1,0.0709561852241729,1
657,729,1,0.0781665870106401,1
657,730,1,0.0754668814296645,1
657,750,1,0.076670946081671,1
657,751,1,0.0854024393528052,1
658,716,1,0.0908883967795901,1
658,717,1,0.0899376756681331,1
658,718,1,0.079334862754599,1
658,719,1,0.0689264599814001,1
658,749,1,0.0685827067708804,1
658,750,1,0.0779516798588675,1
658,751,1,0.0821551125656096,1
659,715,1,0.0841054613047092,1
659,716,1,0.0859239032098296,1
659,717,1,0.0839937759524989,1
659,718,1,0.075493050758411,1
659,749,1,0.0718039540759607,1
659,750,1,0.0790283120391227,1
659,751,1,0.0798757274941616,1
660,716,1,0.0835422487131087,1
660,717,1,0.080098445313063,1
660,718,1,0.072413078296044,1
660,749,1,0.0720015328074854,1
660,750,1,0.0775953840586488,1
661,717,1,0.0828758023423951,1
661,718,1,0.0719886188517112,1
661,749,1,0.0692349214352307,1
661,750,1,0.0740698082447677,1
662,717,1,0.0860607276494166,1
662,718,1,0.071498948722539,1
663,717,1,0.081983283878553,1
663,718,1,0.0683705848646713,1
664,716,1,0.0811983238116669,1
664,717,1,0.0753529738707788,1
664,749,1,0.0699572344411511,1
665,717,1,0.0734371382175655,1
666,748,1,0.0693586701951076,1
667,748,1,0.0696698809558493,1
668,748,1,0.0682966051486384,1
669,748,1,0.0687939721392066,1
670,748,1,0.0711790228385824,1
671,748,1,0.0742712803303059,1
672,748,1,0.0735090275019819,1
673,748,1,0.071288881309294,1
675,720,1,0.074448523774329,1
676,720,1,0.0794803184605453,1
677,720,1,0.0833848434052285,1
677,721,1,0.0688013515425061,1
678,721,1,0.0717185818071066,1
679,721,1,0.073702904552306,1
680,721,1,0.0775063160983696,1
680,722,1,0.0760012532526876,1
680,723,1,0.0716441169192659,1
681,720,1,0.0780813824554974,1
681,721,1,0.0812012408322894,1
681,722,1,0.084798825726095,1
681,723,1,0.0803865954384937,1
682,724,1,0.0680768462787873,1
630,734,2,0.0706346540804075,1
631,733,2,0.0678865870528082,1
633,739,2,0.0684945193075858,1
633,744,2,0.121464127762197,1
634,741,2,0.0704474137012327,1
634,742,2,0.0828363536815747,1
634,743,2,0.0916428808692132,1
634,744,2,0.102224190489042,1
634,745,2,0.127469320849555,1
635,722,2,0.0722622857002115,1
635,743,2,0.0718070268307437,1
635,744,2,0.0795407073761832,1
635,745,2,0.0954413748096689,1
635,746,2,0.110233071265485,1
636,722,2,0.0690663991041979,1
636,745,2,0.0716033864465087,1
636,746,2,0.082530683463083,1
636,747,2,0.088687423857975,1
637,746,2,0.0727385267529245,1
637,747,2,0.0822786097549195,1
637,748,2,0.0877297605968231,1
638,721,2,0.0679476947414947,1
638,747,2,0.0749690172877377,1
638,748,2,0.0830373825237329,1
639,719,2,0.0793457821151632,1
639,720,2,0.0735009832336124,1
639,721,2,0.0685663067658203,1
639,747,2,0.0683011274290696,1
639,748,2,0.0807313010233028,1
639,749,2,0.0841651134779722,1
640,718,2,0.0796111710940531,1
640,719,2,0.0769050684329444,1
640,720,2,0.0731013034901319,1
640,721,2,0.0692887395672488,1
640,748,2,0.0769138793925659,1
640,749,2,0.0828830140319833,1
641,717,2,0.0793909150728433,1
641,718,2,0.0779133273269463,1
641,719,2,0.0762894213474445,1
641,720,2,0.0742640267122899,1
641,721,2,0.0703068815906697,1
641,748,2,0.070646094551432,1
641,749,2,0.0816679341830061,1
641,750,2,0.0835623743584711,1
642,717,2,0.07880875083186,1
642,718,2,0.0773880120443362,1
642,719,2,0.0776838829902646,1
642,720,2,0.0766376309508658,1
642,721,2,0.0701274938070514,1
642,749,2,0.0774041425095031,1
642,750,2,0.0825628245979088,1
643,717,2,0.0786574910335458,1
643,718,2,0.0777099684621554,1
643,719,2,0.0800923117830478,1
643,720,2,0.079470579085736,1
643,721,2,0.07006742234951,1
643,749,2,0.0718604616171359,1
643,750,2,0.0804261818641484,1
643,751,2,0.0828639725359693,1
644,716,2,0.0819286870757322,1
644,717,2,0.0786604020643929,1
644,718,2,0.0783124380417632,1
644,719,2,0.0811059135567114,1
644,720,2,0.0792227760874365,1
644,721,2,0.0684809045480892,1
644,728,2,0.0723894306627433,1
644,750,2,0.0759029790076102,1
644,751,2,0.081388553088769,1
645,716,2,0.0826600805811673,1
645,717,2,0.0801584628626258,1
645,718,2,0.0802796120599767,1
645,719,2,0.0811832056185435,1
645,720,2,0.0760181983273097,1
645,727,2,0.0706434889991306,1
645,728,2,0.0823652099277317,1
645,729,2,0.0737006763558551,1
645,750,2,0.0726827020461456,1
645,751,2,0.0802887344879192,1
646,715,2,0.0864194912371023,1
646,716,2,0.0829641395500749,1
646,717,2,0.0817626445117173,1
646,718,2,0.0827519876949887,1
646,719,2,0.0808127020710631,1
646,720,2,0.0719322969935736,1
646,728,2,0.0728792325669743,1
646,750,2,0.0690602236457549,1
646,751,2,0.0776555633321475,1
647,715,2,0.0855421748232393,1
647,716,2,0.0818377862441789,1
647,717,2,0.0808923001964263,1
647,718,2,0.0812981673779006,1
647,719,2,0.0766646148890674,1
647,751,2,0.075203241465193,1
647,752,2,0.0832989500259142,1
648,715,2,0.0848307751881077,1
648,716,2,0.080620759718195,1
648,717,2,0.0799270419000603,1
648,718,2,0.0787090809691131,1
648,719,2,0.071670118534301,1
648,751,2,0.0723234053684488,1
648,752,2,0.0810870517539596,1
649,716,2,0.0807131879424767,1
649,717,2,0.0815729662939525,1
649,718,2,0.0791413391010238,1
649,719,2,0.0701262060053392,1
649,751,2,0.070095520385937,1
649,752,2,0.0789829993881804,1
650,717,2,0.0825346007761982,1
650,718,2,0.0794260031771686,1
650,719,2,0.0698229197174589,1
650,751,2,0.0699738860167783,1
650,752,2,0.0774581523143342,1
651,717,2,0.0818726766859157,1
651,718,2,0.0777933581153502,1
651,719,2,0.0690601098400222,1
651,751,2,0.0710889545858104,1
651,752,2,0.0778801499609754,1
652,717,2,0.0821255410444328,1
652,718,2,0.0771528894005701,1
652,719,2,0.0693568792522614,1
652,751,2,0.0736424737082402,1
652,752,2,0.0801757972726492,1
653,717,2,0.0837406180949869,1
653,718,2,0.078006198794608,1
653,719,2,0.0705385481340268,1
653,751,2,0.0777169225914011,1
653,752,2,0.0849169261277645,1
654,717,2,0.0872535614725379,1
654,718,2,0.0799417947168839,1
654,719,2,0.0713553079185406,1
654,751,2,0.0809840276169856,1
654,752,2,0.0877996552860295,1
655,717,2,0.091040273524771,1
655,718,2,0.081142115759262,1
655,719,2,0.0710572746636909,1
655,751,2,0.082690891985853,1
655,752,2,0.0878894959273361,1
656,718,2,0.0814758241164267,1
656,719,2,0.0705170747891982,1
656,729,2,0.0749161395504583,1
656,730,2,0.0712262282585528,1
656,750,2,0.0700605460873445,1
656,751,2,0.0840118411151218,1
656,752,2,0.08769130623872,1
657,718,2,0.0800759477166401,1
657,719,2,0.0693903141785747,1
657,750,2,0.0728911522200312,1
657,751,2,0.0820622470877233,1
658,717,2,0.0898303987906212,1
658,718,2,0.0771433416985738,1
658,750,2,0.0752430015943345,1
658,751,2,0.0801915803308426,1
659,716,2,0.0853586241457143,1
659,717,2,0.0834562235587355,1
659,718,2,0.0735495363530491,1
659,750,2,0.0775495802461232,1
659,751,2,0.0787890025423482,1
660,717,2,0.0798744576617757,1
660,718,2,0.0713588778246822,1
660,749,2,0.0698987981922954,1
660,750,2,0.0777494470718528,1
660,751,2,0.0776828886875472,1
661,717,2,0.0813081343641753,1
661,718,2,0.070750226796856,1
661,749,2,0.0693032228441792,1
661,750,2,0.0753542257338385,1
662,718,2,0.0714961994156279,1
662,750,2,0.0721166443112276,1
663,718,2,0.0702040491265087,1
664,718,2,0.0689493469132244,1
664,749,2,0.0715614939573229,1
665,718,2,0.0682055725420262,1
665,749,2,0.0816520253395292,1
669,748,2,0.0684970410030315,1
670,748,2,0.0694739853512136,1
671,748,2,0.0714882390041141,1
672,748,2,0.0708852722731476,1
673,748,2,0.069622220312948,1
679,721,2,0.0680294491860039,1
680,721,2,0.0707884235946166,1
680,722,2,0.069585568877242,1
681,723,2,0.0742461711918062,1
630,734,3,0.0698011049554322,1
633,739,3,0.0705820578625721,1
634,741,3,0.0740874780822138,1
634,742,3,0.0851724619261124,1
634,743,3,0.0923065539739141,1
634,744,3,0.108101322178231,1
635,743,3,0.0733241411045414,1
635,744,3,0.0815660061749313,1
635,745,3,0.103265668677442,1
635,746,3,0.124425832109183,1
636,722,3,0.0682798277877277,1
636,745,3,0.07263534688179,1
636,746,3,0.0852752404822948,1
636,747,3,0.0897070693150227,1
637,746,3,0.0746144285735096,1
637,747,3,0.0849859642790879,1
637,748,3,0.0877696465112481,1
638,747,3,0.0820929446866763,1
638,748,3,0.0857760096652933,1
639,721,3,0.0705367751605068,1
639,747,3,0.0768189893705925,1
639,748,3,0.085796524646057,1
639,749,3,0.0804929498905932,1
640,719,3,0.0773787997697626,1
640,720,3,0.0739297133878093,1
640,721,3,0.0709237745494539,1
640,748,3,0.0816956728329088,1
640,749,3,0.0812146100109944,1
641,718,3,0.077464561374018,1
641,719,3,0.0754411433647472,1
641,720,3,0.073770061914152,1
641,721,3,0.0707083043587931,1
641,748,3,0.0726176950136701,1
641,749,3,0.0827432546024476,1
641,750,3,0.0797125480427906,1
642,718,3,0.0773957688034863,1
642,719,3,0.0773299411717802,1
642,720,3,0.0766421592210724,1
642,721,3,0.0705006328557102,1
642,749,3,0.0814808435482164,1
642,750,3,0.0822859172809141,1
643,717,3,0.0790231967709265,1
643,718,3,0.0787540941312851,1
643,719,3,0.0804433964786637,1
643,720,3,0.0798531340613322,1
643,721,3,0.06971361829586,1
643,749,3,0.0743748854754942,1
643,750,3,0.0805784719038324,1
644,717,3,0.0797290019558294,1
644,718,3,0.0796399519648763,1
644,719,3,0.0818411465081814,1
644,720,3,0.0806113976992362,1
644,721,3,0.0691192109539479,1
644,728,3,0.0752897997095774,1
644,750,3,0.0782232622655266,1
644,751,3,0.0809132105023668,1
645,716,3,0.0826452618768142,1
645,717,3,0.0812691888444889,1
645,718,3,0.0811510405246161,1
645,719,3,0.0817262326670275,1
645,720,3,0.076952363699546,1
645,727,3,0.0763204004658416,1
645,728,3,0.0906379522903368,1
645,729,3,0.0759720351282598,1
645,750,3,0.07561697921155,1
645,751,3,0.0812586887682032,1
646,715,3,0.08705792941802,1
646,716,3,0.0835552764746156,1
646,717,3,0.0836564497709893,1
646,718,3,0.0845638648062648,1
646,719,3,0.0828826127170311,1
646,720,3,0.073096799179027,1
646,728,3,0.0758898613994722,1
646,750,3,0.0702724643411899,1
646,751,3,0.0784860756409922,1
646,752,3,0.0824958169804478,1
647,715,3,0.085731481674929,1
647,716,3,0.0819589653904069,1
647,717,3,0.0821138849414938,1
647,718,3,0.0828356708471785,1
647,719,3,0.0783414345445011,1
647,751,3,0.0747235802507234,1
647,752,3,0.0821821504117899,1
648,715,3,0.0842704436784773,1
648,716,3,0.0800156785965103,1
648,717,3,0.08017891195586,1
648,718,3,0.0800728989209587,1
648,719,3,0.0728571362855036,1
648,751,3,0.0704958170762842,1
648,752,3,0.0792811524385382,1
649,716,3,0.0798604895055301,1
649,717,3,0.0814203168677442,1
649,718,3,0.0803188091502301,1
649,719,3,0.070296279688202,1
649,752,3,0.075688359365057,1
650,716,3,0.0804446303723973,1
650,717,3,0.0826666873034395,1
650,718,3,0.0803060569183918,1
650,719,3,0.068728240343907,1
650,752,3,0.073556981643878,1
651,717,3,0.0817954145729606,1
651,718,3,0.0780611430044023,1
651,752,3,0.0734278181270346,1
652,717,3,0.0816500067852176,1
652,718,3,0.077503117558303,1
652,719,3,0.0680491315879863,1
652,752,3,0.0755988601409485,1
653,716,3,0.0805996397701153,1
653,717,3,0.082334709991367,1
653,718,3,0.0773925403145427,1
653,719,3,0.0687868862349019,1
653,751,3,0.0727517042588166,1
653,752,3,0.08208561320158,1
654,716,3,0.0836713403526473,1
654,717,3,0.0849495584241735,1
654,718,3,0.0783827879539004,1
654,719,3,0.069359946017269,1
654,751,3,0.0767526286488753,1
654,752,3,0.0860160499146673,1
655,717,3,0.0883040722422499,1
655,718,3,0.0786267634857158,1
655,719,3,0.0685974056797255,1
655,751,3,0.0781308340412449,1
655,752,3,0.0844753598848736,1
656,717,3,0.0918471741389674,1
656,718,3,0.0791436032361271,1
656,719,3,0.0684078352779179,1
656,751,3,0.0793761682457951,1
656,752,3,0.0828429663936224,1
657,717,3,0.0914735678878269,1
657,718,3,0.0776259498825429,1
657,751,3,0.0783122763178273,1
657,752,3,0.0807269943747863,1
658,717,3,0.0884925824538107,1
658,718,3,0.0759219845649717,1
658,750,3,0.0709062664359437,1
658,751,3,0.0781115709235409,1
659,716,3,0.0860593500010734,1
659,717,3,0.0827265790677188,1
659,718,3,0.0729786269000526,1
659,750,3,0.074300456526306,1
659,751,3,0.0776581089866948,1
660,717,3,0.0812535136022528,1
660,718,3,0.0719265647785106,1
660,750,3,0.0759925201601465,1
660,751,3,0.0769848821902222,1
661,718,3,0.0717675961392495,1
661,749,3,0.0678839275925281,1
661,750,3,0.0752465715004761,1
662,718,3,0.0744199106172171,1
662,750,3,0.0715849379382599,1
664,749,3,0.0709263501528782,1
665,718,3,0.0734036793321506,1
665,749,3,0.0845688063709743,1
668,748,3,0.0686941525320745,1
669,748,3,0.0698837878151293,1
670,748,3,0.0692524415282917,1
671,748,3,0.0698950006746883,1
672,748,3,0.069731743356237,1
673,748,3,0.0690018472946533,1
680,720,3,0.0711077085726049,1
681,722,3,0.0686822987665471,1
633,739,4,0.0720367466970941,1
634,741,4,0.0751237271966854,1
634,742,4,0.0841594291811124,1
634,743,4,0.089249905696976,1
634,744,4,0.107072015213455,1
635,743,4,0.0730404473720124,1
635,744,4,0.0805776453148264,1
635,745,4,0.104434765020632,1
636,745,4,0.0714091200607833,1
636,746,4,0.0856338423460446,1
636,747,4,0.0885232920323145,1
637,746,4,0.0750877585953756,1
637,747,4,0.0846541307216251,1
637,748,4,0.0850517320130399,1
638,747,4,0.0828062011521836,1
638,748,4,0.0831072951822655,1
639,747,4,0.077776706539723,1
639,748,4,0.0836736524059538,1
639,749,4,0.0730901924567548,1
640,721,4,0.0706425965225952,1
640,748,4,0.0798759790647287,1
640,749,4,0.0746772433481867,1
641,718,4,0.075488456600675,1
641,719,4,0.0739854961661604,1
641,720,4,0.072319404198478,1
641,721,4,0.0706011652461156,1
641,748,4,0.072474443545073,1
641,749,4,0.0799730074365218,1
641,750,4,0.0738040658691289,1
642,718,4,0.0759384025393581,1
642,719,4,0.0769660383567966,1
642,720,4,0.0764848437598232,1
642,721,4,0.0715255313457885,1
642,749,4,0.0834066641570306,1
642,750,4,0.080591805143885,1
643,717,4,0.0767897652563892,1
643,718,4,0.0779401435514366,1
643,719,4,0.0802653444149609,1
643,720,4,0.0796804488363927,1
643,721,4,0.0706044236839361,1
643,749,4,0.0764594650814303,1
643,750,4,0.0805550399024462,1
644,716,4,0.0779302724015683,1
644,717,4,0.0775847701766303,1
644,721,4,0.0700380604704724,1
644,728,4,0.0735726928247666,1
644,749,4,0.0682542214978694,1
644,750,4,0.0800688737918863,1
644,751,4,0.0790024901173498,1
645,716,4,0.0789021314304312,1
645,717,4,0.0790814712958462,1
645,720,4,0.0767104666197963,1
645,727,4,0.0770189460429531,1
645,728,4,0.0916488227264154,1
645,729,4,0.0733092205740064,1
645,750,4,0.0785161263442014,1
645,751,4,0.0809511138011326,1
646,715,4,0.0842969664039727,1
646,716,4,0.0804905180417785,1
646,717,4,0.0823104214520979,1
646,718,4,0.0829336755523627,1
646,719,4,0.0821408569001446,1
646,720,4,0.072838795593212,1
646,728,4,0.074053414229483,1
646,750,4,0.0717007262866229,1
646,751,4,0.0783675020470656,1
646,752,4,0.0799556909958246,1
647,715,4,0.0834135284396453,1
647,716,4,0.0793873212076001,1
647,717,4,0.0809964204622995,1
647,718,4,0.0813097456137594,1
647,719,4,0.0773295458466035,1
647,751,4,0.0738857664056594,1
647,752,4,0.0810771326858881,1
648,714,4,0.0826274782336354,1
648,715,4,0.0819325624604196,1
648,716,4,0.0773591113780049,1
648,718,4,0.0786095309018743,1
648,719,4,0.0718324414477891,1
648,751,4,0.0687967034767915,1
648,752,4,0.0781984466260218,1
649,715,4,0.0810144436964945,1
649,716,4,0.0772277675829138,1
649,717,4,0.0797175435154787,1
649,718,4,0.0787633782831636,1
649,719,4,0.0687548648955843,1
649,752,4,0.072925539520634,1
650,716,4,0.0782624413864538,1
650,717,4,0.0815109661287305,1
650,718,4,0.0791081497555022,1
650,752,4,0.0689815958640074,1
651,717,4,0.0806116193209262,1
651,718,4,0.0768502140697812,1
652,717,4,0.0802759942356318,1
652,718,4,0.0764327686524481,1
652,752,4,0.068964321351738,1
652,753,4,0.0766519944322881,1
653,716,4,0.078851427981624,1
653,717,4,0.0800000273133759,1
653,718,4,0.0755740265321175,1
653,752,4,0.0765874126738664,1
653,753,4,0.0812693865070773,1
654,716,4,0.0822934823672512,1
654,717,4,0.0820967721531604,1
654,718,4,0.0756958585638646,1
654,751,4,0.0695837120468663,1
654,752,4,0.0824918876877819,1
654,753,4,0.0854018823036925,1
655,717,4,0.0846191204843802,1
655,718,4,0.0748888022155077,1
655,751,4,0.0700836067226556,1
655,752,4,0.0808434835268718,1
656,717,4,0.0879184265425445,1
656,718,4,0.0752789522263181,1
656,751,4,0.0704206813335981,1
656,752,4,0.0772361293093799,1
657,717,4,0.0871321607046199,1
657,718,4,0.0741715146311525,1
657,751,4,0.071161275134056,1
657,752,4,0.0749025128114108,1
658,717,4,0.0845364436144586,1
658,718,4,0.0732318925735219,1
658,751,4,0.0736071999208775,1
658,752,4,0.0746818674547997,1
659,717,4,0.0803671526275276,1
659,718,4,0.0708983838915101,1
659,750,4,0.0691352575622592,1
659,751,4,0.0756441967509925,1
660,718,4,0.0705123608359541,1
660,750,4,0.0728697747116091,1
660,751,4,0.0759860032845053,1
661,718,4,0.0720265940277818,1
661,750,4,0.0742404569460694,1
661,751,4,0.0758440096687434,1
662,750,4,0.0704578538797644,1
663,750,4,0.0690286455498173,1
665,749,4,0.0776437035768447,1
666,749,4,0.0902690360333388,1
680,720,4,0.070674474107303,1
634,739,5,0.0706852197643804,1
634,740,5,0.0700123823033092,1
634,741,5,0.0764886652365319,1
634,742,5,0.0841379917749362,1
634,743,5,0.0891459591345896,1
635,743,5,0.073909839313014,1
635,744,5,0.0828954967239283,1
636,745,5,0.0742464287521487,1
636,746,5,0.0874630059491408,1
636,747,5,0.0884140924368975,1
637,746,5,0.0759175401516209,1
637,747,5,0.0835244710597053,1
638,747,5,0.0812714170409398,1
638,748,5,0.0784758391148243,1
639,747,5,0.0771966866383349,1
639,748,5,0.0794419479592979,1
640,721,5,0.0699865843406379,1
640,748,5,0.0770366158803992,1
640,749,5,0.0695056592835577,1
641,719,5,0.0724184511245827,1
641,720,5,0.0716327722846479,1
641,721,5,0.0708498367618488,1
641,748,5,0.0737849165571576,1
641,749,5,0.0769668290071502,1
642,718,5,0.0730777936216655,1
642,719,5,0.0754622393537253,1
642,720,5,0.0758658483898717,1
642,748,5,0.0698749708657324,1
642,749,5,0.0826947853398666,1
642,750,5,0.076702751789074,1
643,717,5,0.0729307386456859,1
643,749,5,0.0775351448873961,1
643,750,5,0.0787018093817708,1
644,716,5,0.0731866158612319,1
644,728,5,0.0683114358325424,1
644,749,5,0.0691850206163278,1
644,750,5,0.0798905881269426,1
644,751,5,0.0774943006089062,1
645,716,5,0.0744697335690398,1
645,727,5,0.0717697644379463,1
645,728,5,0.0819514841609254,1
645,750,5,0.0795326990464661,1
645,751,5,0.0810452311420786,1
646,715,5,0.0789942002681886,1
646,716,5,0.0763780820029962,1
646,720,5,0.0700679614292965,1
646,750,5,0.0715146059954489,1
646,751,5,0.0783069573972672,1
646,752,5,0.0785326581243205,1
647,715,5,0.0786264939458225,1
647,719,5,0.0742525862412655,1
647,751,5,0.0732068613021024,1
647,752,5,0.0799630045115947,1
648,715,5,0.0780775130605855,1
648,719,5,0.0696969307815804,1
648,752,5,0.076564375997657,1
649,718,5,0.0772131884695769,1
649,752,5,0.0694970819251771,1
650,717,5,0.0808848009976187,1
650,718,5,0.0771903494559559,1
651,717,5,0.0801744675425092,1
651,718,5,0.0751146287278445,1
652,718,5,0.0740999967128113,1
652,753,5,0.0708861827190092,1
653,718,5,0.0729073306034013,1
653,752,5,0.0681680825377634,1
653,753,5,0.074184093159504,1
654,717,5,0.0794127178553192,1
654,718,5,0.0728134468636961,1
654,752,5,0.0737092057960325,1
654,753,5,0.0775651836110545,1
655,717,5,0.0814959677311152,1
655,718,5,0.0720798491209118,1
655,752,5,0.0727686193845616,1
655,753,5,0.0775132402787383,1
656,717,5,0.0847295839224078,1
656,718,5,0.0726197435168588,1
656,752,5,0.0693683436823874,1
657,717,5,0.0848416047020408,1
657,718,5,0.0724210866257611,1
657,752,5,0.0682409481555709,1
658,717,5,0.0842023159730155,1
658,718,5,0.0729678512940982,1
658,752,5,0.0690053752723671,1
659,717,5,0.0829372454585044,1
659,718,5,0.071943102548405,1
659,751,5,0.0705144213186936,1
659,752,5,0.0700742267343706,1
660,718,5,0.0728384182373615,1
660,751,5,0.0725655659983163,1
661,718,5,0.076211901674147,1
661,750,5,0.0713698990114283,1
661,751,5,0.0737805380313362,1
662,750,5,0.0693606887494192,1
665,749,5,0.0706875437972378,1
666,749,5,0.0819886327479901,1
667,749,5,0.0734293275504368,1
675,721,5,0.0679263352023988,1
679,720,5,0.07547575228704,1
679,721,5,0.0691827085630213,1
680,720,5,0.072160273835281,1
680,721,5,0.0681745335258751,1
634,739,6,0.0750468544191317,1
634,740,6,0.0754533744861252,1
634,741,6,0.0793616909586401,1
634,742,6,0.0867223762100305,1
634,743,6,0.0945327139011091,1
635,742,6,0.0698225004331806,1
635,743,6,0.0784791095321957,1
635,744,6,0.0889548613400536,1
636,744,6,0.0688996856853376,1
636,745,6,0.0809965642169092,1
636,746,6,0.0924985142961084,1
636,747,6,0.0906595274613473,1
637,746,6,0.0804812518592263,1
637,747,6,0.0853544372927059,1
638,746,6,0.0706081553140137,1
638,747,6,0.0822254984163992,1
638,748,6,0.0782879458501303,1
639,747,6,0.0775679568770672,1
639,748,6,0.0781981770861286,1
640,747,6,0.0681097121764371,1
640,748,6,0.0764006095482962,1
640,749,6,0.0682906273527838,1
641,719,6,0.0688787035020923,1
641,748,6,0.0759975515714871,1
641,749,6,0.0755773328881413,1
642,748,6,0.0737905169971617,1
642,749,6,0.0817384218599777,1
642,750,6,0.0748720847523511,1
643,749,6,0.078746972288328,1
643,750,6,0.0783514254898774,1
644,749,6,0.0702677623674966,1
644,750,6,0.0790682638410772,1
644,751,6,0.0767455307650199,1
645,728,6,0.0712260964834939,1
645,750,6,0.0774413809431989,1
645,751,6,0.0798555599203715,1
646,750,6,0.068914773929584,1
646,751,6,0.0773047781253019,1
647,751,6,0.0721444488486598,1
647,752,6,0.0797750693184728,1
648,752,6,0.0758990377353934,1
651,718,6,0.0742747064818379,1
651,753,6,0.068273568472429,1
653,753,6,0.0677685645182189,1
654,718,6,0.0709647206541256,1
654,753,6,0.0705091922447647,1
655,717,6,0.079238145851127,1
655,718,6,0.0708853501402278,1
655,753,6,0.0709551430032523,1
656,717,6,0.0824712828603871,1
656,718,6,0.0722600994321885,1
657,717,6,0.0837778205900302,1
657,718,6,0.073069779302173,1
658,718,6,0.0745874925535112,1
659,718,6,0.0748766848998625,1
660,718,6,0.0776344733329449,1
660,751,6,0.0694006405513737,1
660,752,6,0.069930436185987,1
661,751,6,0.0716615771145728,1
664,750,6,0.0699713763008834,1
666,749,6,0.0734527236131705,1
667,749,6,0.0690655365765395,1
668,749,6,0.0685953511867614,1
672,720,6,0.0852075320611114,1
673,720,6,0.0874878155988702,1
673,721,6,0.0678963983049223,1
674,720,6,0.0906208035633509,1
674,721,6,0.0721872757428088,1
675,720,6,0.0900939489084617,1
675,721,6,0.0738683181899033,1
676,721,6,0.0714764331567899,1
677,721,6,0.0685236655547088,1
678,721,6,0.068993084253235,1
679,720,6,0.0767007631836394,1
679,721,6,0.0708839665021092,1
680,720,6,0.0740193503767521,1
680,721,6,0.069661603086239,1
634,742,7,0.092042093410212,1
635,742,7,0.0766591342445714,1
635,743,7,0.0862743649688033,1
636,744,7,0.0797901096445159,1
637,745,7,0.07769275384764,1
637,746,7,0.0884963080941129,1
637,747,7,0.0892355541951045,1
638,746,7,0.0779471096602331,1
638,747,7,0.0859629864943502,1
638,748,7,0.080537885185685,1
639,747,7,0.0814112243886787,1
639,748,7,0.0800242260060139,1
640,747,7,0.0740981099335585,1
640,748,7,0.0794850923115435,1
640,749,7,0.0692347117930915,1
641,747,7,0.0677461807275287,1
641,748,7,0.081121109616915,1
641,749,7,0.0764141584202633,1
642,748,7,0.0801034407857512,1
642,749,7,0.0829223309177448,1
643,748,7,0.0718336693517472,1
643,749,7,0.0822733327627873,1
643,750,7,0.0803630256722732,1
644,749,7,0.0748555110438041,1
644,750,7,0.0815333139807683,1
645,750,7,0.0796006230995641,1
645,751,7,0.0810340721904982,1
646,750,7,0.072350988284191,1
646,751,7,0.0802384862620428,1
647,751,7,0.0763209814740559,1
647,752,7,0.0828371143830512,1
648,751,7,0.0686651500395613,1
648,752,7,0.0791069338310948,1
649,752,7,0.0699503581789856,1
655,718,7,0.0721669045166548,1
656,717,7,0.0831026830552033,1
656,718,7,0.0735849658745724,1
657,718,7,0.0751596059513642,1
658,718,7,0.0777532984974385,1
659,718,7,0.079743221682642,1
659,719,7,0.0684686015494064,1
660,719,7,0.0700684346215535,1
661,719,7,0.0735769575448553,1
661,751,7,0.0708406125077244,1
662,750,7,0.0684105965643798,1
662,751,7,0.0719514463055449,1
663,750,7,0.0686210533130262,1
663,751,7,0.0708835591973816,1
664,750,7,0.0710397785297315,1
666,749,7,0.0723844591491567,1
667,749,7,0.0720047193680011,1
668,749,7,0.0730668982202029,1
669,749,7,0.072533209231576,1
670,749,7,0.0707796905020754,1
671,720,7,0.0874210475724255,1
672,720,7,0.0905035357404627,1
672,721,7,0.0695508221901149,1
673,720,7,0.0919002974570385,1
673,721,7,0.0734424571381256,1
674,720,7,0.0933619104719291,1
674,721,7,0.0781772727699635,1
675,720,7,0.0922224455476706,1
675,721,7,0.0801075078432515,1
676,720,7,0.0881836418179476,1
676,721,7,0.0772072885408025,1
677,721,7,0.0739053529712353,1
678,721,7,0.0739425374969524,1
679,720,7,0.0797093914311519,1
679,721,7,0.0743484166579775,1
680,720,7,0.0765999672431163,1
683,723,7,0.0709014506565177,1
684,723,7,0.073008887245401,1
636,743,8,0.0777281653998372,1
637,744,8,0.0733679563116324,1
637,747,8,0.0933224857702104,1
638,745,8,0.0719423897651318,1
638,746,8,0.0862256501254307,1
638,747,8,0.0920416741259336,1
639,746,8,0.0762959082742087,1
639,747,8,0.0891229224583802,1
639,748,8,0.0852728325925818,1
640,747,8,0.0827555396318042,1
640,748,8,0.0847570170937648,1
641,747,8,0.0771778667640109,1
641,748,8,0.087362377722329,1
641,749,8,0.0777916450395843,1
642,747,8,0.0695828674885341,1
642,748,8,0.0870388939117814,1
642,749,8,0.0846183537931283,1
643,748,8,0.0787511771106627,1
643,749,8,0.0856589514845443,1
643,750,8,0.0812282666989188,1
644,749,8,0.0785807320617248,1
644,750,8,0.0821594851016556,1
645,749,8,0.0696351222891714,1
645,750,8,0.0803409413703533,1
645,751,8,0.0794192527002866,1
646,750,8,0.0747078391209578,1
646,751,8,0.0798866228956242,1
647,751,8,0.0770225998059504,1
647,752,8,0.0809934675030246,1
648,751,8,0.0692940105696056,1
648,752,8,0.0780004845488712,1
649,752,8,0.0705774936537132,1
657,718,8,0.0766261425616381,1
658,718,8,0.0805980584694082,1
658,719,8,0.0691974913287219,1
659,719,8,0.0730834958878515,1
660,719,8,0.0765482814711425,1
662,751,8,0.0711754469426653,1
663,750,8,0.0680781161111733,1
663,751,8,0.0703510741536112,1
664,750,8,0.0698414760416651,1
665,750,8,0.0748189374751784,1
666,749,8,0.0705656338984103,1
666,750,8,0.0801239018585363,1
667,749,8,0.0715638539288326,1
668,749,8,0.0717483210419947,1
669,749,8,0.0711444678242682,1
670,721,8,0.0677926853437767,1
670,749,8,0.0697682210884562,1
671,721,8,0.0690043330514465,1
672,720,8,0.0934233356187122,1
672,721,8,0.0728831977982927,1
673,720,8,0.095181083129649,1
673,721,8,0.0781498156395048,1
674,720,8,0.0961755894993199,1
674,721,8,0.0841961884327758,1
675,720,8,0.0949098121913109,1
675,721,8,0.0866666233805564,1
676,720,8,0.0912738987246858,1
676,721,8,0.0837386294895523,1
677,721,8,0.0804939202342088,1
678,721,8,0.0790668023358782,1
679,720,8,0.0820715192600509,1
679,721,8,0.0766255735329746,1
680,720,8,0.0776064711329243,1
682,723,8,0.0687438616781645,1
683,723,8,0.0701466790576751,1
684,723,8,0.0706443635063398,1
636,743,9,0.0874928529999862,1
637,743,9,0.069452673730321,1
637,744,9,0.0838270864927402,1
638,745,9,0.0800572476378242,1
638,746,9,0.0912856746231329,1
638,747,9,0.0934754706238413,1
639,746,9,0.0808751335001142,1
639,747,9,0.0907923028127602,1
639,748,9,0.0871712619584668,1
640,746,9,0.0707002241517711,1
640,747,9,0.0864404734203477,1
640,748,9,0.0870761563045788,1
641,747,9,0.0820779522788364,1
641,748,9,0.0897586412812637,1
642,747,9,0.0755225563920583,1
642,748,9,0.0900068875229432,1
642,749,9,0.0856013418246945,1
643,748,9,0.0822133691212032,1
643,749,9,0.0864512310569759,1
644,749,9,0.0795600723200691,1
644,750,9,0.0813478345955627,1
645,749,9,0.0727047324400869,1
645,750,9,0.080900997350315,1
646,750,9,0.0783257533124896,1
646,751,9,0.0813050077014136,1
647,750,9,0.0700214088948452,1
647,751,9,0.0800481671383096,1
648,751,9,0.0734800968867735,1
648,752,9,0.0794247632936596,1
649,752,9,0.0738929301770443,1
659,719,9,0.0775008833720768,1
659,720,9,0.0679761641439969,1
660,719,9,0.0819885848297869,1
660,720,9,0.0707737366653224,1
661,720,9,0.0737730028938761,1
662,751,9,0.0710017135070298,1
662,752,9,0.06945989739946,1
663,750,9,0.0678099119378428,1
663,751,9,0.0719551360071946,1
664,750,9,0.070414697547968,1
664,751,9,0.072696772028573,1
665,750,9,0.0757147323461672,1
666,749,9,0.0705246818039632,1
666,750,9,0.0798061502630518,1
667,749,9,0.0724905320818121,1
668,749,9,0.0719632341835428,1
669,749,9,0.0718502909784974,1
670,749,9,0.0707570192021657,1
671,721,9,0.0729819632049534,1
672,720,9,0.0928035016802039,1
672,721,9,0.0757408896953629,1
673,720,9,0.0945932046429289,1
673,721,9,0.0807287853176325,1
674,720,9,0.096522481352152,1
674,721,9,0.0876490783221115,1
675,720,9,0.0968403886817971,1
675,721,9,0.0913106519865737,1
675,722,9,0.0724091729624797,1
676,720,9,0.0961502767084565,1
676,721,9,0.0898627016493829,1
676,722,9,0.0719799336773733,1
677,721,9,0.0915087338592324,1
677,722,9,0.0707263455623144,1
678,722,9,0.0701401142638307,1
679,721,9,0.0822525602216811,1
679,722,9,0.0690307359814338,1
680,720,9,0.0773175842651188,1
680,722,9,0.0694549917734029,1
682,723,9,0.068271292357775,1
683,723,9,0.0687456825698877,1
684,723,9,0.0687732295469775,1
636,743,10,0.0934620714962593,1
637,743,10,0.0767045906501235,1
637,744,10,0.0917957698864377,1
638,744,10,0.0731329414838236,1
638,745,10,0.0871737237561584,1
638,746,10,0.0948619299267197,1
638,747,10,0.092375112943205,1
639,745,10,0.0719708771369602,1
639,746,10,0.0857931763616053,1
639,747,10,0.0916408503353508,1
640,746,10,0.077531568991479,1
640,747,10,0.0906644091283027,1
640,748,10,0.0892839575701561,1
641,746,10,0.0685313384570032,1
641,747,10,0.0878813857714371,1
641,748,10,0.0922505256147714,1
642,747,10,0.0816618126325418,1
642,748,10,0.0929370377330933,1
642,749,10,0.0864299134463078,1
643,747,10,0.0704672158987232,1
643,748,10,0.0866584593166788,1
643,749,10,0.0875433168577772,1
644,748,10,0.0726900574903435,1
644,749,10,0.0819549881795376,1
644,750,10,0.0819690342028634,1
645,749,10,0.0778830130736192,1
645,750,10,0.0829856668028821,1
646,749,10,0.0717151736249009,1
646,750,10,0.084019999189224,1
646,751,10,0.0834673765205404,1
647,750,10,0.0781788061524673,1
647,751,10,0.0841018135314872,1
648,751,10,0.0793042370329509,1
648,752,10,0.0811839423609184,1
649,751,10,0.0709053859389591,1
649,752,10,0.0763392383094918,1
659,720,10,0.0714994279045715,1
660,720,10,0.0752579580635219,1
661,720,10,0.0801929280303088,1
662,721,10,0.0686496604803627,1
662,751,10,0.0679485033611744,1
663,751,10,0.0716102926575512,1
664,750,10,0.0717486145409896,1
664,751,10,0.0743341550027371,1
665,721,10,0.0704118643842013,1
665,750,10,0.0775333539445498,1
666,721,10,0.0683008818482779,1
666,749,10,0.0720760216544277,1
666,750,10,0.0811163836841201,1
667,749,10,0.0745360164236766,1
667,750,10,0.0818219672473331,1
668,749,10,0.0738819030005229,1
669,749,10,0.0738154823810517,1
670,749,10,0.0735877571099113,1
671,721,10,0.077257728439492,1
671,749,10,0.0682909148620032,1
672,720,10,0.0921267948242207,1
672,721,10,0.0794655955925987,1
673,720,10,0.0952999861612229,1
673,721,10,0.0843513954930821,1
674,720,10,0.100103264925945,1
674,721,10,0.0920241720021989,1
674,722,10,0.0720133626139112,1
675,720,10,0.10305541558116,1
675,721,10,0.0970045444665592,1
675,722,10,0.0774120609925892,1
676,721,10,0.0993159209284478,1
676,722,10,0.0780865815805493,1
677,722,10,0.0776603012444932,1
678,722,10,0.0748845973931731,1
679,721,10,0.0844926942948971,1
679,722,10,0.0688381407430465,1
680,721,10,0.0710534112585544,1
635,744,11,0.109982375205665,1
636,743,11,0.0968191429484339,1
636,744,11,0.105849250482632,1
637,742,11,0.0699461234077739,1
637,743,11,0.0826815060077926,1
637,744,11,0.0959141178335452,1
637,745,11,0.107764720759546,1
638,744,11,0.0799557628731295,1
638,745,11,0.0934610951628682,1
638,746,11,0.0961035684398446,1
638,747,11,0.0900983753524863,1
639,745,11,0.0795913988454396,1
639,746,11,0.0883607055687086,1
639,747,11,0.0897365989077716,1
640,746,11,0.0809491791036766,1
640,747,11,0.0905515258210113,1
641,746,11,0.0726152392057539,1
641,747,11,0.089108678772466,1
641,748,11,0.0922516516925476,1
642,726,11,0.0679542415660129,1
642,728,11,0.0677799630608155,1
642,747,11,0.0842403390672894,1
642,748,11,0.0927571348287902,1
643,728,11,0.070313134916193,1
643,729,11,0.0708755508676645,1
643,747,11,0.0752289915096611,1
643,748,11,0.0887446202233218,1
643,749,11,0.0888795099654529,1
644,728,11,0.0689115574201913,1
644,729,11,0.0686357462320958,1
644,748,11,0.0785988032141231,1
644,749,11,0.0849105829556101,1
645,749,11,0.0823101698815309,1
645,750,11,0.0850696354517268,1
646,749,11,0.0778668167209229,1
646,750,11,0.0870397384701136,1
647,750,11,0.083827793286238,1
647,751,11,0.0868714617198725,1
648,750,11,0.0741541143335996,1
648,751,11,0.0831625987785842,1
649,751,11,0.0761434984390166,1
649,752,11,0.0768587435099586,1
650,752,11,0.0698431232299016,1
655,754,11,0.0738617833449359,1
656,754,11,0.0709720341698957,1
660,721,11,0.0716019608799622,1
660,725,11,0.0692584792219004,1
661,725,11,0.0704525409489798,1
661,726,11,0.0685200237712623,1
663,751,11,0.0694686364817765,1
663,752,11,0.068487283658896,1
664,750,11,0.0727075057060996,1
664,751,11,0.0762791848212766,1
665,721,11,0.0773288989508597,1
665,750,11,0.0784678247953318,1
665,751,11,0.0780872164967423,1
666,721,11,0.0733701306001046,1
666,749,11,0.0712917564014886,1
666,750,11,0.0810003976731687,1
667,749,11,0.0747174227616066,1
667,750,11,0.081252806808755,1
668,749,11,0.0740485026136505,1
668,750,11,0.0783492272423036,1
669,749,11,0.0734247393824762,1
669,750,11,0.0768504955892252,1
670,749,11,0.0733099213777288,1
671,721,11,0.079175007628578,1
671,749,11,0.0679172187642317,1
672,720,11,0.0904787201009579,1
672,721,11,0.081187865663809,1
673,720,11,0.0969516307906274,1
673,721,11,0.0875074321133231,1
673,722,11,0.071431659585634,1
674,720,11,0.115583941287551,1
674,721,11,0.102792787888732,1
674,722,11,0.0787398684146972,1
675,721,11,0.116987441501457,1
675,722,11,0.0850066829122154,1
676,722,11,0.0876111390846933,1
677,722,11,0.0877266279442861,1
678,722,11,0.0810372347919123,1
679,721,11,0.0857050428062893,1
679,722,11,0.0694615146388194,1
680,721,11,0.0686747935779641,1
636,743,12,0.0958330701825339,1
636,744,12,0.103603012828278,1
637,742,12,0.0713841127484655,1
637,743,12,0.0847370651518892,1
637,744,12,0.0971587512343729,1
637,745,12,0.108778106901295,1
638,743,12,0.0713312949089401,1
638,744,12,0.0858161411605099,1
638,745,12,0.0993903259185345,1
638,746,12,0.0983515850574942,1
639,744,12,0.072127803262808,1
639,745,12,0.0874929188875157,1
639,746,12,0.0919668378720178,1
640,745,12,0.0734263446422849,1
640,746,12,0.0846413844795623,1
640,747,12,0.0884635080839926,1
641,746,12,0.0778561070024979,1
641,747,12,0.0881059664104896,1
641,748,12,0.0903610389835667,1
642,726,12,0.0680918626457288,1
642,729,12,0.0678927325623742,1
642,746,12,0.0694896665832251,1
642,747,12,0.0851962832629,1
642,748,12,0.0906722317749823,1
643,729,12,0.0690153003302139,1
643,747,12,0.0791003750270259,1
643,748,12,0.0895425541437362,1
643,749,12,0.0886037526853361,1
644,729,12,0.0682086992047878,1
644,748,12,0.0829036368287043,1
644,749,12,0.0858953379709209,1
645,748,12,0.0730030472143807,1
645,749,12,0.0836311789085537,1
645,750,12,0.0883924933067854,1
646,749,12,0.0796855880636906,1
646,750,12,0.087125823522241,1
647,749,12,0.0719613354247393,1
647,750,12,0.0863384675451926,1
647,751,12,0.0858405255361855,1
648,750,12,0.0808052028722554,1
648,751,12,0.0830680501738089,1
649,751,12,0.0777442539365762,1
649,752,12,0.0730863470209445,1
650,752,12,0.0690754137161832,1
652,753,12,0.0684793711655854,1
655,725,12,0.0749770855152089,1
655,726,12,0.0762624074603659,1
655,754,12,0.0725396302708107,1
656,724,12,0.0702651448356444,1
656,725,12,0.085158170321995,1
656,726,12,0.0905963772592474,1
656,727,12,0.0713568892192476,1
656,754,12,0.0698277175275587,1
657,724,12,0.0706539651163147,1
657,725,12,0.0847729319270171,1
657,726,12,0.0900706966003376,1
657,727,12,0.0727153822607578,1
658,724,12,0.0728213893058837,1
658,725,12,0.0877638723677573,1
658,726,12,0.0931093276328561,1
658,727,12,0.0762917932985051,1
659,723,12,0.0689273883965879,1
659,724,12,0.0760184019796735,1
659,725,12,0.100055394640905,1
659,726,12,0.110191454305968,1
659,727,12,0.0879545748371164,1
660,723,12,0.0717224212531415,1
660,724,12,0.0782958463638901,1
660,725,12,0.108520007479073,1
660,726,12,0.122979001859993,1
660,727,12,0.095280088127326,1
661,724,12,0.0762159986805244,1
661,725,12,0.0968117216167065,1
661,726,12,0.106823715063796,1
661,727,12,0.0820431456939553,1
662,724,12,0.0684877448716022,1
662,725,12,0.0718902727293289,1
662,726,12,0.070682272794881,1
664,750,12,0.0700014389836434,1
664,751,12,0.0771644796159797,1
665,750,12,0.0772804177087279,1
665,751,12,0.078856363556558,1
666,750,12,0.0798888031738718,1
667,749,12,0.0727279847482109,1
667,750,12,0.0807024003569714,1
668,749,12,0.0732689273548539,1
668,750,12,0.079108694825064,1
669,749,12,0.0727539444348182,1
669,750,12,0.07774467921063,1
670,749,12,0.071501326663375,1
670,750,12,0.0769182339592856,1
671,721,12,0.0818794990401026,1
671,722,12,0.0686233354174557,1
672,720,12,0.0896933227804672,1
672,721,12,0.0829352388837435,1
672,722,12,0.0717127357863109,1
673,720,12,0.103791307407924,1
673,721,12,0.0918792673555899,1
673,722,12,0.0784428713909926,1
674,721,12,0.115553237698822,1
674,722,12,0.0868353613435038,1
675,722,12,0.0935956914060044,1
676,723,12,0.0679692279840774,1
677,723,12,0.0685517695809112,1
678,722,12,0.0820550773265629,1
679,721,12,0.0834436090917315,1
679,722,12,0.0686193102883833,1
636,743,13,0.0919690660684686,1
636,744,13,0.100670658380779,1
637,742,13,0.0715560133128269,1
637,743,13,0.0829730223870012,1
637,744,13,0.0964722151569494,1
637,745,13,0.106177370379343,1
638,743,13,0.0737031201842206,1
638,744,13,0.0898186947694789,1
638,745,13,0.101670411793705,1
638,746,13,0.0992052298789548,1
639,744,13,0.0771535303065385,1
639,745,13,0.091579251485081,1
639,746,13,0.0932082188248003,1
640,745,13,0.0788037014511932,1
640,746,13,0.087130920821111,1
640,747,13,0.0875631789530218,1
641,745,13,0.0689016143930182,1
641,746,13,0.0829735434974615,1
641,747,13,0.087399694023105,1
642,730,13,0.068755553719756,1
642,746,13,0.0758246746737345,1
642,747,13,0.0852889630577487,1
642,748,13,0.0879252488967313,1
643,729,13,0.0678307204176014,1
643,730,13,0.0707802775000652,1
643,731,13,0.0698394455078026,1
643,747,13,0.0808559302801643,1
643,748,13,0.0865529793717885,1
644,729,13,0.0698988161616216,1
644,730,13,0.0750787859118182,1
644,731,13,0.0734995396977396,1
644,747,13,0.0718795390518023,1
644,748,13,0.0847275593783207,1
644,749,13,0.0884934809201215,1
645,730,13,0.0718508659969363,1
645,731,13,0.0694947938309722,1
645,748,13,0.0771263546955239,1
645,749,13,0.0854900338283348,1
646,749,13,0.0791461848293269,1
646,750,13,0.0865616166279232,1
647,749,13,0.0735140409439963,1
647,750,13,0.0840474143912548,1
648,750,13,0.0807018133589817,1
648,751,13,0.078090373108381,1
649,750,13,0.0686298283339952,1
649,751,13,0.0737082773808447,1
654,725,13,0.0681504785878467,1
654,726,13,0.0693892120599,1
655,725,13,0.087253267973543,1
655,726,13,0.0965278601704661,1
655,727,13,0.0751973355466432,1
655,754,13,0.0712913011785578,1
656,724,13,0.0787468944212478,1
656,725,13,0.109595483632675,1
656,726,13,0.127086310651028,1
656,727,13,0.0950882236415381,1
656,754,13,0.0693117462945812,1
657,724,13,0.0794005526214707,1
657,725,13,0.10738586746515,1
657,726,13,0.123648143629639,1
657,727,13,0.0936571165527875,1
658,724,13,0.0780838622225153,1
658,725,13,0.111900289310944,1
658,726,13,0.139214156321446,1
658,727,13,0.104070562716878,1
659,724,13,0.0792463398638816,1
659,725,13,0.149711824717513,1
659,726,13,0.209383452771052,1
659,727,13,0.152667754921008,1
660,724,13,0.0818126711159038,1
660,725,13,0.165778714408275,1
660,726,13,0.23643828595437,1
660,727,13,0.170518771093593,1
661,725,13,0.119964886978209,1
661,726,13,0.160198040663004,1
661,727,13,0.114476994853968,1
662,725,13,0.0737847728025479,1
662,726,13,0.0760589108307406,1
663,752,13,0.0702440009284631,1
664,751,13,0.0732248126589926,1
664,752,13,0.0736894874553977,1
665,750,13,0.0731595899946025,1
665,751,13,0.0773516421280742,1
666,750,13,0.0788984177696798,1
666,751,13,0.0781304327262928,1
667,749,13,0.0709260147254555,1
667,750,13,0.0814103139428171,1
668,749,13,0.0754354470883366,1
668,750,13,0.0822358727074015,1
669,749,13,0.0756292223124788,1
669,750,13,0.0811371262763493,1
670,722,13,0.0693584605529684,1
670,749,13,0.0716257223189957,1
670,750,13,0.0778307762423082,1
671,721,13,0.0822983221057789,1
671,722,13,0.0718949028257173,1
671,750,13,0.0737681212269207,1
672,720,13,0.0897342209669357,1
672,721,13,0.0837108848498742,1
672,722,13,0.0750357733346316,1
672,750,13,0.0719127104279977,1
673,721,13,0.094629664405822,1
673,722,13,0.0828987551617489,1
674,722,13,0.0914918067539366,1
674,723,13,0.0693037858830673,1
675,722,13,0.09607018742151,1
675,723,13,0.0700959576395416,1
676,723,13,0.0714788170874013,1
677,723,13,0.0720806098223883,1
678,722,13,0.0801830568804406,1
678,723,13,0.0694629581746921,1
679,722,13,0.0679987455972755,1
636,743,14,0.0902338281335055,1
637,742,14,0.0717199834145515,1
637,743,14,0.0827734550500419,1
637,744,14,0.0970426574074642,1
638,743,14,0.0758123836546025,1
638,744,14,0.0930563480693948,1
638,745,14,0.101855316160472,1
639,744,14,0.0821707578589687,1
639,745,14,0.0940063983260063,1
639,746,14,0.0947586841680557,1
640,744,14,0.069297724230357,1
640,745,14,0.084353815362346,1
640,746,14,0.0905209839562189,1
641,745,14,0.0770246662784653,1
641,746,14,0.090052619458164,1
641,747,14,0.0869386789794726,1
642,746,14,0.0836138984065089,1
642,747,14,0.0858207173489197,1
642,748,14,0.0870180554831458,1
643,730,14,0.0723111203390922,1
643,731,14,0.0758127610104531,1
643,746,14,0.0718586706742896,1
643,747,14,0.0827439913448225,1
643,748,14,0.0850884912647032,1
644,729,14,0.0688369847163932,1
644,730,14,0.0824266470540655,1
644,731,14,0.0844524070655199,1
644,732,14,0.0695134400018094,1
644,747,14,0.0767543357348659,1
644,748,14,0.0853626492747867,1
644,749,14,0.0885108153301449,1
645,730,14,0.0765471553933663,1
645,731,14,0.0765005908793642,1
645,748,14,0.0811562396496681,1
645,749,14,0.0867328463374392,1
646,748,14,0.0690036741761519,1
646,749,14,0.0800288561024023,1
646,750,14,0.0852642911728536,1
647,749,14,0.0756655562900884,1
647,750,14,0.0810805348783184,1
648,750,14,0.0795216359312922,1
648,751,14,0.0709286622061847,1
649,750,14,0.0697719167798814,1
649,751,14,0.0683457213069632,1
654,726,14,0.0702022941223149,1
655,725,14,0.0926725651898404,1
655,726,14,0.108716532010126,1
655,727,14,0.0836774978417641,1
655,754,14,0.0693210124771334,1
656,724,14,0.0820419716979758,1
656,725,14,0.12765729198133,1
656,726,14,0.155083036016855,1
656,727,14,0.112424945718259,1
656,754,14,0.0686140153269248,1
657,724,14,0.0833879101702361,1
657,725,14,0.122908693876284,1
657,726,14,0.147056617178024,1
657,727,14,0.107286377295665,1
658,724,14,0.0798324992850604,1
658,725,14,0.127998134161002,1
658,726,14,0.181768911014747,1
658,727,14,0.129145847005994,1
659,724,14,0.0816949600496356,1
659,725,14,0.193106250086253,1
659,726,14,0.315410671460531,1
659,727,14,0.222024154991237,1
659,728,14,0.0823027725089051,1
660,725,14,0.212926860146315,1
660,726,14,0.350929225005482,2
660,727,14,0.246743694539472,1
660,728,14,0.0871731906661474,1
661,725,14,0.128772025122939,1
661,726,14,0.198796500782792,1
661,727,14,0.136586106423646,1
662,725,14,0.0704404835310886,1
662,726,14,0.0740947317002299,1
662,753,14,0.0709419055996062,1
663,752,14,0.0706956898917892,1
663,753,14,0.0729380162228035,1
664,751,14,0.0683766704764833,1
664,752,14,0.0734457395350478,1
665,751,14,0.0742771383306525,1
665,752,14,0.0735050622706635,1
666,750,14,0.073656843179438,1
666,751,14,0.076301939978042,1
667,750,14,0.0770495957237029,1
667,751,14,0.075216005676582,1
668,749,14,0.0724469983941652,1
668,750,14,0.0806888335156781,1
668,751,14,0.0761346515407427,1
669,722,14,0.0684832345707219,1
669,749,14,0.074063578878346,1
669,750,14,0.080012911320273,1
670,722,14,0.071117681548655,1
670,749,14,0.069321228109048,1
670,750,14,0.0764033828143089,1
671,721,14,0.0814643536965252,1
671,722,14,0.0738171535283898,1
671,750,14,0.0736000361494925,1
672,720,14,0.0890345193631709,1
672,721,14,0.0838365802867579,1
672,722,14,0.0767766656175775,1
672,750,14,0.0731103240918926,1
673,720,14,0.104236563352465,1
673,721,14,0.0919126543636999,1
673,722,14,0.0824355718194197,1
673,723,14,0.0684336092814876,1
673,750,14,0.0709960052510684,1
674,721,14,0.107849991202218,1
674,722,14,0.088080090580738,1
674,723,14,0.0711412932433033,1
675,722,14,0.0891572139225764,1
675,723,14,0.0709794495118477,1
676,723,14,0.072652705250915,1
677,723,14,0.0738511455038158,1
678,723,14,0.0702660433019552,1
678,724,14,0.0677587173274523,1
636,743,15,0.0876069402521341,1
637,742,15,0.072524877453987,1
637,743,15,0.0820815581236305,1
637,744,15,0.0937582838593858,1
638,743,15,0.0770002998721159,1
638,744,15,0.0917643654939868,1
638,745,15,0.0983921418267646,1
639,743,15,0.0683885601806631,1
639,744,15,0.0842811414173514,1
639,745,15,0.0941398385424893,1
639,746,15,0.0944869460272359,1
640,744,15,0.0735723394280177,1
640,745,15,0.0881077274044588,1
640,746,15,0.0933829465631531,1
641,745,15,0.0821211685083868,1
641,746,15,0.0944007351898251,1
641,747,15,0.0876424117020852,1
642,732,15,0.0704985424240937,1
642,745,15,0.0708956226050482,1
642,746,15,0.0880028045086812,1
642,747,15,0.0867001182046238,1
643,730,15,0.0728211497148675,1
643,731,15,0.0790750023384083,1
643,732,15,0.0733053571688699,1
643,746,15,0.0767432905890182,1
643,747,15,0.0834520666546041,1
643,748,15,0.0827378817739089,1
644,730,15,0.0862638888516192,1
644,731,15,0.0905283034617643,1
644,732,15,0.0775363308629263,1
644,747,15,0.0784114011110123,1
644,748,15,0.0830776997019871,1
645,730,15,0.0787478767444143,1
645,731,15,0.0807084620096818,1
645,732,15,0.0701569635020463,1
645,747,15,0.0696521212717721,1
645,748,15,0.0799409142198993,1
645,749,15,0.0848574177091112,1
646,748,15,0.07004112723548,1
646,749,15,0.0778680865533088,1
647,749,15,0.0739937800255462,1
647,750,15,0.0760312680172444,1
648,749,15,0.0687760088027656,1
648,750,15,0.0758771211471848,1
649,750,15,0.0691953709482284,1
654,726,15,0.0721102053026667,1
654,727,15,0.0678436583324772,1
655,725,15,0.092826903732713,1
655,726,15,0.112391546730598,1
655,727,15,0.089696850758181,1
655,754,15,0.0681973545701699,1
656,725,15,0.132683001055734,1
656,726,15,0.163626108923059,1
656,727,15,0.121266189644148,1
656,728,15,0.0698233030630849,1
657,724,15,0.0834350976208804,1
657,725,15,0.125239231629694,1
657,726,15,0.150552573552525,1
657,727,15,0.111867956503305,1
658,724,15,0.0781396450008664,1
658,725,15,0.121609559509042,1
658,726,15,0.183632833284521,1
658,727,15,0.13228689720817,1
658,728,15,0.0702898047409887,1
659,724,15,0.0790453409706005,1
659,725,15,0.187023201898174,1
659,726,15,0.332742517860073,2
659,727,15,0.238779713119467,1
659,728,15,0.0935447843048334,1
660,725,15,0.204652656278511,2
660,726,15,0.366101062557406,2
660,727,15,0.263222956307799,2
660,728,15,0.0994848685335343,1
661,725,15,0.116224787358181,1
661,726,15,0.19207212734205,2
661,727,15,0.13555459522152,1
662,725,15,0.0692962687149335,1
662,726,15,0.0728459473850461,1
662,753,15,0.0732158100265582,1
663,752,15,0.0699060937387392,1
663,753,15,0.0750874591066054,1
664,752,15,0.0734702676653331,1
665,751,15,0.0722606864301782,1
665,752,15,0.0742588994645428,1
666,750,15,0.0684147953969391,1
666,751,15,0.0759257161950493,1
666,752,15,0.0734513459648273,1
667,721,15,0.069484892732227,1
667,750,15,0.0747589319051664,1
667,751,15,0.0761852531633681,1
668,749,15,0.0687133737213507,1
668,750,15,0.0809757257882736,1
668,751,15,0.0783352950247105,1
669,722,15,0.0691157967819668,1
669,749,15,0.0705906352209528,1
669,750,15,0.0795739146910311,1
669,751,15,0.0769139392903199,1
670,721,15,0.0792169660052932,1
670,722,15,0.0717455417862066,1
670,750,15,0.0755200766250404,1
670,751,15,0.0750889745197829,1
671,720,15,0.0818644287651824,1
671,721,15,0.0797679474755157,1
671,722,15,0.0742212657056703,1
671,750,15,0.0748925937433394,1
672,720,15,0.0860366547420621,1
672,721,15,0.0826071129972568,1
672,722,15,0.077108702827404,1
672,723,15,0.0696150445620123,1
672,750,15,0.0751962274381932,1
673,721,15,0.0880218939228985,1
673,722,15,0.0801657284601926,1
673,723,15,0.0709943400935057,1
673,750,15,0.0718719799552406,1
674,722,15,0.0831614068132785,1
674,723,15,0.0719891519417223,1
674,750,15,0.0700103278103451,1
675,723,15,0.071849871694219,1
675,750,15,0.0719625453593712,1
676,723,15,0.074255119916262,1
677,724,15,0.0706523358974044,1
678,724,15,0.0711599513936914,1
636,743,16,0.0858185430604475,1
637,742,16,0.073718681620724,1
637,743,16,0.0818924129958767,1
637,744,16,0.0912336713930627,1
638,742,16,0.0681542281872505,1
638,743,16,0.0787222704545559,1
638,744,16,0.0905863204263417,1
638,745,16,0.0963294967783634,1
639,743,16,0.0719613474042901,1
639,744,16,0.0859074313274646,1
639,745,16,0.0952806032480108,1
640,744,16,0.0764553201568497,1
640,745,16,0.0911692633381277,1
640,746,16,0.0976915477464644,1
641,745,16,0.0844042253121583,1
641,746,16,0.0967563341635322,1
642,731,16,0.0704852391329182,1
642,732,16,0.0711905471664625,1
642,745,16,0.0737404065361196,1
642,746,16,0.0893570328301028,1
642,747,16,0.0877130131847895,1
643,731,16,0.0779631083503411,1
643,732,16,0.0772867548911068,1
643,733,16,0.0677548299632141,1
643,746,16,0.0800102099315651,1
643,747,16,0.0848147884775505,1
643,748,16,0.0819725082725986,1
644,731,16,0.0880673143897981,1
644,732,16,0.0824815613149828,1
644,733,16,0.069190549179027,1
644,746,16,0.0677581123601363,1
644,747,16,0.0799082879132657,1
644,748,16,0.0821455468942871,1
645,731,16,0.0796094400489609,1
645,732,16,0.0748208302442065,1
645,747,16,0.0718463736653822,1
645,748,16,0.0802073154708328,1
645,749,16,0.0837747777841243,1
646,748,16,0.073008000758641,1
646,749,16,0.0780027726430761,1
647,749,16,0.0755990038955583,1
647,750,16,0.0731497008754081,1
648,749,16,0.0720919604467817,1
648,750,16,0.0739317738705488,1
649,750,16,0.0704476233433719,1
654,726,16,0.0679458858293223,1
656,727,16,0.111258221326131,1
656,728,16,0.0711953928947655,1
657,725,16,0.107769740191335,1
657,727,16,0.103285554731788,1
657,728,16,0.068053234584139,1
658,725,16,0.103925418479253,1
658,726,16,0.154576301017553,1
658,727,16,0.123541333954609,1
658,728,16,0.0744946989529298,1
659,724,16,0.0727104706449253,1
659,725,16,0.152592715014728,1
659,726,16,0.272422221089223,1
659,727,16,0.216539293693351,1
659,728,16,0.100789555422577,1
660,724,16,0.074991490925059,1
660,725,16,0.164845195931783,1
660,726,16,0.296330792965761,2
660,727,16,0.23557616560071,1
660,728,16,0.105842961218456,1
660,754,16,0.0686157284026908,1
661,725,16,0.0985921344377776,1
661,726,16,0.158186566265892,1
661,727,16,0.125615329627403,1
661,754,16,0.0724504125661463,1
662,725,16,0.06774679168462,1
662,726,16,0.0714986192848917,1
662,753,16,0.0721252516184852,1
662,754,16,0.075221929564458,1
663,753,16,0.0743357842216474,1
664,752,16,0.0709682845704919,1
664,753,16,0.0734269615891516,1
665,751,16,0.0684014441875603,1
665,752,16,0.0736510929950487,1
666,751,16,0.0736339562476137,1
666,752,16,0.0731908805813206,1
667,750,16,0.0705472932061188,1
667,751,16,0.0759753594536098,1
667,752,16,0.072571735466984,1
668,721,16,0.069523538763143,1
668,750,16,0.0789046950543047,1
668,751,16,0.0792669926094797,1
669,721,16,0.0726018400781718,1
669,750,16,0.0778422826008621,1
669,751,16,0.0776925621748271,1
670,721,16,0.0742009663568212,1
670,722,16,0.0696146731959371,1
670,750,16,0.0739809499266277,1
670,751,16,0.0755220472611488,1
671,721,16,0.0755743859186418,1
671,722,16,0.0720883006940089,1
671,723,16,0.0680720963868908,1
671,750,16,0.0746038386505927,1
671,751,16,0.0760018043120249,1
672,722,16,0.0748360083350839,1
672,723,16,0.0707907536172493,1
672,750,16,0.0752908479202733,1
673,722,16,0.0758649738826625,1
673,723,16,0.0708563596272654,1
673,750,16,0.0727546572180915,1
674,723,16,0.0711115599981906,1
674,750,16,0.0717501658928196,1
674,751,16,0.07414052952298,1
675,750,16,0.0740877655914333,1
676,724,16,0.0693125668938117,1
678,725,16,0.0693761783086178,1
636,742,17,0.0793892978334839,1
637,741,17,0.0703946916981138,1
637,742,17,0.074792606422496,1
637,743,17,0.081907603066305,1
638,742,17,0.069856498398382,1
638,743,17,0.0793321374067895,1
638,744,17,0.089545800602006,1
639,743,17,0.0741491607893393,1
639,744,17,0.0871898841702024,1
639,745,17,0.0978296839468652,1
640,744,17,0.0785350240856057,1
640,745,17,0.0938483041939545,1
640,746,17,0.103898716060495,1
641,744,17,0.0680604402839518,1
641,745,17,0.0846736214507945,1
641,746,17,0.0974441520528925,1
642,745,17,0.0746246052019235,1
642,746,17,0.0883461623940241,1
642,747,17,0.0884788658681322,1
643,732,17,0.0748195843709222,1
643,733,17,0.0712855809430456,1
643,746,17,0.080667545853887,1
643,747,17,0.0850355057114665,1
644,732,17,0.0804201980785184,1
644,733,17,0.0754113262627788,1
644,746,17,0.0696692520294317,1
644,747,17,0.0799387459212025,1
644,748,17,0.0806558418327448,1
645,733,17,0.0719300927562244,1
645,747,17,0.0731626807187117,1
645,748,17,0.078947953212283,1
646,748,17,0.0749380321795652,1
646,749,17,0.0755559793388208,1
647,748,17,0.0686590883868509,1
647,749,17,0.0749758875601278,1
647,750,17,0.0690229912018345,1
648,749,17,0.0736882296025626,1
648,750,17,0.0710947466986275,1
649,750,17,0.0699014157241476,1
656,728,17,0.0719147110129831,1
657,728,17,0.0702951895490782,1
658,727,17,0.109662736830928,1
658,728,17,0.0777972155307114,1
659,727,17,0.170912922274374,1
659,728,17,0.101453150660198,1
660,727,17,0.185070822625212,1
660,728,17,0.106329151288118,1
660,754,17,0.0687640232621793,1
661,726,17,0.120089198776974,1
661,727,17,0.112106385503095,1
661,728,17,0.0715046749478267,1
661,754,17,0.0723947076548755,1
662,726,17,0.0708302262371713,1
662,753,17,0.067844778420478,1
662,754,17,0.0746619454618011,1
663,753,17,0.0712360514902178,1
664,753,17,0.0729795073970372,1
665,752,17,0.0712419454292168,1
665,753,17,0.0731824050491219,1
666,752,17,0.0723189010573439,1
667,751,17,0.0711187417389018,1
667,752,17,0.0723490595765104,1
668,750,17,0.0708641822739449,1
668,751,17,0.0758188705813666,1
668,752,17,0.074483563960451,1
669,750,17,0.0722808659835192,1
669,751,17,0.0758905322543176,1
670,750,17,0.0712126015195054,1
670,751,17,0.0752636483501571,1
671,723,17,0.0685772560752615,1
671,750,17,0.0729270788929132,1
671,751,17,0.0761391977802755,1
672,723,17,0.0703306729785802,1
672,724,17,0.0679235799057123,1
672,750,17,0.0738544338905134,1
672,751,17,0.0761992812173677,1
673,750,17,0.0730753318239738,1
673,751,17,0.0749680828827744,1
674,750,17,0.0734682670803477,1
674,751,17,0.0750531796219599,1
675,751,17,0.0758470884133018,1
636,741,18,0.0752952324358701,1
637,741,18,0.0704392915657829,1
637,742,18,0.07577740935601,1
638,742,18,0.0701232470562889,1
638,743,18,0.0797425628073474,1
638,744,18,0.0908167351066391,1
639,743,18,0.0758010390199846,1
639,744,18,0.0904269744312301,1
639,745,18,0.102133649044013,1
640,744,18,0.081670384001147,1
640,745,18,0.0966613842438048,1
641,744,18,0.0702575857390827,1
641,745,18,0.0848467798679911,1
641,746,18,0.0987959545152748,1
642,745,18,0.0737969859545996,1
642,746,18,0.0871479198037117,1
642,747,18,0.0891661566572568,1
643,733,18,0.0700852059926888,1
643,746,18,0.0799792667518205,1
643,747,18,0.0851392606010399,1
644,733,18,0.0756439631497517,1
644,746,18,0.069905914045477,1
644,747,18,0.0806444971981268,1
644,748,18,0.081057528150986,1
645,747,18,0.0769078117500801,1
645,748,18,0.0805806402025292,1
646,747,18,0.0705081260647425,1
646,748,18,0.0788993342053168,1
646,749,18,0.0747857900580845,1
647,748,18,0.0743216603312413,1
647,749,18,0.0753352740844556,1
648,749,18,0.075334363638594,1
648,750,18,0.0687686413790169,1
649,749,18,0.0694268038903448,1
649,750,18,0.0698475436841508,1
660,754,18,0.0686923855483299,1
661,754,18,0.0717985932269728,1
662,754,18,0.074432081840841,1
663,753,18,0.0704704563672175,1
663,754,18,0.0768505674665301,1
664,753,18,0.0756227413754901,1
665,752,18,0.070661015081967,1
665,753,18,0.0763105892137275,1
666,752,18,0.0733037938374891,1
667,751,18,0.0679224059097328,1
667,752,18,0.0737068098858703,1
668,751,18,0.073815428473073,1
668,752,18,0.075788562317815,1
669,751,18,0.0759085734578389,1
670,750,18,0.0687950982169828,1
670,751,18,0.0775770074277048,1
671,750,18,0.0712720979586079,1
671,751,18,0.0779287929270432,1
672,750,18,0.0723563012149756,1
672,751,18,0.0767466808018977,1
673,750,18,0.0730450535092992,1
673,751,18,0.0751459432736643,1
674,751,18,0.0748549659742422,1
637,741,19,0.069628557495327,1
638,742,19,0.0704503666605076,1
639,743,19,0.0776021105764292,1
639,744,19,0.0923883203979741,1
640,743,19,0.0692028461879344,1
640,744,19,0.0844982348371471,1
640,745,19,0.0980743542926276,1
641,744,19,0.0732097483738479,1
641,745,19,0.0859662688912724,1
641,746,19,0.098797967079811,1
642,745,19,0.075316178680463,1
642,746,19,0.0874738354630738,1
643,746,19,0.0801701549042173,1
643,747,19,0.0859322888953973,1
644,746,19,0.0705878439856138,1
644,747,19,0.0813478226160119,1
644,748,19,0.0816005551994701,1
645,747,19,0.0796164241270837,1
645,748,19,0.0822027971676125,1
646,747,19,0.0742916755155615,1
646,748,19,0.0811990905029188,1
646,749,19,0.0740218481130962,1
647,748,19,0.0772369379290596,1
647,749,19,0.0748565173260722,1
648,748,19,0.0691534964283688,1
648,749,19,0.0749429617647239,1
649,749,19,0.0704275036877849,1
649,750,19,0.0689155825492637,1
660,754,19,0.0687626276445098,1
661,754,19,0.0714630879371865,1
662,754,19,0.0749155285933669,1
663,753,19,0.0693970646554566,1
663,754,19,0.0782378174197619,1
664,753,19,0.0764256048810632,1
665,752,19,0.0679255385622699,1
665,753,19,0.0780401009234029,1
666,752,19,0.0728123327654707,1
666,753,19,0.0759214095465328,1
667,752,19,0.07449322546818,1
668,751,19,0.0722987454631045,1
668,752,19,0.0760191027833959,1
669,727,19,0.0681388344644585,1
669,728,19,0.067870630291128,1
669,751,19,0.0753339084156632,1
669,752,19,0.076986990591165,1
670,727,19,0.0734503636416608,1
670,728,19,0.0729370518689633,1
670,751,19,0.0776470698306226,1
671,726,19,0.0706007759107142,1
671,750,19,0.0680946059628645,1
671,751,19,0.0775376546032909,1
671,752,19,0.0764343259940535,1
672,750,19,0.069877534489606,1
672,751,19,0.0760966883442229,1
673,734,19,0.0704595429964288,1
673,735,19,0.0786573412891607,1
673,736,19,0.0742462430691111,1
673,750,19,0.0723807275190791,1
673,751,19,0.0747977157009168,1
674,734,19,0.0703887678102378,1
674,735,19,0.0771064087434237,1
674,736,19,0.0708945444454752,1
674,751,19,0.0748287547170679,1
640,743,20,0.0680587331979612,1
640,744,20,0.0824680184327911,1
641,744,20,0.0729461263787025,1
641,745,20,0.0853481959467334,1
642,745,20,0.0752160416152345,1
642,746,20,0.086117001589351,1
643,746,20,0.0779718055042298,1
643,747,20,0.0848558603675058,1
644,746,20,0.069076947098687,1
644,747,20,0.0795847142560871,1
645,740,20,0.0679973559693814,1
645,747,20,0.078183040923679,1
645,748,20,0.0806581119576234,1
646,747,20,0.0737049350861684,1
646,748,20,0.0800741268249169,1
646,749,20,0.071331366786245,1
647,748,20,0.0771474087560741,1
647,749,20,0.0729087980983757,1
648,748,20,0.0707903043840939,1
648,749,20,0.073660640697045,1
649,749,20,0.0717819895695489,1
660,754,20,0.0681699693170161,1
661,754,20,0.0708147306881974,1
662,754,20,0.0745925359444026,1
664,753,20,0.0746306668546338,1
665,753,20,0.0774790386611731,1
666,752,20,0.071190421381179,1
666,753,20,0.0753847795781818,1
667,728,20,0.068463144864012,1
667,752,20,0.0739410819815289,1
668,727,20,0.0686157104333646,1
668,728,20,0.0697535461387128,1
668,751,20,0.0709397612600111,1
668,752,20,0.075143619240807,1
669,727,20,0.0706557740284872,1
669,728,20,0.0744613538732475,1
669,729,20,0.0680370921394213,1
669,751,20,0.0743096628111041,1
669,752,20,0.0758829671679805,1
670,727,20,0.078864030469077,1
670,728,20,0.0852689931465469,1
670,729,20,0.0764567037949684,1
670,751,20,0.0763119309234183,1
670,752,20,0.0768437091736908,1
671,730,20,0.0710553399662349,1
671,751,20,0.0753591493292218,1
671,752,20,0.0754512900442841,1
672,730,20,0.0751235594829741,1
672,733,20,0.0694160582332674,1
672,734,20,0.0833974758415587,1
672,735,20,0.0858845983036189,1
672,736,20,0.074643389137595,1
672,751,20,0.0736995502780789,1
673,731,20,0.0689170440544627,1
673,733,20,0.0786399050529554,1
673,734,20,0.101062413651398,1
673,735,20,0.108488477301339,1
673,736,20,0.0936188358981711,1
673,750,20,0.0701342083452809,1
673,751,20,0.0726614024048038,1
674,733,20,0.0769020795350171,1
674,734,20,0.095165940977424,1
674,735,20,0.098351848607612,1
674,736,20,0.0834562654871633,1
674,751,20,0.073142992326954,1
675,734,20,0.0739396983434102,1
675,735,20,0.0707681302355429,1
681,731,20,0.0682818343624886,1
682,732,20,0.0717191688050964,1
641,744,21,0.0738052218957821,1
642,745,21,0.0776644701281754,1
643,745,21,0.0683470450473278,1
643,746,21,0.0775792535934819,1
644,746,21,0.0694532187998829,1
644,747,21,0.0788771420874396,1
645,747,21,0.0764844843732989,1
645,748,21,0.0807525946748692,1
646,747,21,0.0721332958868548,1
646,748,21,0.0793797740905892,1
647,748,21,0.0759471715705517,1
647,749,21,0.0728076906895314,1
648,748,21,0.0706582178568526,1
648,749,21,0.0727251815333212,1
649,749,21,0.0717578986928681,1
660,754,21,0.0677712778864776,1
661,754,21,0.0698452675694967,1
662,754,21,0.0726435648536463,1
664,753,21,0.0705084794614914,1
665,753,21,0.074712642920833,1
666,752,21,0.0694045219258364,1
666,753,21,0.0741229135935126,1
667,728,21,0.0697224172759306,1
667,752,21,0.0735979696769776,1
668,728,21,0.0711841680556557,1
668,751,21,0.0684139328692807,1
668,752,21,0.0743678295200666,1
668,753,21,0.0692194079169305,1
669,728,21,0.0795052778546599,1
669,729,21,0.0746919722059087,1
669,751,21,0.0718353105502083,1
669,752,21,0.0742535026769025,1
670,730,21,0.0761582991740435,1
670,751,21,0.0734030743648346,1
670,752,21,0.0743849243390738,1
671,734,21,0.0724741799949552,1
671,735,21,0.0733072559276734,1
671,751,21,0.0729180582911525,1
671,752,21,0.0731944804363393,1
672,731,21,0.0713397105433848,1
672,733,21,0.0800200331632301,1
672,734,21,0.10307314531636,1
672,735,21,0.10874775071954,1
672,736,21,0.0853373304941479,1
672,751,21,0.0721421727340057,1
673,731,21,0.075401179583242,1
673,732,21,0.0732403920648222,1
673,733,21,0.0907730696439333,1
673,734,21,0.119830871743287,1
673,735,21,0.125240729073546,1
673,736,21,0.0975700451523645,1
673,750,21,0.069548695819846,1
673,751,21,0.0716075732995171,1
674,732,21,0.0735211627869534,1
674,733,21,0.0870403314578787,1
674,734,21,0.10692289376496,1
674,735,21,0.105592229219984,1
674,736,21,0.0831056420042536,1
674,750,21,0.0737621853594939,1
674,751,21,0.0723911976464879,1
675,733,21,0.0737789746999554,1
675,734,21,0.0803712676032311,1
675,735,21,0.0741824639405937,1
675,749,21,0.067990479707216,1
676,733,21,0.0678254494152446,1
676,749,21,0.072433611246134,1
677,733,21,0.0679886648052681,1
677,748,21,0.0704248142786279,1
678,731,21,0.0681512752279756,1
678,733,21,0.0681085801088855,1
643,745,22,0.0704077553982731,1
644,746,22,0.0688083056717519,1
645,747,22,0.0741587204708864,1
646,747,22,0.0703055818094067,1
646,748,22,0.0773852866965267,1
647,748,22,0.0743438045309153,1
647,749,22,0.0725312086465906,1
648,748,22,0.0708296871573848,1
648,749,22,0.0726392881540068,1
649,749,22,0.0729135180413952,1
649,750,22,0.068359264189155,1
650,749,22,0.0692080033845585,1
650,750,22,0.0692169221601373,1
651,750,22,0.0694060493185648,1
652,751,22,0.068028077527436,1
654,752,22,0.0689638960776842,1
655,752,22,0.0682662669362098,1
660,754,22,0.0678160334883072,1
661,754,22,0.0697781221872015,1
662,754,22,0.0717097468883836,1
664,753,22,0.0685377355371362,1
665,753,22,0.0726082012196524,1
666,753,22,0.0727637616767078,1
667,752,22,0.0719467862602794,1
667,753,22,0.071281184447898,1
668,752,22,0.072944892484969,1
668,753,22,0.068465420978666,1
669,729,22,0.076604291860959,1
669,751,22,0.0683220497145609,1
669,752,22,0.0725699744730148,1
670,730,22,0.0858199147190153,1
670,751,22,0.0702598738332876,1
670,752,22,0.0724001284016174,1
671,731,22,0.0689925391836732,1
671,734,22,0.074974222402565,1
671,735,22,0.0789380461237624,1
671,751,22,0.0703034135107099,1
671,752,22,0.0712770515028682,1
672,733,22,0.0829160596228952,1
672,734,22,0.109471998422916,1
672,735,22,0.118673467441689,1
672,736,22,0.0877094552581986,1
672,751,22,0.0700890693978254,1
673,732,22,0.0729308165127662,1
673,733,22,0.0923180483529172,1
673,734,22,0.1212691725523,1
673,735,22,0.126170114605008,1
673,736,22,0.0927967272442203,1
673,750,22,0.0679964575030706,1
673,751,22,0.0699731372948526,1
674,732,22,0.0739332114166461,1
674,733,22,0.0873692779435961,1
674,734,22,0.104142212410278,1
674,735,22,0.100819456381401,1
674,736,22,0.0776311789564719,1
674,750,22,0.0718555320319772,1
674,751,22,0.0712311758130377,1
675,732,22,0.0696121694698177,1
675,733,22,0.0742138563534937,1
675,734,22,0.079026365362116,1
675,735,22,0.0723731085247634,1
675,750,22,0.0739500007571076,1
676,733,22,0.0690026439347822,1
676,749,22,0.0713424538605205,1
677,733,22,0.0685979687186136,1
677,748,22,0.0717347242518243,1
677,749,22,0.072638359738819,1
678,733,22,0.0696383747372166,1
678,734,22,0.068945249906847,1
645,747,23,0.0737203827169391,1
646,747,23,0.0695391900462775,1
646,748,23,0.0763518228276187,1
647,748,23,0.0729434788979733,1
648,748,23,0.0705148286234212,1
648,749,23,0.072096973888796,1
649,749,23,0.0730185607326808,1
649,750,23,0.0697185418912433,1
650,749,23,0.0707364023952201,1
650,750,23,0.0714061850708346,1
651,750,23,0.0711228746839315,1
651,751,23,0.070075059313152,1
652,751,23,0.0696817467009275,1
653,751,23,0.0679780089948218,1
653,752,23,0.068187782909072,1
654,752,23,0.0698298079591752,1
655,752,23,0.0694284450888058,1
661,754,23,0.0696235919715159,1
662,754,23,0.071241298533473,1
664,753,23,0.0681508499539219,1
665,753,23,0.0719379633211072,1
666,753,23,0.0732358578048403,1
667,752,23,0.0715315630496218,1
667,753,23,0.0724502568319857,1
668,752,23,0.0729249525226442,1
668,753,23,0.0694821733741929,1
669,752,23,0.0726694107345209,1
670,751,23,0.0696560026462349,1
670,752,23,0.072517653784848,1
671,734,23,0.0757067779244288,1
671,735,23,0.0802128859619598,1
671,751,23,0.0704610763789325,1
671,752,23,0.071109571392756,1
672,733,23,0.0816616628881566,1
672,734,23,0.10794220978436,1
672,735,23,0.118149326155059,1
672,736,23,0.0870199722112756,1
672,751,23,0.0701514648882241,1
673,732,23,0.0700481352727044,1
673,733,23,0.0868704015296257,1
673,734,23,0.113226425585714,1
673,735,23,0.118936921723123,1
673,736,23,0.0876653405623374,1
673,750,23,0.0687882519036944,1
673,751,23,0.0703220776508733,1
674,732,23,0.0705293598185548,1
674,733,23,0.0802967068789839,1
674,734,23,0.0935985305595466,1
674,735,23,0.091744395582785,1
674,736,23,0.0733020687821723,1
674,750,23,0.0717991562658609,1
675,732,23,0.0677714156513119,1
675,733,23,0.0704006095962144,1
675,734,23,0.0739042808014377,1
675,735,23,0.0693960344140869,1
675,749,23,0.0684781552411781,1
675,750,23,0.0738717084027828,1
676,748,23,0.0678873417645093,1
676,749,23,0.0719408084644248,1
677,748,23,0.0730714025313078,1
678,734,23,0.073103579604786,1
646,747,24,0.0685999333649466,1
647,748,24,0.0710997301917648,1
648,748,24,0.0687338707327882,1
648,749,24,0.0710453310515324,1
649,749,24,0.0725619242148698,1
649,750,24,0.0703995913343955,1
650,749,24,0.0713446700774205,1
650,750,24,0.0724092208806829,1
651,750,24,0.0714910062803514,1
651,751,24,0.0715125754615865,1
652,751,24,0.0705350980233933,1
652,752,24,0.0693155198530866,1
653,751,24,0.0689647166769148,1
653,752,24,0.0697755705428787,1
654,751,24,0.0677435631956765,1
654,752,24,0.0717771737901229,1
655,752,24,0.0718118605794959,1
655,753,24,0.0691934781792003,1
664,753,24,0.0682268542140418,1
665,753,24,0.0704205255994376,1
666,753,24,0.071992368451115,1
667,752,24,0.0678754879989818,1
667,753,24,0.0718466611746017,1
668,752,24,0.0703185916015874,1
668,753,24,0.0693594189170333,1
669,752,24,0.0707887290731623,1
670,752,24,0.0710236600441154,1
671,734,24,0.0710004736235209,1
671,735,24,0.074636740486895,1
671,751,24,0.0689873400586212,1
671,752,24,0.0695277435854776,1
672,733,24,0.0734733883383194,1
672,734,24,0.0942784479351471,1
672,735,24,0.103500863198513,1
672,736,24,0.0800719525364447,1
672,751,24,0.0687915642494936,1
673,733,24,0.0757772775809511,1
673,734,24,0.0969758414628162,1
673,735,24,0.104162290137437,1
673,736,24,0.0810815531401374,1
673,751,24,0.0686842214844523,1
674,733,24,0.0692988682774594,1
674,734,24,0.0792666931207094,1
674,735,24,0.080597094115568,1
674,736,24,0.0694485946932698,1
674,750,24,0.0690542518396757,1
676,748,24,0.0681942878051623,1
647,748,25,0.070056682682208,1
648,748,25,0.0683797252619401,1
648,749,25,0.0707716282643797,1
649,749,25,0.0722962177778834,1
650,749,25,0.0710046964151817,1
650,750,25,0.0719227313222511,1
651,750,25,0.069718434075286,1
651,751,25,0.0706482628501287,1
652,751,25,0.068781938680417,1
654,752,25,0.070704668565122,1
655,752,25,0.0706734438659333,1
665,753,25,0.0688987273212728,1
666,753,25,0.0709364668835381,1
667,753,25,0.0711931347494376,1
668,752,25,0.0678013705181146,1
668,753,25,0.069375309791184,1
669,752,25,0.0687626516036114,1
670,752,25,0.0690709153948537,1
671,751,25,0.0682604029460878,1
671,752,25,0.0685888103520186,1
672,734,25,0.0766491612685213,1
672,735,25,0.0837583897586149,1
672,736,25,0.0694684088703111,1
672,751,25,0.0683973292118567,1
672,752,25,0.0681748449941961,1
673,734,25,0.0784503286613724,1
673,735,25,0.0859967149196584,1
673,736,25,0.0720650783347619,1
673,751,25,0.0681730899900024,1
674,735,25,0.0702142017958209,1
674,750,25,0.0677690377104759,1
675,750,25,0.0684970230337053,1
647,748,26,0.0690663272268931,1
648,748,26,0.0686415024062605,1
648,749,26,0.0696724206206212,1
649,748,26,0.0693219229229951,1
649,749,26,0.0717934899383274,1
650,749,26,0.0707260760224211,1
650,750,26,0.0705068801914581,1
654,752,26,0.0683023792921293,1
655,752,26,0.0679092343936162,1
666,753,26,0.0689523477907025,1
667,753,26,0.0696308395997565,1
668,753,26,0.0689893765822591,1
672,751,26,0.068710277007466,1
673,735,26,0.0684033489361392,1
674,749,26,0.0706122822692681,1
674,750,26,0.0698126652219648,1
674,751,26,0.0697453401464074,1
675,749,26,0.0702109193988987,1
675,750,26,0.0695219993908638,1
675,751,26,0.0696227893416115,1
676,750,26,0.0677608676568229,1
647,747,27,0.0686757160033765,1
648,747,27,0.067999536247629,1
648,748,27,0.0718981373044362,1
649,748,27,0.0733323650661731,1
649,749,27,0.0727449058637314,1
650,748,27,0.0699635716235301,1
650,749,27,0.0716500408071419,1
650,750,27,0.0711301462712738,1
673,750,27,0.0678164707419118,1
674,748,27,0.0685453305723503,1
674,749,27,0.0747989376150995,1
674,750,27,0.0722097014619269,1
674,751,27,0.0705335047431354,1
675,748,27,0.0684307581483946,1
675,749,27,0.0742162522636559,1
675,750,27,0.0718516566472898,1
675,751,27,0.0707218232818832,1
676,750,27,0.0681434705506223,1
648,747,28,0.0708919688420509,1
649,747,28,0.0694677859336689,1
649,748,28,0.0764543977314373,1
650,748,28,0.0713922348839153,1
650,749,28,0.0706669269902922,1
673,750,28,0.0680968221797646,1
674,749,28,0.0751427267642716,1
674,750,28,0.0732422788440749,1
674,751,28,0.0708760839576756,1
675,749,28,0.0748790388815968,1
675,750,28,0.07274806247537,1
649,747,29,0.0706692510231495,1
650,748,29,0.0688200755804236,1
672,746,29,0.07201127817207,1
672,747,29,0.0714644715753052,1
674,749,29,0.0701068889796566,1
674,750,29,0.0703201788920698,1
675,749,29,0.0699689504418442,1
672,747,30,0.07011624500884,1
