x,y,z,signal,cytoplasm.p
115,824,1,0.0725582764416479,1
115,825,1,0.0712935233852332,1
116,822,1,0.0790353679945504,1
116,823,1,0.0765132472747959,1
116,824,1,0.0772168542121251,1
116,825,1,0.0764784945978934,1
116,826,1,0.0698699095055148,1
117,821,1,0.0892376386369456,1
117,822,1,0.0816525165011125,1
117,823,1,0.0786439541411295,1
117,824,1,0.0799572962556333,1
117,825,1,0.0795095605440748,1
117,826,1,0.0726255835478791,1
118,820,1,0.111964511682841,1
118,821,1,0.0933547107618918,1
118,822,1,0.0810225239035165,1
118,823,1,0.0763947994661529,1
118,824,1,0.0772632150737634,1
118,825,1,0.0764758411273888,1
118,826,1,0.0693924704977206,1
119,818,1,0.10167299937668,1
119,819,1,0.111490852223328,1
119,820,1,0.107337745609543,1
119,821,1,0.0910187163230868,1
119,822,1,0.0771124584165832,1
119,823,1,0.0706685562092024,1
119,824,1,0.0690497774774478,1
120,817,1,0.0926179983358966,1
120,818,1,0.0973213017593264,1
120,819,1,0.102319571672598,1
120,820,1,0.0986158359790571,1
120,821,1,0.084846055105167,1
120,822,1,0.0711511524136207,1
121,816,1,0.0897480273992453,1
121,817,1,0.0999326341939698,1
121,818,1,0.106981617523035,1
121,819,1,0.108188916653761,1
121,820,1,0.0964758689199467,1
121,821,1,0.0792384153910202,1
122,815,1,0.0908242103463451,1
122,816,1,0.0991630798294265,1
122,817,1,0.110683454457773,1
122,818,1,0.118784302245792,1
122,819,1,0.116023890291082,1
122,820,1,0.0954182842254808,1
122,821,1,0.0725936400756418,1
123,814,1,0.0898352684780259,1
123,815,1,0.0980710299672776,1
123,816,1,0.106910590766277,1
123,817,1,0.112582105445348,1
123,818,1,0.114161022221779,1
123,819,1,0.107281597454892,1
123,820,1,0.0853983243771017,1
124,813,1,0.0824641071094513,1
124,814,1,0.0873298712112035,1
124,815,1,0.0976462710341745,1
124,816,1,0.105929441595761,1
124,817,1,0.106088937335257,1
124,818,1,0.0999786775975116,1
124,819,1,0.0871077044516394,1
125,812,1,0.0786288359480061,1
125,813,1,0.0784194932975851,1
125,814,1,0.0800440461728306,1
125,815,1,0.0868402609797854,1
125,816,1,0.092753690707932,1
125,817,1,0.0925970880299562,1
125,818,1,0.0831213471953667,1
126,811,1,0.0751836429200663,1
126,812,1,0.0752046370828625,1
126,813,1,0.0741143242555811,1
126,814,1,0.072667314313129,1
126,815,1,0.0722710307723034,1
126,816,1,0.0729002207399951,1
126,817,1,0.0709353348159864,1
127,810,1,0.0885446336020842,1
127,811,1,0.0781851912530495,1
127,812,1,0.0732510418854931,1
127,813,1,0.0700650204495724,1
128,807,1,0.156891253375358,1
128,808,1,0.161246203440757,1
128,809,1,0.153966985124656,1
128,810,1,0.128647940935639,1
128,811,1,0.0983125077627489,1
128,812,1,0.0812959511610006,1
128,813,1,0.0702280980747616,1
129,806,1,0.194322725552899,1
129,807,1,0.267099514991114,2
129,808,1,0.306089550688259,2
129,809,1,0.297776365362116,2
129,810,1,0.237387833069847,2
129,811,1,0.15565613772765,1
129,812,1,0.105630132518749,1
129,813,1,0.0768240147921577,1
130,806,1,0.269483086215965,2
130,807,1,0.409330948795758,2
130,808,1,0.477311928719181,2
130,809,1,0.465189869171805,2
130,810,1,0.377386039012318,2
130,811,1,0.241330998055671,2
130,812,1,0.142929098884771,1
130,813,1,0.087301425767803,1
131,805,1,0.171596619198256,1
131,806,1,0.32102601402585,2
131,807,1,0.49797540799475,2
131,808,1,0.571622188351506,2
131,809,1,0.555706636326138,2
131,810,1,0.471482870967396,2
131,811,1,0.310715046929172,2
131,812,1,0.173313528420478,1
131,813,1,0.0949474219910818,1
132,805,1,0.167042401284668,1
132,806,1,0.308314488701271,2
132,807,1,0.474924883424595,2
132,808,1,0.543497269812452,2
132,809,1,0.533339425334239,2
132,810,1,0.460225543315756,2
132,811,1,0.307149381548502,2
132,812,1,0.16437641214945,1
132,813,1,0.0858220650483859,1
133,805,1,0.141047554695754,1
133,806,1,0.232468526365745,2
133,807,1,0.343819649108415,2
133,808,1,0.398767428808884,2
133,809,1,0.397376507123328,2
133,810,1,0.342417131217674,2
133,811,1,0.228950371883592,1
133,812,1,0.122486462628402,1
134,806,1,0.155406819316173,1
134,807,1,0.207998281269886,2
134,808,1,0.236588341807827,2
134,809,1,0.235652163871055,2
134,810,1,0.203994212247739,1
134,811,1,0.142432091280727,1
134,812,1,0.0815727386824871,1
135,806,1,0.107942341559419,1
135,807,1,0.128248087488672,1
135,808,1,0.134169675290921,1
135,809,1,0.127428254949375,1
135,810,1,0.112951387078646,1
135,811,1,0.0863798988216722,1
136,806,1,0.0752208993230883,1
136,807,1,0.08260073388645,1
136,808,1,0.0813963218274699,1
136,809,1,0.0754457614815848,1
136,810,1,0.069812239947911,1
154,816,1,0.0858779496529189,1
154,817,1,0.111520250041018,1
154,818,1,0.12992297244665,1
154,819,1,0.144653866692325,1
154,820,1,0.138299110312304,1
154,821,1,0.105970591352796,1
155,817,1,0.167289048256314,1
155,818,1,0.236179599534158,1
155,819,1,0.282603449650619,3
155,820,1,0.271382755465359,3
155,821,1,0.208315691448172,1
155,822,1,0.116435639432004,1
156,817,1,0.192378001212906,1
156,818,1,0.307713330882477,3
156,819,1,0.373584759826298,3
156,820,1,0.361869118519734,3
156,821,1,0.288771241181134,3
156,822,1,0.161523542021581,1
156,823,1,0.0777727712572816,1
157,817,1,0.176750329773075,1
157,818,1,0.295343701938042,3
157,819,1,0.365720160759822,3
157,820,1,0.371430285531156,3
157,821,1,0.308943654709861,3
157,822,1,0.170237539158756,1
157,823,1,0.0782799195510869,1
158,818,1,0.207726513180189,1
158,819,1,0.265626988605435,3
158,820,1,0.288192149694934,3
158,821,1,0.244098513884012,1
158,822,1,0.134810365627391,1
158,823,1,0.0696823636477943,1
159,819,1,0.140704640053791,1
159,820,1,0.154524166012423,1
115,824,2,0.0687463174860807,1
116,823,2,0.0733665307450859,1
116,824,2,0.0741032910892843,1
116,825,2,0.0734793841035003,1
117,821,2,0.0815291091584337,1
117,822,2,0.0764505283365253,1
117,823,2,0.075110100457638,1
117,824,2,0.0767512030823288,1
117,825,2,0.0765517555408777,1
117,826,2,0.0687954096853039,1
118,820,2,0.100377638567943,1
118,821,2,0.0849658685826025,1
118,822,2,0.0752245470963102,1
118,823,2,0.0720010116970251,1
118,824,2,0.0731847051228776,1
118,825,2,0.0726077579762724,1
119,819,2,0.0982261651502792,1
119,820,2,0.0955791935519732,1
119,821,2,0.08192097224501,1
119,822,2,0.0701579458252128,1
120,817,2,0.0856967829060052,1
120,818,2,0.0876117859804371,1
120,819,2,0.0923986168218961,1
120,820,2,0.0899426591612704,1
120,821,2,0.0774249270301601,1
121,816,2,0.0816332294243069,1
121,817,2,0.0896861350499806,1
121,818,2,0.0941551364288748,1
121,819,2,0.0969857425615615,1
121,820,2,0.0878171574097643,1
121,821,2,0.0727656664252867,1
122,815,2,0.0829947772512739,1
122,816,2,0.0891443299156793,1
122,817,2,0.0985998672378261,1
122,818,2,0.104450458232194,1
122,819,2,0.105087111460041,1
122,820,2,0.0884194652654362,1
122,821,2,0.0689146601238513,1
123,814,2,0.0836025417923401,1
123,815,2,0.0882278583399908,1
123,816,2,0.094758127118943,1
123,817,2,0.0996801951095065,1
123,818,2,0.0996300247507103,1
123,819,2,0.096224945248661,1
123,820,2,0.0784363784744531,1
124,813,2,0.0803676437891108,1
124,814,2,0.0822926977066731,1
124,815,2,0.0885765890538723,1
124,816,2,0.0953478205076109,1
124,817,2,0.0966749750441998,1
124,818,2,0.0909001726780372,1
124,819,2,0.0797579625199148,1
125,812,2,0.0773444124691599,1
125,813,2,0.0771391967739932,1
125,814,2,0.0769074284044542,1
125,815,2,0.0812208633365177,1
125,816,2,0.0860769659305408,1
125,817,2,0.0873943391638925,1
125,818,2,0.0781011966325387,1
126,811,2,0.0760600189391906,1
126,812,2,0.0751228287303746,1
126,813,2,0.0733144855865878,1
126,814,2,0.0719221802629138,1
126,815,2,0.0707011405874082,1
126,816,2,0.0700191567392928,1
127,810,2,0.0868821474791958,1
127,811,2,0.0782806203548094,1
127,812,2,0.073216516820056,1
127,813,2,0.0686088401609745,1
128,807,2,0.138852769212133,1
128,808,2,0.141514289974899,2
128,809,2,0.136373661069565,2
128,810,2,0.112947697376996,1
128,811,2,0.0878875372707785,1
128,812,2,0.0777348320198634,1
128,813,2,0.0686160099221348,1
129,806,2,0.180835847761185,1
129,807,2,0.262354534710413,2
129,808,2,0.300519802293327,2
129,809,2,0.287802143438733,2
129,810,2,0.217194287613489,2
129,811,2,0.133182716038261,1
129,812,2,0.0958759449948862,1
129,813,2,0.0737789028226505,1
130,805,2,0.147102546775833,1
130,806,2,0.267664638321069,2
130,807,2,0.436212246206028,2
130,808,2,0.517769603145274,2
130,809,2,0.500520966705666,2
130,810,2,0.379195789753325,2
130,811,2,0.213286965443692,2
130,812,2,0.124269870337175,1
130,813,2,0.0802051891005638,1
131,805,2,0.16175457963852,2
131,806,2,0.326719487221557,2
131,807,2,0.545014408045351,2
131,808,2,0.644579090336163,2
131,809,2,0.622328464332756,2
131,810,2,0.4945621943777,2
131,811,2,0.281809996082208,2
131,812,2,0.148575911730069,1
131,813,2,0.0844452972021136,1
132,805,2,0.161047762181574,2
132,806,2,0.31745651518892,2
132,807,2,0.525481798366334,2
132,808,2,0.616588294847988,2
132,809,2,0.59372886807237,2
132,810,2,0.481554414761567,2
132,811,2,0.278992429690579,2
132,812,2,0.138763521558591,1
132,813,2,0.0750787439833904,1
133,805,2,0.134882913787102,1
133,806,2,0.231622746119392,2
133,807,2,0.362579362128212,2
133,808,2,0.428541308557961,2
133,809,2,0.411797634144135,2
133,810,2,0.339672448413179,2
133,811,2,0.201823541599901,2
133,812,2,0.103054864521822,1
134,805,2,0.102630620709404,1
134,806,2,0.146522209416349,1
134,807,2,0.202322897195903,2
134,808,2,0.23742199874876,2
134,809,2,0.227021400652914,2
134,810,2,0.190643541948745,2
134,811,2,0.122496549410184,1
134,812,2,0.0698448183363413,1
135,806,2,0.0978495101034573,1
135,807,2,0.114222908581269,1
135,808,2,0.124121371825323,1
135,809,2,0.114658988189888,1
135,810,2,0.100171979629397,1
135,811,2,0.0730227655550155,1
136,806,2,0.0701036604907131,1
136,807,2,0.074246758189796,1
136,808,2,0.0742370667331899,1
136,809,2,0.0690345215194901,1
153,817,2,0.0713240472806995,1
153,818,2,0.0757102639737148,1
153,819,2,0.0719006350407803,1
154,816,2,0.0872631151643096,1
154,817,2,0.120782802789376,1
154,818,2,0.145788941111212,1
154,819,2,0.162468884314724,3
154,820,2,0.146929777694038,3
154,821,2,0.1016673929469,1
155,817,2,0.181534555062232,1
155,818,2,0.270670283660429,3
155,819,2,0.33385175238786,3
155,820,2,0.307911903916719,3
155,821,2,0.220157501383878,3
155,822,2,0.110112832513996,1
156,817,2,0.206207122791738,3
156,818,2,0.351714149133716,3
156,819,2,0.441138668763312,3
156,820,2,0.4148461902345,3
156,821,2,0.318107603775494,3
156,822,2,0.162256822306269,3
156,823,2,0.0773717617836612,1
157,817,2,0.184103234306213,3
157,818,2,0.325928932704442,3
157,819,2,0.412881448065101,3
157,820,2,0.415506023893166,3
157,821,2,0.344414361928873,3
157,822,2,0.17609036433935,3
157,823,2,0.0798829212144236,1
158,818,2,0.222922405670142,3
158,819,2,0.290479165740248,3
158,820,2,0.319057510277496,3
158,821,2,0.270985441683163,3
158,822,2,0.137875034213597,1
158,823,2,0.068739674825156,1
159,819,2,0.146659626843701,1
159,820,2,0.162599054113835,3
159,821,2,0.133142955909119,1
159,822,2,0.0728629583471977,1
115,823,3,0.068932294022645,1
116,822,3,0.0745193468787232,1
116,823,3,0.0744404196082054,1
116,824,3,0.0741220271067526,1
116,825,3,0.0716151443756296,1
117,822,3,0.0749619074243314,1
117,823,3,0.0765263469136077,1
117,824,3,0.078043646870443,1
117,825,3,0.0752005340867097,1
118,820,3,0.0882286849289967,1
118,821,3,0.0784372110532344,1
118,822,3,0.0725356410803907,1
118,823,3,0.0718605215148899,1
118,824,3,0.0725698846263837,1
118,825,3,0.0697581103475718,1
119,819,3,0.0899344292098633,1
119,820,3,0.0876617586766449,1
119,821,3,0.0765240707989536,1
120,818,3,0.0843241120661102,1
120,819,3,0.0893673651926772,1
120,820,3,0.0863673861808502,1
120,821,3,0.0732056992856738,1
121,817,3,0.0831370164478274,1
121,818,3,0.0875578540426863,1
121,819,3,0.0906502492992442,1
121,820,3,0.0843248967266884,1
121,821,3,0.0695158958097256,1
122,815,3,0.0778911951068231,1
122,816,3,0.081828274480835,1
122,817,3,0.0890927759187645,1
122,818,3,0.0936498689245469,1
122,819,3,0.0943273484615573,1
122,820,3,0.0837461766065632,1
123,814,3,0.0802951914658063,1
123,815,3,0.0810882616885915,1
123,816,3,0.0854635590210426,1
123,817,3,0.0908595620007882,1
123,818,3,0.0915962983858849,1
123,819,3,0.0880094052411781,1
123,820,3,0.075349757361386,1
124,813,3,0.0803555743916688,1
124,814,3,0.0799908689467809,1
124,815,3,0.0811034577487951,1
124,816,3,0.085169826424934,1
124,817,3,0.0893354456795415,1
124,818,3,0.0861553780803738,1
124,819,3,0.0756447478103298,1
125,812,3,0.0769336636207301,1
125,813,3,0.0784929339338315,1
125,814,3,0.0789970813501586,1
125,815,3,0.0803113758389519,1
125,816,3,0.0819144972977967,1
125,817,3,0.0832507503032264,1
125,818,3,0.0752280990331257,1
126,811,3,0.0769831990633333,1
126,812,3,0.0754769622216719,1
126,813,3,0.0740407159056234,1
126,814,3,0.0750398643512335,1
126,815,3,0.074664395279942,1
126,816,3,0.0709754603214276,1
127,810,3,0.0853146651840136,1
127,811,3,0.079242164990424,1
127,812,3,0.0745072774812812,1
127,813,3,0.069066267329139,1
128,807,3,0.132516269667547,1
128,808,3,0.138130821582512,2
128,809,3,0.128714583176801,1
128,810,3,0.105450163726917,1
128,811,3,0.0838355500453881,1
128,812,3,0.0766154028943361,1
128,813,3,0.067988796580327,1
129,806,3,0.169205548774597,1
129,807,3,0.251085107712454,2
129,808,3,0.294058679481655,2
129,809,3,0.272280119657504,2
129,810,3,0.193642263107737,2
129,811,3,0.115733362224815,1
129,812,3,0.088244953158998,1
129,813,3,0.0713074136743985,1
130,805,3,0.136797066313426,1
130,806,3,0.253155461601802,2
130,807,3,0.432304372976893,2
130,808,3,0.537021172562267,2
130,809,3,0.512953632046468,2
130,810,3,0.35883786090074,2
130,811,3,0.183467407667373,2
130,812,3,0.107289180510555,1
130,813,3,0.0738449700453728,1
131,805,3,0.150165106961097,2
131,806,3,0.311800322355337,2
131,807,3,0.55136189283803,2
131,808,3,0.690465849271567,2
131,809,3,0.663213137867954,2
131,810,3,0.481401172347593,2
131,811,3,0.240286644775076,2
131,812,3,0.121246171814743,1
131,813,3,0.0740791762535019,1
132,805,3,0.149236368325378,2
132,806,3,0.307668575280647,2
132,807,3,0.535448209622589,2
132,808,3,0.650573226298123,2
132,809,3,0.613246479353771,2
132,810,3,0.455431662508644,2
132,811,3,0.232562134575782,2
132,812,3,0.111635385503862,1
133,805,3,0.126696915351919,1
133,806,3,0.228033241432609,2
133,807,3,0.368247199085184,2
133,808,3,0.43693657776626,2
133,809,3,0.398779791705321,2
133,810,3,0.30695761289912,2
133,811,3,0.166446322795418,2
133,812,3,0.0866950328853045,1
134,806,3,0.14251929043108,1
134,807,3,0.20271609001262,2
134,808,3,0.237145031534011,2
134,809,3,0.212996006113596,2
134,810,3,0.16821537900232,2
134,811,3,0.101881120112918,1
135,805,3,0.0769116032779118,1
135,806,3,0.0913153419807162,1
135,807,3,0.105311153019307,1
135,808,3,0.116805196594971,1
135,809,3,0.106350846254637,1
135,810,3,0.0898365143513102,1
136,806,3,0.0684214320680883,1
136,807,3,0.0697687242295903,1
136,808,3,0.0706901253904375,1
136,809,3,0.0681857943036373,1
153,818,3,0.0740004226864708,1
153,819,3,0.071327659115269,1
154,816,3,0.0787165202701667,1
154,817,3,0.112315057298671,1
154,818,3,0.146687706910802,1
154,819,3,0.167900831936677,3
154,820,3,0.150252078499984,3
154,821,3,0.0985385259478987,1
155,817,3,0.169130436991013,1
155,818,3,0.272809879353465,3
155,819,3,0.348958205551458,3
155,820,3,0.321289755816503,3
155,821,3,0.212814827387132,3
155,822,3,0.103663629355381,1
156,817,3,0.201230218407337,3
156,818,3,0.365115504912191,3
156,819,3,0.476242442340984,3
156,820,3,0.4515413752601,3
156,821,3,0.319056959218159,3
156,822,3,0.157697872470111,3
156,823,3,0.077081521226614,1
157,817,3,0.180933001918262,3
157,818,3,0.334785941719198,3
157,819,3,0.437865807563563,3
157,820,3,0.44457253512596,3
157,821,3,0.344788267668783,3
157,822,3,0.17524950768838,3
157,823,3,0.0833369850997389,1
158,817,3,0.130854466379055,1
158,818,3,0.234037560012758,3
158,819,3,0.310691950355208,3
158,820,3,0.340488255823403,3
158,821,3,0.274915237490282,3
158,822,3,0.14128725352793,1
158,823,3,0.0711263367741159,1
159,818,3,0.123373440549994,1
159,819,3,0.158088849069927,3
159,820,3,0.17311043909558,3
159,821,3,0.137191708655791,1
159,822,3,0.0776910228025479,1
115,823,4,0.0683398393475151,1
116,822,4,0.0749687836864969,1
116,823,4,0.0760977185855926,1
116,824,4,0.074294874055628,1
116,825,4,0.0692353586888353,1
117,822,4,0.0739432383006748,1
117,823,4,0.0778885715851955,1
117,824,4,0.0793723168202094,1
117,825,4,0.0734650984891582,1
118,820,4,0.0756714083006595,1
118,821,4,0.0714645973605887,1
118,822,4,0.0697066941154913,1
118,823,4,0.0713485814007603,1
118,824,4,0.0726438763219674,1
118,825,4,0.0681535333733035,1
119,819,4,0.0794110826466335,1
119,820,4,0.0779158130837396,1
119,821,4,0.0700102619228157,1
120,818,4,0.0775334737400579,1
120,819,4,0.0828970241166567,1
120,820,4,0.0802318016726903,1
120,821,4,0.0683264042812806,1
121,817,4,0.0745338601045307,1
121,818,4,0.0785928793262471,1
121,819,4,0.0820823248148824,1
121,820,4,0.0784777498531786,1
122,816,4,0.0725542632921262,1
122,817,4,0.0769822886174717,1
122,818,4,0.0807948645199056,1
122,819,4,0.0822227610890389,1
122,820,4,0.077470365466386,1
123,814,4,0.0743626423745655,1
123,815,4,0.0714664841398414,1
123,816,4,0.0733506159118336,1
123,817,4,0.0784205175491794,1
123,818,4,0.0812798985629139,1
123,819,4,0.0789728586984189,1
123,820,4,0.0714057538070054,1
124,813,4,0.0775172174896075,1
124,814,4,0.0757011954537509,1
124,815,4,0.0719733808630797,1
124,816,4,0.0729918822730249,1
124,817,4,0.0785547843546683,1
124,818,4,0.0788704515083117,1
124,819,4,0.0706238065971482,1
125,812,4,0.0736701285012873,1
125,813,4,0.0770288291723721,1
125,814,4,0.0785877341091738,1
125,815,4,0.0773075454015392,1
125,816,4,0.0753067268148732,1
125,817,4,0.0755063959780144,1
125,818,4,0.0697422194734211,1
126,811,4,0.0744160352325298,1
126,812,4,0.0739386501327143,1
126,813,4,0.0735810845001096,1
126,814,4,0.0761579397875192,1
126,815,4,0.0766281970546022,1
126,816,4,0.069962373668449,1
127,810,4,0.0804178740456611,1
127,811,4,0.0773349546137946,1
127,812,4,0.0742693516226254,1
127,813,4,0.0692382697196823,1
128,808,4,0.135137634975995,1
128,809,4,0.121416796556943,1
128,810,4,0.0968959498384582,1
128,811,4,0.0793443864974937,1
128,812,4,0.0737990464373391,1
129,807,4,0.229265242397106,2
129,808,4,0.278696774376565,2
129,809,4,0.251026935013716,2
129,810,4,0.168286633370543,2
129,811,4,0.0990258420953365,1
129,812,4,0.0764352244603644,1
130,806,4,0.221025970899467,2
130,807,4,0.394453065461632,2
130,808,4,0.515388739298907,2
130,809,4,0.486684393846229,2
130,810,4,0.31856165271033,2
130,811,4,0.149582205977738,2
130,812,4,0.0829432951316639,1
131,805,4,0.130766213028231,1
131,806,4,0.277979606587718,2
131,807,4,0.520064357980413,2
131,808,4,0.68700112358603,2
131,809,4,0.658732498355447,2
131,810,4,0.445273290930196,2
131,811,4,0.197542169935583,2
131,812,4,0.0869680767971626,1
132,805,4,0.131481320334339,1
132,806,4,0.277288290669521,2
132,807,4,0.504688892023804,2
132,808,4,0.63387612837785,2
132,809,4,0.593967692397336,2
132,810,4,0.411810955404637,2
132,811,4,0.187950682681058,2
132,812,4,0.0799187340815729,1
133,805,4,0.114808457045356,1
133,806,4,0.213298393935166,2
133,807,4,0.356564118197724,2
133,808,4,0.42308457524538,2
133,809,4,0.377949461246057,2
133,810,4,0.271550565013118,2
133,811,4,0.13501080747156,1
134,805,4,0.0888171324443804,1
134,806,4,0.131887618779642,1
134,807,4,0.1954580156037,2
134,808,4,0.223830527498915,2
134,809,4,0.195587957791347,2
134,810,4,0.14404013034518,1
134,811,4,0.0825576554217339,1
135,805,4,0.0700337777810575,1
135,806,4,0.081261803451414,1
135,807,4,0.0969075640129693,1
135,808,4,0.107364663660215,1
135,809,4,0.098788497244895,1
135,810,4,0.0795346277541466,1
136,808,4,0.068022758606876,1
154,816,4,0.069452512006385,1
154,817,4,0.095065989595233,1
154,818,4,0.131048139777016,1
154,819,4,0.155608027851593,3
154,820,4,0.140350404736312,3
154,821,4,0.0891243659942529,1
155,816,4,0.0856861869933129,1
155,817,4,0.146016935922245,1
155,818,4,0.25189990884041,3
155,819,4,0.332914687964327,3
155,820,4,0.310702660073633,3
155,821,4,0.192705953395906,3
155,822,4,0.0930434640624976,1
156,817,4,0.184402866831096,3
156,818,4,0.356385119749507,3
156,819,4,0.483563720859982,3
156,820,4,0.462878055456312,3
156,821,4,0.299219469971004,3
156,822,4,0.146415603393682,3
156,823,4,0.0695054137027661,1
157,817,4,0.170031323171096,3
157,818,4,0.337045716265968,3
157,819,4,0.459962616134557,3
157,820,4,0.46146930819915,3
157,821,4,0.32248140965387,3
157,822,4,0.165490690068128,3
157,823,4,0.0782093779661368,1
158,817,4,0.125135728310688,1
158,818,4,0.240026976031698,3
158,819,4,0.32852710560252,3
158,820,4,0.346223417855933,3
158,821,4,0.257339319722519,3
158,822,4,0.136693251526099,1
158,823,4,0.0679652747323097,1
159,818,4,0.125723792480446,1
159,819,4,0.164954389537425,3
159,820,4,0.174802478770319,3
159,821,4,0.134542251300692,1
159,822,4,0.0802411816609753,1
116,822,5,0.0716287651249017,1
116,823,5,0.0737682709713058,1
116,824,5,0.0708249791939162,1
117,822,5,0.0708313103865197,1
117,823,5,0.0754805261380382,1
117,824,5,0.0761405454797417,1
117,825,5,0.0708630382268425,1
118,823,5,0.0699446978412274,1
118,824,5,0.0706265798631609,1
119,819,5,0.074463132836543,1
119,820,5,0.073030115009438,1
120,818,5,0.0749567262686057,1
120,819,5,0.0792240638891487,1
120,820,5,0.0766112340106539,1
121,817,5,0.0709772332949477,1
121,818,5,0.0742328319619782,1
121,819,5,0.0767842786221178,1
121,820,5,0.0745312964806571,1
122,816,5,0.0677923079879261,1
122,817,5,0.0703631615203794,1
122,818,5,0.0727860735900931,1
122,819,5,0.0738552604795194,1
122,820,5,0.0714164934743074,1
123,817,5,0.0693193413297953,1
123,818,5,0.0723136959425166,1
123,819,5,0.0709569579052002,1
124,813,5,0.0762369389353419,1
124,814,5,0.0722671553876161,1
124,817,5,0.0692713213003697,1
124,818,5,0.0702337644022952,1
125,812,5,0.0724305564606772,1
125,813,5,0.0760721662037129,1
125,814,5,0.0751577790698655,1
125,815,5,0.0718926147315124,1
126,811,5,0.0722039632570884,1
126,812,5,0.0732885558488576,1
126,813,5,0.0744791075675493,1
126,814,5,0.0742346828025785,1
126,815,5,0.0735751246735812,1
127,810,5,0.0742762758029941,1
127,811,5,0.0738022928956089,1
127,812,5,0.0730774342351411,1
127,813,5,0.0707814994142479,1
128,808,5,0.127128862015509,1
128,809,5,0.111642046134113,1
128,810,5,0.0894717969268715,1
128,811,5,0.0749866212376544,1
128,812,5,0.069774702025445,1
129,807,5,0.19832405125791,2
129,808,5,0.246893966024844,2
129,809,5,0.219239843832659,2
129,810,5,0.147907321019761,1
129,811,5,0.0887580792486579,1
130,806,5,0.184603452429875,2
130,807,5,0.332822924605116,2
130,808,5,0.446687596698934,2
130,809,5,0.416206348433573,2
130,810,5,0.272061349100594,2
130,811,5,0.127201685704888,1
131,805,5,0.113407017314189,1
131,806,5,0.233161830889377,2
131,807,5,0.448035871183603,2
131,808,5,0.607956261797462,2
131,809,5,0.578490352340632,2
131,810,5,0.386067906994218,2
131,811,5,0.167873997742861,2
131,812,5,0.0689146721034021,1
132,805,5,0.115010192681012,1
132,806,5,0.232402447163472,2
132,807,5,0.43088010022188,2
132,808,5,0.55357777431063,2
132,809,5,0.517266701602231,2
132,810,5,0.353572009750779,2
132,811,5,0.158681082123367,2
133,805,5,0.1036085114421,1
133,806,5,0.183590078267676,2
133,807,5,0.307757223956648,2
133,808,5,0.36577538648906,2
133,809,5,0.32818039344295,2
133,810,5,0.232121382942346,2
133,811,5,0.115046430822215,1
134,805,5,0.0825896947303777,1
134,806,5,0.118187469044841,1
134,807,5,0.172447215224035,2
134,808,5,0.192286429526507,2
134,809,5,0.170842446576954,2
134,810,5,0.124902294783586,1
134,811,5,0.0723785352612807,1
135,806,5,0.0758502030965126,1
135,807,5,0.0913116522790664,1
135,808,5,0.0985149921203307,1
135,809,5,0.0927654007188497,1
135,810,5,0.0735881045168848,1
136,808,5,0.0677531228772236,1
147,843,5,0.0697363015753205,1
148,842,5,0.0714714137250001,1
148,843,5,0.076988188546246,1
149,841,5,0.0684800839488586,1
149,842,5,0.0737129913340888,1
149,843,5,0.0762578252821807,1
154,817,5,0.0787322793692584,1
154,818,5,0.105992106626052,1
154,819,5,0.128128040409996,1
154,820,5,0.119114314911532,1
154,821,5,0.080116821944007,1
155,816,5,0.072172786476103,1
155,817,5,0.118926068250089,1
155,818,5,0.201287528578416,1
155,819,5,0.275912031954158,3
155,820,5,0.26321322891254,3
155,821,5,0.167823791445412,1
155,822,5,0.0875730620824408,1
156,817,5,0.153153477788188,1
156,818,5,0.293804545290752,3
156,819,5,0.420243169547637,3
156,820,5,0.403631509783747,3
156,821,5,0.259135988794041,3
156,822,5,0.133698423721121,1
157,817,5,0.145340690278968,1
157,818,5,0.289664436489597,3
157,819,5,0.420059211565384,3
157,820,5,0.412307915090477,3
157,821,5,0.278353200859308,3
157,822,5,0.149234535454104,1
157,823,5,0.0746458868739391,1
158,817,5,0.112406006048427,1
158,818,5,0.211756266359275,1
158,819,5,0.302321167348766,3
158,820,5,0.304604373896923,3
158,821,5,0.22081860487493,1
158,822,5,0.123985619555534,1
159,818,5,0.11452400261135,1
159,819,5,0.15235372297605,1
159,820,5,0.156115182135174,1
159,821,5,0.122848927897288,1
159,822,5,0.0780984113869751,1
116,823,6,0.0679839628315748,1
117,823,6,0.0698488494551892,1
117,824,6,0.0691926156515419,1
119,819,6,0.0705759063632307,1
119,820,6,0.0696757389561959,1
120,818,6,0.0727414677326486,1
120,819,6,0.0752002885059181,1
120,820,6,0.073213192494706,1
121,817,6,0.0687099296004925,1
121,818,6,0.0711754050142375,1
121,819,6,0.0727896434962348,1
121,820,6,0.0716517718522341,1
122,819,6,0.0685935961825676,1
124,814,6,0.0681254712755289,1
125,813,6,0.0745143753651367,1
125,814,6,0.0708009661843156,1
126,812,6,0.0734845173410227,1
126,813,6,0.0754843835533993,1
126,814,6,0.072438900217817,1
126,815,6,0.0680642797299867,1
127,811,6,0.0699815529292973,1
127,812,6,0.0720730746849282,1
127,813,6,0.0728083855034785,1
127,814,6,0.0678409868926464,1
128,810,6,0.0824886052908597,1
128,811,6,0.0705904076094873,1
129,807,6,0.161328946198208,1
129,808,6,0.204046131620954,2
129,809,6,0.187211652211981,2
129,810,6,0.135166206204679,1
129,811,6,0.0841041914723232,1
130,806,6,0.149791896035133,1
130,807,6,0.267837982421303,2
130,808,6,0.366014905627974,2
130,809,6,0.347407907921914,2
130,810,6,0.240460468057342,2
130,811,6,0.118938754594397,1
131,805,6,0.0990610979133731,1
131,806,6,0.187147561615142,2
131,807,6,0.363471071972375,2
131,808,6,0.502430746695944,2
131,809,6,0.48175921716223,2
131,810,6,0.331121588798947,2
131,811,6,0.151944465581696,2
132,805,6,0.101159232381052,1
132,806,6,0.187965693058224,2
132,807,6,0.350520506690915,2
132,808,6,0.463442675645132,2
132,809,6,0.43766574906502,2
132,810,6,0.303721169533836,2
132,811,6,0.142256542943144,2
133,805,6,0.0925757105215341,1
133,806,6,0.150012870829391,1
133,807,6,0.245410370534215,2
133,808,6,0.298714843372644,2
133,809,6,0.275981585226166,2
133,810,6,0.197672399632448,2
133,811,6,0.101519325698877,1
134,805,6,0.0749901731744698,1
134,806,6,0.102299517904541,1
134,807,6,0.140972023627891,1
134,808,6,0.156969012639672,2
134,809,6,0.145307962146153,1
134,810,6,0.109040734593723,1
135,806,6,0.0700785633317642,1
135,807,6,0.082377860333388,1
135,808,6,0.0871280936471196,1
135,809,6,0.0827781510339598,1
147,843,6,0.081701584741234,1
148,842,6,0.083030057028412,1
148,843,6,0.0943312957235495,1
148,844,6,0.0903186074145944,1
149,841,6,0.0718362389653962,1
149,842,6,0.0811720406771877,1
149,843,6,0.0858699832516296,1
149,844,6,0.0815129128057373,1
150,843,6,0.0730607527106369,1
154,818,6,0.0797954225753006,1
154,819,6,0.0952084803623536,1
154,820,6,0.0916271397394476,1
155,817,6,0.093293806725569,1
155,818,6,0.146060781078213,1
155,819,6,0.203205766131567,3
155,820,6,0.199190232679295,3
155,821,6,0.137709297128128,1
155,822,6,0.0768477343027633,1
156,818,6,0.218341257726331,3
156,819,6,0.32321132368478,3
156,820,6,0.314041552557452,3
156,821,6,0.213977059447706,3
156,822,6,0.117762710111738,1
157,817,6,0.117184493132746,1
157,818,6,0.228044382414863,3
157,819,6,0.342299755578829,3
157,820,6,0.332909728430292,3
157,821,6,0.231424939776402,3
157,822,6,0.130638163609613,1
158,817,6,0.0951082055322907,1
158,818,6,0.17230887537127,1
158,819,6,0.251273593964913,3
158,820,6,0.247853048862767,3
158,821,6,0.183422867697457,1
158,822,6,0.107840251827409,1
159,818,6,0.0992978557658249,1
159,819,6,0.130836305380026,1
159,820,6,0.131659719805015,1
159,821,6,0.10670971765828,1
159,822,6,0.0700941487273692,1
119,820,7,0.067816045467858,1
120,819,7,0.0712687496741562,1
120,820,7,0.0701546454589644,1
121,818,7,0.0680993139263332,1
121,819,7,0.0692062903087926,1
121,820,7,0.068765245176362,1
125,813,7,0.0722619382932379,1
126,812,7,0.0714192966891972,1
126,813,7,0.072988324346434,1
126,814,7,0.0693170292764888,1
127,812,7,0.0697489819298539,1
127,813,7,0.0713084978237469,1
127,814,7,0.0679694795546444,1
128,810,7,0.0805565553156238,1
128,811,7,0.0695561590800012,1
129,807,7,0.129844410552432,1
129,808,7,0.160501087359868,1
129,809,7,0.153755378339132,1
129,810,7,0.122684963785339,1
129,811,7,0.0835836979589145,1
130,806,7,0.123965673603434,1
130,807,7,0.210078602145509,1
130,808,7,0.28357329012517,2
130,809,7,0.273712658302576,2
130,810,7,0.203644744791483,1
130,811,7,0.113492036186294,1
131,806,7,0.149337331979612,1
131,807,7,0.282393016861074,2
131,808,7,0.390239114709278,2
131,809,7,0.371700592115654,2
131,810,7,0.264250250708039,2
131,811,7,0.135284228739268,1
132,806,7,0.147867489013314,1
132,807,7,0.271174694626874,2
132,808,7,0.363878328781743,2
132,809,7,0.341472639472639,2
132,810,7,0.240024172816808,2
132,811,7,0.123695534732647,1
133,806,7,0.118509431452435,1
133,807,7,0.183938802991783,1
133,808,7,0.22816000903929,2
133,809,7,0.214682175808438,2
133,810,7,0.158485599813234,1
133,811,7,0.0908474147362659,1
134,805,7,0.0695013526350412,1
134,806,7,0.0876812673751405,1
134,807,7,0.11164673013848,1
134,808,7,0.123668257295451,1
134,809,7,0.118782924597449,1
134,810,7,0.0940025708595222,1
135,807,7,0.0746191964347323,1
135,808,7,0.0770063195963984,1
135,809,7,0.0732633987921546,1
147,812,7,0.0691832296734815,1
147,842,7,0.0745325962619201,1
147,843,7,0.0930667882479265,1
147,844,7,0.0919976912051313,1
148,811,7,0.0736673971637024,1
148,812,7,0.0926929783444222,1
148,813,7,0.0946524495114643,1
148,814,7,0.06845639438713,1
148,841,7,0.0680979003393375,1
148,842,7,0.0966621629146075,1
148,843,7,0.115867688928058,1
148,844,7,0.104339012471,1
148,845,7,0.0877028665052526,1
149,811,7,0.074251825539789,1
149,812,7,0.0952737749040486,1
149,813,7,0.100673533472973,1
149,814,7,0.0792657107975429,1
149,841,7,0.0735591199936978,1
149,842,7,0.0914677817647853,1
149,843,7,0.101028715174967,1
149,844,7,0.0898439237034868,1
150,812,7,0.0752185034129261,1
150,813,7,0.0816633340354947,1
150,814,7,0.0764486715061496,1
150,842,7,0.0760045596087115,1
150,843,7,0.0785268660115034,1
154,819,7,0.0712738829116787,1
154,820,7,0.071287803149721,1
155,817,7,0.0702993704123112,1
155,818,7,0.100846733818598,1
155,819,7,0.137232570903607,1
155,820,7,0.141044008748714,1
155,821,7,0.106865272125559,1
156,818,7,0.146458286533221,1
156,819,7,0.216701832238754,3
156,820,7,0.220047002007198,3
156,821,7,0.161878603928066,1
156,822,7,0.0967406768906223,1
157,818,7,0.15969482765164,1
157,819,7,0.237643836070677,3
157,820,7,0.238180783497124,3
157,821,7,0.17508390237797,1
157,822,7,0.107008224105386,1
158,818,7,0.130888057039529,1
158,819,7,0.18548221237961,1
158,820,7,0.186280457768346,1
158,821,7,0.144139368944097,1
158,822,7,0.0922752993258484,1
159,819,7,0.108851876975188,1
159,820,7,0.11003016163385,1
114,830,8,0.069376861143014,1
114,831,8,0.0692551189578979,1
115,829,8,0.0710459659677254,1
115,830,8,0.079804395258858,1
115,831,8,0.0832923133547649,1
115,832,8,0.0741550487385629,1
116,830,8,0.0716877943615225,1
116,831,8,0.075670839271996,1
116,832,8,0.0688149243735749,1
125,813,8,0.0708144851074058,1
126,812,8,0.0701670802327061,1
126,813,8,0.0708773298309599,1
127,813,8,0.0691930469153711,1
127,814,8,0.067868857317608,1
128,811,8,0.0686133864005072,1
129,808,8,0.128213730136946,1
129,809,8,0.127933899809554,1
129,810,8,0.109318264847359,1
129,811,8,0.0818838715761485,1
130,807,8,0.160743781079747,1
130,808,8,0.214743846536012,1
130,809,8,0.213188469576924,1
130,810,8,0.167545338766363,1
130,811,8,0.106497751486231,1
131,806,8,0.115147957515338,1
131,807,8,0.211541880317962,1
131,808,8,0.297188409008316,2
131,809,8,0.287510369499182,2
131,810,8,0.209771302708107,1
131,811,8,0.121575070382257,1
131,812,8,0.0692101117855013,1
132,806,8,0.112041348521743,1
132,807,8,0.199869928433205,1
132,808,8,0.274934764158104,2
132,809,8,0.262830578100538,2
132,810,8,0.188994616677375,1
132,811,8,0.110410476433444,1
133,806,8,0.0929146779015047,1
133,807,8,0.13661304843342,1
133,808,8,0.173367053053501,1
133,809,8,0.169864232396386,1
133,810,8,0.132633717183698,1
133,811,8,0.0869091374071729,1
134,806,8,0.0744106384448895,1
134,807,8,0.0903049087982421,1
134,808,8,0.100353224243391,1
134,809,8,0.100081719703812,1
134,810,8,0.0845803127295282,1
135,807,8,0.068053426256952,1
135,808,8,0.0698038003543647,1
147,811,8,0.0710331119097052,1
147,812,8,0.08962496746354,1
147,813,8,0.0908675823100561,1
147,842,8,0.0819294058487809,1
147,843,8,0.0989796489474096,1
147,844,8,0.0905544847700616,1
148,811,8,0.0847957050531087,1
148,812,8,0.120820694108591,1
148,813,8,0.128184691705781,1
148,814,8,0.0862796539404864,1
148,841,8,0.0741996426164566,1
148,842,8,0.116661813351315,1
148,843,8,0.135605065069087,1
148,844,8,0.110115360199217,1
148,845,8,0.0840287262919898,1
149,811,8,0.0795550948167071,1
149,812,8,0.111044781669332,1
149,813,8,0.121771666790615,1
149,814,8,0.0918614477737586,1
149,841,8,0.0788433956928052,1
149,842,8,0.109080231172746,1
149,843,8,0.117432481814084,1
149,844,8,0.0928931746077991,1
150,812,8,0.0773382190413906,1
150,813,8,0.088110788179691,1
150,814,8,0.0836084836495424,1
150,842,8,0.0825691318314107,1
150,843,8,0.0830326685704888,1
151,814,8,0.0710581611504509,1
155,818,8,0.0722119536174793,1
155,819,8,0.0898870500864061,1
155,820,8,0.0955472321104097,1
155,821,8,0.0780872344660686,1
156,818,8,0.0950745070558596,1
156,819,8,0.132473430793847,1
156,820,8,0.142910386826404,1
156,821,8,0.113253954593477,1
156,822,8,0.0738426400227401,1
157,819,8,0.148251793003329,1
157,820,8,0.157072348244967,1
157,821,8,0.123513888803701,1
157,822,8,0.0830867861912772,1
158,819,8,0.127372274508436,1
158,820,8,0.132060160249972,1
158,821,8,0.10764778836408,1
158,822,8,0.0771196701061714,1
114,829,9,0.0790991051946399,1
114,830,9,0.0991352932613206,1
114,831,9,0.097356970871866,1
114,832,9,0.0704658442401553,1
115,829,9,0.0878214999969332,1
115,830,9,0.121324961320426,1
115,831,9,0.124563369332043,1
115,832,9,0.0878435244010991,1
116,829,9,0.0718750287509219,1
116,830,9,0.0964320776719573,1
116,831,9,0.101256218824417,1
116,832,9,0.0759401515537765,1
126,813,9,0.071098005136448,1
126,814,9,0.0684468466851337,1
127,813,9,0.0680003987752874,1
127,814,9,0.0704497437238654,1
127,815,9,0.0718425941171014,1
128,811,9,0.0678871441019209,1
128,815,9,0.0689466694836181,1
129,808,9,0.108545907267926,1
129,809,9,0.10794974492182,1
129,810,9,0.094395577993201,1
129,811,9,0.0786409293045497,1
130,807,9,0.12441248688958,1
130,808,9,0.160183078204041,1
130,809,9,0.16113738120119,1
130,810,9,0.131960873732851,1
130,811,9,0.0975007254815971,1
130,812,9,0.068613530155117,1
131,806,9,0.0912050462564,1
131,807,9,0.154923600175112,1
131,808,9,0.21571555582049,1
131,809,9,0.213910357308791,1
131,810,9,0.162553555779855,1
131,811,9,0.109293359361224,1
131,812,9,0.0714129654965936,1
132,807,9,0.141547006128163,1
132,808,9,0.194199887238884,1
132,809,9,0.19192277828209,1
132,810,9,0.146718745926953,1
132,811,9,0.100552240521013,1
133,807,9,0.102563355531601,1
133,808,9,0.129338753712702,1
133,809,9,0.131917112433739,1
133,810,9,0.112290403383102,1
133,811,9,0.0850056167321932,1
134,807,9,0.0750034345372175,1
134,808,9,0.0836047819683418,1
134,809,9,0.0847374724566168,1
134,810,9,0.0767491126507123,1
147,811,9,0.0788721885431793,1
147,812,9,0.0967162625660696,1
147,813,9,0.0981038419569488,1
147,842,9,0.0864851331857708,1
147,843,9,0.0962448133336809,1
147,844,9,0.0817434832201953,1
148,810,9,0.0695292050906766,1
148,811,9,0.092661346340506,1
148,812,9,0.125829080752523,1
148,813,9,0.131290749640038,1
148,814,9,0.0902845735107406,1
148,841,9,0.0826349894119938,1
148,842,9,0.13374937275072,1
148,843,9,0.143010811400852,1
148,844,9,0.104845783408955,1
149,811,9,0.0793887946923498,1
149,812,9,0.106263491370123,1
149,813,9,0.115827904839815,1
149,814,9,0.0924242111322036,1
149,841,9,0.0865359863789632,1
149,842,9,0.127714158909029,1
149,843,9,0.12898255374889,1
149,844,9,0.0925880254997677,1
150,812,9,0.0729509241888023,1
150,813,9,0.0835916703499792,1
150,814,9,0.0855227020633962,1
150,815,9,0.0717870928581943,1
150,841,9,0.0760154190715216,1
150,842,9,0.0910914262067337,1
150,843,9,0.0893639869593485,1
151,814,9,0.0714298207245846,1
151,842,9,0.0726604739896159,1
155,819,9,0.0695135597973175,1
155,820,9,0.0741884297568975,1
156,818,9,0.072371449356976,1
156,819,9,0.0930226795418406,1
156,820,9,0.103904789692756,1
156,821,9,0.0876667960777609,1
157,819,9,0.103184219711479,1
157,820,9,0.113049236049669,1
157,821,9,0.093859109748786,1
157,822,9,0.0689851777496998,1
158,820,9,0.099965224561951,1
158,821,9,0.0848510685471814,1
114,829,10,0.0833249216920723,1
114,830,10,0.124748105985099,1
114,831,10,0.132135966847504,1
114,832,10,0.0883148658175305,1
115,829,10,0.0958810662528578,1
115,830,10,0.169073869552084,1
115,831,10,0.188908591523002,1
115,832,10,0.121678861210483,1
116,829,10,0.0740403145906712,1
116,830,10,0.129706969165978,1
116,831,10,0.148907134330441,1
116,832,10,0.100166504974676,1
117,830,10,0.068601269084862,1
117,831,10,0.0752713631808793,1
125,814,10,0.0684395750977915,1
126,813,10,0.0730390637338937,1
126,814,10,0.0698922513677772,1
127,814,10,0.0707015059637079,1
127,815,10,0.0776447697568669,1
127,816,10,0.0743648945301179,1
128,815,10,0.0766257951546646,1
128,816,10,0.0725036017717468,1
129,811,10,0.0742774378194227,1
130,808,10,0.114286627812032,1
130,809,10,0.115006982161395,1
130,810,10,0.101510844176903,1
130,811,10,0.0868768285586358,1
131,807,10,0.107804492868238,1
131,808,10,0.142803613090026,1
131,809,10,0.14572274211343,1
131,810,10,0.120874278639368,1
131,811,10,0.0955145339264712,1
131,812,10,0.0708639965909073,1
131,847,10,0.0682842901704048,1
132,808,10,0.128648947217907,1
132,809,10,0.132175283733265,1
132,810,10,0.112465532436407,1
132,811,10,0.0903028123768502,1
133,807,10,0.0788427847357139,1
133,808,10,0.0955324972629122,1
133,809,10,0.100020252628601,1
133,810,10,0.0932018516935443,1
133,811,10,0.0786481110452609,1
134,808,10,0.0709269611099696,1
134,809,10,0.0724004039312861,1
134,810,10,0.0692217379395633,1
146,811,10,0.0691844815365413,1
146,812,10,0.075090615718244,1
146,813,10,0.0743571437607433,1
147,809,10,0.0682302983348999,1
147,810,10,0.0806132665091627,1
147,811,10,0.0878579537700509,1
147,812,10,0.100866092772708,1
147,813,10,0.104072407567703,1
147,814,10,0.0764233946539386,1
147,842,10,0.082760427288535,1
147,843,10,0.0848838685573017,1
148,810,10,0.0821224203714466,1
148,811,10,0.0965466261368114,1
148,812,10,0.1153955748306,1
148,813,10,0.120099273579206,1
148,814,10,0.0912071786164443,1
148,841,10,0.0853074295353238,1
148,842,10,0.131457792496546,1
148,843,10,0.126906605409313,1
148,844,10,0.0902805543714435,1
149,811,10,0.0763863059646279,1
149,812,10,0.090908234915733,1
149,813,10,0.0994236111004626,1
149,814,10,0.0883172437583665,1
149,841,10,0.0899981903690545,1
149,842,10,0.130431372603515,1
149,843,10,0.121039919888431,1
149,844,10,0.0851315757191947,1
150,813,10,0.0788233419247477,1
150,814,10,0.0855289074707162,1
150,815,10,0.0755601362429522,1
150,841,10,0.075887657162123,1
150,842,10,0.09167932266278,1
150,843,10,0.0870216852870415,1
151,814,10,0.0748667838011172,1
151,815,10,0.0705204290634253,1
151,842,10,0.0709529028272507,1
156,820,10,0.0706673582541213,1
157,820,10,0.0766221653507689,1
114,829,11,0.0763314096730369,1
114,830,11,0.124201994202281,1
114,831,11,0.1446638336786,1
114,832,11,0.0978774643852746,1
115,829,11,0.0931159822733316,1
115,830,11,0.184899263478049,1
115,831,11,0.227262501092535,1
115,832,11,0.147228140386535,1
116,829,11,0.0741177983253163,1
116,830,11,0.146107201837606,1
116,831,11,0.183522429744247,1
116,832,11,0.121371789384546,1
117,830,11,0.0748953610195767,1
117,831,11,0.0886957316764624,1
125,814,11,0.0695088578236242,1
126,813,11,0.0769093391428085,1
126,814,11,0.0726374552827327,1
127,812,11,0.067983920903147,1
127,813,11,0.0711226051440383,1
127,814,11,0.0737268995925803,1
127,815,11,0.0801982888792967,1
127,816,11,0.0779295596182951,1
128,814,11,0.0696912345051698,1
128,815,11,0.0820345204173714,1
128,816,11,0.079301152298617,1
129,811,11,0.0743526095007613,1
130,810,11,0.0854740291484514,1
130,811,11,0.0802413314053604,1
130,847,11,0.0681795769167665,1
131,809,11,0.101020077918832,1
131,810,11,0.0949537651632362,1
131,811,11,0.0863803660241538,1
131,812,11,0.0702644979399006,1
131,847,11,0.0755152488660636,1
132,808,11,0.0898749687094133,1
132,809,11,0.094441477642133,1
132,810,11,0.0905361860061979,1
132,811,11,0.0824641550276546,1
133,808,11,0.0764091090395965,1
133,809,11,0.0800788886963642,1
133,810,11,0.0788817302554002,1
133,811,11,0.0718526150113547,1
134,809,11,0.0678912411082982,1
146,810,11,0.0702594844978862,1
146,811,11,0.0740362655024971,1
146,812,11,0.0791318033785783,1
146,813,11,0.0738199507535042,1
147,809,11,0.0721336672529299,1
147,810,11,0.0839707512558403,1
147,811,11,0.0887057525707158,1
147,812,11,0.0987794826329098,1
147,813,11,0.100672754802171,1
147,814,11,0.0749467532925556,1
147,842,11,0.0760471289425181,1
147,843,11,0.0745228868359879,1
148,810,11,0.083778599260833,1
148,811,11,0.0894561995517156,1
148,812,11,0.101470065785943,1
148,813,11,0.108105718673379,1
148,814,11,0.0872336993772934,1
148,841,11,0.0826396913856871,1
148,842,11,0.112030207539488,1
148,843,11,0.0994886780306922,1
148,844,11,0.0763923915764399,1
149,811,11,0.0712344462304091,1
149,812,11,0.0828905312001171,1
149,813,11,0.0921025062849515,1
149,814,11,0.0823417719365701,1
149,841,11,0.08970207983211,1
149,842,11,0.116957600440387,1
149,843,11,0.101632592351795,1
149,844,11,0.0771565251942412,1
150,812,11,0.0705045861074778,1
150,813,11,0.0797063306559197,1
150,814,11,0.0774417942377019,1
150,841,11,0.076149015022165,1
150,842,11,0.0872940044360756,1
150,843,11,0.0806037008378402,1
151,813,11,0.0714920425114965,1
151,814,11,0.0702459895338977,1
114,830,12,0.104765077175141,1
114,831,12,0.132102460043885,1
114,832,12,0.0954557143319896,1
115,829,12,0.0813187901746216,1
115,830,12,0.162783994419254,1
115,831,12,0.217800836230148,1
115,832,12,0.149370742946824,1
115,833,12,0.069070861486875,1
116,830,12,0.136167049756729,1
116,831,12,0.183620039124255,1
116,832,12,0.126056608361075,1
117,830,12,0.0733587859654866,1
117,831,12,0.0919741633673386,1
117,832,12,0.0680540012753909,1
126,813,12,0.0833643883222189,1
126,814,12,0.0721651135738086,1
127,812,12,0.0882100806865874,1
127,813,12,0.082528407348429,1
127,814,12,0.0774872326739278,1
127,815,12,0.0794371022309949,1
127,816,12,0.0737535181544822,1
128,812,12,0.0782503779787872,1
128,813,12,0.075213567837992,1
128,814,12,0.0787409944924734,1
128,815,12,0.0857443297431738,1
128,816,12,0.0761780235044537,1
129,811,12,0.0757815123521628,1
129,812,12,0.0682526521767131,1
129,814,12,0.0687618549634825,1
129,815,12,0.069872335364554,1
130,810,12,0.0738203281093547,1
130,811,12,0.0728986334495126,1
130,847,12,0.0680153492546994,1
131,809,12,0.0749001528399011,1
131,810,12,0.0768029787009337,1
131,811,12,0.0773242389055942,1
131,812,12,0.0680640640980721,1
131,847,12,0.0729882584589046,1
132,809,12,0.0714908146075384,1
132,810,12,0.0748965350155562,1
132,811,12,0.0750026019584361,1
133,810,12,0.0686232815094771,1
136,809,12,0.0723484665887453,1
137,808,12,0.0677684507124862,1
137,809,12,0.0731777210447548,1
146,810,12,0.0711294933857546,1
146,811,12,0.075849897617967,1
146,812,12,0.077165060624194,1
147,809,12,0.0715231474151771,1
147,810,12,0.0805232222154924,1
147,811,12,0.0866134042260789,1
147,812,12,0.0938671600069309,1
147,813,12,0.0890531954828852,1
147,842,12,0.0687235383702137,1
148,810,12,0.0799867899097298,1
148,811,12,0.0877284248769077,1
148,812,12,0.0985366032299936,1
148,813,12,0.0998642788770427,1
148,814,12,0.0793028114664044,1
148,841,12,0.0775400085850253,1
148,842,12,0.0899720989073883,1
148,843,12,0.0776928616635973,1
149,810,12,0.0710821861396022,1
149,811,12,0.0864030013854111,1
149,812,12,0.100423124922373,1
149,813,12,0.0986984170125722,1
149,814,12,0.0787416713370942,1
149,841,12,0.0850688448013733,1
149,842,12,0.0974559938388691,1
149,843,12,0.0825611414710198,1
150,811,12,0.0818523174393126,1
150,812,12,0.0971674663575879,1
150,813,12,0.0916481458817946,1
150,814,12,0.0722536724031784,1
150,842,12,0.0805479180594891,1
151,812,12,0.0779548244909553,1
151,813,12,0.0764005795994191,1
114,831,13,0.101457091932415,1
115,830,13,0.119315391671893,1
115,831,13,0.16157317330059,1
115,832,13,0.12154572048277,1
116,830,13,0.105923164311136,1
116,831,13,0.142478332346857,1
116,832,13,0.106370864084042,1
117,831,13,0.0803268713879258,1
126,814,13,0.0716095738845026,1
127,813,13,0.0935988300483169,1
127,814,13,0.0818671002050132,1
127,815,13,0.0775022789897463,1
128,813,13,0.0872148076256645,1
128,814,13,0.0891833952308737,1
128,815,13,0.0854406720892183,1
129,811,13,0.0804489490004646,1
129,812,13,0.0745641863374086,1
129,813,13,0.073681676788269,1
129,814,13,0.0772732719066691,1
129,815,13,0.0714587573295684,1
130,810,13,0.0700444635403809,1
130,811,13,0.0696742534918953,1
131,810,13,0.0691309988319459,1
131,811,13,0.0712633888251683,1
132,810,13,0.0682535626225748,1
132,811,13,0.0703686721137524,1
135,809,13,0.0702456421269242,1
136,809,13,0.0729860063033521,1
137,809,13,0.0706539112083361,1
145,808,13,0.071812836912887,1
145,809,13,0.0707286096974176,1
146,808,13,0.0691235415615661,1
146,809,13,0.0721164945668424,1
146,810,13,0.0718579399216902,1
146,811,13,0.0735535854412231,1
146,812,13,0.0703775669302296,1
147,809,13,0.0700468055425644,1
147,810,13,0.0754014431333598,1
147,811,13,0.0825960139434305,1
147,812,13,0.0870054050774895,1
147,813,13,0.0768891595894675,1
148,810,13,0.0810896393369347,1
148,811,13,0.0951146145919746,1
148,812,13,0.103548302219725,1
148,813,13,0.0959361661968127,1
148,814,13,0.073230520914954,1
148,842,13,0.0761185450346775,1
149,810,13,0.0839871632404512,1
149,811,13,0.108366801003752,1
149,812,13,0.119147007105695,1
149,813,13,0.10489963148985,1
149,814,13,0.078166437266255,1
149,842,13,0.0828908007400104,1
150,811,13,0.102557904835982,1
150,812,13,0.115631116758644,1
150,813,13,0.0984873732659361,1
150,814,13,0.0712661201627532,1
151,812,13,0.0841674974085836,1
151,813,13,0.0769327471850931,1
115,831,14,0.0979655260632858,1
116,831,14,0.0905810314546587,1
126,814,14,0.0726915669137457,1
127,814,14,0.0844869141616308,1
127,815,14,0.0742281000394079,1
128,814,14,0.0947367975287241,1
128,815,14,0.0811516574714829,1
129,813,14,0.0774685266053365,1
129,814,14,0.0811151018721834,1
129,815,14,0.0685209102580223,1
135,809,14,0.0686758537682108,1
139,808,14,0.0680640221696442,1
139,809,14,0.0697127437886508,1
145,808,14,0.0736620542840407,1
145,809,14,0.0750342998498819,1
145,810,14,0.0689209613675779,1
146,809,14,0.0752292131313511,1
146,810,14,0.072722845520913,1
146,811,14,0.0709147838965703,1
147,809,14,0.0679919172533133,1
147,810,14,0.0753287811679161,1
147,811,14,0.0852245669823646,1
147,812,14,0.0843112220694377,1
147,813,14,0.0681800740681251,1
148,810,14,0.0867751760802296,1
148,811,14,0.108758951599548,1
148,812,14,0.109669553195339,1
148,813,14,0.0905632897399077,1
149,810,14,0.0944609683713024,1
149,811,14,0.125585967748366,1
149,812,14,0.127299438839505,1
149,813,14,0.104189208188109,1
149,814,14,0.0748109710738891,1
150,811,14,0.110207506904055,1
150,812,14,0.117575996832798,1
150,813,14,0.0992023727560864,1
150,814,14,0.0730372608114967,1
151,812,14,0.0849819990477695,1
151,813,14,0.0785446616342331,1
121,821,15,0.0682671594127452,1
121,822,15,0.0679797639990156,1
124,834,15,0.070540470851932,1
124,835,15,0.0791556965926707,1
124,836,15,0.0706039445019037,1
125,834,15,0.0754225750609903,1
125,835,15,0.092251819406259,1
125,836,15,0.0788997295304936,1
126,814,15,0.073849330601868,1
127,814,15,0.0823218319742453,1
127,815,15,0.0687437179235547,1
128,814,15,0.0903955400899022,1
128,815,15,0.0732255494013675,1
129,813,15,0.080643568782939,1
129,814,15,0.0796850250248025,1
133,811,15,0.0731894789738758,1
134,811,15,0.0690389898919425,1
138,809,15,0.0723648725835808,1
139,808,15,0.0710344416398452,1
139,809,15,0.0852835722598838,1
139,810,15,0.07730777900278,1
139,811,15,0.073828959375714,1
140,809,15,0.0779998256735766,1
140,810,15,0.0780075884225021,1
140,811,15,0.0784490947676389,1
141,811,15,0.0679563379874048,1
145,808,15,0.0691589890524156,1
145,809,15,0.0705979726958244,1
146,809,15,0.0713220946139173,1
146,810,15,0.0701933633671853,1
146,811,15,0.0683606837659261,1
147,810,15,0.0778975143198759,1
147,811,15,0.0874253003129634,1
147,812,15,0.08000762234859,1
148,810,15,0.0920764327926115,1
148,811,15,0.111995910085517,1
148,812,15,0.102785073058009,1
148,813,15,0.0822107695586772,1
149,811,15,0.122962326325264,1
149,812,15,0.113753477903191,1
149,813,15,0.0929831410343892,1
149,814,15,0.0726172996884933,1
150,812,15,0.101485052204007,1
150,813,15,0.090049828222825,1
150,814,15,0.075660512899197,1
150,815,15,0.0690211762998867,1
151,813,15,0.0775380259693661,1
151,814,15,0.0684345077477984,1
121,822,16,0.0705856996460186,1
122,820,16,0.068266476578349,1
123,833,16,0.071829722089755,1
124,832,16,0.0774841000213907,1
124,833,16,0.0988226629238078,1
124,834,16,0.0917570100497889,1
124,835,16,0.0939919869263808,1
124,836,16,0.084149156716292,1
125,833,16,0.078452922234123,1
125,834,16,0.088192776225441,1
125,835,16,0.107620199458563,1
125,836,16,0.0938140905968385,1
126,835,16,0.0705654422255974,1
128,814,16,0.0855335495466555,1
129,814,16,0.0778572809984774,1
134,811,16,0.0773178657845628,1
137,810,16,0.0708627746767246,1
138,809,16,0.0907919733751129,1
138,810,16,0.0973614272647676,1
138,811,16,0.0798531759897601,1
139,808,16,0.0730694318951994,1
139,809,16,0.108435096422925,1
139,810,16,0.112118748399532,1
139,811,16,0.09215950498771,1
140,809,16,0.0937997750336194,1
140,810,16,0.0968666658265008,1
140,811,16,0.0842171406671441,1
141,810,16,0.069338718253232,1
147,810,16,0.0769662180500588,1
147,811,16,0.0838550886927607,1
147,812,16,0.0719388138692147,1
148,810,16,0.0943994354085621,1
148,811,16,0.106724308751167,1
148,812,16,0.0902840224514033,1
148,813,16,0.0744326927979324,1
149,811,16,0.112086475489647,1
149,812,16,0.0965159105685322,1
149,813,16,0.0828547063534171,1
149,814,16,0.0770162326746944,1
149,815,16,0.0740715572591861,1
150,812,16,0.0876610638626979,1
150,813,16,0.0823959734142141,1
150,814,16,0.0799418007066593,1
150,815,16,0.0816632142399866,1
150,816,16,0.0769122741327572,1
151,813,16,0.0740120847791852,1
151,814,16,0.0709844629538621,1
151,815,16,0.0742194927321503,1
151,816,16,0.0728050671679038,1
123,832,17,0.0692799585565044,1
123,833,17,0.0925780645032684,1
123,834,17,0.0702804906402332,1
124,832,17,0.0921376063688276,1
124,833,17,0.125683696923881,1
124,834,17,0.107193020656196,1
124,835,17,0.101458912824138,1
124,836,17,0.088851783295101,1
125,833,17,0.09033722962633,1
125,834,17,0.0943484923687386,1
125,835,17,0.110403863721397,1
125,836,17,0.0966345680193145,1
126,835,17,0.0730235442258182,1
129,814,17,0.0798927684051902,1
137,809,17,0.0681965459504901,1
137,810,17,0.0902026034343168,1
137,811,17,0.0811184561464104,1
138,809,17,0.0960340630860396,1
138,810,17,0.129997964434726,1
138,811,17,0.110972389243782,1
138,812,17,0.0689284725459363,1
139,808,17,0.0700421095586465,1
139,809,17,0.107241993059911,1
139,810,17,0.132205615955918,1
139,811,17,0.106743152584593,1
140,809,17,0.0903276160368043,1
140,810,17,0.0989753722477701,1
140,811,17,0.0787731595864007,1
147,810,17,0.0728924819501712,1
147,811,17,0.0753635038959416,1
148,811,17,0.0921803553958964,1
148,812,17,0.079307741051563,1
148,813,17,0.0718705424091433,1
148,814,17,0.0738849697655305,1
148,815,17,0.0732371336270016,1
149,810,17,0.0921543597706366,1
149,812,17,0.0821027619285658,1
149,813,17,0.0773822438906208,1
149,814,17,0.0798814237705722,1
149,815,17,0.0804454030534246,1
149,816,17,0.0688648072231516,1
150,813,17,0.0773677725932412,1
150,814,17,0.0796633899560379,1
150,815,17,0.0828619779407593,1
150,816,17,0.0781723192257032,1
151,815,17,0.0722645678046409,1
151,816,17,0.0734908784825033,1
123,832,18,0.0756888744857418,1
123,833,18,0.101045175077781,1
123,834,18,0.074989083035346,1
124,832,18,0.0961722232455421,1
124,833,18,0.132217571547628,1
124,834,18,0.110140900601546,1
124,835,18,0.0993167475174537,1
124,836,18,0.0800866035270864,1
125,817,18,0.0699230987111153,1
125,833,18,0.0919639867389248,1
125,834,18,0.0943431375095261,1
125,835,18,0.104828760467252,1
125,836,18,0.0858296361244984,1
126,819,18,0.0682459076896066,1
126,835,18,0.0717447032176498,1
127,818,18,0.0690788638268167,1
127,819,18,0.0681847520827168,1
128,815,18,0.0711538957307564,1
128,818,18,0.0687720375816718,1
134,811,18,0.0728142494936004,1
136,811,18,0.0695907859716202,1
137,810,18,0.0940280333947709,1
137,811,18,0.102829924496246,1
137,812,18,0.0800540610773085,1
138,809,18,0.086306284481939,1
138,810,18,0.131064887189049,1
138,811,18,0.131458056046664,1
138,812,18,0.089347065843828,1
139,809,18,0.0908971298721312,1
139,810,18,0.120255570778636,1
139,811,18,0.105629198113786,1
139,812,18,0.0683604861033377,1
140,809,18,0.0811035176465492,1
140,810,18,0.0865991904890417,1
140,811,18,0.0678100137640247,1
147,811,18,0.0690684056789588,1
147,814,18,0.0755035448449214,1
147,815,18,0.0785449132048001,1
148,803,18,0.0722831840266011,1
148,804,18,0.0727066132295642,1
148,810,18,0.0818427397884392,1
148,812,18,0.0745783281971409,1
148,813,18,0.0745009043602498,1
148,814,18,0.0854825825477304,1
148,815,18,0.0902182247685742,1
148,816,18,0.0714940251271557,1
149,809,18,0.0734268717425205,1
149,810,18,0.0847116565246192,1
149,811,18,0.0834334743917455,1
149,813,18,0.0770789396334143,1
149,814,18,0.0827789896025166,1
149,815,18,0.0848157348620646,1
149,816,18,0.071790411193769,1
150,810,18,0.0806467433639039,1
150,814,18,0.0743826182755427,1
150,815,18,0.0758584629967968,1
150,816,18,0.0716878362899504,1
151,816,18,0.0684972805940477,1
123,832,19,0.0707034286816131,1
123,833,19,0.0889034690670747,1
123,834,19,0.0694763453227233,1
124,832,19,0.0834480714744086,1
124,833,19,0.109934924204903,1
124,834,19,0.0943047490389525,1
124,835,19,0.0830467984506703,1
125,817,19,0.0770424139829917,1
125,818,19,0.067769289281043,1
125,833,19,0.0791933004026662,1
125,834,19,0.0823946496738495,1
125,835,19,0.087563478441792,1
125,836,19,0.0679753076061139,1
126,816,19,0.0717541490934643,1
126,817,19,0.0732641355345295,1
126,818,19,0.0741939882684738,1
126,819,19,0.0731088206582658,1
127,815,19,0.0718435764402679,1
127,817,19,0.0710716381451132,1
127,818,19,0.0737980880732742,1
127,819,19,0.0710821741600514,1
128,815,19,0.0725046080540149,1
134,811,19,0.0680918566559534,1
135,812,19,0.0693036301489068,1
136,811,19,0.0842225973525384,1
136,812,19,0.0864271102314181,1
137,810,19,0.086721807181367,1
137,811,19,0.114983741832821,1
137,812,19,0.106584112068027,1
137,813,19,0.0720880850620943,1
138,809,19,0.0760986050723527,1
138,810,19,0.108024868684956,1
138,811,19,0.126320254315322,1
138,812,19,0.10127546996257,1
139,809,19,0.0784723470757629,1
139,810,19,0.0938625778287457,1
139,811,19,0.0916308174615466,1
140,809,19,0.0806333562158727,1
140,810,19,0.0740803622290322,1
141,809,19,0.079448183315495,1
146,814,19,0.072000095261388,1
146,815,19,0.0753978253090149,1
147,803,19,0.0714764091976883,1
147,804,19,0.0761457925229969,1
147,813,19,0.0696380273302431,1
147,814,19,0.0939693695344497,1
147,815,19,0.111104511709675,1
147,816,19,0.0878791935136387,1
148,803,19,0.076771119085552,1
148,804,19,0.0780747038559203,1
148,805,19,0.0690659378914917,1
148,809,19,0.0702167654196945,1
148,810,19,0.0749142407916547,1
148,811,19,0.0766025069078882,1
148,812,19,0.073591518688866,1
148,813,19,0.0776971203939106,1
148,814,19,0.102821430994721,1
148,815,19,0.12491712546749,1
148,816,19,0.10469089979652,1
149,809,19,0.0701173650968408,1
149,810,19,0.0802763236732791,1
149,811,19,0.0835498976563015,1
149,812,19,0.0794459371497179,1
149,813,19,0.0796757049342716,1
149,814,19,0.0933212578662522,1
149,815,19,0.108316570747202,1
149,816,19,0.0964387023635558,1
150,810,19,0.0764978355826777,1
150,811,19,0.0776217570397591,1
150,814,19,0.0740874481333368,1
150,815,19,0.0810740180026773,1
150,816,19,0.0772065577882031,1
123,833,20,0.0681258606109303,1
124,833,20,0.0793348148363957,1
124,834,20,0.0736989513005384,1
125,817,20,0.0788612272541873,1
125,835,20,0.0694486486012485,1
126,816,20,0.0773924384883609,1
126,817,20,0.0816570866997468,1
126,818,20,0.0770275114217829,1
126,819,20,0.0699440509454837,1
127,815,20,0.0735708779228187,1
127,816,20,0.0750732693286698,1
127,817,20,0.0805362799258763,1
127,818,20,0.0757435551454183,1
127,819,20,0.0678877610487876,1
128,815,20,0.0711508050066472,1
133,811,20,0.0678171655558588,1
134,812,20,0.069421119593485,1
135,811,20,0.07107668752578,1
135,812,20,0.0763118770154396,1
136,811,20,0.0916020066418463,1
136,812,20,0.103375652933437,1
136,813,20,0.0769333461626336,1
137,810,20,0.0801809245203963,1
137,811,20,0.114008390764897,1
137,812,20,0.122839535929452,1
137,813,20,0.0849053299225795,1
138,809,20,0.0734215707912867,1
138,810,20,0.0910756970565189,1
138,811,20,0.108711907903513,1
138,812,20,0.101129475176837,1
138,813,20,0.0683608634591883,1
139,809,20,0.0806596453401272,1
139,810,20,0.0840611369667087,1
139,811,20,0.0804756454294468,1
140,809,20,0.0907783825747179,1
140,810,20,0.0756829146592134,1
141,810,20,0.0706369541541632,1
144,805,20,0.131267125965839,1
145,805,20,0.122396148794838,1
145,806,20,0.10734731727064,1
146,804,20,0.0890455944578956,1
146,808,20,0.0699694535829782,1
146,813,20,0.0680981938383324,1
146,814,20,0.0811615346111265,1
146,815,20,0.0912485260360682,1
146,816,20,0.069942062340049,1
147,803,20,0.0795828933643639,1
147,804,20,0.0903673761659457,1
147,805,20,0.0832157520455323,1
147,806,20,0.070708022839349,1
147,807,20,0.0687676890047274,1
147,808,20,0.0701931776841477,1
147,813,20,0.0763897381059353,1
147,814,20,0.119235799536305,1
147,815,20,0.158512206395585,1
147,816,20,0.130339729039811,1
147,817,20,0.0768312684101737,1
148,803,20,0.080900937452561,1
148,804,20,0.0874030662666583,1
148,805,20,0.0762609219960653,1
148,808,20,0.0689236148380825,1
148,809,20,0.0683858348328536,1
148,810,20,0.0733852547830034,1
148,811,20,0.0782968466563828,1
148,812,20,0.0731086589343298,1
148,813,20,0.086250561601342,1
148,814,20,0.140011982425903,1
148,815,20,0.194734055409543,1
148,816,20,0.169947118908446,1
148,817,20,0.103222961578801,1
149,804,20,0.0686497263678922,1
149,810,20,0.0789255394727158,1
149,811,20,0.0854109687929826,1
149,812,20,0.0780790524328647,1
149,813,20,0.0873123271590409,1
149,814,20,0.130245737484149,1
149,815,20,0.176885183576553,1
149,816,20,0.16129100696079,1
149,817,20,0.103201997364882,1
150,810,20,0.0714639864034973,1
150,811,20,0.0735637680594124,1
150,814,20,0.0940095609274204,1
150,815,20,0.119650471687625,1
150,816,20,0.111650982879018,1
150,817,20,0.0793657340570388,1
124,822,21,0.0685249952848488,1
126,817,21,0.0836028712299874,1
126,818,21,0.0757434952476643,1
127,816,21,0.0762067804161753,1
127,817,21,0.0831360341246609,1
127,818,21,0.0749575708269379,1
128,815,21,0.0686091037110923,1
128,817,21,0.0678819210177673,1
131,817,21,0.0722638310622661,1
133,811,21,0.0688317676220151,1
134,811,21,0.0692974906291162,1
134,812,21,0.0717155509807515,1
135,811,21,0.0744341543031313,1
135,812,21,0.0804114709757526,1
136,810,21,0.0686980518758635,1
136,811,21,0.0906112918000071,1
136,812,21,0.107171900708116,1
136,813,21,0.0814333506190265,1
137,810,21,0.075632888055027,1
137,811,21,0.102585421864194,1
137,812,21,0.121622557321671,1
137,813,21,0.0905209899459943,1
138,810,21,0.0806302535122126,1
138,811,21,0.0896502323362002,1
138,812,21,0.0945615726390126,1
138,813,21,0.0726296506053794,1
139,810,21,0.0839429946366114,1
139,811,21,0.0746068215587447,1
139,812,21,0.0682045782393089,1
140,810,21,0.0811361020247549,1
142,810,21,0.0684317225022349,1
143,805,21,0.107751579192306,1
144,804,21,0.124347653560591,1
144,805,21,0.159475026853361,1
144,806,21,0.135192597155115,1
145,804,21,0.11235566797592,1
145,805,21,0.15367868525484,1
145,806,21,0.134733912134116,1
145,807,21,0.0899165856689304,1
146,804,21,0.0958194254741602,1
146,805,21,0.109111677493625,1
146,806,21,0.0955478550470518,1
146,807,21,0.0773801414794534,1
146,808,21,0.0702227671746507,1
146,813,21,0.0714674125550293,1
146,814,21,0.0864639593297125,1
146,815,21,0.0986512175823771,1
146,816,21,0.0787875410371493,1
147,803,21,0.0875445627310616,1
147,804,21,0.0994426525964766,1
147,805,21,0.0881438337706029,1
147,806,21,0.0739423278548132,1
147,807,21,0.0719251212426378,1
147,808,21,0.0733532693823382,1
147,809,21,0.0683656193408602,1
147,810,21,0.0694945781990576,1
147,811,21,0.0715684181376916,1
147,812,21,0.0696786080586151,1
147,813,21,0.0853987436613801,1
147,814,21,0.137378326098324,1
147,815,21,0.187987843247673,1
147,816,21,0.161744912141016,1
147,817,21,0.0986113136986259,1
148,803,21,0.0815034848992491,1
148,804,21,0.0909143325070957,1
148,805,21,0.0789530265520514,1
148,808,21,0.071010224977881,1
148,809,21,0.0700856612156196,1
148,810,21,0.0765258138235966,1
148,811,21,0.0802688005153699,1
148,812,21,0.0735432770377503,1
148,813,21,0.096699766724603,1
148,814,21,0.172932063584006,1
148,815,21,0.248599806142117,1
148,816,21,0.22445593192855,1
148,817,21,0.13656075769413,1
149,810,21,0.0779517577259477,1
149,811,21,0.0824472518814603,1
149,812,21,0.0748008543432293,1
149,813,21,0.0991327476067733,1
149,814,21,0.17201652641328,1
149,815,21,0.241133575058307,1
149,816,21,0.221825701752503,1
149,817,21,0.136655983143526,1
150,811,21,0.0681890527414579,1
150,814,21,0.11969485592338,1
150,815,21,0.158100145786342,1
150,816,21,0.146352758670128,1
150,817,21,0.0962414231208014,1
151,815,21,0.076746123752785,1
151,816,21,0.0749039443677327,1
126,817,22,0.0777935138495108,1
126,818,22,0.0695567880064187,1
127,816,22,0.0746537035308432,1
127,817,22,0.0767733892104307,1
127,818,22,0.0696874789159906,1
130,817,22,0.073075098222733,1
131,816,22,0.0690607986641938,1
131,817,22,0.0809157621466895,1
131,818,22,0.0702627549152576,1
132,814,22,0.0687691085814985,1
132,817,22,0.0734671110536945,1
133,813,22,0.0722277366756727,1
133,837,22,0.0786847624809669,1
134,811,22,0.07257655124641,1
134,812,22,0.0736056066406196,1
135,811,22,0.0748230105224541,1
135,812,22,0.0796597960907946,1
136,811,22,0.0833750740815422,1
136,812,22,0.0988346304950679,1
136,813,22,0.0809191643391198,1
137,810,22,0.0692845706835666,1
137,811,22,0.0876169671361628,1
137,812,22,0.107391677547293,1
137,813,22,0.0886281370610118,1
138,810,22,0.0723967022500855,1
138,811,22,0.0761578499408881,1
138,812,22,0.085464451497578,1
138,813,22,0.0743393780868907,1
139,810,22,0.0803326036029889,1
139,811,22,0.0705263888899537,1
139,812,22,0.0714052147272189,1
139,813,22,0.0693225937778405,1
140,810,22,0.0835998823320601,1
140,811,22,0.0707965277607402,1
140,812,22,0.0750043090444267,1
140,813,22,0.0757771458058922,1
141,810,22,0.0829123878905717,1
141,811,22,0.0735227979956391,1
141,812,22,0.0763758298474438,1
141,813,22,0.0718005219346534,1
142,810,22,0.0722005850237598,1
142,811,22,0.0693869479247968,1
142,812,22,0.0688827346209402,1
143,805,22,0.102321140993755,1
144,804,22,0.117803536420901,1
144,805,22,0.155514515477963,1
144,806,22,0.136501039633338,1
145,804,22,0.108125748482335,1
145,805,22,0.157985154078107,1
145,806,22,0.142333224047884,1
145,807,22,0.0900364710236708,1
146,804,22,0.0890971903832383,1
146,805,22,0.107714730094012,1
146,806,22,0.0987006631783492,1
146,807,22,0.0781480067273324,1
146,808,22,0.0690426616242661,1
146,812,22,0.0684930637921623,1
146,813,22,0.0763500798029757,1
146,814,22,0.0913696692436437,1
146,815,22,0.100903588766746,1
146,816,22,0.0840850421603519,1
147,804,22,0.0908349739727487,1
147,805,22,0.0832857365813697,1
147,806,22,0.0753579274150391,1
147,807,22,0.0752056613344568,1
147,808,22,0.0749596971972068,1
147,809,22,0.0709007498527953,1
147,810,22,0.0701086260145242,1
147,811,22,0.0714178351839982,1
147,812,22,0.0732235368368312,1
147,813,22,0.0948399594305324,1
147,814,22,0.150775057770186,1
147,815,22,0.202055297989889,1
147,816,22,0.180543091498467,1
147,817,22,0.111445869010033,1
148,805,22,0.0734107532569044,1
148,807,22,0.0689850399848655,1
148,808,22,0.0710177062073624,1
148,809,22,0.0717750294505277,1
148,810,22,0.0758068790510049,1
148,811,22,0.0748759721165892,1
148,812,22,0.0717295251267724,1
148,813,22,0.104831372009329,1
148,814,22,0.196550933983283,1
148,815,22,0.281212719637876,1
148,816,22,0.260832149434259,1
148,817,22,0.156024916219813,1
148,818,22,0.0715500055680952,1
149,810,22,0.0727902424737753,1
149,811,22,0.0714373079438414,1
149,813,22,0.104468487456164,1
149,814,22,0.198714380961983,1
149,815,22,0.278214309947206,1
149,816,22,0.257263728756902,1
149,817,22,0.152734469039474,1
149,818,22,0.0706051664160864,1
150,814,22,0.132116500077436,1
150,815,22,0.174915661566381,1
150,816,22,0.16246306225303,1
150,817,22,0.102791613892752,1
151,815,22,0.0788818380713575,1
151,816,22,0.076927871507913,1
127,817,23,0.0681843627473154,1
128,815,23,0.0684578798514306,1
129,817,23,0.0677704453076962,1
130,816,23,0.0688484731056209,1
130,817,23,0.0788321049661659,1
130,818,23,0.0757513897716487,1
131,816,23,0.0705494195763877,1
131,817,23,0.087528408306793,1
131,818,23,0.0839398260454219,1
132,817,23,0.079995966245651,1
132,818,23,0.0746422450904926,1
133,813,23,0.0711779746278864,1
133,837,23,0.0794171802379963,1
134,811,23,0.0741225781660899,1
134,812,23,0.0734419839458685,1
135,811,23,0.0725775695082289,1
135,812,23,0.0755870183549719,1
135,813,23,0.0689714431946951,1
136,811,23,0.074472572722582,1
136,812,23,0.0844372349644179,1
136,813,23,0.0766008956583041,1
137,811,23,0.0769666553036634,1
137,812,23,0.0922927894700323,1
137,813,23,0.0843248787573622,1
138,811,23,0.0717337239593316,1
138,812,23,0.0832799444685526,1
138,813,23,0.0791147564777744,1
139,810,23,0.0747174167718311,1
139,811,23,0.0716458599439089,1
139,812,23,0.0793819603586122,1
139,813,23,0.0798988360476759,1
140,810,23,0.0857353690391672,1
140,811,23,0.0800725515139852,1
140,812,23,0.0889339809829902,1
140,813,23,0.0886149415857935,1
140,814,23,0.0741384450811389,1
141,810,23,0.087806309926505,1
141,811,23,0.0851485327733676,1
141,812,23,0.0908291758701562,1
141,813,23,0.0830129083014262,1
142,811,23,0.0747169136306971,1
142,812,23,0.0736900804431629,1
144,805,23,0.129405539708473,1
144,806,23,0.117922756910572,1
145,804,23,0.0987858437743904,1
145,805,23,0.136362076843931,1
145,806,23,0.128107184012034,1
145,807,23,0.0863845588669377,1
146,805,23,0.0993250313768395,1
146,806,23,0.0975660020539659,1
146,807,23,0.0793174684468215,1
146,808,23,0.069017857964312,1
146,811,23,0.0682874767309205,1
146,812,23,0.075784662974026,1
146,813,23,0.0873018151032043,1
146,814,23,0.0993158131124905,1
146,815,23,0.0997630876113427,1
146,816,23,0.0855388504978893,1
146,817,23,0.0696294080434346,1
147,805,23,0.0788530871494113,1
147,806,23,0.0791798293977794,1
147,807,23,0.0775473041314692,1
147,808,23,0.0746891210728157,1
147,809,23,0.0723204524091739,1
147,810,23,0.0695483603924233,1
147,811,23,0.072375348700765,1
147,812,23,0.0856876245394102,1
147,813,23,0.113899364872967,1
147,814,23,0.160442651111012,1
147,815,23,0.191717496699394,1
147,816,23,0.17230960612387,1
147,817,23,0.109246387542494,1
148,806,23,0.067977643618522,1
148,807,23,0.0691633436191354,1
148,808,23,0.0703460427422706,1
148,809,23,0.0731953249946715,1
148,810,23,0.0735924171551768,1
148,811,23,0.0726049727307089,1
148,812,23,0.0826268013890145,1
148,813,23,0.122933359771403,1
148,814,23,0.205862039851078,1
148,815,23,0.272165092010617,1
148,816,23,0.253592068310657,1
148,817,23,0.149542026564319,1
148,818,23,0.0702586938475327,1
149,810,23,0.069079444835031,1
149,812,23,0.0713070303287725,1
149,813,23,0.11189166403436,1
149,814,23,0.199196833411791,1
149,815,23,0.264172024241244,1
149,816,23,0.244869781324321,1
149,817,23,0.143773094178053,1
149,818,23,0.0688972598262984,1
150,814,23,0.128348847490543,1
150,815,23,0.163500766882925,1
150,816,23,0.154009404714078,1
150,817,23,0.100504993172614,1
151,815,23,0.0765350500572718,1
151,816,23,0.0758076876706846,1
129,817,24,0.0682364318649151,1
130,816,24,0.070460728971959,1
130,817,24,0.0812084764809792,1
130,818,24,0.0797769740670518,1
131,816,24,0.0715598467690864,1
131,817,24,0.0900049887641397,1
131,818,24,0.0910248258940003,1
131,819,24,0.0709073266261905,1
132,817,24,0.081020906664157,1
132,818,24,0.0812617315741091,1
133,813,24,0.0691062191310935,1
134,812,24,0.0712211129903566,1
134,813,24,0.0678254913436724,1
135,812,24,0.0691736280635066,1
135,813,24,0.0683215585529776,1
136,811,24,0.0679820640727713,1
136,812,24,0.0723272028860559,1
136,813,24,0.0705987034484239,1
137,811,24,0.0744978375952422,1
137,812,24,0.0844327725817408,1
137,813,24,0.0799810277457897,1
138,811,24,0.0775035847607847,1
138,812,24,0.0929202783415088,1
138,813,24,0.0908343091076787,1
139,811,24,0.0780758538927982,1
139,812,24,0.0909293788229143,1
139,813,24,0.0931483450298473,1
139,814,24,0.0722243045343654,1
140,811,24,0.0881650435653137,1
140,812,24,0.090728481755815,1
140,813,24,0.0895496160889393,1
140,814,24,0.0726719264401912,1
141,811,24,0.0910462453308503,1
141,812,24,0.0855934353211593,1
141,813,24,0.0761667088187128,1
142,811,24,0.0764058685711022,1
144,805,24,0.10840472826162,1
144,806,24,0.0993440549035272,1
145,804,24,0.088535870560666,1
145,805,24,0.111711168142292,1
145,806,24,0.109144321769585,1
145,807,24,0.0835853631164773,1
145,808,24,0.0687645443726396,1
145,813,24,0.0694206404114525,1
145,814,24,0.0697860766089399,1
145,818,24,0.0691064647118851,1
146,805,24,0.0877468494260549,1
146,806,24,0.0925505834137081,1
146,807,24,0.0804357235763694,1
146,808,24,0.0725177017030513,1
146,809,24,0.0694882050780262,1
146,811,24,0.0682028831328691,1
146,812,24,0.0818636441046043,1
146,813,24,0.101023671784075,1
146,814,24,0.110270267770753,1
146,815,24,0.0992141606340843,1
146,816,24,0.0854327895447847,1
146,817,24,0.082042876154062,1
146,818,24,0.0796958844876126,1
146,819,24,0.0692512555527614,1
147,805,24,0.0709869247515537,1
147,806,24,0.0786553047655228,1
147,807,24,0.0773066888636562,1
147,808,24,0.0758725868872028,1
147,809,24,0.0744417313690192,1
147,810,24,0.0692434748345097,1
147,811,24,0.0729906962974946,1
147,812,24,0.0993254686304441,1
147,813,24,0.139277060942754,1
147,814,24,0.170892485160691,1
147,815,24,0.171930369483848,1
147,816,24,0.146445312679693,1
147,817,24,0.101045031323171,1
147,818,24,0.0705129658032701,1
148,807,24,0.0687255689040762,1
148,808,24,0.0708073512848979,1
148,809,24,0.0733580192742347,1
148,810,24,0.0701508479413573,1
148,811,24,0.0718759212274574,1
148,812,24,0.0957270451680817,1
148,813,24,0.142990530021329,1
148,814,24,0.20097602431868,1
148,815,24,0.233145442863868,1
148,816,24,0.209874422681487,1
148,817,24,0.126803545333687,1
149,812,24,0.0747137929577108,1
149,813,24,0.111104188261804,1
149,814,24,0.171283665412871,1
149,815,24,0.211414322060927,1
149,816,24,0.196014250106953,1
149,817,24,0.12063838930435,1
150,814,24,0.105890615871582,1
150,815,24,0.1306342702556,1
150,816,24,0.126850840600289,1
150,817,24,0.0913128921625753,1
151,815,24,0.0679101747883549,1
151,816,24,0.0689296465419158,1
130,816,25,0.07006875207965,1
130,817,25,0.0786348257234115,1
130,818,25,0.076286887672448,1
131,816,25,0.0710950701464994,1
131,817,25,0.0852359056272071,1
131,818,25,0.0862515738733855,1
131,819,25,0.0713129182779961,1
132,817,25,0.0764075696673173,1
132,818,25,0.0770417191690447,1
137,812,25,0.0768702199196354,1
137,813,25,0.0751999291193938,1
138,812,25,0.096085611093179,1
138,813,25,0.0950047920599154,1
138,814,25,0.0728396760901966,1
139,812,25,0.099831946069404,1
139,813,25,0.0995721096123149,1
139,814,25,0.0775440996016272,1
140,812,25,0.0914414507121028,1
140,813,25,0.0842103842004867,1
140,814,25,0.0683606478272737,1
141,812,25,0.0789070190871621,1
145,805,25,0.0927066530016729,1
145,806,25,0.0921453870870793,1
145,807,25,0.0801954197768775,1
145,808,25,0.0713462573679029,1
145,809,25,0.0684008871384476,1
145,812,25,0.0684614257984706,1
145,813,25,0.0736069902787383,1
145,814,25,0.076373661548747,1
145,815,25,0.0684712310608094,1
145,817,25,0.0745391550659891,1
145,818,25,0.0749543662970959,1
146,806,25,0.0839769985915882,1
146,807,25,0.0790043169988484,1
146,808,25,0.074611553481315,1
146,809,25,0.0723892270103795,1
146,811,25,0.0697135763674322,1
146,812,25,0.0887351863270582,1
146,813,25,0.112289888262417,1
146,814,25,0.119289000721456,1
146,815,25,0.099237718420754,1
146,816,25,0.0899724762632388,1
146,817,25,0.0953819143092188,1
146,818,25,0.0936559185977064,1
146,819,25,0.0722801651797968,1
147,806,25,0.0734234695500902,1
147,807,25,0.0750858897854491,1
147,808,25,0.0766207278046716,1
147,809,25,0.0764395131395547,1
147,810,25,0.0694204607181904,1
147,811,25,0.0761834023227678,1
147,812,25,0.114226742037528,1
147,813,25,0.161026151071911,1
147,814,25,0.176195640631876,1
147,815,25,0.14735614188695,1
147,816,25,0.118465310766799,1
147,817,25,0.0955601939843871,1
147,818,25,0.0790360388493958,1
148,807,25,0.0690620804761306,1
148,808,25,0.0716044885651833,1
148,809,25,0.0726369221927217,1
148,811,25,0.0745049234995469,1
148,812,25,0.111057036749812,1
148,813,25,0.158818116205093,1
148,814,25,0.184996645246591,1
148,815,25,0.176482443057841,1
148,816,25,0.150365045664131,1
148,817,25,0.104085632991798,1
148,818,25,0.0689658487444664,1
149,812,25,0.0813922128415418,1
149,813,25,0.109245369280675,1
149,814,25,0.135716606666687,1
149,815,25,0.147275531489543,1
149,816,25,0.137829523900066,1
149,817,25,0.10039354741142,1
150,814,25,0.0820478656369748,1
150,815,25,0.095848996995337,1
150,816,25,0.0982960119212823,1
130,816,26,0.0684616054917328,1
130,817,26,0.0735245769589345,1
130,818,26,0.0690627573207514,1
131,816,26,0.0692513274300663,1
131,817,26,0.0768267760786196,1
131,818,26,0.0752463618583369,1
132,817,26,0.0709065060269599,1
132,818,26,0.0685649051583754,1
133,825,26,0.0827553659283174,1
133,826,26,0.0704729481137862,1
134,824,26,0.0896744370186137,1
134,825,26,0.11928979137181,1
134,826,26,0.103014529374242,1
135,824,26,0.0771129375986157,1
135,825,26,0.103382852643475,1
135,826,26,0.0926990579664588,1
137,813,26,0.0682385582351841,1
138,813,26,0.0862114663372705,1
138,814,26,0.0709970354924381,1
139,813,26,0.0964768512431132,1
139,814,26,0.0768448472310179,1
140,813,26,0.0815443471470652,1
144,814,26,0.0688252028281707,1
145,808,26,0.0700962631180873,1
145,809,26,0.0704500312330849,1
145,810,26,0.070922534665945,1
145,812,26,0.0685750158992598,1
145,813,26,0.0745182806987011,1
145,814,26,0.0798485458933716,1
145,815,26,0.0733422002773889,1
145,816,26,0.0729773870165437,1
145,818,26,0.0738925827700708,1
146,807,26,0.0753560765744388,1
146,808,26,0.0747701148158484,1
146,809,26,0.0759337844225205,1
146,810,26,0.069746442265082,1
146,811,26,0.0696347928515241,1
146,812,26,0.0893998357651502,1
146,813,26,0.114825863332684,1
146,814,26,0.121214234332281,1
146,815,26,0.097713464334673,1
146,816,26,0.0907311591854212,1
146,817,26,0.100142659678787,1
146,818,26,0.0987939179916369,1
146,819,26,0.0725176717541743,1
147,807,26,0.071515744052776,1
147,808,26,0.0783589007295834,1
147,809,26,0.0813184068289956,1
147,810,26,0.071155854387314,1
147,811,26,0.0755523375553743,1
147,812,26,0.118718917857466,1
147,813,26,0.169925447901029,1
147,814,26,0.176735223559502,1
147,815,26,0.129504418920867,1
147,816,26,0.0990532752666936,1
147,818,26,0.0880396176683232,1
148,807,26,0.0679870655352348,1
148,808,26,0.0726849482119227,1
148,809,26,0.0738884917534689,1
148,811,26,0.0728029228283087,1
148,812,26,0.116204721610573,1
148,813,26,0.16438764896811,1
148,814,26,0.170961127986837,1
148,815,26,0.132742539423264,1
148,816,26,0.105692126694196,1
149,812,26,0.0830161487699206,1
149,813,26,0.105711509607408,1
149,814,26,0.111480370116368,1
149,815,26,0.102516539447032,1
149,816,26,0.098343265259456,1
133,824,27,0.0865959560103227,1
133,825,27,0.110801560849218,1
133,826,27,0.0926875635874557,1
134,824,27,0.120998662315438,1
134,825,27,0.163950419322613,1
134,826,27,0.13862065343562,1
134,827,27,0.0711195323892553,1
135,824,27,0.103296779570898,1
135,825,27,0.140986470966169,1
135,826,27,0.122411925863256,1
136,825,27,0.0715402602035105,1
139,814,27,0.0683720703289719,1
145,809,27,0.0693048041448862,1
145,810,27,0.0720758659202672,1
145,813,27,0.0715767019970774,1
145,814,27,0.0774799491070347,1
146,808,27,0.0716636915052909,1
146,809,27,0.078080771498406,1
146,810,27,0.0737417063173826,1
146,811,27,0.0707045188207368,1
146,812,27,0.0842562359312155,1
146,813,27,0.105771670911581,1
146,814,27,0.11107075333549,1
146,815,27,0.0915580476801456,1
147,808,27,0.0770668642461968,1
147,809,27,0.085929168222411,1
147,810,27,0.0763919663023861,1
147,811,27,0.0749591461378695,1
147,812,27,0.10870549884383,1
147,813,27,0.15442883274707,1
147,814,27,0.157081943865167,1
147,815,27,0.11067115145909,1
148,808,27,0.0699086633523882,1
148,809,27,0.0746676357484363,1
148,811,27,0.070581273201994,1
148,812,27,0.108078764684054,1
148,813,27,0.151994588022289,1
148,814,27,0.149951092285859,1
148,815,27,0.103817674399259,1
149,813,27,0.0979617105763525,1
149,814,27,0.0953507734668858,1
133,824,28,0.0968329673500697,1
133,825,28,0.123391385917108,1
133,826,28,0.101826768890889,1
134,823,28,0.0722376797028458,1
134,824,28,0.141156293078465,1
134,825,28,0.187592158684388,1
134,826,28,0.153443898038497,1
135,824,28,0.122006609741119,1
135,825,28,0.161701198760107,1
135,826,28,0.133474729568828,1
136,825,28,0.0801423863054375,1
136,826,28,0.0697116656290778,1
145,809,28,0.0678059886349522,1
145,810,28,0.0693946148373158,1
146,808,28,0.0686080734697226,1
146,809,28,0.0771593164295802,1
146,810,28,0.0754690197794843,1
146,811,28,0.070677013772075,1
146,813,28,0.0905704055930893,1
146,814,28,0.094925175965226,1
147,808,28,0.0723083051446516,1
147,809,28,0.0851330012857412,1
147,810,28,0.081004051436166,1
147,811,28,0.0748873526898596,1
147,812,28,0.0920581579878495,1
147,813,28,0.124386455325667,1
147,814,28,0.124868033268267,1
147,815,28,0.0920549534580076,1
148,809,28,0.0718954958134824,1
148,810,28,0.0692318726395493,1
148,812,28,0.0922109751277691,1
148,813,28,0.126126137673981,1
148,814,28,0.122520532470908,1
148,815,28,0.0856780109498845,1
149,813,28,0.0848893611813485,1
149,814,28,0.0809541086888353,1
133,824,29,0.0920886818833157,1
133,825,29,0.114278960899513,1
134,823,29,0.0733728439683633,1
134,824,29,0.136542968061176,1
134,825,29,0.174138152780099,1
134,826,29,0.139074929981921,1
135,824,29,0.119997064051687,1
135,825,29,0.150469339633491,1
135,826,29,0.119576689634181,1
136,825,29,0.0803287701467294,1
146,809,29,0.0697328634442378,1
146,810,29,0.0702138124604196,1
147,809,29,0.0768728374514876,1
147,810,29,0.0791003091394964,1
147,813,29,0.0942201913795536,1
147,814,29,0.093938025039753,1
148,813,29,0.0981214758557424,1
148,814,29,0.0955412004065764,1
133,825,30,0.0905902137803552,1
134,824,30,0.112746249250559,1
134,825,30,0.138107281765169,1
134,826,30,0.108965610830587,1
135,825,30,0.122440413235084,1
134,825,31,0.0931290220143893,1
