x,y,z,signal,cytoplasm.p
139,698,1,0.0723897840594922,1
139,699,1,0.0689982773885116,1
140,696,1,0.0691977129504119,1
140,697,1,0.0770982626488723,1
140,698,1,0.0868801828328628,1
140,699,1,0.0827235123027112,1
141,694,1,0.0722219026344278,1
141,695,1,0.0729105890412219,1
141,696,1,0.0752932078917831,1
141,697,1,0.0829761909781907,1
141,698,1,0.0950295238425646,1
141,699,1,0.0938088974615619,1
141,700,1,0.0755673239734388,1
142,692,1,0.0931062488882977,1
142,693,1,0.0855834084371306,1
142,694,1,0.0761247324726713,1
142,695,1,0.074952844894143,1
142,696,1,0.0771096671812443,1
142,697,1,0.0799431304367993,1
142,698,1,0.0861894718819817,1
142,699,1,0.0891826644782743,1
142,700,1,0.0812603838746429,1
143,691,1,0.121471890511122,1
143,692,1,0.132153852316864,1
143,693,1,0.110195383598634,1
143,694,1,0.082027069136767,1
143,695,1,0.0749873939186817,1
143,696,1,0.0769674399642415,1
143,697,1,0.0756391413805503,1
143,698,1,0.0733917776484199,1
143,699,1,0.076524771602676,1
143,700,1,0.0781718400436707,1
144,690,1,0.100391121552381,1
144,691,1,0.139117109980327,1
144,692,1,0.15323846072164,1
144,693,1,0.124046224103086,1
144,694,1,0.0843441598443923,1
144,695,1,0.0715091013918513,1
144,696,1,0.0708878898049997,1
145,690,1,0.0999137304627902,1
145,691,1,0.129796743919755,1
145,692,1,0.141794683341179,1
145,693,1,0.116725963845907,1
145,694,1,0.0791436092259025,1
146,689,1,0.0834283890724263,1
146,690,1,0.0943525115080357,1
146,691,1,0.108884832719469,1
146,692,1,0.112452151278151,1
146,693,1,0.0934000893003636,1
147,688,1,0.07659662494844,1
147,689,1,0.0821800899290504,1
147,690,1,0.0839254865231012,1
147,691,1,0.084538192628877,1
147,692,1,0.0794179050008204,1
148,688,1,0.0749420093904345,1
148,689,1,0.0763676178653629,1
148,690,1,0.0721176565832711,1
149,688,1,0.0682629665699614,1
149,689,1,0.0678093728580563,1
139,698,2,0.0688557147440861,1
140,697,2,0.0705658435405495,1
140,698,2,0.0769910456691145,1
140,699,2,0.0715846204801634,1
141,694,2,0.0700576230769467,1
141,695,2,0.0687500251570567,1
141,696,2,0.0698003981619344,1
141,697,2,0.0743443196516002,1
141,698,2,0.0828242423557049,1
141,699,2,0.0792048247305464,1
142,693,2,0.0865218205601293,1
142,694,2,0.0735685419104106,1
142,695,2,0.0678481147253789,1
142,696,2,0.0686962309841402,1
142,697,2,0.0699447337798799,1
142,698,2,0.0741996845448844,1
142,699,2,0.0728202811974337,1
143,691,2,0.14096343428996,1
143,692,2,0.164535428706914,1
143,693,2,0.129236927530809,1
143,694,2,0.0852726708686459,1
144,690,2,0.116563533116462,1
144,691,2,0.188930993283018,1
144,692,2,0.219889878218762,1
144,693,2,0.160086666779115,1
144,694,2,0.0912611345132967,1
145,690,2,0.118347875230199,1
145,691,2,0.18005149865139,1
145,692,2,0.201822367603921,1
145,693,2,0.143390515243355,1
145,694,2,0.0819004213255938,1
146,689,2,0.0845159346234703,1
146,690,2,0.104398359165717,1
146,691,2,0.132336684221341,1
146,692,2,0.138332856706938,1
146,693,2,0.100940689435608,1
147,688,2,0.0794380366359581,1
147,689,2,0.0863040263366112,1
147,690,2,0.0869625841731158,1
147,691,2,0.0858476294098164,1
147,692,2,0.0802266804147186,1
148,688,2,0.0785015592104154,1
148,689,2,0.0830230729502893,1
148,690,2,0.0773705458592539,1
149,688,2,0.0707773964180951,1
149,689,2,0.072315504854689,1
140,698,3,0.0688294136402807,1
141,697,3,0.0695692108006097,1
141,698,3,0.0722428189301437,1
142,693,3,0.082946769201399,1
142,694,3,0.0701728783352986,1
142,698,3,0.0684826775216092,1
143,691,3,0.14861934958131,1
143,692,3,0.172935885060714,1
143,693,3,0.129434110937157,1
143,694,3,0.0811119632298709,1
144,690,3,0.143303411929409,1
144,691,3,0.267777461730606,1
144,692,3,0.296596163975325,2
144,693,3,0.188576530354073,1
144,694,3,0.0900368543692968,1
145,690,3,0.163965489597533,1
145,691,3,0.294871036781246,2
145,692,3,0.306750582302006,2
145,693,3,0.178655030433809,1
145,694,3,0.0800041542686302,1
146,689,3,0.08881151403505,1
146,690,3,0.131793052205541,1
146,691,3,0.196726218770749,1
146,692,3,0.192619293325339,1
146,693,3,0.114592082398609,1
147,688,3,0.0832170398472444,1
147,689,3,0.0950020966609829,1
147,690,3,0.0948639664503575,1
147,691,3,0.0935170336753799,1
147,692,3,0.082644135799038,1
148,688,3,0.0828520049647092,1
148,689,3,0.0946751926886789,1
148,690,3,0.0865029168289496,1
148,691,3,0.0698132162813021,1
149,688,3,0.0720262825594607,1
149,689,3,0.0784419669349064,1
149,690,3,0.0720975189583579,1
142,693,4,0.0793907293898058,1
143,691,4,0.151398725164954,1
143,692,4,0.181643521056409,2
143,693,4,0.133839446993267,1
143,694,4,0.0784482442195313,1
144,690,4,0.151830276503367,1
144,691,4,0.329370298265898,2
144,692,4,0.372407529368108,2
144,693,4,0.228403122043447,2
144,694,4,0.0936810936237355,1
145,690,4,0.19325659344893,2
145,691,4,0.400221219177095,2
145,692,4,0.422279070248853,2
145,693,4,0.234964202227085,2
145,694,4,0.0854600310433288,1
146,689,4,0.0903339292600816,1
146,690,4,0.141458537145424,1
146,691,4,0.243772047165312,2
146,692,4,0.238943305865341,2
146,693,4,0.132303045642664,1
147,688,4,0.0862264647348858,1
147,689,4,0.101176219384102,1
147,690,4,0.0975282544893606,1
147,691,4,0.0977999207528755,1
147,692,4,0.0806876535299232,1
148,687,4,0.0678116789215874,1
148,688,4,0.0854872905111991,1
148,689,4,0.10259894677706,1
148,690,4,0.0906664875803684,1
148,691,4,0.0682943410135352,1
149,688,4,0.0722586618860911,1
149,689,4,0.0828085731032442,1
149,690,4,0.0745272414027077,1
142,692,5,0.0788112066397763,1
142,693,5,0.0742904895400313,1
143,691,5,0.137667177027477,1
143,692,5,0.173724918174876,2
143,693,5,0.126295612379304,1
143,694,5,0.0759455842800692,1
144,690,5,0.139549835314719,1
144,691,5,0.315679899885456,2
144,692,5,0.379559776425164,2
144,693,5,0.232484746677543,2
144,694,5,0.0972732278219222,1
145,689,5,0.0795326271691612,1
145,690,5,0.188232309941072,2
145,691,5,0.401415460597436,2
145,692,5,0.449938607198004,2
145,693,5,0.253413573003574,2
145,694,5,0.0952283664166998,1
146,688,5,0.0764752181907467,1
146,689,5,0.0892497978810187,1
146,690,5,0.133325392488419,1
146,691,5,0.231445664399305,2
146,692,5,0.238839227527896,2
146,693,5,0.133434238687087,1
146,694,5,0.0681056451189368,1
147,688,5,0.0851636389869402,1
147,689,5,0.0997497903099426,1
147,690,5,0.0975228337426187,1
147,691,5,0.0963921977473078,1
147,692,5,0.0787423062532872,1
148,688,5,0.0818385768945324,1
148,689,5,0.097880513180956,1
148,690,5,0.08798476330516,1
149,688,5,0.0680476940418889,1
149,689,5,0.0776304002856692,1
149,690,5,0.0703682288703724,1
136,709,6,0.0686932061475605,1
137,708,6,0.0732608591273827,1
137,709,6,0.0725788453303903,1
142,692,6,0.0747052934664105,1
142,693,6,0.0723045255963708,1
143,691,6,0.120323375036226,1
143,692,6,0.16422824906502,2
143,693,6,0.126091480833485,1
143,694,6,0.076211488379644,1
144,690,6,0.114826222719209,1
144,691,6,0.257148868823727,2
144,692,6,0.345353055571315,2
144,693,6,0.233388795459041,2
144,694,6,0.105091699628001,1
145,689,6,0.0754028746896817,1
145,690,6,0.151464097573729,1
145,691,6,0.317734632440547,2
145,692,6,0.398409623585263,2
145,693,6,0.253244206114209,2
145,694,6,0.107047744643512,1
146,688,6,0.0733292324136361,1
146,689,6,0.0842113126156745,1
146,690,6,0.114362206798098,1
146,691,6,0.183609557017295,1
146,692,6,0.208899287245478,2
146,693,6,0.132492322545476,1
146,694,6,0.0719654024822396,1
147,688,6,0.078044533357203,1
147,689,6,0.0893816448172438,1
147,690,6,0.091422588909351,1
147,691,6,0.0897748016953077,1
147,692,6,0.0768243023013771,1
148,688,6,0.073239236038169,1
148,689,6,0.0837585874212033,1
148,690,6,0.0795134958265162,1
149,689,6,0.068061787983418,1
136,709,7,0.0702562560089427,1
137,708,7,0.074928544375323,1
137,709,7,0.0758067352963952,1
142,692,7,0.0755269049690027,1
142,693,7,0.075713797941204,1
143,691,7,0.110004896761189,1
143,692,7,0.154910782055745,1
143,693,7,0.135601339428784,1
143,694,7,0.0874670011293362,1
144,690,7,0.0979777871335407,1
144,691,7,0.199034438620998,1
144,692,7,0.293834422290475,2
144,693,7,0.239007947521517,1
144,694,7,0.124693814660823,1
145,689,7,0.07501255696516,1
145,690,7,0.11815554354193,1
145,691,7,0.226731878868916,1
145,692,7,0.318500964305922,2
145,693,7,0.250429874201299,1
145,694,7,0.126841808018977,1
146,688,7,0.0691860388781467,1
146,689,7,0.0819351620229455,1
146,690,7,0.103210898171135,1
146,691,7,0.144833763606853,1
146,692,7,0.177230290476315,1
146,693,7,0.13910017089548,1
146,694,7,0.0818187447481649,1
147,688,7,0.0711281816249408,1
147,689,7,0.0831911101095142,1
147,690,7,0.0913823615777279,1
147,691,7,0.0900197296014126,1
147,692,7,0.0792383015852875,1
148,689,7,0.0750481542003947,1
148,690,7,0.0764653769897555,1
137,708,8,0.075004033514758,1
137,709,8,0.0738062760962535,1
142,692,8,0.0734068658926663,1
142,693,8,0.0778825458711376,1
142,694,8,0.0708732507939088,1
143,691,8,0.0926441796441939,1
143,692,8,0.141285708165875,1
143,693,8,0.144980872490811,1
143,694,8,0.10160297890219,1
144,690,8,0.0789564527035834,1
144,691,8,0.145735093030317,1
144,692,8,0.246210388896471,1
144,693,8,0.248082097874272,1
144,694,8,0.149815363975171,1
144,695,8,0.0721748888872703,1
145,689,8,0.0708655778916144,1
145,690,8,0.0907596046288218,1
145,691,8,0.15630805290323,1
145,692,8,0.254133064825279,1
145,693,8,0.253423012889613,1
145,694,8,0.150190851015789,1
145,695,8,0.0677948117140456,1
146,689,8,0.0773280783516291,1
146,690,8,0.0912446326820547,1
146,691,8,0.113500002587583,1
146,692,8,0.148612018096214,1
146,693,8,0.142862983743845,1
146,694,8,0.0895897595637067,1
147,689,8,0.0781620228017812,1
147,690,8,0.0884569432901482,1
147,691,8,0.0857582080527882,1
147,692,8,0.0754841200032814,1
148,689,8,0.0707371451273704,1
148,690,8,0.0741689989254822,1
137,708,9,0.0704271383114852,1
142,692,9,0.0697101442261249,1
142,693,9,0.0768173960903346,1
142,694,9,0.0731788291532049,1
143,691,9,0.0778405275966683,1
143,692,9,0.121099602010571,1
143,693,9,0.140541454612645,1
143,694,9,0.109203021568558,1
143,695,9,0.0729801423132302,1
144,691,9,0.109472956786981,1
144,692,9,0.201337411427993,1
144,693,9,0.236059923821557,1
144,694,9,0.160742762817928,1
144,695,9,0.07897494314026,1
145,690,9,0.0717098487145654,1
145,691,9,0.116452686332808,1
145,692,9,0.209541990146484,1
145,693,9,0.243149949091701,1
145,694,9,0.160527634044465,1
145,695,9,0.0719442346159567,1
146,690,9,0.0762940634233838,1
146,691,9,0.091687402869802,1
146,692,9,0.127281301799578,1
146,693,9,0.137574359467794,1
146,694,9,0.0916371246950486,1
147,689,9,0.0715787025820628,1
147,690,9,0.0795315130709358,1
147,691,9,0.0770579454706181,1
147,692,9,0.0699379773132225,1
148,689,9,0.0709387489879676,1
148,690,9,0.0723457412409358,1
149,688,9,0.0689724674462894,1
149,689,9,0.0718008753314023,1
142,693,10,0.0728604486313028,1
142,694,10,0.0752597010881649,1
142,695,10,0.0702367712695487,1
143,692,10,0.097800046538159,1
143,693,10,0.124758923519481,1
143,694,10,0.11163270208448,1
143,695,10,0.0806378784963038,1
144,691,10,0.0848971538791511,1
144,692,10,0.157632751631902,1
144,693,10,0.204842244649645,1
144,694,10,0.157602155859131,1
144,695,10,0.0843502095175519,1
145,691,10,0.0925385799037956,1
145,692,10,0.171226439098647,1
145,693,10,0.215114326124391,1
145,694,10,0.154184821276602,1
145,695,10,0.0721787822412839,1
146,691,10,0.0772151890545623,1
146,692,10,0.111510654420818,1
146,693,10,0.126143651777267,1
146,694,10,0.0874352553196873,1
147,690,10,0.0713352960789109,1
147,691,10,0.0699289567114619,1
147,692,10,0.0680402068226321,1
148,688,10,0.0680464661379308,1
148,689,10,0.0743420195778445,1
148,690,10,0.0735418514712038,1
149,688,10,0.0760474344210638,1
149,689,10,0.0811457695222594,1
149,690,10,0.0743460686660186,1
150,688,10,0.0701058108200836,1
150,689,10,0.0736535547927404,1
137,715,11,0.0698448542749937,1
137,716,11,0.0756220884899709,1
137,717,11,0.0772626160962228,1
137,718,11,0.0721233947881095,1
138,717,11,0.0735993712844225,1
138,718,11,0.0715777921362012,1
142,693,11,0.0727874093100085,1
142,694,11,0.0786288479275569,1
142,695,11,0.0731535463112184,1
143,692,11,0.0850461315730358,1
143,693,11,0.108345776892079,1
143,694,11,0.110758985525636,1
143,695,11,0.0852047408257725,1
144,691,11,0.0756405130391181,1
144,692,11,0.122290788645456,1
144,693,11,0.161014255377956,1
144,694,11,0.142329546325786,1
144,695,11,0.0867207529808956,1
145,691,11,0.0831757103969467,1
145,692,11,0.137008337671528,1
145,693,11,0.170209986191891,1
145,694,11,0.13379059438506,1
145,695,11,0.0710306740711152,1
146,691,11,0.0752225285419986,1
146,692,11,0.103216504600914,1
146,693,11,0.1127483336924,1
146,694,11,0.0816172546933005,1
147,691,11,0.0699930113696479,1
147,692,11,0.0735672301495968,1
148,689,11,0.0738919718129795,1
148,690,11,0.0743975447958531,1
149,688,11,0.0733343177329553,1
149,689,11,0.0800218001469747,1
149,690,11,0.076406545415723,1
150,688,11,0.0688558884475729,1
150,689,11,0.0732174512250193,1
150,690,11,0.0684510874461208,1
136,716,12,0.0710942914756967,1
136,717,12,0.0710055529530647,1
136,718,12,0.0687598124500692,1
137,715,12,0.0807378358682702,1
137,716,12,0.0947217092844777,1
137,717,12,0.100301460604337,1
137,718,12,0.0950882895290676,1
137,719,12,0.0772470307006178,1
138,715,12,0.070880905726877,1
138,716,12,0.089255578014285,1
138,717,12,0.102108563864615,1
138,718,12,0.0987970925726018,1
138,719,12,0.0791082336123578,1
139,717,12,0.0761715485572404,1
139,718,12,0.0757664720261196,1
142,693,12,0.0703888756261951,1
142,694,12,0.0758902627144244,1
142,695,12,0.0703201549329682,1
143,692,12,0.0745232761713892,1
143,693,12,0.0905772279472762,1
143,694,12,0.0996075091849612,1
143,695,12,0.080386038389381,1
144,691,12,0.0681191221135991,1
144,692,12,0.0923159219826482,1
144,693,12,0.116603748468534,1
144,694,12,0.116030550921333,1
144,695,12,0.0794118074094576,1
145,691,12,0.0745082298555707,1
145,692,12,0.103977924850457,1
145,693,12,0.121795026914696,1
145,694,12,0.104299743503442,1
146,691,12,0.0717837625430689,1
146,692,12,0.0914619896519682,1
146,693,12,0.0950317999572186,1
146,694,12,0.0712975425245303,1
147,691,12,0.0678345598636363,1
147,692,12,0.0736991130244743,1
147,693,12,0.0677505412840238,1
148,689,12,0.0698700592499,1
148,690,12,0.0714096351814682,1
149,689,12,0.0740345464369557,1
149,690,12,0.0735084464937676,1
150,689,12,0.0682094179778365,1
136,715,13,0.068324194054156,1
136,716,13,0.0729623227313989,1
136,717,13,0.0747383630164241,1
136,718,13,0.0738920496800597,1
137,702,13,0.0726402165691947,1
137,703,13,0.0707926643556037,1
137,704,13,0.067981602860065,1
137,705,13,0.068658926662915,1
137,706,13,0.0700226128397017,1
137,707,13,0.067816961903495,1
137,714,13,0.0683513397162936,1
137,715,13,0.086938936539815,1
137,716,13,0.105877318570182,1
137,717,13,0.118223096228952,1
137,718,13,0.114171300676375,1
137,719,13,0.0899100568137385,1
138,701,13,0.0834860885789071,1
138,702,13,0.0976510868136005,1
138,703,13,0.0886692508793949,1
138,704,13,0.0745877081854258,1
138,705,13,0.076906140602742,1
138,706,13,0.0792801221971685,1
138,707,13,0.0727010307588863,1
138,715,13,0.0787095361920439,1
138,716,13,0.106611724932646,1
138,717,13,0.128409499956299,1
138,718,13,0.124627543785737,1
138,719,13,0.0947685193792714,1
138,720,13,0.0686960992090813,1
139,701,13,0.0940389287962334,1
139,702,13,0.113687806005646,1
139,703,13,0.0982199118247559,1
139,704,13,0.0744208629915066,1
139,705,13,0.0751179470634192,1
139,706,13,0.0764499712874126,1
139,716,13,0.0782695692191863,1
139,717,13,0.0978019992049412,1
139,718,13,0.0956922086343235,1
139,719,13,0.0768513581168836,1
140,701,13,0.0784629191692747,1
140,702,13,0.0914060271803549,1
140,703,13,0.0780894686522948,1
142,693,13,0.0708122988393828,1
142,694,13,0.0722823214989427,1
143,692,13,0.071229318982662,1
143,693,13,0.0801921134208537,1
143,694,13,0.0865549619874477,1
143,695,13,0.0735768018106947,1
144,692,13,0.0768348083674383,1
144,693,13,0.0885807699171053,1
144,694,13,0.0924840849271567,1
144,695,13,0.0720309366149508,1
145,691,13,0.0713944271417137,1
145,692,13,0.08361598284835,1
145,693,13,0.0904347311903802,1
145,694,13,0.0831788550290346,1
146,691,13,0.070869782713949,1
146,692,13,0.0827125090852913,1
146,693,13,0.0829732020802634,1
147,692,13,0.0727673795010527,1
147,693,13,0.067769157505984,1
148,690,13,0.0685500924437977,1
149,689,13,0.0686733141034389,1
149,690,13,0.0705915037383865,1
136,715,14,0.0682460214953393,1
136,716,14,0.070978005975975,1
136,717,14,0.0756488627860333,1
136,718,14,0.0761788560832351,1
137,702,14,0.0848575794330472,1
137,703,14,0.0789353746839315,1
137,704,14,0.0743159281161783,1
137,705,14,0.0825583682050071,1
137,706,14,0.0832953861095479,1
137,707,14,0.0719438273112291,1
137,710,14,0.070250026642521,1
137,715,14,0.0877554747026388,1
137,716,14,0.10583991841255,1
137,717,14,0.125554533407038,1
137,718,14,0.123416710687523,1
137,719,14,0.0993264030354073,1
137,720,14,0.070275848564294,1
138,701,14,0.116620567757873,1
138,702,14,0.174359259349416,1
138,703,14,0.143645488002815,1
138,704,14,0.107177854544869,1
138,705,14,0.127442858021814,1
138,706,14,0.125077519673298,1
138,707,14,0.0842174281763635,1
138,715,14,0.0840028145235857,1
138,716,14,0.115260457477003,1
138,717,14,0.145904975040366,1
138,718,14,0.141681512524668,1
138,719,14,0.108586721597539,1
138,720,14,0.0732153907422798,1
139,701,14,0.149420134634817,1
139,702,14,0.231229289752558,1
139,703,14,0.185211103165208,1
139,704,14,0.121777716463775,1
139,705,14,0.136882037267328,1
139,706,14,0.13090299553939,1
139,707,14,0.0802430504709018,1
139,716,14,0.0884922110877355,1
139,717,14,0.11320169979284,1
139,718,14,0.11006975404928,1
139,719,14,0.0875391060456672,1
140,701,14,0.107593616835313,1
140,702,14,0.161452371510213,1
140,703,14,0.127712637506076,1
140,704,14,0.0836116522407319,1
140,705,14,0.0904956831449062,1
140,706,14,0.0845647752521264,1
141,694,14,0.0690477169947083,1
142,693,14,0.0741323355102254,1
142,694,14,0.0715795651097212,1
143,692,14,0.0735502131976699,1
143,693,14,0.0770666126756298,1
143,694,14,0.078328610435358,1
143,695,14,0.0688999791843325,1
144,692,14,0.0729381420080871,1
144,693,14,0.0769007857435295,1
144,694,14,0.0785285371588416,1
145,691,14,0.0709807133544582,1
145,692,14,0.0745690799839148,1
145,693,14,0.0757793200943644,1
145,694,14,0.0718799403667544,1
146,691,14,0.0695109602347915,1
146,692,14,0.0749207995957237,1
146,693,14,0.0737287085047527,1
147,692,14,0.0689714491844705,1
149,690,14,0.0685459654885433,1
168,727,14,0.0735731180988204,1
136,716,15,0.0684725607909494,1
136,717,15,0.0728469656468651,1
137,702,15,0.101664422018299,1
137,703,15,0.0913304721533904,1
137,704,15,0.0866263720898317,1
137,705,15,0.102583193667744,1
137,706,15,0.101732645560168,1
137,707,15,0.0792680827486035,1
137,708,15,0.0678977280350623,1
137,709,15,0.0707642788099572,1
137,710,15,0.0733293042909409,1
137,715,15,0.0826619194422168,1
137,716,15,0.0996876583696617,1
137,717,15,0.118564106122336,1
137,718,15,0.117423233600857,1
137,719,15,0.0974837264989964,1
138,701,15,0.135664723232125,1
138,702,15,0.234758872726185,1
138,703,15,0.189368222928515,1
138,704,15,0.141610114401835,1
138,705,15,0.185188737343844,1
138,706,15,0.178177046356453,1
138,707,15,0.10125139106544,1
138,715,15,0.0854971377019656,1
138,716,15,0.117049531513311,1
138,717,15,0.146537639077793,1
138,718,15,0.142647998724992,1
138,719,15,0.111878474548917,1
138,720,15,0.0764625677850903,1
139,700,15,0.0707067470171877,1
139,701,15,0.186264680699928,1
139,702,15,0.328636982042557,1
139,703,15,0.261958299087791,1
139,704,15,0.173762006864187,1
139,705,15,0.207790963163552,1
139,706,15,0.19646639429321,1
139,707,15,0.10303252265956,1
139,716,15,0.0909195436116985,1
139,717,15,0.114313270333035,1
139,718,15,0.1130637193266,1
139,719,15,0.0925258276719573,1
139,720,15,0.0684101533209998,1
140,701,15,0.120841670302061,1
140,702,15,0.208542512263227,1
140,703,15,0.162148491228285,1
140,704,15,0.103291580445846,1
140,705,15,0.119474839493186,1
140,706,15,0.109926203091912,1
140,723,15,0.0694598375017059,1
141,694,15,0.0716066269150031,1
141,702,15,0.0706809490545163,1
141,723,15,0.0758297540032784,1
141,724,15,0.0705213934172656,1
142,693,15,0.0751827264844293,1
142,694,15,0.0696688087860517,1
142,724,15,0.0681488074405086,1
143,693,15,0.0732948151641563,1
143,694,15,0.0699947244454139,1
144,692,15,0.0702102066156255,1
144,693,15,0.0690106402849485,1
144,725,15,0.0684597546511325,1
145,691,15,0.0687807527048867,1
145,692,15,0.0681870940849003,1
168,727,15,0.085161051403965,1
168,728,15,0.072178297069476,1
169,727,15,0.0752897817402511,1
137,702,16,0.10972821705566,1
137,703,16,0.0982329276067119,1
137,704,16,0.0939122450464078,1
137,705,16,0.117236472403715,1
137,706,16,0.115213593474231,1
137,707,16,0.0833575420089304,1
137,708,16,0.0698641173926977,1
137,709,16,0.073497329470615,1
137,710,16,0.0753688288062771,1
137,711,16,0.0716676986650372,1
137,715,16,0.0751973355466432,1
137,716,16,0.0910211182230243,1
137,717,16,0.102679844683686,1
137,718,16,0.103712829370562,1
137,719,16,0.0897831155035705,1
138,700,16,0.0711782321882288,1
138,701,16,0.13529164408122,1
138,702,16,0.245930570548629,1
138,703,16,0.206688149675,1
138,704,16,0.159827057933491,1
138,705,16,0.221098135713552,1
138,706,16,0.212920079720556,1
138,707,16,0.112736917180478,1
138,710,16,0.0707630449162236,1
138,715,16,0.0825553134195503,1
138,716,16,0.110379305642234,1
138,717,16,0.129766459615305,1
138,718,16,0.130021384456562,1
138,719,16,0.10709026006934,1
138,720,16,0.078315109481594,1
139,698,16,0.0694264145549434,1
139,700,16,0.0735841512651172,1
139,701,16,0.187271274436367,1
139,702,16,0.350946020335719,1
139,703,16,0.294335694614607,1
139,704,16,0.203651261667124,1
139,705,16,0.251210749241359,1
139,706,16,0.239461972497251,1
139,707,16,0.119545974065902,1
139,716,16,0.086205608336924,1
139,717,16,0.101785487358795,1
139,718,16,0.105205661094866,1
139,719,16,0.0908666598846436,1
139,720,16,0.0693232646326859,1
140,701,16,0.115389920482617,1
140,702,16,0.211402126878202,1
140,703,16,0.174026695039354,1
140,704,16,0.112049973798326,1
140,705,16,0.133855319898091,1
140,706,16,0.124576091615004,1
140,707,16,0.0689484005287103,1
140,722,16,0.0695367282485858,1
140,723,16,0.0787782868341478,1
141,702,16,0.0734957841085604,1
141,722,16,0.0770759147968345,1
141,723,16,0.0953398541063217,1
141,724,16,0.08658719895868,1
142,694,16,0.0700105494320351,1
142,723,16,0.0872192340696892,1
142,724,16,0.0867332177035144,1
142,725,16,0.0724765100175879,1
143,724,16,0.0739745169078422,1
143,725,16,0.0771104278827208,1
144,725,16,0.0812800842459515,1
144,726,16,0.0769037986005585,1
145,725,16,0.0696764996576723,1
145,726,16,0.071793483948552,1
168,727,16,0.079535903576308,1
136,708,17,0.0785293577580721,1
136,709,17,0.0806019877620742,1
137,702,17,0.117624849441005,1
137,703,17,0.110877882567434,1
137,704,17,0.106023624824236,1
137,705,17,0.127983579006767,1
137,706,17,0.125348137726116,1
137,707,17,0.0918071863983605,1
137,708,17,0.0780100142815413,1
137,709,17,0.0782671014317192,1
137,710,17,0.0761578619204389,1
137,711,17,0.0739938339335248,1
137,712,17,0.0715086401791451,1
137,716,17,0.0769362871423577,1
137,717,17,0.082876730757583,1
137,718,17,0.083532473399647,1
137,719,17,0.0785375637503776,1
138,700,17,0.0809900653105943,1
138,701,17,0.13188270716381,1
138,702,17,0.220489239104934,1
138,703,17,0.20631426789419,1
138,704,17,0.168961070101648,1
138,705,17,0.220696101988337,1
138,706,17,0.216298097417324,1
138,707,17,0.122852485823879,1
138,708,17,0.0751870630818228,1
138,709,17,0.0749055675968676,1
138,710,17,0.0743813843818092,1
138,711,17,0.0708546046230716,1
138,712,17,0.0685622217389938,1
138,715,17,0.0733929696137256,1
138,716,17,0.091145232359201,1
138,717,17,0.101688992077013,1
138,718,17,0.104364828402997,1
138,719,17,0.095857742067429,1
138,720,17,0.0761058586903687,1
139,699,17,0.0724791155698893,1
139,700,17,0.080531518054429,1
139,701,17,0.166158837535057,1
139,702,17,0.302276148196819,1
139,703,17,0.284705836858835,1
139,704,17,0.210189532786018,1
139,705,17,0.247278174178452,1
139,706,17,0.243807075371884,1
139,707,17,0.133905622031947,1
139,708,17,0.0735581616296329,1
139,709,17,0.0747834959741042,1
139,710,17,0.0730308158131604,1
139,716,17,0.0743735138169264,1
139,717,17,0.0828403488617702,1
139,718,17,0.0880102078710824,1
139,719,17,0.0839959262818694,1
139,720,17,0.068465169408099,1
140,700,17,0.0693833600493289,1
140,701,17,0.111982109642983,1
140,702,17,0.19453176871455,1
140,703,17,0.184278363359518,1
140,704,17,0.12757620240189,1
140,705,17,0.141939072867103,1
140,706,17,0.141188254520028,1
140,707,17,0.0865005269085629,1
140,722,17,0.0733686331562532,1
140,723,17,0.083788733960819,1
141,701,17,0.0692108365483253,1
141,702,17,0.0847399941520625,1
141,703,17,0.0807722351484238,1
141,722,17,0.0806162494173146,1
141,723,17,0.101655077968667,1
141,724,17,0.10067791798857,1
142,694,17,0.0721398786500254,1
142,723,17,0.095575851257297,1
142,724,17,0.108591968640794,1
142,725,17,0.0977044077942599,1
143,693,17,0.0749499937610499,1
143,694,17,0.0685798256889104,1
143,723,17,0.0720598911892608,1
143,724,17,0.0990582887087079,1
143,725,17,0.102937009700944,1
144,693,17,0.0682533110520077,1
144,724,17,0.0756292223124788,1
144,725,17,0.0929256391904967,1
144,726,17,0.0789162014128586,1
145,725,17,0.0708369168162992,1
145,726,17,0.069841224471098,1
136,708,18,0.0814028686519881,1
136,709,18,0.0835196373109531,1
137,702,18,0.115863100760098,1
137,703,18,0.112499398626549,1
137,704,18,0.107195164995791,1
137,705,18,0.122871054127636,1
137,706,18,0.120905964551263,1
137,707,18,0.0934946738437913,1
137,708,18,0.0833645021279516,1
137,709,18,0.0826038006514576,1
137,710,18,0.077191325789347,1
137,711,18,0.074773654773113,1
137,712,18,0.0758146777385828,1
137,718,18,0.0708989529201736,1
138,701,18,0.118787333072147,1
138,702,18,0.173873572420889,1
138,703,18,0.178807769706649,1
138,704,18,0.156133343134203,1
138,705,18,0.187551344354776,1
138,706,18,0.187076271308267,1
138,707,18,0.118960245908552,1
138,708,18,0.0829459006839653,1
138,709,18,0.0821843786082407,1
138,710,18,0.077685721851314,1
138,711,18,0.0745047438062847,1
138,712,18,0.0759436615621641,1
138,713,18,0.0681775104442516,1
138,716,18,0.0748204768474576,1
138,717,18,0.080032647630234,1
138,718,18,0.0844533714193602,1
138,719,18,0.0865632458468335,1
138,720,18,0.0735614200674535,1
139,699,18,0.0780032697944347,1
139,700,18,0.0837571378955552,1
139,701,18,0.132798543823305,1
139,702,18,0.22123386402424,1
139,703,18,0.235027645928179,1
139,704,18,0.187124249409264,1
139,705,18,0.20639196726075,1
139,706,18,0.21154583356973,1
139,707,18,0.131789530217602,1
139,708,18,0.0842170927489408,1
139,709,18,0.0853391693551973,1
139,710,18,0.0798650716837153,1
139,711,18,0.0679351641313465,1
139,717,18,0.0700367906380865,1
139,718,18,0.0743769818968862,1
139,719,18,0.0774713717486541,1
140,697,18,0.0738967336844268,1
140,698,18,0.0717976228833571,1
140,699,18,0.0722416868625921,1
140,700,18,0.0738471982418236,1
140,701,18,0.102793818130101,1
140,702,18,0.164486228691733,1
140,703,18,0.17647312296731,1
140,704,18,0.131562098445457,1
140,705,18,0.135413452153866,1
140,706,18,0.144472711924962,1
140,707,18,0.0986798906372431,1
140,708,18,0.06933108128959,1
140,709,18,0.0704124453924156,1
140,722,18,0.0800941566338727,1
140,724,18,0.117822044826904,1
141,696,18,0.0730465090247227,1
141,697,18,0.0696164641387834,1
141,701,18,0.0725128439951974,1
141,702,18,0.0895603857051183,1
141,703,18,0.0922722325608408,1
141,704,18,0.0731604585120363,1
141,705,18,0.0692311478767252,1
141,706,18,0.0733846617952382,1
141,722,18,0.0893987576055772,1
141,723,18,0.144040058467875,1
141,724,18,0.174655789170639,1
141,725,18,0.14331760769712,1
142,695,18,0.0728393167036723,1
142,696,18,0.0701481824913019,1
142,722,18,0.0748027950304606,1
142,723,18,0.137212097851271,1
142,724,18,0.183754425725252,1
142,725,18,0.158727419025903,1
143,694,18,0.0739976494204581,1
143,695,18,0.069981313338281,1
143,696,18,0.0693717638441439,1
143,723,18,0.0971799310802066,1
143,724,18,0.141732689165733,1
143,725,18,0.13494596216302,1
144,693,18,0.0737519548231013,1
144,694,18,0.0684809045480892,1
144,696,18,0.0698318504725885,1
144,697,18,0.0679219027685988,1
144,724,18,0.0857869829338361,1
144,725,18,0.0943793936200554,1
144,726,18,0.0719703380571737,1
145,695,18,0.0679979429673711,1
145,696,18,0.0714573018141448,1
150,692,18,0.0685870852967018,1
151,691,18,0.0682884710336378,1
151,692,18,0.0693514405361932,1
152,691,18,0.0678983509717045,1
136,708,19,0.0818287596526429,1
136,709,19,0.0828062850090393,1
137,702,19,0.104607126797699,1
137,703,19,0.10218338813898,1
137,704,19,0.0997358041843708,1
137,705,19,0.108112451180935,1
137,706,19,0.107642277770707,1
137,707,19,0.091079656298062,1
137,708,19,0.0870294899643949,1
137,709,19,0.0869204520929138,1
137,710,19,0.0808997874156831,1
137,711,19,0.076287049396384,1
137,712,19,0.0758209430436569,1
137,713,19,0.0681826496715495,1
138,701,19,0.10064024230127,1
138,702,19,0.127593824321133,1
138,703,19,0.136010429109427,1
138,704,19,0.12771771683562,1
138,705,19,0.140514967825802,1
138,706,19,0.142546603806929,1
138,707,19,0.106292493862637,1
138,708,19,0.0888404027218306,1
138,709,19,0.0892209271635644,1
138,710,19,0.0832849459310162,1
138,711,19,0.0784533235490751,1
138,712,19,0.0792090714813088,1
138,713,19,0.0718479010581106,1
138,718,19,0.0678994291312775,1
139,699,19,0.0798427238316775,1
139,700,19,0.083936429842767,1
139,701,19,0.104388128629325,1
139,702,19,0.150349292554815,1
139,703,19,0.170025333395691,1
139,704,19,0.146742417519355,1
139,705,19,0.151804855896546,1
139,706,19,0.160854400251935,1
139,707,19,0.116291130110572,1
139,708,19,0.0882553753682035,1
139,709,19,0.088325892994052,1
139,710,19,0.0814398315560152,1
139,711,19,0.0709096027408446,1
139,719,19,0.0679308814419316,1
140,698,19,0.0762919789815427,1
140,699,19,0.0750604452195267,1
140,700,19,0.0770949922315009,1
140,701,19,0.0927547568879542,1
140,702,19,0.132684342765425,1
140,703,19,0.149636042079083,1
140,704,19,0.119784978084131,1
140,705,19,0.116789551301612,1
140,706,19,0.129890939127781,1
140,707,19,0.099325318886059,1
140,708,19,0.0740376311712896,1
140,709,19,0.0715145221385932,1
140,722,19,0.0819904057215101,1
140,724,19,0.166158430230329,1
140,725,19,0.134041697749608,1
141,697,19,0.077435295331387,1
141,698,19,0.075136425520545,1
141,699,19,0.0711456118713707,1
141,700,19,0.0682126584463308,1
141,701,19,0.0724903523885499,1
141,702,19,0.0877981877910552,1
141,703,19,0.0930816309113812,1
141,704,19,0.0750592891928735,1
141,705,19,0.0694974293321506,1
141,706,19,0.0757230401646546,1
141,722,19,0.0944204834793369,1
141,723,19,0.195174531513311,1
141,724,19,0.27259295364738,3
141,725,19,0.214094027781824,1
141,726,19,0.1045835031235,1
142,696,19,0.0783489457228595,1
142,697,19,0.0871619119190589,1
142,698,19,0.0896575099133179,1
142,699,19,0.076226187288489,1
142,722,19,0.0833318219133393,1
142,723,19,0.185495294049096,1
142,724,19,0.271837523173243,1
142,725,19,0.218074233538755,1
142,726,19,0.10522137826553,1
143,695,19,0.076523543698718,1
143,696,19,0.0797011974183972,1
143,697,19,0.100236699152653,1
143,698,19,0.105954215306838,1
143,699,19,0.0811440744158196,1
143,723,19,0.115045041194321,1
143,724,19,0.170336885573631,1
143,725,19,0.146533182684891,1
144,694,19,0.0741115090611406,1
144,695,19,0.0735039601519889,1
144,696,19,0.0799907192023958,1
144,697,19,0.0990205710929797,1
144,698,19,0.099461508409453,1
144,699,19,0.07154520176822,1
144,724,19,0.0837556823801317,1
144,725,19,0.0833699468337951,1
145,693,19,0.0690549286842965,1
145,694,19,0.0688234538137523,1
145,695,19,0.0732684781216984,1
145,696,19,0.0816500187647684,1
145,697,19,0.0862350121443894,1
145,698,19,0.0736373943786964,1
146,695,19,0.0697614346729218,1
146,696,19,0.0762903018444291,1
146,697,19,0.0704284740314006,1
149,693,19,0.0686924993540626,1
150,692,19,0.071698348345787,1
150,693,19,0.0712616877289532,1
151,691,19,0.070308762380147,1
151,692,19,0.0738231732526723,1
151,693,19,0.0714891075215479,1
152,691,19,0.0688561639772415,1
152,692,19,0.0695867428732215,1
158,692,19,0.0682063512128289,1
136,708,20,0.081774929541074,1
136,709,20,0.0822020125070344,1
137,703,20,0.0901682041541632,1
137,704,20,0.0905054404890417,1
137,705,20,0.0957428342160505,1
137,706,20,0.0966172755377189,1
137,707,20,0.0891683788639322,1
137,708,20,0.08935381632071,1
137,709,20,0.0906165148841606,1
137,710,20,0.0847445643506968,1
137,711,20,0.075317640185662,1
137,712,20,0.0702050134803489,1
138,701,20,0.0894992540573301,1
138,702,20,0.0997506348682748,1
138,703,20,0.1039925998002,1
138,704,20,0.103355994490557,1
138,705,20,0.108543487398663,1
138,706,20,0.110815157639388,1
138,707,20,0.0966800783328452,1
138,708,20,0.0925581844386977,1
138,709,20,0.0938517183659356,1
138,710,20,0.0872627378084591,1
138,711,20,0.0777531307837271,1
138,712,20,0.0747094683398681,1
138,713,20,0.070767423442045,1
139,700,20,0.0826958874585412,1
139,701,20,0.0913690283376754,1
139,702,20,0.110356412720635,1
139,703,20,0.122206177078078,1
139,704,20,0.114738915752898,1
139,705,20,0.116178797862618,1
139,706,20,0.122962769568644,1
139,707,20,0.103541905139591,1
139,708,20,0.0896043566463698,1
139,709,20,0.0870344075700027,1
139,710,20,0.0795001446171374,1
139,711,20,0.0701195333955375,1
140,698,20,0.0781733255079713,1
140,699,20,0.0750896214155267,1
140,700,20,0.0774018124868704,1
140,701,20,0.0871635591072954,1
140,702,20,0.109480096599264,1
140,703,20,0.121630308091046,1
140,704,20,0.10547324832133,1
140,705,20,0.101496708306946,1
140,706,20,0.110476807206284,1
140,707,20,0.0945293775962082,1
140,708,20,0.0758093168895949,1
140,709,20,0.068958337566108,1
140,724,20,0.202415283491757,3
140,725,20,0.160998310595826,1
141,697,20,0.0821991913228184,1
141,698,20,0.0819090406124023,1
141,699,20,0.0724559590981717,1
141,701,20,0.0714569663867221,1
141,702,20,0.0847316084664948,1
141,703,20,0.0900271509331399,1
141,704,20,0.0761453373000661,1
141,705,20,0.0698337013131888,1
141,706,20,0.0734984315892896,1
141,722,20,0.0979221361302486,1
141,723,20,0.23650328699707,3
141,724,20,0.35945344209871,3
141,725,20,0.277076899515911,3
141,726,20,0.127206932748143,1
142,696,20,0.0844252614033823,1
142,697,20,0.117064110626647,1
142,698,20,0.136883474813426,1
142,699,20,0.0998611881529334,1
142,722,20,0.0912957194764879,1
142,723,20,0.225131818185303,1
142,724,20,0.348805418360415,3
142,725,20,0.269844581141235,1
142,726,20,0.123018654173177,1
143,695,20,0.0789289416651461,1
143,696,20,0.0903959294253036,1
143,697,20,0.161180423727254,1
143,698,20,0.199866262690657,1
143,699,20,0.134095845319273,1
143,723,20,0.123957431672476,1
143,724,20,0.187162631890063,1
143,725,20,0.151481743452073,1
144,694,20,0.0753362803667238,1
144,695,20,0.0744063018474959,1
144,696,20,0.0872101655497253,1
144,697,20,0.150769391442652,1
144,698,20,0.181281978212935,1
144,699,20,0.118501920274077,1
144,724,20,0.0756819682746993,1
144,725,20,0.0718859960296894,1
145,694,20,0.0696917675951809,1
145,695,20,0.0728413412477593,1
145,696,20,0.0835770373286637,1
145,697,20,0.106807482772448,1
145,698,20,0.106771651935972,1
145,699,20,0.0691841341295678,1
146,695,20,0.0711517274320596,1
146,696,20,0.0828282255563495,1
146,697,20,0.0836728797249265,1
147,696,20,0.0678233410143019,1
149,692,20,0.0687868982144527,1
149,693,20,0.0713635797983755,1
150,692,20,0.0736589755394823,1
150,693,20,0.0745840843713055,1
151,691,20,0.071348341809744,1
151,692,20,0.0781126430933385,1
151,693,20,0.0770009467678597,1
152,691,20,0.0698567918973768,1
152,692,20,0.0745805743629179,1
152,693,20,0.0732747074881201,1
153,691,20,0.067864041538182,1
153,692,20,0.0713902882069085,1
153,693,20,0.0702083797341268,1
154,692,20,0.0711493614707745,1
154,693,20,0.0679345651538059,1
155,692,20,0.0694840122352423,1
157,692,20,0.0706296885565964,1
158,691,20,0.0700086027550283,1
158,692,20,0.0740151575339683,1
158,693,20,0.0713280963688736,1
159,692,20,0.0724282563869215,1
159,693,20,0.069939594552582,1
137,704,21,0.0862105618811843,1
137,705,21,0.0895226141814114,1
137,706,21,0.0899922185629752,1
137,707,21,0.0879199179966204,1
137,708,21,0.0907995564307762,1
137,709,21,0.0926231914711732,1
137,710,21,0.0864578737179005,1
137,711,21,0.073669607390827,1
138,701,21,0.0842504138695214,1
138,702,21,0.0874907925172467,1
138,703,21,0.0890059481344868,1
138,704,21,0.0913498730359287,1
138,705,21,0.0949537052654822,1
138,706,21,0.0964048062245363,1
138,707,21,0.0929690710519617,1
138,708,21,0.0940569280713268,1
138,709,21,0.094862570832688,1
138,710,21,0.0873054029786722,1
138,711,21,0.0746806096019646,1
138,712,21,0.0685252468554158,1
139,700,21,0.0800375352869649,1
139,701,21,0.0861604753792438,1
139,702,21,0.0921791334817137,1
139,703,21,0.0963935274774478,1
139,704,21,0.0965793722389531,1
139,705,21,0.09945400322087,1
139,706,21,0.103066245095093,1
139,707,21,0.0973208884648234,1
139,708,21,0.090010325654026,1
139,709,21,0.0843123122085615,1
139,710,21,0.076099407702257,1
139,711,21,0.0682783962314058,1
140,699,21,0.0747765178857569,1
140,700,21,0.076356584699066,1
140,701,21,0.084512843899361,1
140,702,21,0.0947585943214246,1
140,703,21,0.10047597870055,1
140,704,21,0.0945974394141405,1
140,705,21,0.0930906275540402,1
140,706,21,0.0966644689781386,1
140,707,21,0.0907042591040753,1
140,708,21,0.0781186688073964,1
140,709,21,0.0683147601578924,1
140,724,21,0.193219948002999,3
140,725,21,0.15845466861304,1
141,698,21,0.0886419914115246,1
141,699,21,0.0747230112220598,1
141,701,21,0.0735264397790856,1
141,702,21,0.0840014608343441,1
141,703,21,0.0875748290661854,1
141,704,21,0.0787031211425846,1
141,705,21,0.0731564633318408,1
141,706,21,0.0726422710621587,1
141,707,21,0.0678123437866574,1
141,722,21,0.0966878530613215,1
141,723,21,0.221074152652828,3
141,724,21,0.347124903013557,3
141,725,21,0.274272989812207,3
141,726,21,0.135904014759573,1
142,697,21,0.140719794185567,1
142,698,21,0.181426068250089,1
142,699,21,0.119514755356488,1
142,722,21,0.0924985682040871,1
142,723,21,0.210538473142039,1
142,724,21,0.335747252753572,3
142,725,21,0.26699663460875,1
142,726,21,0.132726654538889,1
143,696,21,0.105045805968845,1
143,697,21,0.220661984227628,1
143,698,21,0.302146840925366,4
143,699,21,0.189469665764782,1
143,700,21,0.0697983676280719,1
143,723,21,0.113488622014313,1
143,724,21,0.173146749114088,1
143,725,21,0.145024633789924,1
144,695,21,0.0781350568329058,1
144,696,21,0.0978680364787864,1
144,697,21,0.198759376154829,1
144,698,21,0.269417174727403,1
144,699,21,0.167189797677846,1
144,724,21,0.0698908677296585,1
144,725,21,0.0687566678179814,1
145,694,21,0.0730343857193021,1
145,695,21,0.0746402624748334,1
145,696,21,0.0857639043291988,1
145,697,21,0.123339610298504,1
145,698,21,0.144294983309131,1
145,699,21,0.0916997717560143,1
146,695,21,0.0720058274764511,1
146,696,21,0.0838248223576369,1
146,697,21,0.0915935131403214,1
146,698,21,0.0780918106544783,1
147,696,21,0.0701570353793512,1
147,697,21,0.0682279443531656,1
149,692,21,0.0685191492640531,1
149,693,21,0.0725720649046313,1
149,694,21,0.069807675739052,1
150,692,21,0.0718736391230279,1
150,693,21,0.0748015791060533,1
151,692,21,0.0769413664719015,1
151,693,21,0.0785566591543702,1
151,694,21,0.0678542602349449,1
152,692,21,0.0755182317742156,1
152,693,21,0.0772176328829278,1
152,694,21,0.0680442139823784,1
153,692,21,0.0738264855984715,1
153,693,21,0.0761488772573307,1
154,692,21,0.0724538686665552,1
154,693,21,0.0726212170016085,1
155,692,21,0.0712835084807553,1
155,693,21,0.0696953255217717,1
156,692,21,0.0701677331182253,1
156,693,21,0.0682399718221798,1
157,692,21,0.0740265201379124,1
157,693,21,0.0715108264471681,1
158,692,21,0.0779132913882939,1
158,693,21,0.0752651158451314,1
159,692,21,0.076028350996622,1
159,693,21,0.0740572656550687,1
169,717,21,0.0731762595395559,1
170,716,21,0.0850083360902273,1
170,717,21,0.09339553108128,1
170,718,21,0.0696456403347834,1
137,704,22,0.085762370946695,1
137,705,22,0.0881864031044095,1
137,706,22,0.0896980906416899,1
137,707,22,0.0922648471677658,1
137,708,22,0.0959568908197156,1
137,709,22,0.0959052589557205,1
138,702,22,0.0822002035948619,1
138,703,22,0.0843232195895748,1
138,704,22,0.0876213636313104,1
138,705,22,0.0913629606951896,1
138,706,22,0.0948407261217843,1
138,707,22,0.0981694539567402,1
138,708,22,0.0995832565843445,1
138,709,22,0.0968982978304171,1
138,710,22,0.0854297108002263,1
138,711,22,0.0716184687009797,1
139,701,22,0.0834790326234795,1
139,702,22,0.0852365585127263,1
139,703,22,0.0866729905118124,1
139,704,22,0.0891752970545256,1
139,705,22,0.0936066646745472,1
139,706,22,0.098533314843296,1
139,707,22,0.101565375092195,1
139,708,22,0.0965756406088755,1
139,709,22,0.086785256872237,1
139,710,22,0.0753359988472797,1
140,699,22,0.0763035991458293,1
140,700,22,0.0767128325810814,1
140,701,22,0.0825043044921974,1
140,702,22,0.0863510460735441,1
140,703,22,0.0884692343092802,1
140,704,22,0.0883096786720294,1
140,705,22,0.0899694094982312,1
140,706,22,0.0927171710472849,1
140,707,22,0.0931633554070134,1
140,708,22,0.0842540915916204,1
140,709,22,0.0721647242384073,1
140,724,22,0.160444771491506,1
140,725,22,0.141473271992922,1
141,698,22,0.0935666529748387,1
141,699,22,0.0781403458045888,1
141,700,22,0.0696928816934063,1
141,701,22,0.0747552841319445,1
141,702,22,0.0820482250234991,1
141,703,22,0.0844360010706843,1
141,704,22,0.0803062545809802,1
141,705,22,0.0775399486872712,1
141,706,22,0.0755509419377048,1
141,707,22,0.0722938877552507,1
141,722,22,0.0911064785123276,1
141,723,22,0.174409777115186,1
141,724,22,0.269548039340462,3
141,725,22,0.227966850762014,1
141,726,22,0.129768364363884,1
142,697,22,0.147904026643288,1
142,698,22,0.201306528146003,4
142,699,22,0.128972970108241,1
142,700,22,0.0709260746232096,1
142,702,22,0.0720060431083657,1
142,703,22,0.0712371116804646,1
142,722,22,0.0871934420967932,1
142,723,22,0.166634821027428,1
142,724,22,0.262836759548756,1
142,725,22,0.225168499569886,1
142,726,22,0.128054366172509,1
143,696,22,0.11454290634253,1
143,697,22,0.247386684949697,4
143,698,22,0.358780191343136,4
143,699,22,0.223889418970702,4
143,700,22,0.0858170156677191,1
143,723,22,0.0968368846631849,1
143,724,22,0.144141381508634,1
143,725,22,0.132550638998824,1
144,695,22,0.0813339562859482,1
144,696,22,0.105067656669524,1
144,697,22,0.221485698141387,1
144,698,22,0.323790031825354,4
144,699,22,0.203008127502289,1
144,700,22,0.0795143044461959,1
144,724,22,0.0679991588917785,1
144,725,22,0.0718155323118195,1
145,695,22,0.0764638915254549,1
145,696,22,0.0858268329096086,1
145,697,22,0.131295816990031,1
145,698,22,0.173411605002967,1
145,699,22,0.114703623996209,1
146,694,22,0.0711969921647987,1
146,695,22,0.0716976715011661,1
146,696,22,0.0792941143125156,1
146,697,22,0.0940132446392948,1
146,698,22,0.0932034988817808,1
146,699,22,0.068106489677269,1
147,696,22,0.0689863757047809,1
147,697,22,0.0721212983667176,1
148,694,22,0.067773500093153,1
148,695,22,0.0687294083501111,1
149,693,22,0.0732571574461821,1
149,694,22,0.0741926884872108,1
149,695,22,0.0716331376609477,1
150,692,22,0.0719141419843196,1
150,693,22,0.075659051393998,1
150,694,22,0.072427244114878,1
151,692,22,0.076091105873545,1
151,693,22,0.0801559830956079,1
151,694,22,0.0730506299902017,1
152,692,22,0.0773532653572091,1
152,693,22,0.0824577699270723,1
152,694,22,0.0755280070876773,1
153,692,22,0.0778073502306974,1
153,693,22,0.083485717212832,1
153,694,22,0.076862990260721,1
154,692,22,0.075031568512297,1
154,693,22,0.0785146528594517,1
154,694,22,0.0703811308465958,1
155,692,22,0.073399252888126,1
155,693,22,0.0747437118858611,1
156,693,22,0.0731757384290956,1
157,692,22,0.0768644637454708,1
157,693,22,0.0749801343108902,1
158,693,22,0.078070223503917,1
159,693,22,0.0776306698255624,1
169,716,22,0.0996022381826044,1
169,717,22,0.130482285694461,1
169,718,22,0.0858990576214477,1
170,715,22,0.0732194038918015,1
170,716,22,0.139913666252398,1
170,717,22,0.173362357069583,1
170,718,22,0.1109586247399,1
171,717,22,0.154651520617094,1
137,705,23,0.0892488035783014,1
137,706,23,0.0926292351545573,1
137,707,23,0.101859257432688,1
137,708,23,0.10563738014699,1
137,709,23,0.0992892724176689,1
138,702,23,0.0821346455030491,1
138,703,23,0.085235372537196,1
138,704,23,0.0888193366817296,1
138,705,23,0.0913867520831001,1
138,706,23,0.0984871037260428,1
138,707,23,0.112087182283145,1
138,708,23,0.114116961433897,1
138,709,23,0.101844438728335,1
138,710,23,0.0820363712579717,1
138,711,23,0.0693366457909417,1
139,701,23,0.0834060232510623,1
139,702,23,0.0863726751525332,1
139,703,23,0.0880721002203471,1
139,704,23,0.0899637012422698,1
139,705,23,0.0933046362395021,1
139,706,23,0.102282423085534,1
139,707,23,0.115227873098797,1
139,708,23,0.111703644984382,1
139,709,23,0.0940433432607072,1
139,710,23,0.0757112103582288,1
139,711,23,0.0679076710622354,1
140,700,23,0.0778944775037453,1
140,701,23,0.0826785470587423,1
140,702,23,0.0863138974864794,1
140,703,23,0.0877931743490408,1
140,704,23,0.0885229206662394,1
140,705,23,0.0906795632600785,1
140,706,23,0.0950895294125765,1
140,707,23,0.100238585931906,1
140,708,23,0.0930499509892617,1
140,709,23,0.078752806329573,1
140,712,23,0.0704803694455136,1
140,713,23,0.0739349065230858,1
140,714,23,0.0698704006670981,1
141,698,23,0.0990719154477554,1
141,699,23,0.0848030185688788,1
141,700,23,0.0752406655819263,1
141,701,23,0.0776518796202732,1
141,702,23,0.0827518798790315,1
141,703,23,0.0852634645838477,1
141,704,23,0.0838885535679511,1
141,705,23,0.0829879728664133,1
141,706,23,0.0820230140588175,1
141,707,23,0.0806618256183748,1
141,708,23,0.0737604902530541,1
141,712,23,0.0685831500142605,1
141,713,23,0.0730869939166883,1
141,721,23,0.0708650807402557,1
141,722,23,0.0853824814211542,1
141,724,23,0.180987413038045,1
141,725,23,0.168265034240431,1
142,697,23,0.148070734072373,1
142,698,23,0.196458763319344,1
142,699,23,0.134695493714665,1
142,700,23,0.0815074022123643,1
142,701,23,0.0714937076690593,1
142,702,23,0.0762856597684899,1
142,703,23,0.0767536409209189,1
142,704,23,0.0717370962028849,1
142,705,23,0.0683727052451649,1
142,721,23,0.0710067509081458,1
142,722,23,0.0823247489948678,1
142,723,23,0.121959458229127,1
142,724,23,0.1761272972945,1
142,725,23,0.165215340092739,1
143,696,23,0.122724268691549,1
143,697,23,0.242690126013374,1
143,698,23,0.348787520911504,4
143,699,23,0.231351744720947,1
143,700,23,0.102337672773874,1
143,723,23,0.0833540080414412,1
143,724,23,0.111910160460812,1
144,696,23,0.114073020441522,1
144,697,23,0.225170248584305,1
144,698,23,0.329597262835562,1
144,699,23,0.22294720334032,1
144,700,23,0.101342723160823,1
145,695,23,0.0818609487056718,1
145,696,23,0.0906029121042148,1
145,697,23,0.138476671214424,1
145,698,23,0.19028124439357,1
145,699,23,0.139210394742491,1
145,700,23,0.0818311615525805,1
146,694,23,0.0755187169460234,1
146,695,23,0.0748330314167074,1
146,696,23,0.0787694159767723,1
146,697,23,0.0973743112716648,1
146,698,23,0.108966377521839,1
146,699,23,0.0884169914881937,1
147,694,23,0.0697371161847757,1
147,695,23,0.0695348714182101,1
147,696,23,0.0706642615402367,1
147,697,23,0.0763100621134918,1
147,698,23,0.077246192132061,1
148,693,23,0.0680424469986338,1
148,694,23,0.0694986632258841,1
148,695,23,0.0719975855454932,1
148,696,23,0.0684473318569415,1
149,693,23,0.0722754332572264,1
149,694,23,0.074717015456879,1
149,695,23,0.075694948118003,1
150,693,23,0.0736935185742456,1
150,694,23,0.0733724785920635,1
150,695,23,0.0691048414827502,1
151,692,23,0.0747992011652174,1
151,693,23,0.0785169289741058,1
151,694,23,0.0748771101739162,1
152,692,23,0.0785098071311487,1
152,693,23,0.0845098250525567,1
152,694,23,0.0796401017092615,1
153,692,23,0.0810219488850776,1
153,693,23,0.0878885555325974,1
153,694,23,0.0829285722637173,1
153,695,23,0.068768156207209,1
154,692,23,0.0766255375943222,1
154,693,23,0.0814856952662949,1
154,694,23,0.0766408055318307,1
155,693,23,0.0769314234447285,1
155,694,23,0.0721004419687558,1
156,693,23,0.0751281476509347,1
156,694,23,0.0699197923550915,1
157,693,23,0.0755355002967095,1
157,694,23,0.0683335440935639,1
158,694,23,0.0683567604630355,1
159,694,23,0.0691394024868397,1
168,717,23,0.0770364361871371,1
169,715,23,0.0690422363502123,1
169,716,23,0.141027297275333,1
169,717,23,0.189852783779267,1
169,718,23,0.108524236260509,1
170,715,23,0.094414930957536,1
170,716,23,0.199857182191142,1
170,717,23,0.252047808374722,1
170,718,23,0.144497317922328,1
171,716,23,0.222472741250903,1
171,717,23,0.195252111084362,1
137,706,24,0.0990042789038768,1
137,707,24,0.129944643454067,1
137,708,24,0.139138158051101,1
137,709,24,0.109501228526895,1
138,703,24,0.0875363567387561,1
138,704,24,0.0903845428622578,1
138,705,24,0.0889904705548391,1
138,706,24,0.11075757193864,1
138,707,24,0.163143225209422,1
138,708,24,0.175197121112684,1
138,709,24,0.126114134164069,1
138,710,24,0.0776519395180272,1
139,701,24,0.0843813323905587,1
139,702,24,0.0891351176411057,1
139,703,24,0.092746850384419,1
139,704,24,0.093109399510161,1
139,705,24,0.0918414539034552,1
139,706,24,0.110758817811925,1
139,707,24,0.1524689542753,1
139,708,24,0.157457394967132,1
139,709,24,0.114146826454068,1
139,710,24,0.075730239874692,1
140,700,24,0.0801316765870126,1
140,701,24,0.0846973110125231,1
140,702,24,0.0898470922946762,1
140,703,24,0.0926778421819726,1
140,704,24,0.0923796352236362,1
140,705,24,0.091622048430353,1
140,706,24,0.0976027672954046,1
140,707,24,0.108772165044092,1
140,708,24,0.105306792462812,1
140,709,24,0.0868640523676959,1
140,710,24,0.0715419732792765,1
140,711,24,0.0680301260306247,1
140,712,24,0.0742923823090594,1
140,713,24,0.0800058673443962,1
140,714,24,0.0742751916536457,1
141,699,24,0.0869557198905012,1
141,700,24,0.0795600483609674,1
141,701,24,0.0811929390035774,1
141,702,24,0.0853267645303326,1
141,703,24,0.0887680102962802,1
141,704,24,0.0884470481811783,1
141,705,24,0.0873691341889863,1
141,706,24,0.087329805323674,1
141,707,24,0.0863316392012304,1
141,708,24,0.0806777584209534,1
141,709,24,0.0748808118551168,1
141,710,24,0.0688759541951812,1
141,712,24,0.0752764664695248,1
141,713,24,0.0814740691122329,1
141,714,24,0.0723395777620436,1
141,721,24,0.069591744335685,1
142,698,24,0.163803214602248,1
142,699,24,0.124880372205602,1
142,700,24,0.0870163124585028,1
142,701,24,0.0784161629824596,1
142,702,24,0.0796194609432142,1
142,703,24,0.0813779871249538,1
142,704,24,0.0784083103869031,1
142,705,24,0.0748524203196949,1
142,706,24,0.0728009342228741,1
142,707,24,0.0690367856545933,1
142,721,24,0.0690887050278079,1
142,722,24,0.0767403376297433,1
143,697,24,0.202439961366428,1
143,698,24,0.276354844070333,1
143,699,24,0.19957041570383,1
143,700,24,0.106088949314808,1
143,701,24,0.0763436527739656,1
143,702,24,0.0711450188836055,1
143,703,24,0.0690769231395853,1
143,723,24,0.0748131273930351,1
144,696,24,0.112200820302138,1
144,697,24,0.199098589115591,1
144,698,24,0.280456690186199,1
144,699,24,0.207499740283338,1
144,700,24,0.110718219114226,1
144,701,24,0.0731599553709022,1
145,695,24,0.0843727011241994,1
145,696,24,0.0907139984788846,1
145,697,24,0.133753757266316,1
145,698,24,0.182544191604577,1
145,699,24,0.14677690664614,1
145,700,24,0.0945731209259944,1
146,695,24,0.0772700374279502,1
146,696,24,0.0781624900042628,1
146,697,24,0.095517175417425,1
146,698,24,0.115132587751647,1
146,699,24,0.101690082216136,1
146,700,24,0.0761788920218875,1
147,694,24,0.0728211616944183,1
147,695,24,0.0737379806770804,1
147,696,24,0.0738800102314947,1
147,697,24,0.0784446323849618,1
147,698,24,0.0839188438621765,1
147,699,24,0.0753194670671606,1
148,694,24,0.0714749896209172,1
148,695,24,0.0756096537162292,1
148,696,24,0.0744220429772615,1
148,697,24,0.0687808245821916,1
149,693,24,0.072381494210331,1
149,694,24,0.0756276350219964,1
149,695,24,0.0792459086000524,1
149,696,24,0.0735800901973923,1
150,693,24,0.0734944543784204,1
150,694,24,0.0756861491379324,1
150,695,24,0.0749977921687855,1
151,693,24,0.078366591601204,1
151,694,24,0.0782061914056211,1
151,695,24,0.0719689903577075,1
152,692,24,0.0802134969190512,1
152,693,24,0.0865855757295451,1
152,694,24,0.0845794202529928,1
152,695,24,0.0739575119354661,1
153,692,24,0.0843219018389856,1
153,693,24,0.0923063083931225,1
153,694,24,0.0896505977125,1
153,695,24,0.0766046931759112,1
154,692,24,0.0795286739173936,1
154,693,24,0.085821801498268,1
154,694,24,0.0843196257243316,1
154,695,24,0.0720571059436973,1
155,693,24,0.0802749939431391,1
155,694,24,0.0801074838841499,1
155,695,24,0.0691657874475008,1
156,693,24,0.0773011483214062,1
156,694,24,0.0765164218557608,1
157,694,24,0.0728165375878053,1
168,716,24,0.0693371070036479,1
168,717,24,0.0845963054298608,1
169,715,24,0.0774261489443428,1
169,716,24,0.165032711840626,1
169,717,24,0.216646342959398,1
169,718,24,0.114819370416145,1
170,715,24,0.109761268636348,1
170,716,24,0.239520336868802,1
170,717,24,0.294829012517001,1
170,718,24,0.158379101606525,1
171,716,24,0.230622884890509,1
171,717,24,0.2095835831469,1
137,707,25,0.16389970988403,1
137,708,25,0.179207012196524,1
138,704,25,0.0886180981974322,1
138,705,25,0.0857150637005427,1
138,706,25,0.130579212240072,1
138,707,25,0.236501178596127,1
138,708,25,0.261682697541834,1
138,709,25,0.15607139687696,1
138,710,25,0.0724044769785618,1
139,702,25,0.0897932082751287,1
139,703,25,0.0942998314333446,1
139,704,25,0.0932816953996991,1
139,705,25,0.0889979158456681,1
139,706,25,0.118133453250234,1
139,707,25,0.194515117138923,1
139,708,25,0.210695333380357,1
139,709,25,0.131299698364494,1
139,710,25,0.0728193168435935,1
140,701,25,0.0868138340906965,1
140,702,25,0.0922405466489459,1
140,703,25,0.0965168270041693,1
140,704,25,0.0953880957574373,1
140,705,25,0.0925897625346353,1
140,706,25,0.0981258903202163,1
140,707,25,0.114224142475002,1
140,708,25,0.114822796567677,1
140,709,25,0.0917236829394329,1
140,710,25,0.073875847337588,1
140,711,25,0.0692617316699456,1
140,712,25,0.0738453893296512,1
140,713,25,0.0787757890978037,1
140,714,25,0.0730215196817311,1
141,700,25,0.0819802350828717,1
141,701,25,0.0843731922857826,1
141,702,25,0.0881683020031342,1
141,703,25,0.0924494460559869,1
141,704,25,0.0923213487191656,1
141,705,25,0.0906142926774852,1
141,706,25,0.0897293093511032,1
141,707,25,0.0887056327752077,1
141,708,25,0.0844579715668716,1
141,709,25,0.0800115875799084,1
141,710,25,0.0744487214369174,1
141,711,25,0.0705930311311149,1
141,712,25,0.0768800910695036,1
141,713,25,0.0825161941963772,1
141,714,25,0.0740839441147246,1
142,698,25,0.126956440340687,1
142,699,25,0.107423782743467,1
142,700,25,0.0887894057740285,1
142,701,25,0.0836234161596282,1
142,702,25,0.0826401286392917,1
142,703,25,0.0848806760070106,1
142,704,25,0.083817245291749,1
142,705,25,0.0808568167669243,1
142,706,25,0.0792320183108872,1
142,707,25,0.0774325460244759,1
142,708,25,0.0737303197543368,1
142,709,25,0.072766247433501,1
142,710,25,0.0686486961265225,1
142,713,25,0.0693882237469581,1
143,697,25,0.15584050301463,1
143,698,25,0.193499131434648,1
143,699,25,0.153374680193912,1
143,700,25,0.10310534634894,1
143,701,25,0.0831612989973212,1
143,702,25,0.0757328154781163,1
143,703,25,0.0739780209264544,1
143,704,25,0.0705278324258265,1
143,705,25,0.0679059759557956,1
143,706,25,0.0683359999014802,1
144,697,25,0.163111167931452,1
144,698,25,0.21215904281664,1
144,699,25,0.16993092255575,1
144,700,25,0.10982511964217,1
144,701,25,0.081057025009852,1
144,702,25,0.067948407524768,1
145,696,25,0.0913272975724255,1
145,697,25,0.125275014547966,1
145,698,25,0.161494755160982,1
145,699,25,0.140938696517535,1
145,700,25,0.102488387502626,1
145,701,25,0.0767430150593496,1
146,695,25,0.0800291555911726,1
146,696,25,0.0802398219819582,1
146,697,25,0.0937860284990639,1
146,698,25,0.114103592255192,1
146,699,25,0.114258020644695,1
146,700,25,0.0965771799811547,1
146,701,25,0.0727336630552953,1
147,695,25,0.0784097000147971,1
147,696,25,0.077667890289932,1
147,697,25,0.0811362397895893,1
147,698,25,0.0898917400805486,1
147,699,25,0.0963658846639516,1
147,700,25,0.0873052472445116,1
148,694,25,0.0751469016377292,1
148,695,25,0.0790874910201287,1
148,696,25,0.0785537960417264,1
148,697,25,0.0753746508679712,1
148,698,25,0.0745355432314196,1
148,699,25,0.0765355472086305,1
148,700,25,0.0706557201205085,1
149,694,25,0.0775019136134465,1
149,695,25,0.0808626627877201,1
149,696,25,0.0773523249624705,1
149,697,25,0.0683846847959758,1
150,693,25,0.0743212470367383,1
150,694,25,0.0775453275055853,1
150,695,25,0.0781059405346598,1
150,696,25,0.0715799724144488,1
151,693,25,0.0785719211021033,1
151,694,25,0.0793407027856193,1
151,695,25,0.0752851097154349,1
152,693,25,0.086578897129968,1
152,694,25,0.0849296364311749,1
152,695,25,0.0760441999423448,1
153,694,25,0.0902338700619333,1
153,695,25,0.0785718372452477,1
154,693,25,0.0878047945133274,1
154,694,25,0.0862085972348513,1
154,695,25,0.0767025900651381,1
155,693,25,0.0814981899377907,1
155,694,25,0.0827485555536814,1
155,695,25,0.0764104986674906,1
156,693,25,0.0775351748362731,1
156,694,25,0.0792347077200442,1
156,695,25,0.0744631148672167,1
157,694,25,0.0746121524588555,1
157,695,25,0.0697254181534088,1
168,716,25,0.0723523060347802,1
168,717,25,0.083478583390324,1
169,715,25,0.0826903529060665,1
169,716,25,0.164207835910438,1
169,717,25,0.204104472033403,1
169,718,25,0.110677524580122,1
170,715,25,0.116804358026414,1
170,716,25,0.240680484487536,1
170,717,25,0.286059070877539,1
137,707,26,0.180066389233048,1
137,708,26,0.201811586008191,1
138,706,26,0.13988001569417,1
138,707,26,0.289141840565021,1
138,708,26,0.330594847949791,5
138,709,26,0.178882761694725,1
139,703,26,0.0936814050920566,1
139,704,26,0.0920255017323389,1
139,705,26,0.083034399615581,1
139,706,26,0.114892409737439,1
139,707,26,0.217824771372669,1
139,708,26,0.249711029275339,1
139,709,26,0.141565993716198,1
139,710,26,0.0691593065105121,1
140,702,26,0.0930186604025436,1
140,703,26,0.0989400864808565,1
140,704,26,0.0971453640863417,1
140,705,26,0.0895547553162371,1
140,706,26,0.0938107962203655,1
140,707,26,0.116379946500284,1
140,708,26,0.124635582064332,1
140,709,26,0.0953409981534241,1
140,710,26,0.0735041757839035,1
140,711,26,0.0684266551522419,1
140,712,26,0.0711165554708788,1
140,713,26,0.0760557482293266,1
140,714,26,0.0712799565439398,1
141,701,26,0.0852286400296403,1
141,702,26,0.0896159468617794,1
141,703,26,0.0944941157883963,1
141,704,26,0.0938604095300489,1
141,705,26,0.0901081866046005,1
141,706,26,0.0892372732606459,1
141,707,26,0.0912397809639762,1
141,708,26,0.0909715528315441,1
141,709,26,0.0859393328712741,1
141,710,26,0.0777866256077945,1
141,711,26,0.0721876710679856,1
141,712,26,0.0752019057452776,1
141,713,26,0.0811094475242006,1
141,714,26,0.0746556561976254,1
142,699,26,0.0966703269784851,1
142,700,26,0.0894518988929745,1
142,701,26,0.0853552998203642,1
142,702,26,0.0835193617812845,1
142,703,26,0.0852422847380139,1
142,704,26,0.0847503504737385,1
142,705,26,0.0819922445825596,1
142,706,26,0.0829952384639801,1
142,707,26,0.0911940190798785,1
142,708,26,0.0960227424105233,1
142,709,26,0.0904081066387029,1
142,710,26,0.0764055511130057,1
142,711,26,0.0684521775852446,1
142,712,26,0.0677980581723154,1
142,713,26,0.0697973313969268,1
143,698,26,0.141813263624487,1
143,699,26,0.122945818504247,1
143,700,26,0.102007708026337,1
143,701,26,0.0875233169976984,1
143,702,26,0.0786324118439231,1
143,703,26,0.0758494483848115,1
143,704,26,0.0732404100341484,1
143,705,26,0.0702511706896234,1
143,706,26,0.0737845451910825,1
143,707,26,0.092921817713788,1
143,708,26,0.104764861543227,1
143,709,26,0.0948179709650189,1
143,710,26,0.0709885599602394,1
144,697,26,0.140193760129908,1
144,698,26,0.164871766575482,1
144,699,26,0.141533768724517,1
144,700,26,0.109733715669482,1
144,701,26,0.0865411315960365,1
144,702,26,0.0720721223106388,1
144,707,26,0.0878787562600341,1
144,708,26,0.0996444720889883,1
144,709,26,0.0868780564625939,1
145,696,26,0.0934901395838093,1
145,697,26,0.120485554195105,1
145,698,26,0.145158888615862,1
145,699,26,0.140577357326425,1
145,700,26,0.119935273528604,1
145,701,26,0.0893441428334302,1
145,708,26,0.0714455498747993,1
146,696,26,0.0833157812948035,1
146,697,26,0.0930931612290367,1
146,698,26,0.114561318912126,1
146,699,26,0.14891185427346,1
146,700,26,0.15536142879815,1
146,701,26,0.108794926190633,1
147,695,26,0.0828220441081311,1
147,696,26,0.081307583304838,1
147,697,26,0.0819982702966175,1
147,698,26,0.0972069150184083,1
147,699,26,0.14793759334466,1
147,700,26,0.165875449281074,1
147,701,26,0.11289029136951,1
148,694,26,0.0801025483092158,1
148,695,26,0.0833759485887514,1
148,696,26,0.082682308637697,1
148,697,26,0.0803926031832254,1
148,698,26,0.0835064777743873,1
148,699,26,0.107807619531,1
148,700,26,0.116523856844176,1
148,701,26,0.0803634928747548,1
149,694,26,0.0812561670727575,1
149,695,26,0.0830428571784535,1
149,696,26,0.08069403264073,1
149,697,26,0.0765679279344724,1
149,698,26,0.0701379579446848,1
150,694,26,0.0812854630642656,1
150,695,26,0.0814552312685827,1
150,696,26,0.0765315101000072,1
150,697,26,0.0698885137479242,1
151,693,26,0.0802297771286033,1
151,694,26,0.0813669898973094,1
151,695,26,0.0784363305562498,1
151,696,26,0.0714800030629315,1
152,694,26,0.0860695985067921,1
152,695,26,0.0782689762314212,1
152,696,26,0.0690023564255627,1
153,695,26,0.080920925333089,1
153,696,26,0.0702604189028495,1
154,694,26,0.0898139868060102,1
154,695,26,0.0817734141278964,1
154,696,26,0.0715407274059922,1
155,693,26,0.0842630582854024,1
155,694,26,0.0862645477269138,1
155,695,26,0.0834868492803836,1
155,696,26,0.0733985760435051,1
156,693,26,0.0795662357989613,1
156,694,26,0.0825388235678591,1
156,695,26,0.0819971621881675,1
156,696,26,0.0732782893738126,1
157,694,26,0.0762006408963847,1
157,695,26,0.0743027925387141,1
157,696,26,0.0696261136669616,1
158,695,26,0.0684912968084177,1
168,716,26,0.0704546673192487,1
168,717,26,0.0767219310499223,1
169,715,26,0.0790422202976142,1
169,716,26,0.136741229627097,1
169,717,26,0.161560079651554,1
137,707,27,0.18797612724698,1
137,708,27,0.212315831177653,5
138,706,27,0.150274096914374,1
138,707,27,0.30906788265177,5
138,708,27,0.360220396900727,5
138,709,27,0.199452644739808,5
139,706,27,0.121724263708056,1
139,707,27,0.231550701100815,1
139,708,27,0.274424507170863,5
139,709,27,0.15862485011186,1
140,703,27,0.100989062861782,1
140,704,27,0.100999389234581,1
140,705,27,0.0933553336985339,1
140,706,27,0.0983772452553312,1
140,707,27,0.12616453213433,1
140,708,27,0.141862343844159,1
140,709,27,0.107038328716574,1
140,710,27,0.0781005856754473,1
140,711,27,0.0682747664275101,1
140,712,27,0.0678439518314721,1
140,713,27,0.0708403789064836,1
141,702,27,0.088599481975472,1
141,703,27,0.0946884061332233,1
141,704,27,0.095211720830848,1
141,705,27,0.0927439872717752,1
141,706,27,0.0938264415137245,1
141,707,27,0.098423258709996,1
141,708,27,0.101533281875572,1
141,709,27,0.0940299980411038,1
141,710,27,0.081382377630326,1
141,711,27,0.0722029210361679,1
141,712,27,0.0706871963902642,1
141,713,27,0.074486888285801,1
141,714,27,0.0703505230942739,1
142,700,27,0.0868675563863081,1
142,701,27,0.085150916703979,1
142,702,27,0.0832328169156624,1
142,703,27,0.0846919861021877,1
142,704,27,0.0851160801702208,1
142,705,27,0.0851658911424926,1
142,706,27,0.089824960074553,1
142,707,27,0.105375291534349,1
142,708,27,0.12017807506444,1
142,709,27,0.107423794723017,1
142,710,27,0.0831503736469816,1
142,711,27,0.071623703764684,1
143,699,27,0.103991473722424,1
143,700,27,0.0984559089757312,1
143,701,27,0.0892078275247526,1
143,702,27,0.0796465706666994,1
143,703,27,0.0763056596285688,1
143,704,27,0.0752713931297564,1
143,705,27,0.0738401243170698,1
143,706,27,0.0813464329881178,1
143,707,27,0.122853480126596,1
143,708,27,0.163188915216215,1
143,709,27,0.137060125269684,1
143,710,27,0.0851389551224943,1
144,698,27,0.13250936944628,1
144,699,27,0.121118805230521,1
144,700,27,0.107983371520947,1
144,701,27,0.0903801763159872,1
144,702,27,0.0754090621276756,1
144,703,27,0.0687497316580618,1
144,706,27,0.0712435387094746,1
144,707,27,0.120135895066035,1
144,708,27,0.163839536600307,1
144,709,27,0.134018780868907,1
144,710,27,0.0759253029005463,1
145,697,27,0.115094696432432,1
145,698,27,0.131005792064899,1
145,699,27,0.142227288880063,1
145,700,27,0.144039148022013,1
145,701,27,0.10461378742795,1
145,702,27,0.0692437863028308,1
145,707,27,0.0806765065578936,1
145,708,27,0.102081238509215,1
145,709,27,0.0840404063540304,1
146,696,27,0.087056348117313,1
146,697,27,0.0923866432608606,1
146,698,27,0.117834874925823,1
146,699,27,0.198256606386845,1
146,700,27,0.248501549866366,1
146,701,27,0.161939436087084,1
146,702,27,0.0691550298108726,1
147,696,27,0.0857082653054575,1
147,697,27,0.0826827039628737,1
147,698,27,0.108924568889509,1
147,699,27,0.222403211937996,1
147,700,27,0.292447885120516,6
147,701,27,0.187159660961461,1
148,695,27,0.0878700051981667,1
148,696,27,0.0870202956591475,1
148,697,27,0.0832575427085362,1
148,698,27,0.0899517216914589,1
148,699,27,0.144516640937786,1
148,700,27,0.183334758101243,1
148,701,27,0.116684658354711,1
149,695,27,0.0856909788136373,1
149,696,27,0.0836058361688131,1
149,697,27,0.0815222987837977,1
149,698,27,0.0754520148071081,1
149,699,27,0.0729284026332778,1
149,700,27,0.0715358517288121,1
150,694,27,0.0845632598389488,1
150,695,27,0.0841750744744715,1
150,696,27,0.0799982902785083,1
150,697,27,0.0753746868066236,1
151,694,27,0.0843466875296135,1
151,695,27,0.0820730047243515,1
151,696,27,0.0773697971373282,1
151,697,27,0.0699664946339279,1
152,695,27,0.0820217382366561,1
152,696,27,0.0762886127277648,1
152,697,27,0.0694992681932,1
153,695,27,0.0845875903066458,1
153,696,27,0.0771893791123402,1
153,697,27,0.0718627856499932,1
154,695,27,0.0862051471242178,1
154,696,27,0.0787460738220172,1
154,697,27,0.0729630774431,1
155,694,27,0.0903103055858824,1
155,695,27,0.0882736741320672,1
155,696,27,0.0813240012792244,1
155,697,27,0.0733003317473047,1
156,694,27,0.0862061054882827,1
156,695,27,0.0871811810265383,1
156,696,27,0.0805348004513511,1
156,697,27,0.0739448854889113,1
156,698,27,0.071525627182195,1
157,694,27,0.0787248999659589,1
157,695,27,0.0783611708544621,1
157,696,27,0.0739177577961,1
157,697,27,0.0768063150058345,1
157,698,27,0.0966422708704859,1
157,699,27,0.102237152363019,1
157,700,27,0.0747113311600192,1
158,695,27,0.0719538482054825,1
158,696,27,0.0678827835454257,1
158,697,27,0.0763516611036827,1
158,698,27,0.111080025507818,1
158,699,27,0.124367455758081,1
158,700,27,0.0892697857615468,1
159,697,27,0.07310341788085,1
159,698,27,0.0965602708451851,1
159,699,27,0.105812425343439,1
159,700,27,0.0782878020955205,1
160,696,27,0.0698952163066029,1
160,697,27,0.0695693425756686,1
160,698,27,0.0730748646214922,1
160,699,27,0.0718083026529051,1
161,697,27,0.0719327402369536,1
161,698,27,0.0689196436169887,1
162,697,27,0.0742236676056079,1
162,698,27,0.0698673997896199,1
163,698,27,0.0694840242147932,1
136,707,28,0.104495860729767,1
137,706,28,0.111111411930943,1
137,707,28,0.176838091962316,1
137,708,28,0.197881155284879,1
138,706,28,0.142544375610478,1
138,707,28,0.272676882380362,1
138,708,28,0.321753244637378,5
138,709,28,0.191798250851411,1
139,706,28,0.119586980068328,1
139,707,28,0.212434476648885,1
139,708,28,0.256006858244921,1
139,709,28,0.160328234421217,1
140,704,28,0.101857125072644,1
140,705,28,0.0952570933795444,1
140,706,28,0.0987690664134797,1
140,707,28,0.125445807003878,1
140,708,28,0.143534425587247,1
140,709,28,0.111325354728875,1
140,710,28,0.0802729753888275,1
140,711,28,0.0689845428335069,1
140,712,28,0.0680164693427003,1
140,713,28,0.0683368863882402,1
141,703,28,0.0935975122977277,1
141,704,28,0.0952006457361233,1
141,705,28,0.0941969031327771,1
141,706,28,0.0961314448545817,1
141,707,28,0.101919430716412,1
141,708,28,0.106232847679149,1
141,709,28,0.0981649017274321,1
141,710,28,0.0829361133909527,1
141,711,28,0.0737660787135074,1
141,712,28,0.0699107657635555,1
141,713,28,0.069301270177397,1
142,701,28,0.0845220561739346,1
142,702,28,0.0822185922053567,1
142,703,28,0.0843802362616595,1
142,704,28,0.085917733741162,1
142,705,28,0.0887604631792693,1
142,706,28,0.0956571983970786,1
142,707,28,0.117170788526619,1
142,708,28,0.141746226058149,1
142,709,28,0.122350446808494,1
142,710,28,0.0887285736150106,1
142,711,28,0.0770440671610036,1
142,712,28,0.0708274709404848,1
143,700,28,0.0955870760964068,1
143,701,28,0.0904792472011936,1
143,702,28,0.080090970073357,1
143,703,28,0.0768928852297697,1
143,704,28,0.077822929636527,1
143,705,28,0.0778427318340175,1
143,706,28,0.0879432721309263,1
143,707,28,0.150754632636053,1
143,708,28,0.225990991569463,1
143,709,28,0.183687424097566,1
143,710,28,0.100841019572861,1
143,711,28,0.0714384579807193,1
144,699,28,0.108426411248587,1
144,700,28,0.106384796301635,1
144,701,28,0.0935748949057967,1
144,702,28,0.0774352713722853,1
144,703,28,0.0714427646292358,1
144,704,28,0.0717844992854438,1
144,705,28,0.0682158030784187,1
144,706,28,0.0754762853770511,1
144,707,28,0.150070216939123,1
144,708,28,0.235491278503664,1
144,709,28,0.189906440187349,1
144,710,28,0.094129272578674,1
145,698,28,0.120150462199821,1
145,699,28,0.143935968150879,1
145,700,28,0.165091064232626,1
145,701,28,0.117489552394147,1
145,702,28,0.073486146559933,1
145,707,28,0.0895955816254008,1
145,708,28,0.131684505495643,1
145,709,28,0.106426664831719,1
146,697,28,0.0930374742870921,1
146,698,28,0.124518469975604,1
146,699,28,0.24053414229483,1
146,700,28,0.332528467246183,6
146,701,28,0.206685633969329,1
146,702,28,0.0804795327936849,1
147,696,28,0.0896069562088958,1
147,697,28,0.0828249192003257,1
147,698,28,0.122939493301419,1
147,699,28,0.291141754695601,6
147,700,28,0.414665778199288,6
147,701,28,0.255517613389803,6
147,702,28,0.0809451000666255,1
148,695,28,0.0917188372111299,1
148,696,28,0.0907455765748222,1
148,697,28,0.0834306771666311,1
148,698,28,0.0947207149817604,1
148,699,28,0.176599938492194,1
148,700,28,0.248256304502164,6
148,701,28,0.149267143791411,1
149,695,28,0.0893449873917624,1
149,696,28,0.0872998624364221,1
149,697,28,0.0841201542237788,1
149,698,28,0.0777512919226777,1
149,699,28,0.080374220562506,1
149,700,28,0.0860416502147502,1
150,695,28,0.0869983491220618,1
150,696,28,0.0828119273774712,1
150,697,28,0.0792294367176874,1
150,698,28,0.0716046922175471,1
151,695,28,0.0852796789058703,1
151,696,28,0.0816632861172915,1
151,697,28,0.0760647328924347,1
152,695,28,0.085205783046693,1
152,696,28,0.0818013204915104,1
152,697,28,0.0762442045329087,1
152,698,28,0.0677771239072733,1
153,696,28,0.0827550424804455,1
153,697,28,0.0773433163402606,1
153,698,28,0.0712836941637928,1
154,696,28,0.0830238875597444,1
154,697,28,0.0768000017825572,1
154,698,28,0.0721463835461157,1
155,695,28,0.0892480668359265,1
155,696,28,0.085107514791391,1
155,697,28,0.0769677154939102,1
155,698,28,0.0705468918911666,1
156,694,28,0.0855648041947212,1
156,695,28,0.086329225321742,1
156,696,28,0.0825593924566014,1
156,697,28,0.0765535704428255,1
156,698,28,0.08213953315978,1
156,699,28,0.0844236561435737,1
157,694,28,0.0776671775066587,1
157,695,28,0.0782881315331678,1
157,696,28,0.073971959273744,1
157,697,28,0.0843066219219263,1
157,698,28,0.149599899774286,1
157,699,28,0.191842036109625,1
157,700,28,0.125330264236306,1
158,695,28,0.072055123328038,1
158,697,28,0.0895487894999333,1
158,698,28,0.200197317577317,1
158,699,28,0.265796187781088,7
158,700,28,0.171116670474567,1
159,697,28,0.0804333636048596,1
159,698,28,0.151718507294301,1
159,699,28,0.197065168181393,1
159,700,28,0.127697603169808,1
160,695,28,0.0735983110941758,1
160,696,28,0.0702192811253648,1
160,697,28,0.0719140221888115,1
160,698,28,0.0846597311616293,1
160,699,28,0.090820796174364,1
161,696,28,0.0753835337048975,1
161,697,28,0.0767500650250018,1
161,698,28,0.0745572082490612,1
162,697,28,0.0796389157337312,1
162,698,28,0.0761038760747095,1
163,698,28,0.074738716413173,1
166,705,28,0.0695745716495976,1
166,709,28,0.077943947058819,1
166,710,28,0.0765936300607373,1
167,709,28,0.0898188684729657,1
167,710,28,0.0891433835311652,1
168,709,28,0.0781724210518851,1
168,710,28,0.0784067230964206,1
137,707,29,0.14895336341702,1
137,708,29,0.160138801784244,1
138,706,29,0.12133520383637,1
138,707,29,0.19910419554537,1
138,708,29,0.231571689273836,1
138,709,29,0.156042130834329,1
139,707,29,0.16715602732411,1
139,708,29,0.199214107924061,1
139,709,29,0.142939353380265,1
140,706,29,0.0960695704746432,1
140,707,29,0.114602899932991,1
140,708,29,0.129985098397155,1
140,709,29,0.109266177760434,1
140,710,29,0.0817947377283398,1
140,711,29,0.070150991695967,1
140,712,29,0.068231274668291,1
141,704,29,0.0940644632087869,1
141,705,29,0.0942213474062068,1
141,706,29,0.0963716707869932,1
141,707,29,0.102358996374317,1
141,708,29,0.108965479055528,1
141,709,29,0.101968211447314,1
141,710,29,0.0851146006956956,1
141,711,29,0.0755126912319655,1
141,712,29,0.070698391280497,1
142,702,29,0.0817166610059296,1
142,703,29,0.0836663269106329,1
142,704,29,0.0869269749583303,1
142,705,29,0.0909685759131676,1
142,706,29,0.0998184511054154,1
142,707,29,0.123884188698818,1
142,708,29,0.156718999414248,1
142,709,29,0.135322503404109,1
142,710,29,0.0967866184679822,1
142,711,29,0.0832225743997191,1
142,712,29,0.0759549223399264,1
143,701,29,0.0899013656496252,1
143,702,29,0.0819090106635253,1
143,703,29,0.0787822101370384,1
143,704,29,0.0815511754910274,1
143,705,29,0.0826820930057824,1
143,706,29,0.0966836123003344,1
143,707,29,0.167715723917547,1
143,708,29,0.26479522443353,1
143,709,29,0.218473344253572,1
143,710,29,0.119779239879292,1
143,711,29,0.0822706193945286,1
143,712,29,0.0734414927842853,1
144,700,29,0.105513775141723,1
144,701,29,0.0968553331714337,1
144,702,29,0.0823175193359534,1
144,703,29,0.0759492979408206,1
144,704,29,0.0781651554543182,1
144,705,29,0.0752650858962544,1
144,706,29,0.0850038437586732,1
144,707,29,0.170292046114945,1
144,708,29,0.282782591853445,1
144,709,29,0.234705443929569,1
144,710,29,0.117031382493832,1
145,699,29,0.143700605916096,1
145,700,29,0.17309655479619,6
145,701,29,0.126185879693876,1
145,702,29,0.0819513883245189,1
145,703,29,0.0692285243550977,1
145,704,29,0.0721830050329447,1
145,707,29,0.0992131543518162,1
145,708,29,0.154239460007851,1
145,709,29,0.128982757401254,1
145,710,29,0.0765129777349027,1
146,698,29,0.132723875283101,1
146,699,29,0.254799295564078,6
146,700,29,0.356596439025811,6
146,701,29,0.222911168851481,6
146,702,29,0.094232548286215,1
146,708,29,0.0696472396048167,1
147,697,29,0.0883085166556008,1
147,698,29,0.138910390851533,1
147,699,29,0.319526222182525,6
147,700,29,0.458009134742921,6
147,701,29,0.282111928680846,6
147,702,29,0.0983277158025034,1
148,696,29,0.0924941836884903,1
148,697,29,0.0866544222080555,1
148,698,29,0.105443922380944,1
148,699,29,0.198658124991375,1
148,700,29,0.282612362436422,6
148,701,29,0.171186463337591,1
148,702,29,0.0707104906268161,1
149,696,29,0.0896486510354932,1
149,697,29,0.0870111792209804,1
149,698,29,0.0841734632248874,1
149,699,29,0.0937977924179602,1
149,700,29,0.106622398712419,1
149,701,29,0.0750238237326977,1
150,695,29,0.0904416553707489,1
150,696,29,0.0858377283110712,1
150,697,29,0.0839508592117187,1
150,698,29,0.0765732768039095,1
151,696,29,0.0854730647946111,1
151,697,29,0.0820546700218354,1
151,698,29,0.07339953440757,1
152,696,29,0.0875591238750723,1
152,697,29,0.0829169041812274,1
152,698,29,0.0728290142899749,1
153,696,29,0.0882187958098023,1
153,697,29,0.0818959110247135,1
153,698,29,0.073416449533315,1
154,696,29,0.0880882366752894,1
154,697,29,0.0808477781958375,1
154,698,29,0.0741089873656949,1
155,696,29,0.0898638456964853,1
155,697,29,0.0814272829765408,1
155,698,29,0.0725451588335099,1
156,695,29,0.0904760247020254,1
156,696,29,0.0870430028977096,1
156,697,29,0.08181047286833,1
156,698,29,0.0907555974690755,1
156,699,29,0.102342105207674,1
156,700,29,0.0754584478258936,1
157,694,29,0.0806828617095988,1
157,695,29,0.0830170592157822,1
157,696,29,0.0772553385191052,1
157,697,29,0.0924006473557585,1
157,698,29,0.191848936330892,1
157,699,29,0.276862034292566,7
157,700,29,0.169547289420581,1
157,701,29,0.0683044337850934,1
158,695,29,0.0760500339835897,1
158,696,29,0.0677648568472429,1
158,697,29,0.104212340700725,1
158,698,29,0.285470563464402,7
158,699,29,0.418103142590772,7
158,700,29,0.257837117976916,7
158,701,29,0.0788651805059549,1
159,697,29,0.0870205592092653,1
159,698,29,0.199653793377474,1
159,699,29,0.292064228026245,7
159,700,29,0.177408474315076,1
160,695,29,0.076061899728668,1
160,696,29,0.0729423827690741,1
160,697,29,0.0754611731737031,1
160,698,29,0.0964863210780292,1
160,699,29,0.114732746284231,1
160,700,29,0.0799359726551898,1
161,696,29,0.0794512201316256,1
161,697,29,0.0816632322093128,1
161,698,29,0.080090556778854,1
161,699,29,0.0723484426296437,1
162,697,29,0.085725689562112,1
162,698,29,0.0841709295498909,1
162,699,29,0.0727201621015314,1
163,698,29,0.0815061383697537,1
163,699,29,0.0701317285782631,1
164,699,29,0.0696849033125662,1
165,700,29,0.0699428470006272,1
165,701,29,0.068638585385638,1
165,705,29,0.0738406514173054,1
165,706,29,0.0762015812911234,1
165,709,29,0.0693376580629852,1
166,701,29,0.0715925150041478,1
166,705,29,0.0817213450102967,1
166,706,29,0.0873889184171506,1
166,707,29,0.0738711932820979,1
166,708,29,0.0879823134870192,1
166,709,29,0.139113396319575,1
166,710,29,0.140360850904619,1
166,711,29,0.0833111631779659,1
167,702,29,0.0685188737343844,1
167,705,29,0.0733726942239781,1
167,706,29,0.0767890285140144,1
167,707,29,0.0678173572286718,1
167,708,29,0.10280990666684,1
167,709,29,0.179616257611327,1
167,710,29,0.182666766368475,1
167,711,29,0.103869234385949,1
168,708,29,0.0801519759358617,1
168,709,29,0.130507466710266,1
168,710,29,0.133138056272838,1
168,711,29,0.0845127181140775,1
138,707,30,0.135855713210704,1
138,708,30,0.150594238430246,1
139,708,30,0.1410024397074,1
140,708,30,0.112831543652333,1
140,709,30,0.102487980197898,1
140,710,30,0.0825936959003485,1
140,711,30,0.0720922479560011,1
140,712,30,0.0692037865826731,1
141,705,30,0.0928534803661871,1
141,706,30,0.0944024362860402,1
141,707,30,0.0996336964830339,1
141,708,30,0.108048528297807,1
141,709,30,0.101723589019755,1
141,710,30,0.0861279988169954,1
141,711,30,0.077830626497923,1
141,712,30,0.0729906962974946,1
142,703,30,0.0838812939601597,1
142,704,30,0.0879199659148237,1
142,705,30,0.0915215459888247,1
142,706,30,0.0988065444381916,1
142,707,30,0.121138307939241,1
142,708,30,0.15606843792791,1
142,709,30,0.137744996189544,1
142,710,30,0.101291354846945,1
142,711,30,0.0883784412936841,1
142,712,30,0.0812928784062176,1
142,713,30,0.0680541150811236,1
143,701,30,0.0877093234831397,1
143,702,30,0.0844223144338828,1
143,703,30,0.0821840851092458,1
143,704,30,0.0853468662165933,1
143,705,30,0.0871809054968696,1
143,706,30,0.0997521562712278,1
143,707,30,0.163868515133719,1
143,708,30,0.256676371380642,1
143,709,30,0.220235200750437,1
143,710,30,0.1282994677821,1
143,711,30,0.0926720500691555,1
143,712,30,0.0826290355752408,1
144,700,30,0.104025759196845,1
144,701,30,0.0985690977615682,1
144,702,30,0.0869143604913264,1
144,703,30,0.0809305988203688,1
144,704,30,0.0830962799852949,1
144,705,30,0.0814487143929415,1
144,706,30,0.0904121018188983,1
144,707,30,0.168802269176098,1
144,708,30,0.278508288124106,1
144,709,30,0.240936751038483,1
144,710,30,0.128048855579136,1
144,711,30,0.075898618451115,1
145,699,30,0.139606247019488,1
145,700,30,0.166872794804287,1
145,701,30,0.128815882258458,1
145,702,30,0.0895865310747631,1
145,703,30,0.0768660809848302,1
145,704,30,0.0787478527853127,1
145,705,30,0.0749577505202,1
145,706,30,0.0736893676598896,1
145,707,30,0.105864967653296,1
145,708,30,0.161021287374282,1
145,709,30,0.140689941144946,1
145,710,30,0.0840703492412823,1
146,698,30,0.134466025418882,1
146,699,30,0.238562140517639,1
146,700,30,0.31535983024689,6
146,701,30,0.207462292207503,1
146,702,30,0.102409645915146,1
146,703,30,0.0705082877886784,1
146,704,30,0.0698767198801508,1
146,707,30,0.0717183721649674,1
146,708,30,0.0810474473589786,1
146,709,30,0.0733491544066346,1
147,697,30,0.094258400156865,1
147,698,30,0.146974233807097,1
147,699,30,0.297872034054892,6
147,700,30,0.402386738618085,6
147,701,30,0.255256147713803,6
147,702,30,0.106432606688921,1
148,696,30,0.0906793176792869,1
148,697,30,0.0902982481679913,1
148,698,30,0.115513585385638,1
148,699,30,0.201753101841132,1
148,700,30,0.267395242182433,6
148,701,30,0.169333909661536,1
148,702,30,0.0814934759845466,1
149,695,30,0.0912069270458773,1
149,696,30,0.090409969458854,1
149,697,30,0.0887461176671732,1
149,698,30,0.0899856417895801,1
149,699,30,0.104440227695801,1
149,700,30,0.117981241077631,1
149,701,30,0.0852125574826766,1
150,696,30,0.0894649326442568,1
150,697,30,0.0873184726686069,1
150,698,30,0.0802099569617866,1
150,699,30,0.0725856976334541,1
151,696,30,0.0896871233629225,1
151,697,30,0.0851549598023777,1
151,698,30,0.0774915872406475,1
151,699,30,0.0697616622843873,1
152,696,30,0.0941497815696623,1
152,697,30,0.0869921077760894,1
152,698,30,0.0771851084024761,1
152,699,30,0.0694110208321514,1
153,697,30,0.0858671500878628,1
153,698,30,0.0765606024391516,1
153,699,30,0.0696819443635159,1
154,697,30,0.0861508977283705,1
154,698,30,0.0785419362864236,1
154,699,30,0.0732739348070928,1
155,697,30,0.0854177671880678,1
155,698,30,0.0763748894527051,1
155,699,30,0.0712440658097103,1
155,702,30,0.0677864739466812,1
156,696,30,0.0903483346699318,1
156,697,30,0.0859599616577705,1
156,698,30,0.0974697942814033,1
156,699,30,0.117145212185637,1
156,700,30,0.086592799398684,1
156,701,30,0.0703779323065293,1
156,702,30,0.0726181741957025,1
156,703,30,0.0684245647206254,1
157,694,30,0.0831139138840885,1
157,695,30,0.0866325295789485,1
157,696,30,0.0799200039139588,1
157,697,30,0.0972814817324309,1
157,698,30,0.205446708824463,1
157,699,30,0.318450362683297,7
157,700,30,0.196485130310679,1
157,701,30,0.084944425186651,1
158,695,30,0.0798215978938225,1
158,696,30,0.0704257067551633,1
158,697,30,0.114227005587646,1
158,698,30,0.322606140736913,7
158,699,30,0.505962845375242,7
158,700,30,0.318476334349455,7
158,701,30,0.108054134727587,1
158,703,30,0.0684112674192252,1
159,696,30,0.0689667651801034,1
159,697,30,0.0920696104384247,1
159,698,30,0.221465572496025,7
159,699,30,0.352084101621859,7
159,700,30,0.218660321082629,7
159,701,30,0.0864283980331303,1
159,703,30,0.0789640237796959,1
160,696,30,0.0743446430994721,1
160,697,30,0.0776016493637229,1
160,698,30,0.104886274290696,1
160,699,30,0.137914099528792,7
160,700,30,0.0959685708817563,1
160,703,30,0.0737527275041286,1
161,697,30,0.0831102481415404,1
161,698,30,0.0828053446143006,1
161,699,30,0.0780153990896308,1
162,698,30,0.0888282135288805,1
162,699,30,0.0806781896847826,1
163,699,30,0.0759967010233795,1
164,700,30,0.0691074470350516,1
165,701,30,0.0730897072849469,1
165,702,30,0.0678844606825392,1
165,705,30,0.0830098954443973,1
165,706,30,0.0933922187354808,1
165,707,30,0.0803938849951622,1
165,708,30,0.0700875240357707,1
165,709,30,0.0855331542214787,1
165,710,30,0.0879252369171805,1
166,702,30,0.0736936263902029,1
166,704,30,0.070974046734432,1
166,705,30,0.0939999712969963,1
166,706,30,0.109539155784762,1
166,707,30,0.0923272127092876,1
166,708,30,0.108535580895127,1
166,709,30,0.203681258462355,1
166,710,30,0.218794396215305,1
166,711,30,0.117835198373695,1
167,704,30,0.0677614067366094,1
167,705,30,0.0819929573658329,1
167,706,30,0.0908166392702326,1
167,707,30,0.0782687546097312,1
167,708,30,0.133586618573402,1
167,709,30,0.284541621176319,1
167,710,30,0.306769270401271,8
167,711,30,0.159890873000661,1
168,708,30,0.0913985938690767,1
168,709,30,0.186810684666788,1
168,710,30,0.20194053389312,1
168,711,30,0.112203887067145,1
169,709,30,0.0736501645798609,1
169,710,30,0.0773277848526343,1
141,708,31,0.101343537770278,1
141,709,31,0.0963025128401617,1
141,710,31,0.0833280124161815,1
141,711,31,0.0769000909295825,1
141,712,31,0.073296893616222,1
142,705,31,0.0899815867116305,1
142,706,31,0.0935370275456833,1
142,707,31,0.108582169368231,1
142,708,31,0.134183679385819,1
142,709,31,0.123659344509647,1
142,710,31,0.0966634207674426,1
142,711,31,0.0861778157790427,1
142,712,31,0.0809720899946025,1
142,713,31,0.0708932506539876,1
143,703,31,0.0853898009266997,1
143,704,31,0.0876610998013503,1
143,705,31,0.0904342400287969,1
143,706,31,0.0979887005043295,1
143,707,31,0.137957429564075,1
143,708,31,0.198521150807403,1
143,709,31,0.179903670994383,1
143,710,31,0.118438704184448,1
143,711,31,0.0929889271574308,1
143,712,31,0.0846205700100283,1
143,713,31,0.0715412784653295,1
144,701,31,0.0962130375751549,1
144,702,31,0.0893609980614212,1
144,703,31,0.0848411075506821,1
144,704,31,0.0860066878957085,1
144,705,31,0.086842411309156,1
144,706,31,0.0936766072819568,1
144,707,31,0.142986648646867,1
144,708,31,0.215246867874563,1
144,709,31,0.195372349835851,1
144,710,31,0.119853752685336,1
144,711,31,0.0815304029499213,1
144,712,31,0.0708827146390494,1
145,699,31,0.125341668768679,1
145,700,31,0.142860827424699,1
145,701,31,0.121020812504888,1
145,702,31,0.0945042624679331,1
145,703,31,0.08382855997749,1
145,704,31,0.0830246602407717,1
145,705,31,0.0808109770157463,1
145,706,31,0.0807555536239195,1
145,707,31,0.10329976247905,1
145,708,31,0.141676828520301,1
145,709,31,0.129782859620365,1
145,710,31,0.0868121509638076,1
146,698,31,0.125112224431997,1
146,699,31,0.191099016450128,1
146,700,31,0.228469273123025,1
146,701,31,0.166015035007123,1
146,702,31,0.103265524922833,1
146,703,31,0.0807599141804147,1
146,704,31,0.076358962639902,1
146,705,31,0.0717592763412113,1
146,706,31,0.0688968645011217,1
146,707,31,0.0752673200824806,1
146,708,31,0.0845890518118448,1
146,709,31,0.0792031715525345,1
147,698,31,0.140624365083807,1
147,699,31,0.234406841646055,1
147,700,31,0.282892923516414,6
147,701,31,0.191994284220881,1
147,702,31,0.104257515586833,1
147,703,31,0.0744652112886087,1
148,697,31,0.0945319711689588,1
148,698,31,0.121247693217696,1
148,699,31,0.182746825706544,1
148,700,31,0.213200952268869,1
148,701,31,0.145169179050008,1
148,702,31,0.0865349022296148,1
149,696,31,0.0911467717314802,1
149,697,31,0.091528434230541,1
149,698,31,0.0969471025204208,1
149,699,31,0.111060498839996,1
149,700,31,0.117629701159084,1
149,701,31,0.0891865099140846,1
149,702,31,0.0698383972971067,1
150,696,31,0.0932130106451247,1
150,697,31,0.0901178481123295,1
150,698,31,0.0845795160893993,1
150,699,31,0.0800404403280365,1
150,700,31,0.0756300249423831,1
151,696,31,0.0951349798283532,1
151,697,31,0.0882662528003398,1
151,698,31,0.081077426184883,1
151,699,31,0.0759752576274279,1
151,700,31,0.0716696034136161,1
152,697,31,0.0897773952680583,1
152,698,31,0.0808382484631674,1
152,699,31,0.0765105279167619,1
152,700,31,0.0722400217050293,1
153,697,31,0.0900013829193456,1
153,698,31,0.0805037734147508,1
153,699,31,0.0756997758769798,1
153,700,31,0.0716826790933263,1
154,697,31,0.0913578154781163,1
154,698,31,0.0833241370314941,1
154,699,31,0.0787335671709706,1
154,700,31,0.0750718497518987,1
154,701,31,0.070262922628969,1
155,697,31,0.092158073431388,1
155,698,31,0.0851303298459104,1
155,699,31,0.081281288190808,1
155,700,31,0.0777046255824937,1
155,701,31,0.0767302568377359,1
155,702,31,0.0786234391603657,1
155,703,31,0.0754244079322644,1
156,696,31,0.0966450561160495,1
156,697,31,0.0942775973870395,1
156,698,31,0.106468293770787,1
156,699,31,0.125040586718147,1
156,700,31,0.0998766717223566,1
156,701,31,0.0840021376789649,1
156,702,31,0.0845556049059807,1
156,703,31,0.0804938663262302,1
157,695,31,0.0928188055563648,1
157,696,31,0.088498009190328,1
157,697,31,0.10361914928322,1
157,698,31,0.192082717264967,1
157,699,31,0.291431563988819,7
157,700,31,0.196237656750026,1
157,701,31,0.100101150535227,1
157,702,31,0.0773222323308334,1
157,703,31,0.0745694333806637,1
158,696,31,0.0812284523819564,1
158,697,31,0.119353055379643,1
158,698,31,0.293678017275087,7
158,699,31,0.463495002323075,7
158,700,31,0.314740080165237,7
158,701,31,0.128675913186783,1
158,702,31,0.0795593894856728,1
158,703,31,0.0891664501562517,1
158,704,31,0.0742770844226738,1
159,697,31,0.100308923864492,1
159,698,31,0.213572126671195,7
159,699,31,0.340103113264832,7
159,700,31,0.232609837147111,7
159,701,31,0.107607105809526,1
159,702,31,0.0894398414750833,1
159,703,31,0.11205534063709,1
159,704,31,0.0938551385276921,1
160,697,31,0.085951917389401,1
160,698,31,0.113691747277863,1
160,699,31,0.151606738085235,7
160,700,31,0.114865300013954,1
160,701,31,0.0794272969686561,1
160,702,31,0.083272918462002,1
160,703,31,0.100280945623573,1
160,704,31,0.0841820345934926,1
161,698,31,0.0882247376670045,1
161,699,31,0.0875018795915222,1
161,700,31,0.0763450424018597,1
161,701,31,0.0695571713520447,1
161,702,31,0.071247444043039,1
161,703,31,0.0724287595280555,1
162,699,31,0.0865786096207485,1
162,700,31,0.075247056672284,1
162,701,31,0.0696823456784681,1
163,700,31,0.0735290393416115,1
163,701,31,0.0701056371165969,1
164,701,31,0.07116133503181,1
164,706,31,0.0715769415880936,1
164,707,31,0.0698297720205228,1
165,702,31,0.0718043913295653,1
165,704,31,0.0691351138076494,1
165,705,31,0.0868200335082412,1
165,706,31,0.101548256314086,1
165,707,31,0.0925951293733986,1
165,708,31,0.0832954939255052,1
165,709,31,0.102825348307836,1
165,710,31,0.111330733547189,1
165,711,31,0.0815133919877697,1
166,704,31,0.0741257826959318,1
166,705,31,0.0986221372227836,1
166,706,31,0.119014549212378,1
166,707,31,0.105959893613922,1
166,708,31,0.126744845534713,1
166,709,31,0.242233944718494,1
166,710,31,0.276015631109571,8
166,711,31,0.150838705123644,1
166,712,31,0.0683593839846631,1
167,705,31,0.0862081539914713,1
167,706,31,0.0976257081352075,1
167,707,31,0.0882958063521904,1
167,708,31,0.157782172569167,1
167,709,31,0.34715686445512,8
167,710,31,0.396579723239792,8
167,711,31,0.210541372193335,8
168,708,31,0.104654577798461,1
168,709,31,0.221674567739472,1
168,710,31,0.25544532878021,8
142,708,32,0.107854423636018,1
142,709,32,0.103348052048369,1
142,710,32,0.0876552178419021,1
142,711,32,0.0803858227574664,1
142,712,32,0.0778418872756853,1
142,713,32,0.0715156841550219,1
143,707,32,0.110164188848322,1
143,708,32,0.137531436737238,1
143,709,32,0.131534988721972,1
143,710,32,0.101771638998057,1
143,711,32,0.0868669813678692,1
143,712,32,0.081144331976162,1
143,713,32,0.0719249056107232,1
144,705,32,0.090912194157276,1
144,706,32,0.0957181383720538,1
144,707,32,0.114572519792135,1
144,708,32,0.147009154197711,1
144,709,32,0.139596986826711,1
144,710,32,0.103367075575057,1
144,711,32,0.0811865539029952,1
144,712,32,0.0719600416332517,1
145,701,32,0.104823022262414,1
145,704,32,0.0838913088646376,1
145,705,32,0.0839676186033032,1
145,706,32,0.0850302227295589,1
145,707,32,0.0948061171994915,1
145,708,32,0.113992793389741,1
145,709,32,0.108435288095738,1
145,710,32,0.084129198784641,1
145,711,32,0.0677527275520468,1
146,699,32,0.140793336647995,1
146,700,32,0.150009085291335,1
146,701,32,0.124528185391312,1
146,703,32,0.0853444583268804,1
146,704,32,0.0795646485084788,1
146,705,32,0.0756270180751296,1
146,706,32,0.0728603827437733,1
146,707,32,0.0746633830078985,1
146,708,32,0.080453267628532,1
146,709,32,0.0778056850731347,1
147,698,32,0.126685798328766,1
147,699,32,0.167626584079963,1
147,700,32,0.175831953448807,1
147,701,32,0.133336653266181,1
147,702,32,0.0971246634225404,1
147,703,32,0.0800465199500731,1
147,704,32,0.0718506683343479,1
148,698,32,0.120712087500939,1
148,699,32,0.152951442663761,1
148,700,32,0.154847649822971,1
148,701,32,0.114121274072189,1
148,702,32,0.0840350634743687,1
148,703,32,0.0708992224600669,1
149,697,32,0.0943434729369488,1
149,698,32,0.10161509022806,1
149,699,32,0.111751263698856,1
149,700,32,0.109050521886735,1
149,701,32,0.0863381560768715,1
149,702,32,0.0719909967925472,1
150,697,32,0.0930622000799659,1
150,698,32,0.0887361926093263,1
150,699,32,0.0863762690177765,1
150,700,32,0.0828838166618876,1
150,701,32,0.073248322527459,1
151,697,32,0.0932461460826677,1
151,698,32,0.0854561796177431,1
151,699,32,0.0823755303107553,1
151,700,32,0.0802204330789707,1
151,701,32,0.0719508053995765,1
152,697,32,0.0942707810226281,1
152,698,32,0.0850076173171786,1
152,699,32,0.0828395162829888,1
152,700,32,0.0816214535258597,1
152,701,32,0.072972457431385,1
153,697,32,0.0947058244001024,1
153,699,32,0.0806836224110753,1
153,700,32,0.0801288793618982,1
153,701,32,0.0747772007201531,1
154,697,32,0.0962578410951878,1
154,698,32,0.0866511937191119,1
154,699,32,0.0824534632785558,1
154,700,32,0.0814123564562304,1
154,701,32,0.0794932324163195,1
154,702,32,0.07443731091477,1
154,703,32,0.0700610731875802,1
155,696,32,0.10477361859487,1
155,697,32,0.0993942851600775,1
155,698,32,0.0931933941306718,1
155,700,32,0.0858002982045624,1
155,701,32,0.0843012790422646,1
155,702,32,0.0841020890611559,1
155,703,32,0.08118551767185,1
155,704,32,0.0710274515719471,1
156,696,32,0.102874823852685,1
156,697,32,0.102258799411334,1
156,698,32,0.111145266141534,1
156,699,32,0.121919254856606,1
156,700,32,0.105078246592441,1
156,701,32,0.0915858042993745,1
156,702,32,0.0891130153698595,1
156,703,32,0.0851322645433664,1
156,704,32,0.071113722307112,1
157,696,32,0.0978076475631485,1
157,697,32,0.108948587888885,1
157,698,32,0.163171880294961,1
157,699,32,0.223600615959752,1
157,700,32,0.171710952031195,1
157,701,32,0.106958329276259,1
157,702,32,0.0872528906176925,1
157,703,32,0.0819351799922717,1
157,704,32,0.0685530334235218,1
158,697,32,0.120768463267055,1
158,698,32,0.228591871846024,1
158,699,32,0.339046612719715,7
158,700,32,0.257639335593028,1
158,701,32,0.13312774187959,1
158,702,32,0.0964543117182624,1
158,703,32,0.105676924644217,1
158,704,32,0.0899752495292516,1
159,698,32,0.18759025393581,1
159,699,32,0.27595800947017,7
159,700,32,0.213726135776421,1
159,702,32,0.109878764070701,1
159,703,32,0.1391174573873,1
159,704,32,0.120083005349205,1
159,705,32,0.0728253126087743,1
160,699,32,0.150757268137232,1
160,702,32,0.0968564293003329,1
160,703,32,0.119608627116643,1
160,704,32,0.103253066189989,1
160,705,32,0.0686268274565171,1
161,699,32,0.0974006003959194,1
162,700,32,0.0814973034510307,1
163,701,32,0.0748730670755176,1
164,706,32,0.0770763879890915,1
165,704,32,0.0718346097464859,1
165,705,32,0.086784975352793,1
165,706,32,0.100366437687935,1
165,707,32,0.0957210553926763,1
166,705,32,0.0963870046120312,1
166,706,32,0.114436084687949,1
166,707,32,0.107390311878501,1
166,708,32,0.131576509845082,1
166,709,32,0.235267069230687,1
166,710,32,0.276415772065758,8
166,711,32,0.162545565419464,1
167,708,32,0.161804809895071,1
167,709,32,0.33630149865139,8
167,710,32,0.397054161370108,8
167,711,32,0.222765473554519,8
168,710,32,0.262911152559292,8
143,712,33,0.0729298821078029,1
143,713,33,0.0686229760309314,1
144,708,33,0.0952324754026279,1
144,709,33,0.0954856093010382,1
144,710,33,0.0864223783088478,1
144,711,33,0.0769101178136112,1
144,712,33,0.0682195287187209,1
145,707,33,0.083804097734734,1
145,708,33,0.0879684591365063,1
145,709,33,0.087547479751684,1
145,710,33,0.078542858711836,1
145,711,33,0.0684284161462111,1
146,708,33,0.0746286662696484,1
146,709,33,0.0740182782069545,1
147,699,33,0.124742080271041,1
147,703,33,0.0791799611728383,1
152,700,33,0.0881964779066415,1
154,704,33,0.0721457306605965,1
155,702,33,0.0851856753706569,1
155,703,33,0.0816674250520967,1
155,704,33,0.0741605952705883,1
156,701,33,0.0947134074557657,1
156,702,33,0.0896113227551664,1
156,703,33,0.0844679325633709,1
156,704,33,0.0748107314828729,1
157,699,33,0.154754137449341,1
157,703,33,0.0880167067773973,1
157,704,33,0.0764095103545487,1
158,699,33,0.208295326211794,1
158,703,33,0.112747159696421,1
158,704,33,0.0966964423992529,1
159,704,33,0.126251515652769,1
167,710,33,0.293669511794012,8
