x,y,z,signal,cytoplasm.p
687,700,1,0.10769757537725,1
688,699,1,0.114865000525184,1
688,700,1,0.119664104416448,1
688,701,1,0.102976278668503,1
689,698,1,0.109261709387981,1
689,699,1,0.148035358458828,1
689,700,1,0.158146051425049,1
689,701,1,0.13210178918904,1
690,698,1,0.117870454191731,1
690,699,1,0.172827158657554,1
690,700,1,0.193768874980258,1
690,701,1,0.161861652863668,1
691,699,1,0.137559696497601,1
691,700,1,0.156981363556558,1
691,701,1,0.135693090808445,1
686,700,2,0.089337625957789,1
687,699,2,0.0962285870321075,1
687,700,2,0.105344420231909,1
687,701,2,0.0898898533012959,1
688,698,2,0.0839099789945764,1
688,699,2,0.109224033700681,1
688,700,2,0.114624523022205,1
688,701,2,0.0934437607528448,1
688,702,2,0.0772461262445316,1
689,697,2,0.0734040087697979,1
689,698,2,0.105870166778348,1
689,699,2,0.156755117759943,1
689,700,2,0.160669663598879,1
689,701,2,0.119208378344499,1
689,702,2,0.0873165619302526,1
690,697,2,0.0738193757350652,1
690,698,2,0.124318135947393,1
690,699,2,0.201503160493013,1
690,700,2,0.211810342051635,1
690,701,2,0.153708646111419,1
690,702,2,0.100233177164714,1
691,698,2,0.0978206034473506,1
691,699,2,0.152798355983949,1
691,700,2,0.162664654134076,1
691,701,2,0.121638286471886,1
691,702,2,0.0833992847537311,1
692,699,2,0.0851115638795651,1
692,700,2,0.089699228699017,1
692,701,2,0.0781098338886734,1
696,709,2,0.150780748056821,1
697,708,2,0.141101223083387,1
697,709,2,0.153355464994411,1
698,709,2,0.121902806933342,1
686,700,3,0.0843022913143082,1
687,699,3,0.0901397287618856,1
687,700,3,0.0993876844275806,1
687,701,3,0.084939196112722,1
688,698,3,0.0815353804532832,1
688,699,3,0.106842043776537,1
688,700,3,0.113044420270243,1
688,701,3,0.0903262443782364,1
688,702,3,0.0736404851028056,1
689,697,3,0.072729182703292,1
689,698,3,0.106538877284165,1
689,699,3,0.166836999906464,1
689,700,3,0.166608969156778,1
689,701,3,0.113419200517363,1
689,702,3,0.0792265137072895,1
690,697,3,0.0745915356519099,1
690,698,3,0.132770727306322,1
690,699,3,0.226577678090877,1
690,700,3,0.225003780746236,1
690,701,3,0.144631572748266,1
690,702,3,0.0879333890015073,1
691,698,3,0.103415820367306,1
691,699,3,0.169884154389384,1
691,700,3,0.168232186312108,1
691,701,3,0.11030685331893,1
691,702,3,0.0723982176632631,1
692,699,3,0.0881317703629363,1
692,700,3,0.0874051926369272,1
692,701,3,0.0706924194744178,1
695,709,3,0.104480155538654,1
696,708,3,0.145395245153361,1
696,709,3,0.172294871276372,1
696,710,3,0.120171689963858,1
697,707,3,0.152327487759774,1
697,708,3,0.166611700494363,1
697,709,3,0.197119591280727,1
697,710,3,0.1371253659034,1
698,708,3,0.13016361766334,1
698,709,3,0.15291049655909,1
698,710,3,0.1115185010266,1
699,709,3,0.103838938101948,1
686,700,4,0.0757587991238252,1
687,699,4,0.0809459446249576,1
687,700,4,0.0878451955484373,1
687,701,4,0.0757866875181131,1
688,698,4,0.0760619176979942,1
688,699,4,0.100317662946808,1
688,700,4,0.10697961693805,1
688,701,4,0.0835530303088386,1
689,697,4,0.0690646321204533,1
689,698,4,0.101824540694438,1
689,699,4,0.162697238512282,1
689,700,4,0.161184233224412,1
689,701,4,0.102803497607157,1
689,702,4,0.0684520038817578,1
690,697,4,0.072803695509336,1
690,698,4,0.131902185913428,1
690,699,4,0.225547820066763,1
690,700,4,0.214809470515355,1
690,701,4,0.124748561208029,1
690,702,4,0.0717560778011448,1
691,698,4,0.104234694542538,1
691,699,4,0.170293196151823,1
691,700,4,0.157763580306308,1
691,701,4,0.0924671817809624,1
692,699,4,0.085829851756413,1
692,700,4,0.0794329033984356,1
695,708,4,0.0832577044324721,1
695,709,4,0.0936874847140932,1
696,707,4,0.127283290405012,1
696,708,4,0.148080281774369,1
696,709,4,0.187639885214819,1
696,710,4,0.119333265161703,1
697,707,4,0.157004016887142,1
697,708,4,0.201040007099561,1
697,709,4,0.259223295760351,1
697,710,4,0.163519023718361,1
698,707,4,0.103887191732615,1
698,708,4,0.1547897286948,1
698,709,4,0.206931190801852,1
698,710,4,0.134820344593217,1
699,708,4,0.0905343890735763,1
699,709,4,0.114892349839685,1
662,685,5,0.0765246697764942,1
665,694,5,0.0850388180572657,1
665,705,5,0.0886083528328475,1
667,698,5,0.0727208329563768,1
667,699,5,0.0713332475757223,1
667,700,5,0.0761549209407148,1
667,701,5,0.0849281569566497,1
667,702,5,0.092039272225996,1
668,700,5,0.0783071071416523,1
668,701,5,0.0831177952585513,1
669,697,5,0.0755080072275984,1
669,698,5,0.0772258748138857,1
669,700,5,0.0779309971643924,1
669,701,5,0.0779734227435893,1
670,698,5,0.0708923641672276,1
670,699,5,0.0734153474146404,1
670,700,5,0.0746232874513343,1
670,701,5,0.0733658778595667,1
670,710,5,0.0907985142098557,1
670,711,5,0.090085311652327,1
671,698,5,0.0687855984331898,1
671,699,5,0.0767860875342903,1
671,701,5,0.0778553762498984,1
671,710,5,0.0872332681134642,1
671,711,5,0.0868628304535132,1
671,712,5,0.0872582035484771,1
672,698,5,0.0727627673739905,1
672,710,5,0.0856474750748674,1
672,711,5,0.0851813866914666,1
672,712,5,0.0851779545501592,1
674,702,5,0.0821365622311789,1
675,697,5,0.0741964081377376,1
675,701,5,0.0775430513909313,1
675,702,5,0.0751596119411396,1
676,700,5,0.0698323416341717,1
676,702,5,0.072168575663993,1
677,693,5,0.0679896291591084,1
678,702,5,0.0687538166848884,1
682,708,5,0.0709739209491484,1
685,693,5,0.069281342194623,1
685,710,5,0.0704640832461861,1
685,711,5,0.084228647025698,1
686,711,5,0.0788236054748656,1
686,712,5,0.0917478636627448,1
686,713,5,0.0944755414948639,1
687,699,5,0.0718377783376754,1
687,700,5,0.0749877592949814,1
687,712,5,0.0786388328831578,1
688,698,5,0.0716390016510696,1
688,699,5,0.0893625673825774,1
688,700,5,0.0945709047090943,1
688,701,5,0.074903549042556,1
689,698,5,0.0926080253598465,1
689,699,5,0.137815196357297,1
689,700,5,0.136485801644706,1
689,701,5,0.0884021308554128,1
690,697,5,0.0721315768213134,1
690,698,5,0.119068037906749,1
690,699,5,0.188457453619013,1
690,700,5,0.175881417014106,1
690,701,5,0.101605698260224,1
691,698,5,0.0980890112730448,1
691,699,5,0.146342036972152,1
691,700,5,0.130591071995375,1
691,701,5,0.0768465603067838,1
692,699,5,0.0785867517860073,1
692,700,5,0.0701823960884179,1
692,707,5,0.0716887347562612,1
692,708,5,0.0830402276670505,1
693,707,5,0.071031261069105,1
693,708,5,0.0819907770875853,1
694,708,5,0.0700370841370813,1
695,709,5,0.0826118149709501,1
696,707,5,0.114869193367967,1
696,708,5,0.135249512001018,1
696,709,5,0.180843215184934,1
696,710,5,0.11188338616475,1
697,707,5,0.143361261180275,1
697,708,5,0.202101227587698,1
697,709,5,0.282165597068479,1
697,710,5,0.175009377592375,1
697,711,5,0.0683194381724841,1
698,707,5,0.0909177826177293,1
698,708,5,0.152580244302334,1
698,709,5,0.227445524669824,1
698,710,5,0.144099093694271,1
699,708,5,0.0806629097677232,1
699,709,5,0.111834725229356,1
662,708,6,0.0840956081241672,1
663,693,6,0.135863571796036,1
663,694,6,0.211085483391167,1
663,708,6,0.0921104067987113,1
664,693,6,0.0953532232850267,1
664,694,6,0.145966274401866,1
664,695,6,0.107003360407757,1
664,696,6,0.0697358583319405,1
664,704,6,0.0713708633652686,1
664,705,6,0.0757307250464998,1
664,706,6,0.0833850350780415,1
664,707,6,0.0932475417003372,1
665,694,6,0.0796462232597259,1
665,695,6,0.0707591994804133,1
665,703,6,0.0692974007824851,1
665,704,6,0.0771830419299612,1
665,705,6,0.0857805618946014,1
665,706,6,0.0956198221985485,1
666,701,6,0.0694146266769454,1
666,702,6,0.0728196702403424,1
666,703,6,0.0775623025290844,1
666,704,6,0.0892947211965597,1
666,705,6,0.101832974298209,1
667,700,6,0.0706461424696352,1
667,701,6,0.0762510029279939,1
667,702,6,0.0820778264935529,1
668,697,6,0.0692595993099012,1
668,698,6,0.0706674241416508,1
668,699,6,0.0710994007541175,1
668,700,6,0.0726563889627894,1
668,701,6,0.0764188783632828,1
669,697,6,0.0687218193046724,1
669,698,6,0.0709349933987883,1
669,699,6,0.0718016480124296,1
669,700,6,0.0724045847945191,1
669,701,6,0.0730987099173813,1
669,711,6,0.09293366548954,1
670,699,6,0.0688921146092251,1
670,700,6,0.0701127469800032,1
670,701,6,0.0699247219402502,1
670,702,6,0.0733551741309171,1
670,710,6,0.0905320830100452,1
670,711,6,0.088769855147105,1
670,712,6,0.0913019248838079,1
671,699,6,0.0705842680896967,1
671,700,6,0.073115619053351,1
671,701,6,0.0705992724770874,1
671,702,6,0.0711874025343746,1
671,710,6,0.0868276944309848,1
671,711,6,0.0856374961090419,1
671,712,6,0.0873572804234589,1
672,698,6,0.0682768868080036,1
672,699,6,0.0799584462925111,1
672,701,6,0.0772574049916201,1
672,702,6,0.0727152265265973,1
672,710,6,0.0854756463878108,1
672,711,6,0.0844717360707533,1
672,712,6,0.0856019467920105,1
673,698,6,0.0715175409853976,1
673,702,6,0.0743540111082062,1
673,703,6,0.0751394803060018,1
674,698,6,0.071485579543834,1
674,701,6,0.0751347124447791,1
674,702,6,0.0725932327709142,1
675,698,6,0.0712190584973925,1
675,699,6,0.0709942622264254,1
675,700,6,0.0706616260390583,1
675,701,6,0.0684700750341561,1
675,702,6,0.0690262795885321,1
676,697,6,0.0716558209404081,1
676,699,6,0.0684576462501898,1
677,697,6,0.070348486570636,1
678,693,6,0.0714279519146581,1
679,693,6,0.0683981917395151,1
681,702,6,0.0696501087072359,1
682,708,6,0.0702420183128039,1
683,709,6,0.0748739954907054,1
684,706,6,0.0711632218110627,1
684,710,6,0.081534727567764,1
685,705,6,0.067821274541787,1
685,710,6,0.0703179866342714,1
685,711,6,0.0884503305781005,1
686,711,6,0.0802144912217685,1
686,712,6,0.102718442796399,1
687,695,6,0.0690444106386845,1
687,712,6,0.0787484517628532,1
687,713,6,0.0835381876453838,1
688,699,6,0.0760607496917901,1
688,700,6,0.0797605201540129,1
688,713,6,0.0719422819491745,1
689,698,6,0.0784361868016401,1
689,699,6,0.105901433405965,1
689,700,6,0.105801619788608,1
689,701,6,0.0745436533873186,1
690,698,6,0.097547463699086,1
690,699,6,0.138546871382176,1
690,700,6,0.129085314335746,1
690,701,6,0.0812581916168445,1
690,715,6,0.0694024135248937,1
691,698,6,0.0841474795791785,1
691,699,6,0.111713827602572,1
691,700,6,0.0989041058999959,1
692,708,6,0.0711955905573539,1
693,708,6,0.0707023265629385,1
695,709,6,0.0728418923070966,1
696,705,6,0.0699984740448177,1
696,706,6,0.0981151626324651,1
696,707,6,0.0911693531847588,1
696,708,6,0.114354432069622,1
696,709,6,0.161917441631795,1
696,710,6,0.106718654403185,1
697,705,6,0.0773993087607509,1
697,706,6,0.111319017546496,1
697,707,6,0.111792641067357,1
697,708,6,0.175799572722965,1
697,709,6,0.264273586873019,1
697,710,6,0.175089353073589,1
697,711,6,0.0729455992784669,1
698,706,6,0.071254697661055,1
698,707,6,0.0729656171078719,1
698,708,6,0.129700464269888,1
698,709,6,0.208342597519294,1
698,710,6,0.140339419488218,1
699,709,6,0.0955094006889488,1
699,710,6,0.0726425765407044,1
661,708,7,0.0760988386735935,1
662,693,7,0.0932661100040941,1
662,694,7,0.136789075953036,1
662,695,7,0.105356986780709,1
662,706,7,0.0693202757347586,1
662,707,7,0.076069788262877,1
662,708,7,0.0822531172707938,1
663,693,7,0.130735641214562,1
663,694,7,0.198960572710698,1
663,695,7,0.152763723102554,1
663,696,7,0.0799655621456928,1
663,705,7,0.0693770707851532,1
663,706,7,0.0743615462456663,1
663,707,7,0.0832340627889468,1
663,708,7,0.0911123544820004,1
664,693,7,0.0958519739137135,1
664,694,7,0.142995657269076,1
664,695,7,0.113673214912758,1
664,696,7,0.0725938916462088,1
664,704,7,0.0702917933464233,1
664,705,7,0.0743409174591699,1
664,706,7,0.0811786713585616,1
664,707,7,0.090134918972235,1
665,694,7,0.0782817763814626,1
665,695,7,0.0723161337811066,1
665,704,7,0.0739686409381694,1
665,705,7,0.0814955544366123,1
665,706,7,0.0901512530897658,1
666,702,7,0.0681699812965669,1
666,703,7,0.073411987150638,1
666,704,7,0.083528765728671,1
666,705,7,0.0918251736939031,1
667,701,7,0.0712736732695395,1
667,702,7,0.076605873161666,1
667,703,7,0.0877819075815031,1
668,699,7,0.0682937839644225,1
668,700,7,0.0694026770750115,1
668,701,7,0.0730116305625367,1
668,702,7,0.0819211279791705,1
669,698,7,0.0678271205625827,1
669,699,7,0.0689620512268593,1
669,700,7,0.0690412959554736,1
669,701,7,0.070568538939482,1
669,711,7,0.0915836899086564,1
669,712,7,0.0941878585719149,1
670,710,7,0.0902765651810235,1
670,711,7,0.0874043121399426,1
670,712,7,0.089970439739601,1
670,713,7,0.0926033233861532,1
671,709,7,0.0887240094061516,1
671,710,7,0.0865653183091238,1
671,711,7,0.0849365246728912,1
671,712,7,0.0879749879916983,1
672,699,7,0.0684057029178736,1
672,700,7,0.0705239929797915,1
672,701,7,0.0678006038268627,1
672,702,7,0.0678111158826993,1
672,703,7,0.0720198914691031,1
672,710,7,0.0852133181841531,1
672,711,7,0.0846779101299848,1
673,699,7,0.0715063460951648,1
673,700,7,0.0734769223058086,1
673,701,7,0.0702397841265777,1
673,702,7,0.0703120447770692,1
673,703,7,0.0730425857218321,1
673,711,7,0.0851086049305148,1
674,699,7,0.0694131771512973,1
674,700,7,0.0700169165632911,1
674,701,7,0.0683782637567411,1
674,702,7,0.0701562387392222,1
674,703,7,0.0727459241255503,1
675,703,7,0.0703607356613402,1
676,703,7,0.0686570398836623,1
678,703,7,0.0693795265930694,1
679,703,7,0.0728237552671689,1
680,703,7,0.075359832163618,1
681,702,7,0.0691564194387667,1
681,708,7,0.072981232452354,1
682,707,7,0.0690485016552864,1
682,708,7,0.0700797193584174,1
683,709,7,0.075412140872234,1
684,709,7,0.0687307680291281,1
684,710,7,0.0815844307240785,1
685,710,7,0.0712974227290222,1
686,711,7,0.0827591694356999,1
687,712,7,0.079268903347834,1
687,713,7,0.0871721424554514,1
687,714,7,0.0821609705659561,1
687,715,7,0.077413462600034,1
688,700,7,0.0686491393699025,1
688,713,7,0.0717397676427157,1
688,714,7,0.0735140649030979,1
688,715,7,0.0739507374994825,1
689,699,7,0.0814081156952433,1
689,700,7,0.0818210568014714,1
689,714,7,0.0689128212628018,1
689,715,7,0.0720588070399124,1
690,698,7,0.0778619170846412,1
690,699,7,0.0967377299211228,1
690,700,7,0.0911619917507855,1
691,698,7,0.0715532460365896,1
691,699,7,0.0835670583628382,1
691,700,7,0.0755415260107674,1
695,709,7,0.0722887724870544,1
696,706,7,0.0743921539979882,1
696,707,7,0.0766103894523218,1
696,708,7,0.103827270019459,1
696,709,7,0.148492869483848,1
696,710,7,0.112293158679788,1
697,706,7,0.0807237359369657,1
697,707,7,0.0883056355736307,1
697,708,7,0.148993674605499,1
697,709,7,0.23107214200502,1
697,710,7,0.175337629264145,1
697,711,7,0.0822018388035476,1
698,708,7,0.111799169922549,1
698,709,7,0.178194464623332,1
698,710,7,0.137840413311754,1
698,711,7,0.0711271453937956,1
699,709,7,0.0843013928479973,1
699,710,7,0.0721755477625649,1
661,707,8,0.0703602085611045,1
661,708,8,0.0729156803503166,1
662,693,8,0.0879667161118633,1
662,694,8,0.128041428257633,1
662,695,8,0.104284529473912,1
662,707,8,0.0732506525500918,1
662,708,8,0.0790801116168292,1
663,693,8,0.122825196407131,1
663,694,8,0.18896617722375,1
663,695,8,0.153231272991154,1
663,696,8,0.0833409563208327,1
663,706,8,0.0714666758126544,1
663,707,8,0.0788308890417586,1
663,708,8,0.0870957308906039,1
664,693,8,0.0927072459894381,1
664,694,8,0.139775757663462,1
664,695,8,0.116738769985724,1
664,696,8,0.0738173871296306,1
664,704,8,0.0681136354793277,1
664,705,8,0.0716209364884467,1
664,706,8,0.0773450953035561,1
664,707,8,0.0838888051385181,1
665,694,8,0.0756154518188217,1
665,695,8,0.0709764186854925,1
665,704,8,0.070277873108381,1
665,705,8,0.0764996804335026,1
665,706,8,0.0834628662196601,1
665,707,8,0.0946985887514126,1
666,703,8,0.0689037886814904,1
666,704,8,0.0781892343514482,1
666,705,8,0.0832826698163621,1
666,706,8,0.0915869303771508,1
667,702,8,0.0717051048124443,1
667,703,8,0.0820833310971505,1
667,705,8,0.0938832725027716,1
668,701,8,0.068747725083301,1
668,702,8,0.0776839428880186,1
669,710,8,0.0905566949971862,1
669,711,8,0.0888995637335104,1
669,712,8,0.0918532178223515,1
670,709,8,0.090989839615857,1
670,710,8,0.0879613073446722,1
670,711,8,0.0862094477829589,1
670,712,8,0.0892239280410425,1
671,710,8,0.0859466164381671,1
671,711,8,0.0854544905010787,1
671,712,8,0.0895007694705077,1
672,703,8,0.0690273277992281,1
672,711,8,0.0860005663452441,1
673,703,8,0.0710923088600375,1
673,704,8,0.0728011258956871,1
673,711,8,0.0865107634347308,1
674,703,8,0.0710183531031062,1
674,704,8,0.0714047834633897,1
675,703,8,0.0690597205046209,1
675,704,8,0.0704857302945014,1
676,704,8,0.0701768735154941,1
677,704,8,0.0686699718087627,1
678,704,8,0.0705948400432874,1
679,703,8,0.0698298019693998,1
680,702,8,0.0679228551428882,1
680,703,8,0.0729384594661835,1
680,708,8,0.0746372016996012,1
680,709,8,0.0791040826980018,1
681,702,8,0.0683728310304484,1
681,708,8,0.0703446471246011,1
681,709,8,0.0779529257321518,1
682,709,8,0.0812061165094694,1
683,709,8,0.0744128965902173,1
684,706,8,0.0785414571043911,1
684,709,8,0.0681156720029656,1
684,710,8,0.0770626234852098,1
685,705,8,0.0732445908973814,1
686,711,8,0.0765758044891306,1
686,715,8,0.0796220305568632,1
687,712,8,0.074100865230245,1
687,713,8,0.0871910042582032,1
687,714,8,0.0790294261373481,1
687,715,8,0.0716204573064143,1
688,713,8,0.0678511695108357,1
688,714,8,0.0698564864188312,1
688,715,8,0.0690519757250216,1
688,716,8,0.0700309745661678,1
689,715,8,0.0677669592584102,1
690,699,8,0.0690404034789382,1
695,709,8,0.0699033084931757,1
696,708,8,0.0939355273034089,1
696,709,8,0.138890169369764,1
696,710,8,0.118457583956526,1
696,711,8,0.0677753389542025,1
697,707,8,0.0724090771260732,1
697,708,8,0.126423553981964,1
697,709,8,0.202332241245536,1
697,710,8,0.17315223574836,1
697,711,8,0.0886458368473349,1
698,708,8,0.0971121507817184,1
698,709,8,0.151783723968915,1
698,710,8,0.131593448929929,1
698,711,8,0.0728824370968162,1
699,709,8,0.0751131792021964,1
699,710,8,0.0692347956499472,1
661,707,9,0.0684434444927034,1
661,708,9,0.0702618923875992,1
662,693,9,0.0775085562743712,1
662,694,9,0.109570302616871,1
662,695,9,0.0953737083169134,1
662,707,9,0.0700942565433265,1
662,708,9,0.0758571033177797,1
662,709,9,0.0820015886321921,1
663,693,9,0.10777187255138,1
663,694,9,0.163577939149249,1
663,695,9,0.141333171146188,1
663,696,9,0.0830295718566042,1
663,706,9,0.0687770210748091,1
663,707,9,0.0742998036407868,1
663,708,9,0.0816986317819591,1
664,693,9,0.0839917753675135,1
664,694,9,0.12417008067892,1
664,695,9,0.110755715108264,1
664,696,9,0.0738523614282231,1
664,705,9,0.0703551292315607,1
664,706,9,0.074724299023772,1
664,707,9,0.0789084925719118,1
664,708,9,0.0845778449420611,1
665,694,9,0.0715037165837618,1
665,695,9,0.0704051797948488,1
665,704,9,0.0681634464515996,1
665,705,9,0.0739488626997806,1
665,706,9,0.0803070212722321,1
665,707,9,0.0895019135176101,1
666,704,9,0.0741647521747197,1
666,705,9,0.0786830314358747,1
666,706,9,0.0862777611714582,1
667,702,9,0.0694540693479904,1
667,703,9,0.0786790901636579,1
667,704,9,0.0876367813132041,1
667,705,9,0.0872071047744931,1
667,706,9,0.092734116121907,1
668,702,9,0.0752281828899813,1
668,706,9,0.0917802443885867,1
668,711,9,0.0884303846260003,1
668,712,9,0.0914725855646604,1
668,713,9,0.0916128481353302,1
669,707,9,0.0957072789092437,1
669,710,9,0.0879746465745002,1
669,711,9,0.0865632278775073,1
669,712,9,0.0879341497029838,1
669,713,9,0.0890592870844725,1
670,708,9,0.0900215504931358,1
670,709,9,0.0877538335041777,1
670,710,9,0.085270472621072,1
670,711,9,0.0841609985022686,1
670,712,9,0.0861307061954787,1
671,707,9,0.08292824282607,1
671,710,9,0.0831821374259568,1
671,711,9,0.0839659534457405,1
671,712,9,0.0876633759160044,1
672,711,9,0.0847874691119262,1
673,703,9,0.0685942310987606,1
673,704,9,0.0702822935626302,1
673,705,9,0.0721060843371878,1
674,703,9,0.0686930743725016,1
674,704,9,0.0688857774268462,1
674,705,9,0.0701438159450313,1
675,705,9,0.0689434290151237,1
676,705,9,0.070941414438023,1
676,709,9,0.0820042780413492,1
676,710,9,0.0849791479146765,1
677,705,9,0.0708544848275635,1
677,709,9,0.0817106652407487,1
677,710,9,0.0838079850989722,1
678,705,9,0.0708315859161884,1
678,709,9,0.0809702032153498,1
678,710,9,0.0832565124671664,1
679,708,9,0.0738294804861743,1
679,709,9,0.0782677063990352,1
679,710,9,0.0820364670943782,1
680,704,9,0.0703763210569452,1
680,707,9,0.0698539108154068,1
680,708,9,0.0709604020260583,1
680,709,9,0.0754470013650938,1
680,710,9,0.0838983228916374,1
681,703,9,0.0733753237353811,1
681,709,9,0.0747448080147603,1
682,702,9,0.0685330695020954,1
682,709,9,0.0775194037576305,1
683,702,9,0.0725241946195908,1
683,709,9,0.0719215872751486,1
683,710,9,0.096334306568014,1
684,703,9,0.0926438382269958,1
684,706,9,0.0773236578973799,1
684,710,9,0.0717996534172196,1
685,704,9,0.0731900240434377,1
685,705,9,0.0705740375533042,1
685,711,9,0.0906032175827605,1
686,712,9,0.131704774895615,1
686,715,9,0.0799766372404175,1
686,716,9,0.0708437032318336,1
687,712,9,0.0685578492029478,1
687,713,9,0.0873891879570438,1
687,714,9,0.077756335313569,1
687,715,9,0.0691793003808155,1
687,716,9,0.0682286930750913,1
696,708,9,0.081116263888612,1
696,709,9,0.119991457621908,1
696,710,9,0.112624033873186,1
696,711,9,0.069065764188005,1
697,708,9,0.104098151622395,1
697,709,9,0.163344745213163,1
697,710,9,0.151639645911312,1
697,711,9,0.0853714362753066,1
698,708,9,0.0828853500443914,1
698,709,9,0.120034883493597,1
698,710,9,0.110650295061128,1
658,681,10,0.0701037024191409,1
661,709,10,0.0795387906480534,1
662,694,10,0.0786692309933405,1
662,695,10,0.0744926145110887,1
662,708,10,0.0710056547792466,1
662,709,10,0.0759509930472604,1
663,693,10,0.0814198197163856,1
663,694,10,0.117186841124705,1
663,695,10,0.109413154869333,1
663,696,10,0.0731761637031494,1
663,707,10,0.0685248694995653,1
663,708,10,0.07419112515583,1
664,694,10,0.0931673925156367,1
664,695,10,0.0906788504768053,1
664,706,10,0.0700170663076763,1
664,707,10,0.0724144259955103,1
664,708,10,0.0763159800115924,1
665,705,10,0.0685674807617998,1
665,706,10,0.0743531785294248,1
665,707,10,0.0814263066431497,1
665,708,10,0.0915149093176754,1
666,705,10,0.0712351650034578,1
666,706,10,0.0782190454636412,1
666,707,10,0.101368802642938,1
667,703,10,0.072035548742013,1
667,704,10,0.0771440365125208,1
667,705,10,0.0778339029050698,1
667,706,10,0.0823342188297838,1
667,707,10,0.118550820800487,1
667,712,10,0.0870971444775996,1
667,713,10,0.0840049888120579,1
668,702,10,0.0692005041857509,1
668,703,10,0.0809924372616549,1
668,706,10,0.0804797604051503,1
668,707,10,0.0942408141762746,1
668,710,10,0.0911401410501063,1
668,711,10,0.0847184010117258,1
668,712,10,0.0855462897989429,1
668,713,10,0.0844232907672739,1
669,702,10,0.0678049583935825,1
669,707,10,0.0839797239393977,1
669,708,10,0.0914452122910575,1
669,709,10,0.0897878773750178,1
669,710,10,0.0840149977267604,1
669,711,10,0.0828689739984329,1
669,712,10,0.0829089557492644,1
669,713,10,0.0834174996607391,1
670,707,10,0.079793655591556,1
670,708,10,0.0819202175333089,1
670,709,10,0.0815643410173686,1
670,710,10,0.0806710139338468,1
670,711,10,0.0808756066923713,1
670,712,10,0.0818708797532941,1
671,707,10,0.0731708747314664,1
671,708,10,0.0755999083516445,1
671,710,10,0.0779047200196886,1
671,711,10,0.0802862547209014,1
671,712,10,0.0833468203109546,1
672,706,10,0.0686085766108567,1
672,707,10,0.0706249746033523,1
672,711,10,0.0802017509694811,1
673,705,10,0.0682551199641802,1
673,706,10,0.0701298897172136,1
673,711,10,0.0803019119938113,1
674,706,10,0.0693340342488649,1
674,710,10,0.0771745903568641,1
675,706,10,0.0678104629971801,1
675,707,10,0.0708955028095401,1
675,708,10,0.071454630374314,1
675,709,10,0.072557893096022,1
675,710,10,0.0767879623339922,1
676,706,10,0.0697808834736634,1
676,707,10,0.0742506934722373,1
676,708,10,0.074609145591602,1
676,709,10,0.0741873575871,1
676,710,10,0.0767763541492564,1
676,711,10,0.0785053088098192,1
677,706,10,0.0693162026874828,1
677,708,10,0.0740312879991352,1
677,709,10,0.0744313810371186,1
677,710,10,0.0765597878296964,1
677,711,10,0.0773443825202828,1
678,708,10,0.0710891163097463,1
678,709,10,0.0732533958672275,1
678,710,10,0.0771430302302527,1
678,711,10,0.0783460826102157,1
679,709,10,0.070790585903538,1
679,710,10,0.0767425238977663,1
679,711,10,0.0813350643943982,1
680,709,10,0.0684192817387178,1
680,710,10,0.0766185415366486,1
680,711,10,0.0866277617177258,1
681,704,10,0.0729247967884837,1
681,705,10,0.0705741872976893,1
681,710,10,0.0859816566242891,1
682,703,10,0.082092231903403,1
682,706,10,0.0681409308858504,1
682,709,10,0.0684959508639077,1
682,710,10,0.0995532118709107,1
683,703,10,0.0984336869089769,1
683,706,10,0.0791529772346367,1
683,710,10,0.0810876866701526,1
683,711,10,0.105460981261299,1
684,703,10,0.0755435206059774,1
684,704,10,0.101393288844796,1
684,705,10,0.0922799653608892,1
684,711,10,0.0826697001604685,1
684,715,10,0.0787615274425633,1
685,711,10,0.0786291174674501,1
685,715,10,0.0886076160904726,1
685,716,10,0.0698471243998724,1
686,712,10,0.115183572719899,1
686,714,10,0.12701129470385,1
686,715,10,0.0747244068397293,1
687,713,10,0.0819769706552757,1
687,714,10,0.072658407517101,1
695,679,10,0.0715310299596107,1
696,709,10,0.0915510815713491,1
696,710,10,0.0924423601516822,1
697,708,10,0.0800220097891139,1
697,709,10,0.116345732903168,1
697,710,10,0.113924617766076,1
697,711,10,0.0708781983483937,1
698,709,10,0.0830366098427056,1
698,710,10,0.0786335678705764,1
698,720,10,0.0753608564152124,1
658,681,11,0.0692206657697657,1
662,708,11,0.0679403213279706,1
662,709,11,0.072885713503963,1
663,694,11,0.0740399492143715,1
663,695,11,0.0749233572298218,1
663,708,11,0.0690960305231288,1
663,709,11,0.0749003085740616,1
664,695,11,0.0692397551839829,1
664,708,11,0.0706595356074418,1
664,709,11,0.0759693157702257,1
665,706,11,0.0689410810231648,1
665,707,11,0.0742085913409123,1
665,708,11,0.081257179344801,1
665,709,11,0.0820372757140579,1
666,706,11,0.0702234739681486,1
666,707,11,0.0849044913540228,1
666,708,11,0.104830713134034,1
666,709,11,0.100310678868686,1
666,710,11,0.0872023429030458,1
666,713,11,0.082988086672146,1
667,704,11,0.0678730501603918,1
667,705,11,0.0679870894943364,1
667,706,11,0.0722822616011887,1
667,707,11,0.0929606673970679,1
667,708,11,0.122284427503975,1
667,709,11,0.117773922971297,1
667,710,11,0.093629042475462,1
667,711,11,0.0863695904181994,1
667,712,11,0.084692315539835,1
667,713,11,0.0814018264310676,1
668,703,11,0.0708572640833516,1
668,704,11,0.0735636063354765,1
668,705,11,0.0715694543688368,1
668,706,11,0.0701049662617515,1
668,707,11,0.0794371741082997,1
668,708,11,0.0991852839268546,1
668,709,11,0.100247450799506,1
668,710,11,0.0873619165096227,1
668,711,11,0.0844188343743723,1
668,712,11,0.0834482092392429,1
668,713,11,0.0818507960363596,1
669,706,11,0.0706345822031026,1
669,707,11,0.0735738847900723,1
669,708,11,0.0814537517940575,1
669,709,11,0.0844476571736234,1
669,710,11,0.0818460820831155,1
669,711,11,0.081887423512964,1
669,712,11,0.0812549092199223,1
669,713,11,0.0818639555729254,1
670,706,11,0.0684100035766147,1
670,707,11,0.0701312853348831,1
670,708,11,0.0745988012494767,1
670,709,11,0.0769241698267124,1
670,710,11,0.0781422625327186,1
670,711,11,0.0801613139957188,1
670,712,11,0.080613284478489,1
671,708,11,0.0699765933952615,1
671,709,11,0.0725523525537719,1
671,710,11,0.0751154313577489,1
671,711,11,0.07910464573689,1
671,712,11,0.0817974271374969,1
672,708,11,0.0700006303639637,1
672,710,11,0.0743081054694987,1
672,711,11,0.0776336167950619,1
673,710,11,0.0740595118208457,1
673,711,11,0.0768163957978419,1
674,709,11,0.0687017176184116,1
674,710,11,0.0723869688650516,1
674,711,11,0.0763546559913855,1
675,710,11,0.0703957518883606,1
675,711,11,0.0748238850296633,1
676,707,11,0.0678247546012976,1
676,708,11,0.0684915603585355,1
676,710,11,0.0696431545779901,1
676,711,11,0.0724235484234528,1
677,708,11,0.0683845530209169,1
677,709,11,0.06790589209894,1
677,710,11,0.0694538357467496,1
677,711,11,0.0710582749561836,1
677,712,11,0.0743101120442596,1
678,710,11,0.0694107992104614,1
678,711,11,0.0710791792723487,1
678,712,11,0.0742597560024258,1
679,710,11,0.0685285412318888,1
679,711,11,0.0731272092687606,1
680,710,11,0.0690265491284254,1
680,711,11,0.0777429900939657,1
681,710,11,0.0723289818493513,1
681,711,11,0.0880582219107326,1
681,712,11,0.0872859062597274,1
682,703,11,0.0688673948061268,1
682,704,11,0.0835164088220096,1
682,705,11,0.074314107224455,1
682,710,11,0.0790329121866341,1
682,711,11,0.0991137240800855,1
682,712,11,0.0940066019783701,1
682,713,11,0.083074698824509,1
683,703,11,0.076899965144299,1
683,704,11,0.0963584992708766,1
683,705,11,0.084809655240028,1
683,710,11,0.069727622390758,1
683,711,11,0.0844356237148338,1
683,712,11,0.0892435445554954,1
683,713,11,0.0934662343901661,1
683,714,11,0.0818987801271327,1
684,704,11,0.0712423826828214,1
684,711,11,0.0741710833673233,1
684,712,11,0.117395117595104,1
684,714,11,0.117214933171357,1
684,715,11,0.0752843190650814,1
684,716,11,0.0697852021017307,1
685,711,11,0.0725155513736807,1
685,712,11,0.152933712928561,1
685,714,11,0.162092918092073,1
685,715,11,0.0841122896486714,1
686,712,11,0.100308947823594,1
686,713,11,0.154838497446151,1
686,714,11,0.112679571070746,1
686,715,11,0.0705604048244814,1
687,713,11,0.0754165493469324,1
687,714,11,0.0679482038724042,1
696,710,11,0.0684748668544805,1
697,709,11,0.0761509377400702,1
697,710,11,0.0761975741313771,1
698,720,11,0.0684221628206878,1
698,721,11,0.0840779682355981,1
699,720,11,0.0930850211242607,1
664,709,12,0.068291148463244,1
664,710,12,0.0783602424392742,1
665,709,12,0.0732825301347997,1
665,710,12,0.0775540306492495,1
666,708,12,0.0795601681564756,1
666,709,12,0.0807119899873956,1
666,710,12,0.077722564959833,1
666,711,12,0.0799524984455335,1
666,712,12,0.07959457941618,1
667,707,12,0.0712627000009967,1
667,708,12,0.0851260052280677,1
667,709,12,0.0876995541594534,1
667,710,12,0.0803607435678437,1
667,711,12,0.078526195156658,1
667,712,12,0.0772798247209627,1
667,713,12,0.0753581071083013,1
668,708,12,0.0761176345888158,1
668,709,12,0.0822116560454372,1
668,710,12,0.0783300779303323,1
668,711,12,0.0772650958632407,1
668,712,12,0.0761740403038091,1
668,713,12,0.0759881296547743,1
669,704,12,0.0684852710943598,1
669,708,12,0.0680606139874385,1
669,709,12,0.0740419258402553,1
669,710,12,0.0743475541303191,1
669,711,12,0.0751960717040326,1
669,712,12,0.0750204275300428,1
669,713,12,0.0769731302508767,1
670,709,12,0.0679268024048804,1
670,710,12,0.0707844164348704,1
670,711,12,0.0742354554836058,1
670,712,12,0.0754019702335955,1
671,710,12,0.0680115996552956,1
671,711,12,0.0732078915434722,1
671,712,12,0.0768926875671813,1
672,711,12,0.0711307512385897,1
673,711,12,0.0704780034842284,1
674,711,12,0.0694592744628178,1
676,712,12,0.0689668310676329,1
677,713,12,0.0714985833462393,1
680,712,12,0.0678171595660834,1
680,720,12,0.0713932711150604,1
681,712,12,0.0686742125697497,1
682,711,12,0.0691123406815579,1
682,712,12,0.069481466580695,1
682,713,12,0.0697643516935443,1
683,712,12,0.0713074556028263,1
683,713,12,0.0783794935774274,1
683,714,12,0.0747099774707776,1
683,715,12,0.0719123989596766,1
683,716,12,0.070717211154821,1
684,712,12,0.0899410658810126,1
684,713,12,0.118648046834869,1
684,714,12,0.0947670279251955,1
684,715,12,0.0689742883380127,1
685,712,12,0.110242355417364,1
685,713,12,0.154453870008265,1
685,714,12,0.11850994657312,1
685,715,12,0.0717588271080559,1
686,712,12,0.0768472191820784,1
686,713,12,0.107324088921618,1
686,714,12,0.0850560566308826,1
698,721,12,0.0706409074059308,1
699,720,12,0.0703586572092745,1
699,721,12,0.0835485140181828,1
699,722,12,0.0758943058128231,1
700,713,12,0.0749931740519479,1
700,721,12,0.0749223868862062,1
702,714,12,0.0774106054771656,1
702,715,12,0.0701505903810149,1
658,714,13,0.0770283440005643,1
668,709,13,0.0686706965715867,1
668,712,13,0.0700136820845722,1
668,713,13,0.0722542653909435,1
669,711,13,0.0688189674719736,1
669,712,13,0.0697034716163232,1
669,713,13,0.0733726702648765,1
670,711,13,0.0681937726844774,1
670,712,13,0.0711682711917296,1
671,712,13,0.0720602445860097,1
672,712,13,0.0716553357686003,1
676,714,13,0.0737917868295477,1
679,721,13,0.0819769526859495,1
680,720,13,0.0718919498664424,1
682,715,13,0.0705223398017796,1
684,713,13,0.0795087878630475,1
684,714,13,0.0707585046664663,1
685,712,13,0.0721193696590371,1
685,713,13,0.0910952596629932,1
685,714,13,0.0770907814193909,1
700,714,13,0.0709659305887575,1
701,714,13,0.0754311464295955,1
701,715,13,0.0691729871575382,1
634,707,14,0.0747927801259827,1
635,708,14,0.0824586863627094,1
635,709,14,0.082912333982593,1
635,710,14,0.0702753753720369,1
636,708,14,0.0829126753997911,1
636,709,14,0.0858273600098443,1
636,710,14,0.0724847219996688,1
636,714,14,0.0682777433458866,1
637,708,14,0.0825664663813553,1
637,709,14,0.0862683751933979,1
637,710,14,0.0715698137553611,1
638,708,14,0.0692822825893617,1
638,709,14,0.0738206395776758,1
658,713,14,0.0702508712008532,1
659,712,14,0.0755340567608368,1
659,714,14,0.0718575805351658,1
660,711,14,0.0683513097674165,1
660,712,14,0.0803535139089293,1
660,714,14,0.0746347159428079,1
661,711,14,0.0715212007381703,1
661,712,14,0.0777841099021242,1
661,713,14,0.0761390001176871,1
661,714,14,0.0722912103256444,1
662,711,14,0.0747759129184409,1
662,712,14,0.0777097827791178,1
662,713,14,0.0735163829461798,1
663,711,14,0.0712309242424707,1
663,712,14,0.0740017284575092,1
663,713,14,0.0721818549960669,1
664,712,14,0.0709269251713172,1
668,714,14,0.0718069309943372,1
669,714,14,0.0739187161601649,1
670,713,14,0.0680274725601201,1
676,715,14,0.0747433824482138,1
679,721,14,0.0803472725629569,1
679,722,14,0.0677485167399368,1
680,720,14,0.070741128328015,1
633,708,15,0.0724528444149609,1
633,710,15,0.0677694689743051,1
634,708,15,0.0686613764810558,1
634,709,15,0.0724507539833444,1
634,714,15,0.0697088384550865,1
635,714,15,0.0707424999865829,1
635,716,15,0.068057415447372,1
662,715,15,0.068748168326681,1
663,715,15,0.0736761182766927,1
668,715,15,0.068013600240281,1
672,719,15,0.0868855436818507,1
673,719,15,0.0978124333936975,1
676,716,15,0.076368210853128,1
678,722,15,0.0797297327084289,1
679,721,15,0.088879408139271,1
679,722,15,0.071527178534025,1
680,719,15,0.0741751983430269,1
680,720,15,0.0755199448499815,1
680,721,15,0.0692781376647811,1
663,716,16,0.0680502876146395,1
671,719,16,0.0778820367402281,1
671,720,16,0.0769931480802818,1
672,719,16,0.0810213678768632,1
672,720,16,0.0809420812198211,1
673,719,16,0.0874630598571194,1
673,720,16,0.0859316479894289,1
673,721,16,0.0817415724818409,1
674,718,16,0.0935026402450805,1
674,719,16,0.103288345967127,1
674,720,16,0.0982903396039733,1
674,721,16,0.0856119616964884,1
675,716,16,0.0745879298071158,1
675,717,16,0.0831460011109356,1
675,718,16,0.104092437376659,1
675,721,16,0.0940216782430657,1
675,722,16,0.077264377090192,1
676,716,16,0.0678395313772228,1
676,717,16,0.0778056491344822,1
676,721,16,0.113123832712569,1
676,722,16,0.080083686506464,1
677,717,16,0.0718689790777624,1
677,718,16,0.102500654562656,1
677,721,16,0.118998975796324,1
677,722,16,0.0839359746198361,1
677,723,16,0.0757457294338905,1
678,718,16,0.0827632305034248,1
678,721,16,0.121217277138187,1
678,722,16,0.0847103807024579,1
678,723,16,0.0716981506831986,1
679,718,16,0.0744270384499496,1
679,719,16,0.0995605074173545,1
679,720,16,0.122817182087639,1
679,721,16,0.10706988285341,1
679,722,16,0.0765087190045894,1
680,719,16,0.0727707996628092,1
680,720,16,0.0804757772045057,1
680,721,16,0.0734444816822126,1
687,667,16,0.0679831302527934,1
689,670,16,0.0678481446742559,1
693,728,16,0.0727964359015446,1
669,720,17,0.0696055208191176,1
670,719,17,0.0712446647872508,1
670,720,17,0.0707830327967517,1
671,718,17,0.0712574110293137,1
671,719,17,0.0712925111131897,1
671,720,17,0.0726641037935116,1
671,721,17,0.0726215164903788,1
672,718,17,0.0729781117793677,1
672,719,17,0.072437438712618,1
672,720,17,0.0747653110159733,1
672,721,17,0.0745410238759156,1
672,722,17,0.0726451880827812,1
673,718,17,0.0746209394593753,1
673,719,17,0.0754071573790966,1
673,720,17,0.0767011644985916,1
673,721,17,0.0751593424012463,1
673,722,17,0.0715991097468692,1
674,717,17,0.0780667913626097,1
674,718,17,0.0793273575660159,1
674,719,17,0.0845546764907928,1
674,720,17,0.0831464623236418,1
674,721,17,0.0763550213676852,1
674,722,17,0.070992764782574,1
674,723,17,0.0689288319324606,1
675,717,17,0.0732565345095399,1
675,718,17,0.0849221731710197,1
675,719,17,0.103743868386713,1
675,720,17,0.100336285158544,1
675,721,17,0.0807864369059101,1
675,722,17,0.0721224543933709,1
675,723,17,0.0710143998513386,1
676,718,17,0.0876815009763813,1
676,719,17,0.121534867009735,1
676,720,17,0.123744519115913,1
676,721,17,0.0929856747093857,1
676,722,17,0.0765276227357691,1
676,723,17,0.0738999442040441,1
676,724,17,0.0702584362871903,1
677,718,17,0.0783489636921857,1
677,719,17,0.118382004970459,1
677,720,17,0.140013360074246,1
677,721,17,0.111677385809005,1
677,722,17,0.0840388010942218,1
677,723,17,0.0742158509487038,1
677,724,17,0.0712267733281147,1
678,718,17,0.0732908499328378,1
678,719,17,0.118534049429352,1
678,720,17,0.161227958584872,1
678,721,17,0.138107545315286,1
678,722,17,0.0918867605646221,1
678,723,17,0.0703232935752807,1
678,724,17,0.0682201875940155,1
679,719,17,0.101668231515457,1
679,720,17,0.139712697307994,1
679,721,17,0.123308343670887,1
679,722,17,0.0824984225327492,1
680,719,17,0.070987667483704,1
680,720,17,0.0859709229467625,1
680,721,17,0.0787549087407403,1
688,666,17,0.0681048844174603,1
692,728,17,0.0685802749220658,1
672,717,18,0.0689325036647842,1
672,721,18,0.068090269365471,1
674,720,18,0.068071611215083,1
675,718,18,0.0685988791644752,1
675,719,18,0.0747510613402836,1
675,720,18,0.0747755415523658,1
675,721,18,0.0685886007098794,1
676,718,18,0.0679615311226813,1
676,719,18,0.0815005199604234,1
676,720,18,0.0867649874722649,1
676,721,18,0.0773974698997014,1
676,722,18,0.07023139844101,1
676,723,18,0.0690541859521462,1
677,719,18,0.0909371715207168,1
677,720,18,0.116266176706233,1
677,721,18,0.103770942171546,1
677,722,18,0.0796293979806119,1
677,723,18,0.0684326089889949,1
678,719,18,0.109404074369818,1
678,720,18,0.159422736114071,1
678,721,18,0.14187549739095,1
678,722,18,0.092151041435062,1
679,719,18,0.096468339772262,1
679,720,18,0.1411243076778,1
679,721,18,0.126749876946054,1
679,722,18,0.082278070675133,1
680,720,18,0.084775824988538,1
680,721,18,0.0778811682227943,1
689,666,18,0.0681141326306864,1
689,667,18,0.0756998657236109,1
689,669,18,0.0724099336639562,1
690,666,18,0.0695013166963887,1
690,670,18,0.0694643118639338,1
677,719,19,0.0708156830624869,1
677,720,19,0.0913407805568632,1
677,721,19,0.0872729803244024,1
677,722,19,0.0705706054119969,1
678,719,19,0.0863064701649766,1
678,720,19,0.127234294042196,1
678,721,19,0.119881892650191,1
678,722,19,0.0831784357447562,1
679,719,19,0.0802721967180248,1
679,720,19,0.119389233623092,1
679,721,19,0.113051787693992,1
679,722,19,0.0771585796872053,1
680,720,19,0.0786926989333791,1
680,721,19,0.0747975659565317,1
684,729,19,0.0691937237599919,1
689,666,19,0.0684400602695993,1
689,667,19,0.0738365304518265,1
689,668,19,0.0710980710239775,1
690,666,19,0.0712745597562995,1
690,667,19,0.0805663066699839,1
690,669,19,0.079594477589998,1
691,666,19,0.0707187505271002,1
691,667,19,0.101915345689585,1
691,670,19,0.0777643436432862,1
694,670,19,0.0753846178542459,1
698,679,19,0.0683370481121761,1
698,680,19,0.0677587233172277,1
699,681,19,0.0683624926780985,1
678,720,20,0.0808850345988595,1
678,721,20,0.0815088517380124,1
679,720,20,0.0854747359419492,1
679,721,20,0.0856825032814386,1
683,729,20,0.0677466060015825,1
684,728,20,0.0679478624552061,1
684,729,20,0.0702074992371422,1
690,666,20,0.0683299741874223,1
690,667,20,0.07394538264027,1
690,668,20,0.0754372619902845,1
690,669,20,0.0705818362408821,1
691,666,20,0.0704243710352479,1
691,667,20,0.0896963476170469,1
691,668,20,0.116931137612646,1
691,669,20,0.104729545827436,1
691,670,20,0.071231726872375,1
692,666,20,0.0762798616658974,1
692,667,20,0.128565102341782,1
692,670,20,0.0973327302508,1
693,667,20,0.125736107458679,1
693,670,20,0.0984806167992787,1
693,671,20,0.0678650777693271,1
694,669,20,0.100463729609846,1
694,670,20,0.07375688440826,1
697,677,20,0.0694150279918976,1
697,678,20,0.0695491151041243,1
698,679,20,0.0700685843659387,1
698,680,20,0.0740873822458074,1
698,681,20,0.0683063265541215,1
699,680,20,0.0726443075857966,1
699,681,20,0.0696436756884504,1
703,723,20,0.0678014543749703,1
684,730,21,0.0698361810802066,1
691,667,21,0.0754779145959614,1
691,668,21,0.0870847815811627,1
691,669,21,0.0817118392367282,1
692,666,21,0.0708830021482689,1
692,667,21,0.0937355466719466,1
692,668,21,0.124255986037786,1
692,669,21,0.117094406910648,1
692,670,21,0.0829808390439053,1
693,667,21,0.0931120949090934,1
693,668,21,0.127150772613942,1
693,669,21,0.121109568996846,1
693,670,21,0.0870797980880254,1
694,668,21,0.0877100362664129,1
694,669,21,0.0862387857028949,1
694,670,21,0.0712224966284752,1
697,677,21,0.0686926550882232,1
697,678,21,0.0715844347971258,1
697,679,21,0.0715325034443604,1
697,680,21,0.0679937800734643,1
698,678,21,0.0685163041207355,1
698,679,21,0.0748379789711923,1
698,680,21,0.0785552515571499,1
698,681,21,0.0711717512512401,1
702,724,21,0.0684771070304821,1
702,725,21,0.0831674744557642,1
703,724,21,0.110221163591979,1
683,731,22,0.0677716851912051,1
692,667,22,0.068054504416525,1
692,668,22,0.0766180863137178,1
692,669,22,0.0771449229992808,1
693,667,22,0.0694410415864835,1
693,668,22,0.0821708297362735,1
693,669,22,0.0837980061331467,1
693,670,22,0.0726619175254886,1
694,668,22,0.0713728579604786,1
694,669,22,0.0725756527800991,1
697,678,22,0.0700242240892858,1
697,679,22,0.0725870034044925,1
698,678,22,0.0680614166173429,1
702,725,22,0.0913602652962572,1
703,724,22,0.119695910123851,1
704,723,22,0.071505477577731,1
671,726,23,0.0689307067321625,1
672,726,23,0.0689903828645272,1
689,731,23,0.0689188769257368,1
699,728,23,0.0699579052959965,1
699,729,23,0.11245582900025,1
700,728,23,0.0967653847141698,1
702,725,23,0.0932790000007667,1
702,726,23,0.0770473974761291,1
703,724,23,0.115646989663469,1
704,723,23,0.0735481047967271,1
705,723,23,0.0680117493996807,1
674,727,24,0.0680467236982733,1
699,728,24,0.0753898109895224,1
699,729,24,0.135249703673831,1
700,728,24,0.116613547741098,1
700,729,24,0.236845878191161,1
701,728,24,0.0980013568997612,1
702,725,24,0.0840069115299631,1
702,726,24,0.0721960208149008,1
703,724,24,0.10423368826027,1
703,725,24,0.15353419989251,1
703,726,24,0.108940717324002,1
704,722,24,0.0788458395211706,1
704,723,24,0.0913608942226747,1
704,724,24,0.130928260412051,1
670,727,25,0.0734380366838763,1
699,728,25,0.0818546714210469,1
699,729,25,0.149210660209337,1
699,730,25,0.15012054303208,1
700,728,25,0.130315326694809,1
700,729,25,0.266082594881876,1
701,728,25,0.104143805690536,1
702,725,25,0.0699305380121689,1
703,724,25,0.0876968707400717,1
703,725,25,0.111757313372015,1
704,724,25,0.112428551563053,1
642,738,26,0.0700252064124523,1
670,728,26,0.0839556570218185,1
671,727,26,0.0848942907665072,1
673,727,26,0.0693972383589434,1
699,728,26,0.0785960059890087,1
699,729,26,0.13703910115801,1
699,730,26,0.13793771122344,1
699,731,26,0.0832294207130075,1
700,728,26,0.1219723482258,1
700,729,26,0.237709148581698,1
700,730,26,0.238295427798385,1
701,728,26,0.100652605197707,1
701,729,26,0.191971930379067,1
702,728,26,0.0683602644816477,1
703,725,26,0.0787912786570023,1
703,726,26,0.0733303824505139,1
704,724,26,0.0880806895582785,1
704,725,26,0.0862681176330554,1
619,724,27,0.0707691904257896,1
642,738,27,0.0709995212492314,1
671,728,27,0.0943731522740829,1
671,730,27,0.068741609522612,1
672,727,27,0.0683958137986792,1
672,730,27,0.0781603456646676,1
673,728,27,0.0781774884018781,1
691,735,27,0.0707931615069623,1
692,735,27,0.0696738581667185,1
694,734,27,0.0677772017743536,1
699,729,27,0.104225182779194,1
699,730,27,0.108973876720647,1
699,731,27,0.0773008548224113,1
700,728,27,0.0955159535032423,1
700,729,27,0.165542813093707,1
700,730,27,0.171239856195555,1
701,728,27,0.0861639554387544,1
701,729,27,0.145370435503632,1
704,723,27,0.0819786777412662,1
704,725,27,0.0682156473442582,1
705,724,27,0.0779970763666655,1
618,724,28,0.0817421834389323,1
619,723,28,0.0908025213696019,1
619,724,28,0.0982039550630757,1
619,725,28,0.0714768224921913,1
620,722,28,0.0724578638467507,1
620,723,28,0.088405694771779,1
620,724,28,0.0895202601996771,1
621,721,28,0.0767346114044557,1
621,722,28,0.0763732063258162,1
622,722,28,0.068357964407892,1
642,738,28,0.0723376310850368,1
672,728,28,0.0684653251422596,1
691,735,28,0.074808946529802,1
691,736,28,0.0722760202552162,1
692,735,28,0.071828805654118,1
692,736,28,0.0698107125551826,1
694,734,28,0.069142744781516,1
695,734,28,0.071963383927928,1
699,729,28,0.0728526798926019,1
699,730,28,0.0807655206101942,1
699,731,28,0.0701164306918775,1
700,728,28,0.0678249941923138,1
700,729,28,0.102452940011776,1
700,730,28,0.112436410148385,1
700,731,28,0.0871651883262057,1
701,728,28,0.0708985036870182,1
701,729,28,0.107299387087846,1
701,730,28,0.117515907405931,1
702,729,28,0.086317659065434,1
705,723,28,0.0767010207439819,1
618,723,29,0.0808036994386287,1
618,724,29,0.0919322828577036,1
619,722,29,0.0704999380417632,1
619,723,29,0.108728008419803,1
619,724,29,0.120935410287157,1
619,725,29,0.081150609260787,1
620,720,29,0.0681802357920611,1
620,721,29,0.0780485644760509,1
620,722,29,0.0823275042915543,1
620,723,29,0.0979935582121833,1
620,724,29,0.100936233042706,1
620,725,29,0.0699310890715062,1
621,720,29,0.0714534503885591,1
621,721,29,0.0913976714436643,1
621,722,29,0.0889101955848551,1
621,723,29,0.0736492241851222,1
622,721,29,0.0757253042997579,1
622,722,29,0.0790568293598281,1
642,738,29,0.069641100085026,1
691,735,29,0.0743827141119492,1
692,735,29,0.0711293616106956,1
695,734,29,0.0698414760416651,1
700,730,29,0.0761497996827432,1
701,729,29,0.0836935743989524,1
618,723,30,0.0709910756659097,1
618,724,30,0.0819732929331767,1
619,720,30,0.067761400746834,1
619,721,30,0.0694920265547349,1
619,722,30,0.0711801728754602,1
619,723,30,0.099958060790566,1
619,724,30,0.112632754986177,1
619,725,30,0.0776190197123988,1
620,720,30,0.0837034575283714,1
620,721,30,0.0939581327157891,1
620,722,30,0.0827613616934983,1
620,723,30,0.0861626436779406,1
620,724,30,0.08948329729565,1
621,720,30,0.079837530696401,1
621,721,30,0.100873124769034,1
621,722,30,0.0898588202749201,1
621,723,30,0.0686889833558996,1
622,721,30,0.0759066207910567,1
622,722,30,0.0759385522837432,1
619,720,31,0.07593650977033,1
619,721,31,0.0763626164028993,1
619,723,31,0.0766479273747878,1
619,724,31,0.083850260933784,1
620,720,31,0.0871324302445132,1
620,721,31,0.0906131785792598,1
620,722,31,0.0710082004337939,1
620,724,31,0.0690751561558407,1
621,720,31,0.0754746621479162,1
621,721,31,0.0857618797851118,1
621,722,31,0.0715478732080509,1
619,720,32,0.0774011596013512,1
619,721,32,0.0749270169825946,1
620,720,32,0.0805339978214468,1
620,721,32,0.0758666689891023,1
619,720,33,0.0731427527359377,1
619,721,33,0.069883991467493,1
620,720,33,0.0704687912096548,1
619,720,34,0.0707358513358828,1
625,728,35,0.0714781582121067,1
625,729,35,0.0783385894011835,1
626,728,35,0.073009995353851,1
626,729,35,0.0791280657587253,1
625,728,36,0.0751311904568406,1
625,729,36,0.0806533381066253,1
626,728,36,0.0787488950062332,1
626,729,36,0.0822014854067987,1
672,738,36,0.0910657180906934,1
673,738,36,0.0883161176805903,1
625,727,37,0.0678352007696047,1
625,728,37,0.0733424758070575,1
625,729,37,0.076670946081671,1
626,726,37,0.0732687776104687,1
626,727,37,0.0794024094518464,1
626,728,37,0.0792847043753536,1
626,729,37,0.0783804279823906,1
627,727,37,0.0704725108601816,1
627,728,37,0.0686699957678643,1
671,738,37,0.0782754931070623,1
672,737,37,0.0775632668829247,1
672,738,37,0.104895450626617,1
672,739,37,0.0828984856218556,1
673,737,37,0.0739087012556869,1
673,738,37,0.100039773306647,1
673,739,37,0.0801816912116482,1
674,738,37,0.0743770118457632,1
625,727,38,0.0678612143641906,1
625,729,38,0.0691710105316544,1
626,726,38,0.0814388252737471,1
626,727,38,0.0820243976969361,1
626,728,38,0.073067874553594,1
626,729,38,0.0699465786307048,1
627,726,38,0.0701178622481994,1
627,727,38,0.071610747880482,1
662,738,38,0.0735621867587054,1
663,738,38,0.0694771539424031,1
672,737,38,0.0778051819320006,1
672,738,38,0.10148730435956,1
673,737,38,0.0748804943970203,1
673,738,38,0.0966528248547503,1
673,739,38,0.0764607708524687,1
674,738,38,0.0754073969701128,1
702,716,38,0.107626872068364,1
702,717,38,0.103445062450836,1
703,715,38,0.0725310049942268,1
703,716,38,0.109080518681966,1
703,717,38,0.104490182422683,1
704,716,38,0.077278764530716,1
704,717,38,0.0753923087258665,1
626,726,39,0.0777942685612119,1
626,727,39,0.0755237243982624,1
627,726,39,0.0683838282580928,1
627,727,39,0.0680321805235888,1
633,732,39,0.0690959646355993,1
672,737,39,0.072475743326336,1
673,737,39,0.0712314992609096,1
673,738,39,0.0852427818893726,1
701,716,39,0.0897378088424036,1
701,717,39,0.0847927221449568,1
702,715,39,0.0930237277525366,1
702,716,39,0.156656585954523,1
702,717,39,0.148205971221477,1
702,718,39,0.083514761633773,1
703,715,39,0.0982773837197713,1
703,716,39,0.162414221624373,1
703,717,39,0.153132309921905,1
703,718,39,0.0886837221767745,1
704,716,39,0.103446428119628,1
704,717,39,0.0980870885551397,1
701,716,40,0.102369167012956,1
701,717,40,0.0994926372722352,1
702,715,40,0.102900627805132,1
702,716,40,0.181108574214946,1
702,717,40,0.177353500156405,1
702,718,40,0.104694481682213,1
703,715,40,0.109200481903786,1
703,716,40,0.191729392393349,1
703,717,40,0.186181518658198,1
703,718,40,0.109082040084919,1
704,716,40,0.113389179763031,1
704,717,40,0.108810894931864,1
625,727,41,0.0680667714765553,1
701,716,41,0.0984980051172808,1
701,717,41,0.101754675954109,1
701,718,41,0.0738925947496216,1
702,715,41,0.0962232441524458,1
702,716,41,0.169349339322981,1
702,717,41,0.178628950951694,1
702,718,41,0.115692476017898,1
703,715,41,0.102953289910496,1
703,716,41,0.181327033303535,1
703,717,41,0.189003793013296,1
703,718,41,0.11912153858067,1
704,716,41,0.107247515632835,1
704,717,41,0.109030408220924,1
624,726,42,0.074035762361363,1
624,727,42,0.0730074077708759,1
625,726,42,0.0709538072833369,1
625,727,42,0.0723351992362222,1
682,731,42,0.0688099528599884,1
682,732,42,0.0774414108920759,1
683,731,42,0.075845614928552,1
683,732,42,0.0833594587370602,1
684,732,42,0.0682675008299433,1
700,712,42,0.0895104788964399,1
700,713,42,0.0755330804274457,1
701,711,42,0.0728834793177368,1
701,712,42,0.0951969021264949,1
701,713,42,0.0803438044829971,1
701,716,42,0.0840437007305034,1
701,717,42,0.093327547130428,1
701,718,42,0.0726454995511023,1
702,715,42,0.0792012847732817,1
702,716,42,0.131728278774306,1
702,717,42,0.151458371348441,1
702,718,42,0.107733526009234,1
703,715,42,0.0851499164114863,1
703,716,42,0.140479400539444,1
703,717,42,0.159300496777597,1
703,718,42,0.110802135867657,1
704,716,42,0.0894497006454007,1
704,717,42,0.096646481682596,1
624,726,43,0.0764791055549848,1
624,727,43,0.0726066259087208,1
625,726,43,0.0716817566679138,1
625,727,43,0.0716356294075163,1
682,731,43,0.0884293424050798,1
682,732,43,0.0986128830197822,1
682,733,43,0.0746792079945197,1
683,731,43,0.104472237055568,1
683,732,43,0.113433599937438,1
683,733,43,0.0822843419699825,1
684,731,43,0.0850001540570234,1
684,732,43,0.0925953210462115,1
684,733,43,0.0746066957734611,1
700,711,43,0.0711083494785733,1
700,712,43,0.103815901425739,1
700,713,43,0.093240330010749,1
701,711,43,0.0764393394360679,1
701,712,43,0.109601988528765,1
701,713,43,0.0992313093610702,1
701,716,43,0.0689281251389628,1
701,717,43,0.0795705484372532,1
702,712,43,0.0717578927030927,1
702,716,43,0.0889591140805915,1
702,717,43,0.106816862760733,1
702,718,43,0.0855250380758043,1
703,715,43,0.0679466285614725,1
703,716,43,0.0956274891110675,1
703,717,43,0.111931927304636,1
703,718,43,0.0884480904020989,1
704,716,43,0.0712067554987097,1
704,717,43,0.0765860350255231,1
624,726,44,0.0713430947664888,1
681,732,44,0.0687999139964088,1
682,731,44,0.0942072055464745,1
682,732,44,0.106997813875732,1
682,733,44,0.0850559428251499,1
683,730,44,0.0684462357280423,1
683,731,44,0.120573196588837,1
683,732,44,0.134037900232001,1
683,733,44,0.0980188051155174,1
684,731,44,0.108657113438104,1
684,732,44,0.11798507453389,1
685,731,44,0.0761674874895155,1
685,732,44,0.0812732618917647,1
700,712,44,0.0992657026514484,1
700,713,44,0.0950825872628816,1
701,711,44,0.0719830783094611,1
701,712,44,0.108460265459179,1
701,713,44,0.105445419824796,1
701,714,44,0.0703813165296334,1
701,717,44,0.0723664059660847,1
702,712,44,0.0752291113051692,1
702,713,44,0.0745857974470715,1
702,716,44,0.0691180788863963,1
702,717,44,0.076857066372845,1
702,718,44,0.0683619955267399,1
703,716,44,0.0739870475179904,1
703,717,44,0.0788180289939631,1
646,736,45,0.0690643446112339,1
681,732,45,0.0701243911033914,1
682,731,45,0.0884008969616792,1
682,732,45,0.100924648817072,1
683,730,45,0.0731615606307109,1
683,731,45,0.117612630299178,1
683,732,45,0.132230784992172,1
684,730,45,0.0758453393988834,1
684,731,45,0.12111022787214,1
685,731,45,0.0925620358642834,1
688,729,45,0.0778355141546539,1
689,729,45,0.0815444909016749,1
700,712,45,0.0880279555756088,1
700,713,45,0.0867602435701438,1
701,711,45,0.0695406994696797,1
701,712,45,0.102789182043938,1
701,713,45,0.102426644897746,1
701,714,45,0.0737829159721722,1
701,716,45,0.0682065069469894,1
701,717,45,0.0701848758554358,1
702,712,45,0.0803551670869413,1
702,713,45,0.0811252545414956,1
702,716,45,0.0690199723550302,1
703,716,45,0.069957749561836,1
645,736,46,0.0690753897570815,1
646,736,46,0.0730263174918309,1
647,736,46,0.0729002806377491,1
648,736,46,0.0689528509318365,1
673,708,46,0.0803378865848965,1
683,730,46,0.072129132992948,1
683,731,46,0.102760610815253,1
684,730,46,0.0814551893401548,1
689,728,46,0.0749658427067728,1
696,697,46,0.0708335805113984,1
696,698,46,0.0706731084385106,1
700,712,46,0.0762161963431127,1
700,713,46,0.0735946393618522,1
701,712,46,0.0915690029793622,1
701,713,46,0.0897834269718916,1
701,714,46,0.0715355043218386,1
701,715,46,0.0680234174821706,1
701,716,46,0.0724219132147671,1
702,712,46,0.0810582589035855,1
702,713,46,0.0809150912918441,1
702,714,46,0.0686960812397551,1
702,715,46,0.0697646212334375,1
702,716,46,0.0741447642941917,1
703,716,46,0.0682917713998862,1
705,716,46,0.0688135946434349,1
645,735,47,0.0678454013571202,1
647,736,47,0.0755615498299479,1
648,736,47,0.0723701675450393,1
672,708,47,0.0759644400930456,1
673,708,47,0.101687458694509,1
673,709,47,0.0778009830994414,1
696,698,47,0.0702562799680443,1
700,712,47,0.0694181786137609,1
701,712,47,0.0783235850137928,1
701,713,47,0.0766127494238315,1
701,714,47,0.0689120306124483,1
701,715,47,0.0719278765393244,1
701,716,47,0.0741879206259881,1
702,712,47,0.0760427444269213,1
702,713,47,0.0760167607812124,1
702,714,47,0.068739333407958,1
702,715,47,0.0737472109209802,1
702,716,47,0.0788921884032581,1
703,716,47,0.0684977837351818,1
705,716,47,0.0680184579481349,1
623,693,48,0.071455073617694,1
623,694,48,0.071099466641647,1
643,734,48,0.0705611176077546,1
643,735,48,0.0690553659379011,1
644,734,48,0.072181088304815,1
644,735,48,0.0714465681366182,1
644,736,48,0.068655602337565,1
645,735,48,0.0702437793067731,1
645,736,48,0.0709716148856173,1
646,735,48,0.0702947642750244,1
646,736,48,0.0743291535402735,1
647,735,48,0.0751571681127741,1
647,736,48,0.0786365268196267,1
647,737,48,0.0746509182852797,1
648,735,48,0.0729189627472388,1
648,736,48,0.075545287589722,1
648,737,48,0.0721142783499424,1
649,735,48,0.0687956013581169,1
649,736,48,0.0710340882430963,1
650,735,48,0.0690901006454774,1
672,708,48,0.0711145728552196,1
673,708,48,0.105537410795473,1
673,709,48,0.0792089097573729,1
699,712,48,0.0693608983915584,1
699,713,48,0.070170416537607,1
700,712,48,0.0678072105491349,1
700,713,48,0.0682912982076292,1
701,715,48,0.071609136630898,1
701,716,48,0.0726527891077707,1
702,712,48,0.0681837038720208,1
702,713,48,0.0681421408204823,1
702,715,48,0.0711745245172529,1
702,716,48,0.074664173658252,1
623,693,49,0.0735415220335565,1
623,694,49,0.0777353890689761,1
624,693,49,0.0697812428601877,1
624,694,49,0.0729882404895784,1
642,734,49,0.0694459292432144,1
643,734,49,0.0754669173683169,1
643,735,49,0.0722704557538645,1
643,736,49,0.0691845054956429,1
644,734,49,0.0757457833418692,1
644,735,49,0.073924538221859,1
644,736,49,0.0703468274028487,1
645,735,49,0.070722691799317,1
645,736,49,0.0709840616389099,1
646,735,49,0.0708412893523452,1
646,736,49,0.0744271941841102,1
646,737,49,0.0740064184516517,1
647,735,49,0.0763410951398675,1
647,736,49,0.0797165372332106,1
647,737,49,0.0761990655854531,1
647,738,49,0.0716513465781803,1
648,735,49,0.0743618756833136,1
648,736,49,0.0766769538264027,1
648,737,49,0.0741666509335233,1
648,738,49,0.0723709641851682,1
649,735,49,0.0760015407619071,1
649,736,49,0.0750979531931157,1
649,737,49,0.0702786397996329,1
650,735,49,0.0809949469775497,1
650,736,49,0.0790398303772274,1
651,735,49,0.0727549267579847,1
673,708,49,0.0874730268433941,1
673,709,49,0.0684058167236063,1
699,712,49,0.0711173880496601,1
699,713,49,0.0779741534961888,1
699,714,49,0.0726810608476845,1
700,712,49,0.0683521663052995,1
700,713,49,0.0755041138735849,1
700,714,49,0.0725233021430554,1
623,694,50,0.071658935623619,1
624,694,50,0.0698792295960457,1
639,733,50,0.0686408375411905,1
640,732,50,0.0686596094973112,1
640,733,50,0.0695856647136485,1
641,733,50,0.0703384477070565,1
642,733,50,0.070440076226361,1
642,734,50,0.0709889912240686,1
643,733,50,0.0697388711889695,1
643,734,50,0.0775231833059113,1
643,735,50,0.0730014000261442,1
643,736,50,0.0703102119057951,1
644,734,50,0.0770209166790615,1
644,735,50,0.0750771027849293,1
644,736,50,0.0721354881446532,1
645,735,50,0.0713602734423517,1
645,736,50,0.0722583024995668,1
646,735,50,0.0720589687638484,1
646,736,50,0.0758573788474484,1
646,737,50,0.076163432411566,1
647,735,50,0.0771857552982199,1
647,736,50,0.0820252901734716,1
647,737,50,0.0811375874890555,1
647,738,50,0.0756148887799335,1
648,735,50,0.077879227535563,1
648,736,50,0.0813566934733874,1
648,737,50,0.0801264594926344,1
648,738,50,0.0763057255160982,1
649,734,50,0.0687809144288227,1
649,735,50,0.0836884771000823,1
649,736,50,0.0811337779918976,1
649,737,50,0.0751512741737752,1
649,738,50,0.0759261534486539,1
650,734,50,0.0745056542521463,1
650,735,50,0.0920293831068016,1
650,736,50,0.0853862070614564,1
650,737,50,0.0747285397847591,1
651,735,50,0.080495178087044,1
651,736,50,0.0783401886712167,1
699,712,50,0.0681654110979325,1
699,713,50,0.0797252044382223,1
699,714,50,0.072412635052664,1
700,713,50,0.0821484339660325,1
700,714,50,0.0764113971338014,1
705,714,50,0.0705788832816072,1
705,715,50,0.0710476251355127,1
706,714,50,0.0740833032087562,1
706,715,50,0.0740313958150925,1
639,732,51,0.0703046833430959,1
639,733,51,0.0721366741201835,1
640,732,51,0.0722010941546692,1
640,733,51,0.0740925154833298,1
641,732,51,0.070045751342093,1
641,733,51,0.0738417295768784,1
641,734,51,0.0685387478091797,1
642,733,51,0.0736061876488339,1
642,734,51,0.0728840423566249,1
642,735,51,0.0686832930692644,1
643,733,51,0.0726403663135798,1
643,734,51,0.0769544840800395,1
643,735,51,0.0721650357067283,1
643,736,51,0.0708724062355766,1
644,733,51,0.0678768297086727,1
644,734,51,0.0753649055033865,1
644,735,51,0.0734985274256961,1
644,736,51,0.0726683385647233,1
645,735,51,0.0703044078134272,1
645,736,51,0.0716877224842177,1
645,737,51,0.0739539300497736,1
646,735,51,0.071090499947865,1
646,736,51,0.0744629890819332,1
646,737,51,0.0763623648323323,1
646,738,51,0.0752945196525969,1
647,735,51,0.0750147312536322,1
647,736,51,0.0807516542801306,1
647,737,51,0.0823946077454217,1
647,738,51,0.0780538175090815,1
647,739,51,0.0747751282578628,1
648,735,51,0.0793303464639433,1
648,736,51,0.084090420978666,1
648,737,51,0.0837664999145139,1
648,738,51,0.0785329096948875,1
649,734,51,0.0727997482473438,1
649,735,51,0.0870988036453869,1
649,736,51,0.0849170998312513,1
649,737,51,0.0795183056161668,1
649,738,51,0.0776793127916302,1
650,734,51,0.0812794433399831,1
650,735,51,0.0968649707200611,1
650,736,51,0.0876330317138003,1
650,737,51,0.0776775757567626,1
651,734,51,0.0749010213573349,1
651,735,51,0.0869916046349553,1
651,736,51,0.079943376017591,1
652,735,51,0.0718520998906698,1
699,713,51,0.0723079158092503,1
700,713,51,0.0781446943815332,1
700,714,51,0.0728154534384569,1
703,718,51,0.0692402283762399,1
703,719,51,0.0695118047931237,1
705,714,51,0.0781633884705736,1
705,715,51,0.0753751540091052,1
706,713,51,0.0706175832205019,1
706,714,51,0.10122509595141,1
706,715,51,0.0956591151252083,1
707,713,51,0.0692393838179078,1
707,714,51,0.0944053353373365,1
707,715,51,0.0897967302630671,1
639,732,52,0.0771603526607253,1
639,733,52,0.0768994919520419,1
640,731,52,0.0685043006108229,1
640,732,52,0.0790037060417571,1
640,733,52,0.0798285759821698,1
640,734,52,0.0684522195136724,1
641,732,52,0.0739688805291856,1
641,733,52,0.0771038630888764,1
641,734,52,0.0724206733312582,1
642,732,52,0.0699182290237107,1
642,733,52,0.0758241535632743,1
642,734,52,0.0746608313635757,1
642,735,52,0.0694862404316932,1
643,733,52,0.0738474857510431,1
643,734,52,0.0750187983111325,1
643,735,52,0.0709199590625206,1
643,736,52,0.0710865227369958,1
644,733,52,0.068611625406538,1
644,734,52,0.0725493576660692,1
644,735,52,0.0715479211262541,1
644,736,52,0.0729275401056194,1
645,734,52,0.0678863654311182,1
645,735,52,0.0698119105102637,1
645,736,52,0.0715033751665637,1
646,735,52,0.0710089910841474,1
646,736,52,0.073515232909302,1
646,737,52,0.076248331488163,1
646,738,52,0.0778631330090485,1
647,735,52,0.074351393576354,1
647,736,52,0.0795673439074113,1
647,737,52,0.0819080642790112,1
647,738,52,0.0800829797129661,1
647,739,52,0.0771918468998073,1
648,734,52,0.0679444183343479,1
648,735,52,0.0801365342948664,1
648,736,52,0.0857846349418771,1
648,737,52,0.0852669386535828,1
648,738,52,0.0802316758874068,1
649,734,52,0.0735900152552392,1
649,735,52,0.0876690302639871,1
649,736,52,0.0885489462403761,1
649,737,52,0.0841031612309535,1
649,738,52,0.0794515914977007,1
650,734,52,0.0828801748784411,1
650,735,52,0.0967185267011729,1
650,736,52,0.0893141460381996,1
650,737,52,0.0818980972927365,1
651,734,52,0.0806261205671829,1
651,735,52,0.0919498868076203,1
651,736,52,0.0822937399275937,1
652,735,52,0.0767711789833061,1
700,713,52,0.0704962663094397,1
700,714,52,0.0686012031973325,1
703,718,52,0.0717086627390352,1
703,719,52,0.0748784099551792,1
705,714,52,0.0780097806803005,1
705,715,52,0.0722027413429057,1
706,713,52,0.0780896663148832,1
706,714,52,0.114137410527131,1
706,715,52,0.103097942986538,1
707,713,52,0.0801467288926065,1
707,714,52,0.117791005810753,1
707,715,52,0.107051050999535,1
707,716,52,0.0685135368444982,1
708,714,52,0.0810038358042515,1
708,715,52,0.0773023103378348,1
638,732,53,0.0688090364243513,1
639,731,53,0.0707614336666396,1
639,732,53,0.0865448272874617,1
639,733,53,0.0837482610484043,1
640,731,53,0.0749291134039865,1
640,732,53,0.0876589434822043,1
640,733,53,0.0855411865102974,1
640,734,53,0.0722846994397787,1
641,731,53,0.074158492859421,1
641,732,53,0.081096779149218,1
641,733,53,0.0811319211615219,1
641,734,53,0.0762123928357303,1
641,735,53,0.0685913679861168,1
642,731,53,0.0678279531413641,1
642,732,53,0.0757264124082079,1
642,733,53,0.078510891280497,1
642,734,53,0.0765094916856167,1
642,735,53,0.0702041389731397,1
643,732,53,0.0688074910622967,1
643,733,53,0.0748971819113,1
643,734,53,0.0742462610384373,1
643,735,53,0.0707367438124182,1
643,736,53,0.0727284100222647,1
644,733,53,0.0693125788733625,1
644,734,53,0.0717674463948644,1
644,735,53,0.0710516981827884,1
644,736,53,0.0737271930915751,1
645,734,53,0.0693749923330875,1
645,735,53,0.0705192071492426,1
645,736,53,0.0721574466612896,1
646,734,53,0.067924328627638,1
646,735,53,0.0713276411459427,1
646,736,53,0.0735743460027785,1
646,737,53,0.0763224369894795,1
647,735,53,0.0732474480202499,1
647,736,53,0.0776595046043643,1
647,737,53,0.080270501611585,1
647,738,53,0.0807646520927604,1
648,734,53,0.0684369635557147,1
648,735,53,0.0787513747732511,1
648,736,53,0.0841464792866858,1
648,737,53,0.0836926759326416,1
648,738,53,0.0798351347862388,1
649,734,53,0.073649901029743,1
649,735,53,0.0854762633346776,1
649,736,53,0.0894981040204523,1
649,737,53,0.086386409707538,1
649,738,53,0.0800500299584607,1
650,734,53,0.0811090222501468,1
650,735,53,0.0917513257529291,1
650,736,53,0.0893127983387334,1
650,737,53,0.0842132712722321,1
650,738,53,0.0797530509040823,1
651,734,53,0.0824030293696418,1
651,735,53,0.0913524606189038,1
651,736,53,0.0834485386768902,1
651,737,53,0.0776473633296174,1
652,735,53,0.0781821065187157,1
702,718,53,0.068326380322179,1
703,718,53,0.0711108052864895,1
703,719,53,0.0734528853371065,1
705,714,53,0.0756880598762867,1
706,713,53,0.0799313545383522,1
706,714,53,0.108331533206165,1
706,715,53,0.0962491199821974,1
707,713,53,0.0833734508524073,1
707,714,53,0.121343254094515,1
707,715,53,0.111018774064522,1
707,716,53,0.07433412505386,1
708,714,53,0.091227633699454,1
708,715,53,0.0882673129905866,1
708,716,53,0.0701786644583403,1
638,732,54,0.0720183580865993,1
638,733,54,0.069724298065408,1
639,731,54,0.0746410471354115,1
639,732,54,0.0913851647926177,1
639,733,54,0.0874397476512414,1
639,734,54,0.0692240320235436,1
640,731,54,0.078854339012471,1
640,732,54,0.0926727388933272,1
640,733,54,0.0883373634139535,1
640,734,54,0.0739565535714012,1
641,731,54,0.0792132703138681,1
641,732,54,0.0879087949836925,1
641,733,54,0.085033001985347,1
641,734,54,0.0777581921439447,1
641,735,54,0.06903075395076,1
642,731,54,0.0715778520339552,1
642,732,54,0.0812136815958065,1
642,733,54,0.0815064618176256,1
642,734,54,0.0772420232483788,1
642,735,54,0.0703388909504365,1
643,732,54,0.0709311060345502,1
643,733,54,0.0755855029417943,1
643,734,54,0.0738808727591531,1
643,735,54,0.0708691777466331,1
644,733,54,0.068954024927816,1
644,734,54,0.0712751647236155,1
644,735,54,0.0709352389795799,1
645,734,54,0.0699466325386834,1
645,735,54,0.0713846697975782,1
645,736,54,0.0736010843601885,1
646,734,54,0.068173587141361,1
646,735,54,0.0718647862349786,1
646,736,54,0.0750376601138843,1
647,735,54,0.0727989516072149,1
647,736,54,0.0771724699763706,1
647,737,54,0.0796222581683286,1
648,734,54,0.069207655977585,1
648,735,54,0.0782660891596757,1
648,736,54,0.0832785248917815,1
648,737,54,0.0834569543113349,1
649,734,54,0.0748669035966253,1
649,735,54,0.0851042743228966,1
649,736,54,0.0914807855671905,1
649,737,54,0.0904927541447329,1
649,738,54,0.0827642307959175,1
650,734,54,0.0803120946120006,1
650,735,54,0.0885733545751534,1
650,736,54,0.0911164155497253,1
650,737,54,0.0886671484682275,1
650,738,54,0.0823687438952209,1
651,734,54,0.0807822979711049,1
651,735,54,0.0874865397767088,1
651,736,54,0.0843722938194718,1
651,737,54,0.0807190339632724,1
705,714,54,0.0699337605113371,1
706,713,54,0.0746737153704729,1
706,714,54,0.0910147810406454,1
706,715,54,0.083037089024738,1
707,713,54,0.0754191548992338,1
707,714,54,0.104927819372908,1
707,715,54,0.102291012423465,1
707,716,54,0.0762939735767527,1
708,714,54,0.0903668730248117,1
708,715,54,0.0925712960570602,1
708,716,54,0.0746137038106855,1
709,715,54,0.0693768970816664,1
638,732,55,0.0714957022642693,1
638,733,55,0.0697976907834511,1
639,731,55,0.0740696465208318,1
639,732,55,0.0865035457553672,1
639,733,55,0.0836769587619776,1
639,734,55,0.0711413591308328,1
640,731,55,0.0759043087377502,1
640,732,55,0.0889556699597334,1
640,733,55,0.0858895398683284,1
640,734,55,0.0747661435947546,1
641,731,55,0.0766382658670588,1
641,732,55,0.0884315825810814,1
641,733,55,0.0860626863059742,1
641,734,55,0.0773531635310272,1
641,735,55,0.0688075449702754,1
642,731,55,0.0706003805855374,1
642,732,55,0.081966368752808,1
642,733,55,0.0821464812992503,1
642,734,55,0.0765175060051092,1
642,735,55,0.0703819274867247,1
643,732,55,0.0700863320704651,1
643,733,55,0.0744002581641118,1
643,734,55,0.0733715082484478,1
643,735,55,0.0716358330598801,1
644,733,55,0.0680612728627331,1
644,734,55,0.0711445337117977,1
644,735,55,0.0717123105122571,1
645,734,55,0.070027728107898,1
645,735,55,0.0722191473377413,1
646,734,55,0.0677453301794211,1
646,735,55,0.072030289719207,1
648,734,55,0.0698628056318839,1
648,735,55,0.0765005489509364,1
648,736,55,0.0808621237079336,1
648,737,55,0.0832225504406175,1
649,734,55,0.0759326823038459,1
649,735,55,0.0830984303146654,1
649,736,55,0.0890774600630527,1
649,737,55,0.0913690942252048,1
649,738,55,0.084479013647871,1
650,734,55,0.078810050613123,1
650,735,55,0.0846786408825843,1
650,736,55,0.0893293720472803,1
650,737,55,0.0901168118811843,1
651,734,55,0.0769579880986517,1
651,735,55,0.0820883744880419,1
651,736,55,0.0834854416831633,1
706,714,55,0.074610032078362,1
706,715,55,0.068326631892746,1
707,714,55,0.083440320705034,1
707,715,55,0.0842581766184469,1
707,716,55,0.0715858903125494,1
708,714,55,0.0852244531766319,1
708,715,55,0.0873926500472282,1
708,716,55,0.0732825241450242,1
709,714,55,0.0738137693052857,1
709,715,55,0.0745716196486867,1
639,731,56,0.0690044109185268,1
639,732,56,0.0764468026962231,1
639,733,56,0.0754868393613155,1
639,734,56,0.0697617521310183,1
640,731,56,0.069043901507775,1
640,732,56,0.0804644385596631,1
640,733,56,0.0802408941517558,1
640,734,56,0.0728554771177162,1
641,731,56,0.070015910281023,1
641,732,56,0.0840465099351686,1
641,733,56,0.0845048116105423,1
641,734,56,0.0745606044517161,1
642,732,56,0.0787261218801416,1
642,733,56,0.0807138408279959,1
642,734,56,0.0738208671891412,1
643,733,56,0.0712258149640499,1
643,734,56,0.0712146320533678,1
644,734,56,0.0693910988391528,1
645,734,56,0.0681885136616714,1
649,734,56,0.0749689693695345,1
649,735,56,0.0804335253287955,1
649,736,56,0.0847394191336236,1
649,737,56,0.0887387742025261,1
650,734,56,0.076627544169083,1
650,735,56,0.0812491230968806,1
650,736,56,0.0857996393292678,1
707,714,56,0.0692217379395633,1
707,715,56,0.0689725692724713,1
708,714,56,0.0791883408686305,1
708,715,56,0.0781099776432831,1
639,733,57,0.0679680360187717,1
640,732,57,0.0710559209744493,1
640,733,57,0.0739149186425578,1
640,734,57,0.0697851362142013,1
641,732,57,0.0761074100421987,1
641,733,57,0.0799807162774686,1
641,734,57,0.0714253882907845,1
642,732,57,0.0730247960888779,1
642,733,57,0.0770785023798096,1
642,734,57,0.0706453757783833,1
643,733,57,0.0677893610184267,1
645,709,57,0.0703140094234022,1
674,718,57,0.0702118418243112,1
675,718,57,0.0813336927358304,1
640,733,58,0.0693587540519633,1
641,732,58,0.0687179499097604,1
641,733,58,0.0743200251225556,1
642,733,58,0.0713368953489442,1
644,709,58,0.0777879972663623,1
645,708,58,0.0909392320034562,1
645,709,58,0.109032300989952,1
646,709,58,0.0695779319136,1
674,717,58,0.0910357931727677,1
674,718,58,0.111446695599039,1
674,719,58,0.0870322931792846,1
675,717,58,0.102938806633566,1
675,718,58,0.134102038747042,1
675,719,58,0.110031036141059,1
676,717,58,0.0760964487532067,1
676,718,58,0.102413335616795,1
644,708,59,0.0766320963983912,1
644,709,59,0.094115208586022,1
645,708,59,0.108117566449131,1
645,709,59,0.132336456609875,1
645,710,59,0.0733485614188695,1
646,709,59,0.0833945767902624,1
673,718,59,0.0735796589335631,1
674,717,59,0.114368711694188,1
674,718,59,0.140392440980107,1
674,719,59,0.108452562608008,1
675,716,59,0.0697573496460953,1
675,717,59,0.131948474897762,1
675,718,59,0.171081582370241,1
675,719,59,0.138887533868586,1
675,720,59,0.0723659986613571,1
676,717,59,0.0988894728786803,1
676,718,59,0.130155255936874,1
676,719,59,0.112549233557923,1
677,718,59,0.0715106227948043,1
680,705,59,0.0733038297761415,1
680,706,59,0.0727918417438086,1
644,708,60,0.0731796377728846,1
644,709,60,0.0875544398707052,1
645,708,60,0.0997518328233559,1
645,709,60,0.120135942984238,1
645,710,60,0.070583902713397,1
646,709,60,0.0795747652391387,1
673,718,60,0.0759152340880898,1
674,717,60,0.116834175128382,1
674,718,60,0.143657743083295,1
674,719,60,0.112704548434186,1
675,716,60,0.0723831234292413,1
675,717,60,0.13745494730531,1
675,718,60,0.176565724895078,1
675,719,60,0.143396552936964,1
675,720,60,0.0754033299126125,1
676,717,60,0.106018078292211,1
676,718,60,0.135386066900712,1
676,719,60,0.114712560741114,1
677,718,60,0.0746363212026166,1
679,704,60,0.0693123392823463,1
679,705,60,0.124056658291843,1
679,706,60,0.12011394852895,1
680,704,60,0.080130412744402,1
680,705,60,0.146561801831779,1
680,706,60,0.142379956275598,1
680,707,60,0.073446703888888,1
681,705,60,0.0987994405645608,1
681,706,60,0.0958066912116482,1
645,708,61,0.0747520436634501,1
645,709,61,0.0842990628253646,1
673,718,61,0.0680227825659776,1
674,717,61,0.0975050261403382,1
674,718,61,0.119049265950628,1
674,719,61,0.0973444103128407,1
675,717,61,0.115818956115359,1
675,718,61,0.146053437613566,1
675,719,61,0.120387585428573,1
675,720,61,0.068850779169152,1
676,717,61,0.093557129231944,1
676,718,61,0.114957063373165,1
676,719,61,0.0972078913517993,1
677,718,61,0.0694531708816796,1
678,705,61,0.0813057204846869,1
678,706,61,0.0774963311427686,1
679,704,61,0.0942869054980196,1
679,705,61,0.187510182618189,1
679,706,61,0.179092966872804,1
679,707,61,0.0828050870539582,1
680,704,61,0.112676683999,1
680,705,61,0.227907887412923,1
680,706,61,0.218946704224315,1
680,707,61,0.100496859057614,1
681,704,61,0.0729848502766989,1
681,705,61,0.133617837282816,1
681,706,61,0.128026441839568,1
674,717,62,0.0717572278380227,1
674,718,62,0.0847246663167999,1
674,719,62,0.0738339009404235,1
675,717,62,0.0840985371243405,1
675,718,62,0.101691747373699,1
675,719,62,0.0868803984647774,1
676,717,62,0.0723571457733078,1
676,718,62,0.084224304438529,1
676,719,62,0.0728657076541088,1
678,705,62,0.0955163068999913,1
678,706,62,0.0906820430270964,1
679,704,62,0.10917379146458,1
679,705,62,0.227715903131627,1
679,706,62,0.216417078315978,1
679,707,62,0.0970246701119216,1
680,704,62,0.136747231382053,1
680,705,62,0.288964663008527,1
680,706,62,0.276286728344422,1
680,707,62,0.123161462398394,1
681,705,62,0.160468407145256,1
681,706,62,0.153023883007515,1
681,707,62,0.0733597024011237,1
678,705,63,0.0985993221682642,1
678,706,63,0.0957050267536912,1
679,704,63,0.108554963808339,1
679,705,63,0.216071204724965,1
679,706,63,0.208243167247563,1
679,707,63,0.102685966234151,1
680,704,63,0.137909511360831,1
680,705,63,0.280692950887292,1
680,706,63,0.270889605276676,1
680,707,63,0.12992770436922,1
681,704,63,0.0844690766104733,1
681,705,63,0.160417086749582,1
681,706,63,0.154440249258993,1
681,707,63,0.0797457134292106,1
678,705,64,0.092226824073492,1
678,706,64,0.0934831375363603,1
678,707,64,0.0685151720531838,1
679,704,64,0.0943314514577101,1
679,705,64,0.169403139485673,1
679,706,64,0.169146657302811,1
679,707,64,0.0981228894427381,1
680,704,64,0.118664123392057,1
680,705,64,0.220830320875623,1
680,706,64,0.218334429382369,1
680,707,64,0.119113751872643,1
681,704,64,0.0803238645206723,1
681,705,64,0.138580809449623,1
681,706,64,0.136357416798665,1
681,707,64,0.0799351820048363,1
678,705,65,0.0781985065237759,1
678,706,65,0.083280615323398,1
678,707,65,0.0688979127118176,1
679,704,65,0.0740480414009443,1
679,705,65,0.112632024233577,1
679,706,65,0.119235020865502,1
679,707,65,0.0862137244825984,1
680,704,65,0.088878270081944,1
680,705,65,0.142242622705101,1
680,706,65,0.147432140157294,1
680,707,65,0.098439095676168,1
681,704,65,0.0698948868689556,1
681,705,65,0.104124698306992,1
681,706,65,0.106910303257058,1
681,707,65,0.0757207281113481,1
679,705,66,0.0701129206834899,1
679,706,66,0.0778461639753248,1
679,707,66,0.0691260033592577,1
680,705,66,0.0821729980349703,1
680,706,66,0.089131074542707,1
680,707,66,0.0752371555735387,1
681,705,66,0.0737201850543507,1
681,706,66,0.0784034646586,1
