x,y,z,signal,cytoplasm.p
558,566,1,0.0689421711622886,1
559,565,1,0.0835560910840708,1
559,566,1,0.0995730320377273,1
559,567,1,0.0906876015386727,1
560,564,1,0.0697985293520079,1
560,565,1,0.0957757120932511,1
560,566,1,0.112706632876028,1
560,567,1,0.100174567212372,1
560,568,1,0.0802783721764678,1
561,564,1,0.0683970596719635,1
561,565,1,0.085810367017019,1
561,566,1,0.0950537584738551,1
561,567,1,0.0883936613129894,1
561,568,1,0.0823494807775169,1
561,569,1,0.0861945452217501,1
562,565,1,0.0688839864839999,1
562,566,1,0.0715971211414346,1
562,567,1,0.07378207141384,1
562,568,1,0.0832706543268987,1
562,569,1,0.0944100313212544,1
562,570,1,0.0963625543488261,1
562,571,1,0.088104421048435,1
562,572,1,0.0889285841953499,1
563,568,1,0.0779305898596648,1
563,569,1,0.0908336861710366,1
563,570,1,0.0955324553344844,1
563,571,1,0.092358137919706,1
563,572,1,0.103111683531319,1
564,569,1,0.0745442164262067,1
564,570,1,0.0825373560728847,1
564,571,1,0.0882227310922437,1
564,572,1,0.105602471735927,1
565,570,1,0.0677734941033776,1
565,571,1,0.0789296963768471,1
565,572,1,0.0966134001530316,1
565,573,1,0.12489850924553,1
565,577,1,0.106851315948865,1
566,572,1,0.0729996929401536,1
566,573,1,0.0905427987182456,1
566,574,1,0.140899810895603,1
566,576,1,0.156906802832311,1
566,577,1,0.0814697085557377,1
567,546,1,0.0710485236018235,1
567,547,1,0.0712221372419509,1
567,548,1,0.0681701909387061,1
567,575,1,0.0789724513936914,1
567,576,1,0.0679962059325036,1
568,544,1,0.0685017190176232,1
568,545,1,0.0730170213604016,1
568,546,1,0.0760254699146519,1
568,547,1,0.0747588001301075,1
568,548,1,0.0705481018257985,1
568,549,1,0.0692339690609412,1
568,550,1,0.0701007614394168,1
568,551,1,0.0711562497124908,1
569,543,1,0.0706228182842063,1
569,544,1,0.0732547735155707,1
569,545,1,0.0764821124222383,1
569,546,1,0.0773260837564191,1
569,547,1,0.0733196966911906,1
569,548,1,0.0687906597934074,1
569,549,1,0.0707307779961144,1
569,550,1,0.0765272573594693,1
569,551,1,0.0795588204570093,1
569,552,1,0.0725715557737218,1
570,542,1,0.0743510282000543,1
570,543,1,0.077169373262486,1
570,544,1,0.0790985421557518,1
570,545,1,0.0807113969996305,1
570,546,1,0.0782739717041093,1
570,547,1,0.0715707781092014,1
570,549,1,0.0706162295312603,1
570,550,1,0.0804071942761131,1
570,551,1,0.0839307335663564,1
570,552,1,0.0718721596485027,1
571,541,1,0.0769061525822928,1
571,542,1,0.0810361147039115,1
571,543,1,0.0858682102781096,1
571,544,1,0.093113197027768,1
571,545,1,0.0967496435844043,1
571,546,1,0.0887526644916914,1
571,547,1,0.0755959790589785,1
571,550,1,0.074352058441424,1
571,551,1,0.0775720299243429,1
572,541,1,0.0831478938799638,1
572,542,1,0.0935375306868174,1
572,543,1,0.105886063642274,1
572,544,1,0.121081081625017,1
572,545,1,0.126309508658244,1
572,546,1,0.108189707304114,1
572,547,1,0.0832740744886553,1
573,541,1,0.0994864258751397,1
573,542,1,0.126275606529449,1
573,543,1,0.145502809540093,1
573,544,1,0.151742466395922,1
573,545,1,0.142536804534365,1
573,546,1,0.114648350348768,1
573,547,1,0.083949224003033,1
574,541,1,0.132394449615351,1
574,542,1,0.173824815649088,1
574,543,1,0.186950330290591,1
574,544,1,0.165078234133708,1
574,545,1,0.128393315583153,1
574,546,1,0.0951779444873366,1
574,547,1,0.0708164617332896,1
575,540,1,0.116070933987117,1
575,541,1,0.179088067236523,1
575,542,1,0.214021958804146,1
575,543,1,0.205325835156781,1
575,544,1,0.16242037911349,1
575,545,1,0.109320984205394,1
575,546,1,0.0725909386869339,1
576,539,1,0.0830161906983484,1
576,540,1,0.138366004124032,1
576,541,1,0.201617181857632,1
576,542,1,0.211264505798486,1
576,543,1,0.180116547612293,1
576,544,1,0.138355234507853,1
576,545,1,0.092941997267129,1
577,539,1,0.0902161043880807,1
577,540,1,0.13960288076571,1
577,541,1,0.184056454160297,1
577,542,1,0.17324264541833,1
577,543,1,0.133597723617004,1
577,544,1,0.10174405009254,1
577,545,1,0.0730095281513694,1
578,538,1,0.0812807311416953,1
578,539,1,0.0926707922163204,1
578,540,1,0.123590653765297,1
578,541,1,0.147010076623124,1
578,542,1,0.13232883761556,1
578,543,1,0.0982900461049784,1
578,544,1,0.0718941421242408,1
579,538,1,0.0926812803130554,1
579,539,1,0.0917009397622184,1
579,540,1,0.103067742538944,1
579,541,1,0.11111921061852,1
579,542,1,0.0988865858069349,1
579,543,1,0.0754820056125633,1
580,537,1,0.0917750093248823,1
580,538,1,0.0907211502707187,1
580,539,1,0.0849665454272234,1
580,540,1,0.0853297114998321,1
580,541,1,0.0835187807730701,1
580,542,1,0.0725841402918487,1
581,537,1,0.0828122268662415,1
581,538,1,0.0815516726423861,1
581,539,1,0.0786902491152383,1
581,540,1,0.0761633126160579,1
581,541,1,0.0697894728115948,1
582,536,1,0.0756210043406225,1
582,537,1,0.0781978176996042,1
582,538,1,0.0775613860934474,1
582,539,1,0.0756262034656745,1
582,540,1,0.0709038884951077,1
583,536,1,0.0737860186758322,1
583,537,1,0.0758551266918959,1
583,538,1,0.0753145913899806,1
583,539,1,0.0720261208355248,1
584,536,1,0.074370716591812,1
584,537,1,0.0754036533604844,1
584,538,1,0.073738861174065,1
584,539,1,0.068751875997657,1
585,535,1,0.0749099041942612,1
585,536,1,0.0774828361787801,1
585,537,1,0.0772626520348753,1
585,538,1,0.0732797808278886,1
586,534,1,0.0814042103616789,1
586,535,1,0.0879312626312384,1
586,536,1,0.0896790850843284,1
586,537,1,0.0858434784954604,1
586,538,1,0.0770034864326316,1
587,534,1,0.103186184357812,1
587,535,1,0.113934512875046,1
587,536,1,0.110444043134817,1
587,537,1,0.0981658001937429,1
587,538,1,0.0828474826842781,1
587,539,1,0.0696971044850671,1
588,534,1,0.111503658363145,1
588,535,1,0.12377594147769,1
588,536,1,0.11597643929032,1
588,537,1,0.0975275297265366,1
588,538,1,0.0790823577826062,1
589,534,1,0.0988857292690519,1
589,535,1,0.107979945369415,1
589,536,1,0.102030553029734,1
589,537,1,0.0872020374245001,1
589,538,1,0.0713253470619625,1
590,535,1,0.084338984678442,1
590,536,1,0.0830971604822795,1
590,537,1,0.0770487571551461,1
591,535,1,0.0717309207444419,1
591,536,1,0.0736906255127248,1
591,537,1,0.0757172540416129,1
591,538,1,0.0705396083242736,1
592,536,1,0.0726331965524195,1
592,537,1,0.0827190738791357,1
592,538,1,0.0838441932912982,1
592,539,1,0.0697346064688808,1
593,536,1,0.0754730868369846,1
593,537,1,0.0901390159786124,1
593,538,1,0.0953927318436011,1
593,539,1,0.0820574852162759,1
594,536,1,0.0788557885381191,1
594,537,1,0.0908118773987853,1
594,538,1,0.0934638324902285,1
594,539,1,0.0837726933422832,1
594,540,1,0.0695878509816715,1
595,537,1,0.0858494083731118,1
595,538,1,0.0837730587185829,1
595,539,1,0.0797272589311864,1
595,540,1,0.0783993616624473,1
595,541,1,0.0844051058091429,1
595,542,1,0.0876285154231446,1
595,543,1,0.0703674202506927,1
596,538,1,0.076994082485245,1
596,539,1,0.0791709046324252,1
596,540,1,0.0884436639580743,1
596,541,1,0.113381381075453,1
596,542,1,0.140029041306258,1
596,543,1,0.120405087552308,1
596,544,1,0.070807279407593,1
597,539,1,0.0810437217186765,1
597,540,1,0.0970857837903835,1
597,541,1,0.138920621387926,1
597,542,1,0.186505553528083,1
597,543,1,0.165506191606878,1
597,544,1,0.0949824741567546,1
598,540,1,0.0898000006804385,1
598,541,1,0.121137900634514,1
598,542,1,0.156014266399143,1
598,543,1,0.138386117789844,1
598,544,1,0.0848218983409568,1
599,541,1,0.0845596240452777,1
599,542,1,0.0926001428154129,1
599,543,1,0.0818793792445944,1
558,566,2,0.0686213408222457,1
559,565,2,0.087701069572631,1
559,566,2,0.106836808712833,1
559,567,2,0.0910503423372276,1
560,564,2,0.068443720022372,1
560,565,2,0.101850140994521,1
560,566,2,0.123951897120001,1
560,567,2,0.103526307764436,1
560,568,2,0.076640470104408,1
560,569,2,0.0733511430120693,1
561,565,2,0.0849260126170546,1
561,566,2,0.100204773649742,1
561,567,2,0.0925164896121002,1
561,568,2,0.0812460982603009,1
561,569,2,0.0789472823574376,1
561,570,2,0.078128012857029,1
562,566,2,0.0765332471348748,1
562,567,2,0.0833910607920994,1
562,568,2,0.0868798713645418,1
562,569,2,0.0864356756102479,1
562,570,2,0.0842039811305783,1
562,571,2,0.0806215863072009,1
562,572,2,0.0844802475416045,1
563,567,2,0.0741903225259257,1
563,568,2,0.0813603172875077,1
563,569,2,0.0834715993122013,1
563,570,2,0.0849062104195641,1
563,571,2,0.0888709925048263,1
564,569,2,0.0694392266845357,1
564,570,2,0.0770257743869153,1
564,571,2,0.0894941028504814,1
565,571,2,0.0812809647429361,1
565,572,2,0.0973443384355358,1
566,572,2,0.0691156290682555,1
566,573,2,0.0899758365272413,1
566,577,2,0.0762900023556589,1
567,547,2,0.0705262870637718,1
567,548,2,0.0693815810860335,1
567,575,2,0.0806508583396074,1
568,545,2,0.06921703596587,1
568,546,2,0.0721670482712646,1
568,547,2,0.0736129381257159,1
568,548,2,0.0706859445272045,1
568,549,2,0.0698742940211116,1
568,550,2,0.0693672954716915,1
568,551,2,0.0686016584202633,1
569,544,2,0.0691463146876577,1
569,545,2,0.0724698973055403,1
569,546,2,0.0734578987791208,1
569,547,2,0.0705337083954992,1
569,549,2,0.0695701332260221,1
569,550,2,0.0757649925515945,1
569,551,2,0.0777537776794709,1
569,552,2,0.0693664928417871,1
570,541,2,0.0689631293864323,1
570,542,2,0.0715957075544389,1
570,543,2,0.0730780451922325,1
570,544,2,0.0748341215558312,1
570,545,2,0.0767191997123374,1
570,546,2,0.0747301570241186,1
570,547,2,0.0686775908030784,1
570,550,2,0.0774663463270889,1
570,551,2,0.0820582578973032,1
570,552,2,0.0700666197196057,1
571,540,2,0.0684856364706595,1
571,541,2,0.0781417354324829,1
571,542,2,0.082210368243725,1
571,543,2,0.081381431245812,1
571,544,2,0.0838703027222906,1
571,545,2,0.0875890847316504,1
571,546,2,0.0829049485895181,1
571,547,2,0.0728179092463732,1
571,550,2,0.0691617742979792,1
571,551,2,0.07364505530144,1
572,540,2,0.0690767494360986,1
572,541,2,0.0831729431207094,1
572,542,2,0.0915713090428933,1
572,543,2,0.0958183113759348,1
572,544,2,0.103391885224786,1
572,545,2,0.111084865246346,1
572,546,2,0.0998519099908304,1
572,547,2,0.0807143140202529,1
573,541,2,0.0898700630833562,1
573,542,2,0.115448835913505,1
573,543,2,0.13402799314348,1
573,544,2,0.131757401062327,1
573,545,2,0.123738169953983,1
573,546,2,0.102653681344715,1
573,547,2,0.0778509857445262,1
574,541,2,0.115846353348064,1
574,542,2,0.167494162125299,1
574,543,2,0.19486089489353,1
574,544,2,0.161927863841,1
574,545,2,0.114493646429596,1
574,546,2,0.0822091283602161,1
575,540,2,0.103200799409801,1
575,541,2,0.182210022034707,1
575,542,2,0.231940899029829,1
575,543,2,0.232493467790534,1
575,544,2,0.172673077675024,1
575,545,2,0.100467694841165,1
576,539,2,0.0731584998554787,1
576,540,2,0.147137407268693,1
576,541,2,0.248415800241661,1
576,542,2,0.259784849184164,2
576,543,2,0.207516104349746,1
576,544,2,0.144305705007107,1
576,545,2,0.084895572578444,1
577,539,2,0.0817503834414624,1
577,540,2,0.158764256144647,1
577,541,2,0.242885895832726,2
577,542,2,0.218602340056704,1
577,543,2,0.14195246600491,1
577,544,2,0.0940351372684017,1
578,538,2,0.0698862496128209,1
578,539,2,0.0854805520138679,1
578,540,2,0.135967793888091,1
578,541,2,0.181690636629748,1
578,542,2,0.153605478219835,1
578,543,2,0.0959773099640728,1
579,538,2,0.0806494507423871,1
579,539,2,0.0852828594766105,1
579,540,2,0.103453879400233,1
579,541,2,0.115332885841206,1
579,542,2,0.0966175390878368,1
579,543,2,0.0681920296598344,1
580,537,2,0.0801013623336855,1
580,538,2,0.0806432333555163,1
580,539,2,0.080258210592453,1
580,540,2,0.0834552951435476,1
580,541,2,0.0799913361492625,1
581,536,2,0.0703608794159499,1
581,537,2,0.0756044785502788,1
581,538,2,0.0747764280391258,1
581,539,2,0.0737413469308583,1
581,540,2,0.0714325281030678,1
582,535,2,0.0699217210627721,1
582,536,2,0.0724632246957386,1
582,537,2,0.0743896323025425,1
582,538,2,0.0729934995123844,1
582,539,2,0.071199951113849,1
583,535,2,0.0695716426494243,1
583,536,2,0.0709809828943515,1
583,537,2,0.0716094301298928,1
583,538,2,0.0700385037138524,1
584,535,2,0.0704482642493403,1
584,536,2,0.0713117622513429,1
584,537,2,0.0709478055283806,1
584,538,2,0.0685300147166386,1
585,534,2,0.0696705158720423,1
585,535,2,0.0719076969859833,1
585,536,2,0.0732437882674771,1
585,537,2,0.0720275823407237,1
586,533,2,0.0711861267122132,1
586,534,2,0.0756137986408097,1
586,535,2,0.0791823630727759,1
586,536,2,0.0805286789008868,1
586,537,2,0.0772191842347578,1
586,538,2,0.068893013075536,1
587,534,2,0.0913837332362958,1
587,535,2,0.0973552757654262,1
587,536,2,0.0952472282194516,1
587,537,2,0.0867070124361154,1
587,538,2,0.0740704850893885,1
588,534,2,0.0971219440645063,1
588,535,2,0.103231826446401,1
588,536,2,0.09779237962564,1
588,537,2,0.0855589581739254,1
588,538,2,0.0716043747594506,1
589,534,2,0.0875990217690481,1
589,535,2,0.0917212810394953,1
589,536,2,0.0880521482784715,1
589,537,2,0.0783416501764157,1
590,534,2,0.0751803844822457,1
590,535,2,0.0762548962820074,1
590,536,2,0.0756431066118687,1
590,537,2,0.0709889013774375,1
591,535,2,0.070157682275095,1
591,536,2,0.0701438878223362,1
591,537,2,0.0693934168822347,1
592,535,2,0.0687401659867393,1
592,536,2,0.0702492539614937,1
592,537,2,0.075234795602029,1
592,538,2,0.0734988448837926,1
593,535,2,0.0688403689394973,1
593,536,2,0.0736018989696436,1
593,537,2,0.0829739927306169,1
593,538,2,0.0836658058001727,1
593,539,2,0.0699320234764695,1
594,535,2,0.069345055435611,1
594,536,2,0.0764909353614106,1
594,537,2,0.0848110568474729,1
594,538,2,0.0817167089241328,1
594,539,2,0.0704839752903076,1
595,536,2,0.0772855689155766,1
595,537,2,0.0804696796131429,1
595,538,2,0.0731016928255333,1
595,541,2,0.0703656772260497,1
595,542,2,0.073945855832527,1
596,537,2,0.0732819611061361,1
596,540,2,0.0718360173437061,1
596,541,2,0.0892669705671062,1
596,542,2,0.114045886758935,1
596,543,2,0.0949700034443604,1
597,539,2,0.069714313109807,1
597,540,2,0.0804880742134131,1
597,541,2,0.114006174547997,1
597,542,2,0.160764709355013,1
597,543,2,0.141796983414935,1
597,544,2,0.0795080750797742,1
598,540,2,0.0761485897481113,1
598,541,2,0.10025653129902,1
598,542,2,0.133035487358795,1
598,543,2,0.117349092160889,1
598,544,2,0.0704177523334248,1
599,541,2,0.0712416040120187,1
599,542,2,0.0782377575220079,1
599,543,2,0.0690922869135004,1
559,565,3,0.0829362571455625,1
559,566,3,0.0982040988176854,1
559,567,3,0.0812133880968116,1
560,565,3,0.0967037319559214,1
560,566,3,0.116248974071269,1
560,567,3,0.0971225670011485,1
560,568,3,0.0743964546567293,1
560,569,3,0.0704659820049896,1
561,565,3,0.0778113214517912,1
561,566,3,0.0977670189165733,1
561,567,3,0.100170536093524,1
561,568,3,0.090331778930711,1
561,569,3,0.08004078773501,1
561,570,3,0.0754746202194884,1
562,566,3,0.0864038040153154,1
562,567,3,0.110008334892272,1
562,568,3,0.10870565457799,1
562,569,3,0.0895117427390505,1
562,570,3,0.077133949730738,1
562,571,3,0.0783888675759369,1
562,572,3,0.0849230896066567,1
563,566,3,0.0757027887340087,1
563,567,3,0.0990649253798572,1
563,568,3,0.0994580043908408,1
563,569,3,0.0841399983496971,1
563,570,3,0.0764998721063155,1
563,571,3,0.0869421650287586,1
563,572,3,0.107642529341274,1
564,567,3,0.0690504423425178,1
564,568,3,0.0703185376936087,1
564,570,3,0.0716623198467231,1
564,571,3,0.0911923239734388,1
565,571,3,0.084343518938424,1
565,572,3,0.104355244762349,1
566,572,3,0.0739336666395769,1
566,573,3,0.0928112524495786,1
567,547,3,0.0693316263591519,1
567,548,3,0.0696183449282607,1
567,575,3,0.0782162003203236,1
568,546,3,0.0698277235173341,1
568,547,3,0.0727066970864199,1
568,548,3,0.0703349916066475,1
568,549,3,0.0701428935196189,1
568,550,3,0.070570946829195,1
569,545,3,0.07066763378379,1
569,546,3,0.072123682297329,1
569,547,3,0.0710908593343893,1
569,549,3,0.0715931139816883,1
569,550,3,0.0790051495776298,1
569,551,3,0.0775154025876596,1
570,542,3,0.0690069925117265,1
570,543,3,0.0695158598710732,1
570,544,3,0.0730004236927531,1
570,545,3,0.0762579271083626,1
570,546,3,0.0745235756601595,1
570,547,3,0.0693030012224892,1
570,550,3,0.0769378025555353,1
570,551,3,0.0805538359575897,1
570,552,3,0.0696726662014129,1
571,541,3,0.0832294386823337,1
571,542,3,0.0884183032490075,1
571,543,3,0.0833893896447613,1
571,544,3,0.0834125580960296,1
571,545,3,0.0873725543507428,1
571,546,3,0.084392179873818,1
571,547,3,0.0740164453356804,1
571,551,3,0.0697227646829042,1
572,540,3,0.0688526120404261,1
572,541,3,0.0903394757921071,1
572,542,3,0.0997088202461692,1
572,543,3,0.0962405965317955,1
572,544,3,0.0968553092123321,1
572,545,3,0.104081140660244,1
572,546,3,0.0991817978775686,1
572,547,3,0.0814765189303737,1
573,541,3,0.0871431399629381,1
573,542,3,0.112907494004474,1
573,543,3,0.129206247901183,1
573,544,3,0.120946455433004,1
573,545,3,0.11257593597668,1
573,546,3,0.0998217574614393,1
573,547,3,0.0764661616503336,1
574,541,3,0.104680980728449,1
574,542,3,0.168571638863886,1
574,543,3,0.210086820117365,1
574,544,3,0.169468823362769,1
574,545,3,0.109795949435945,1
574,546,3,0.0801017217202098,1
575,540,3,0.0980391104541419,1
575,541,3,0.186866185925695,1
575,542,3,0.253764789474249,2
575,543,3,0.265925303379728,1
575,544,3,0.192244165671246,1
575,545,3,0.0988091619700438,1
576,539,3,0.0684096801287428,1
576,540,3,0.173494395678621,1
576,541,3,0.320151315143839,2
576,542,3,0.327511095939143,2
576,543,3,0.239926683232309,2
576,544,3,0.151006526650955,1
576,545,3,0.077073854314095,1
577,539,3,0.0789019816860461,1
577,540,3,0.206195766177569,2
577,541,3,0.353456958144791,2
577,542,3,0.304732315499584,2
577,543,3,0.162891906212959,1
577,544,3,0.0880892669166591,1
578,539,3,0.0841209927923355,1
578,540,3,0.166700109579347,1
578,541,3,0.252895792858424,2
578,542,3,0.202801288577987,1
578,543,3,0.103378767616648,1
579,538,3,0.0719196166390402,1
579,539,3,0.0852582954076727,1
579,540,3,0.11282027089502,1
579,541,3,0.132349454422505,1
579,542,3,0.102247694367733,1
580,537,3,0.072098213772305,1
580,538,3,0.0746609870977363,1
580,539,3,0.0824184710106371,1
580,540,3,0.0890496974540484,1
580,541,3,0.0840448986855845,1
581,537,3,0.0729081212537549,1
581,538,3,0.0726179945024404,1
581,539,3,0.074020751984197,1
581,540,3,0.0720867673115051,1
582,536,3,0.0697713357716671,1
582,537,3,0.0718934413205184,1
582,538,3,0.0699088550252011,1
582,539,3,0.0686979380701308,1
583,536,3,0.0694822811901502,1
583,537,3,0.0693644203794968,1
584,536,3,0.0679729775834812,1
585,534,3,0.068000009439886,1
585,535,3,0.0701413721166659,1
585,536,3,0.070924086017775,1
585,537,3,0.0696106001486614,1
586,533,3,0.0706346121519797,1
586,534,3,0.0727150049049073,1
586,535,3,0.0760542807343522,1
586,536,3,0.0763379325384534,1
586,537,3,0.0725908009220996,1
587,533,3,0.0774174577802295,1
587,534,3,0.0820940408155755,1
587,535,3,0.0855504107644219,1
587,536,3,0.0838740523216945,1
587,537,3,0.0777619896615518,1
588,534,3,0.0866490793283938,1
588,535,3,0.0881194853335797,1
588,536,3,0.0843857708141341,1
588,537,3,0.0777253801542736,1
589,534,3,0.0824686114205562,1
589,535,3,0.0819672193009156,1
589,536,3,0.0794584737496416,1
589,537,3,0.0739619563488169,1
590,534,3,0.0754638326339831,1
590,535,3,0.0740307309500225,1
590,536,3,0.0732282567798507,1
590,537,3,0.0688260893149307,1
591,535,3,0.0710919434837377,1
591,536,3,0.0702051452554079,1
592,535,3,0.0711597417515522,1
592,536,3,0.0715665073993373,1
592,537,3,0.0721959549273713,1
593,535,3,0.0724977677305019,1
593,536,3,0.0756193691319368,1
593,537,3,0.0797250546938372,1
593,538,3,0.0739253767904157,1
594,535,3,0.0722086891898834,1
594,536,3,0.0771365672625902,1
594,537,3,0.0811653560878352,1
594,538,3,0.0727565619666704,1
595,536,3,0.0756824115180793,1
595,537,3,0.0764524810033075,1
596,541,3,0.0752264458551138,1
596,542,3,0.0870994146024782,1
596,543,3,0.068561634741004,1
597,540,3,0.069998833431342,1
597,541,3,0.094040917401668,1
597,542,3,0.120821029536014,1
597,543,3,0.103479934923247,1
598,540,3,0.0691342393004402,1
598,541,3,0.0887211462935078,1
598,542,3,0.107319177305786,1
598,543,3,0.0927871376137961,1
599,541,3,0.0690117483933985,1
599,542,3,0.0733478067071684,1
559,565,4,0.0738281507560342,1
559,566,4,0.08102420104063,1
560,565,4,0.0840900436228155,1
560,566,4,0.0958138669625839,1
560,567,4,0.0849518764672554,1
560,568,4,0.0720015028586083,1
560,569,4,0.067756393294595,1
561,565,4,0.0684904402705347,1
561,566,4,0.0900248149207318,1
561,567,4,0.106206576524221,1
561,568,4,0.100623446971033,1
561,569,4,0.0808669394873596,1
561,570,4,0.0720047313475519,1
562,558,4,0.0699975156807528,1
562,559,4,0.076499021558208,1
562,566,4,0.0942373820349673,1
562,567,4,0.136531994792633,1
562,568,4,0.13208258596909,1
562,569,4,0.0920734798333366,1
562,570,4,0.0697740790888028,1
562,571,4,0.0727838034652144,1
563,566,4,0.085403439645298,1
563,567,4,0.122648306359857,1
563,568,4,0.116472668223561,1
563,569,4,0.0819032484995852,1
563,571,4,0.0800195360118715,1
563,572,4,0.104563904578373,1
564,567,4,0.076369702307204,1
564,568,4,0.0731176376076626,1
564,571,4,0.0862099149854405,1
565,571,4,0.0812936331179187,1
565,572,4,0.104238827487568,1
566,572,4,0.0750267886715234,1
566,573,4,0.0891924278121852,1
567,548,4,0.0693142919491285,1
567,575,4,0.0725379591234726,1
568,547,4,0.0694618740253437,1
568,548,4,0.0687776380216759,1
568,549,4,0.0712473062782047,1
568,550,4,0.0734735081338275,1
569,545,4,0.0685559564339197,1
569,546,4,0.0690723409614002,1
569,547,4,0.0686427123408924,1
569,549,4,0.0726381441069044,1
569,550,4,0.0811541671873778,1
569,551,4,0.0771417364387651,1
570,544,4,0.0721357696640972,1
570,545,4,0.0757677418585056,1
570,546,4,0.0718131843198605,1
570,550,4,0.0734081896330309,1
570,551,4,0.076080527930179,1
571,541,4,0.0828324902764382,1
571,542,4,0.089511425280954,1
571,543,4,0.0830131179435654,1
571,544,4,0.0826745398989961,1
571,545,4,0.0868733425093498,1
571,546,4,0.0821536690297369,1
571,547,4,0.0709059489778472,1
572,541,4,0.0900376030912225,1
572,542,4,0.100708729393256,1
572,543,4,0.0927604292052632,1
572,544,4,0.0904004097773069,1
572,545,4,0.0968476063611606,1
572,546,4,0.0937390746496604,1
572,547,4,0.077996315665189,1
573,541,4,0.079257972007719,1
573,542,4,0.105868753191352,1
573,543,4,0.118862516733037,1
573,544,4,0.10767924666451,1
573,545,4,0.099241366193976,1
573,546,4,0.0915130644668506,1
573,547,4,0.0725139880422999,1
574,541,4,0.0919576854951982,1
574,542,4,0.165900690194632,1
574,543,4,0.213954226423861,1
574,544,4,0.16414064260994,1
574,545,4,0.0986178365640425,1
574,546,4,0.0729578783180481,1
575,540,4,0.0868629262899197,1
575,541,4,0.184851357254356,2
575,542,4,0.269109060680546,2
575,543,4,0.292951193968287,1
575,544,4,0.201702500218507,1
575,545,4,0.0921065793322273,1
576,540,4,0.188041307982943,2
576,541,4,0.372188255670065,2
576,542,4,0.372790108302806,2
576,543,4,0.263014991305721,2
576,544,4,0.150462367534919,1
577,539,4,0.0774817340601055,1
577,540,4,0.252012852045456,2
577,541,4,0.460917625925205,2
577,542,4,0.384701495469621,2
577,543,4,0.184128678872136,2
577,544,4,0.0815899113685745,1
578,539,4,0.0773376080842992,1
578,540,4,0.189073681712727,1
578,541,4,0.317689493493091,2
578,542,4,0.246325847807186,2
578,543,4,0.107772195999252,1
579,539,4,0.0768853740514112,1
579,540,4,0.113164419430716,1
579,541,4,0.1431703191199,1
579,542,4,0.106350199358893,1
580,539,4,0.0764925106723422,1
580,540,4,0.0850965175637465,1
580,541,4,0.0791799611728383,1
581,537,4,0.0681483941460056,1
581,539,4,0.0706543844005931,1
581,540,4,0.0701813838163744,1
582,537,4,0.0687149310629561,1
583,536,4,0.0680184759174611,1
586,535,4,0.0699058721170492,1
586,536,4,0.0688174999769993,1
587,534,4,0.0693975498272645,1
587,535,4,0.0700130411786038,1
587,536,4,0.0679877363900802,1
588,535,4,0.0690398284604993,1
589,535,4,0.0684884516651001,1
590,535,4,0.06839538253485,1
591,535,4,0.0682404869428646,1
592,534,4,0.071257327172458,1
592,535,4,0.0701779337057408,1
592,536,4,0.0696355535530006,1
593,534,4,0.0720324160894759,1
593,535,4,0.0734074768497577,1
593,536,4,0.0744270504295004,1
593,537,4,0.0722272694731911,1
594,535,4,0.0731539775750476,1
594,536,4,0.0747974581405744,1
594,537,4,0.0727308119222023,1
595,536,4,0.0708392887673598,1
595,537,4,0.0679843102385483,1
597,541,4,0.07080642286971,1
597,542,4,0.0776255305982645,1
598,541,4,0.0724027579130204,1
598,542,4,0.0773792909313459,1
560,565,5,0.0683884523647058,1
560,566,5,0.0727211623940241,1
560,567,5,0.0709690273026422,1
560,568,5,0.0684893681007371,1
561,566,5,0.0795695780936375,1
561,567,5,0.0997209255822637,1
561,568,5,0.098411722402565,1
561,569,5,0.0776931012546136,1
561,570,5,0.0701196412114948,1
562,558,5,0.073676801111089,1
562,559,5,0.0802655360877739,1
562,566,5,0.0936259996695561,1
562,567,5,0.136445789944998,1
562,568,5,0.131001707038072,1
562,569,5,0.0880216782909839,1
563,566,5,0.0866342546342653,1
563,567,5,0.123520633290808,1
563,568,5,0.114077728404991,1
563,569,5,0.0766941624511426,1
563,571,5,0.0754340574604426,1
563,572,5,0.0963848542826607,1
563,573,5,0.107313942242081,1
564,567,5,0.0748351038789977,1
564,568,5,0.0694964050805563,1
564,571,5,0.0791775832320023,1
564,572,5,0.102904329486332,1
565,571,5,0.0742263630045403,1
565,572,5,0.0956107536785846,1
566,572,5,0.0730138827180892,1
566,573,5,0.0854273148900641,1
567,575,5,0.0678894142267995,1
568,549,5,0.0701333098789701,1
568,550,5,0.073665234854781,1
569,549,5,0.0703617000151805,1
569,550,5,0.0776820860576429,1
569,551,5,0.0729762669285428,1
570,544,5,0.0714234715626548,1
570,545,5,0.075085931713877,1
570,546,5,0.0703531825545539,1
570,551,5,0.0684512611496075,1
571,541,5,0.0764974402575009,1
571,542,5,0.084512340758227,1
571,543,5,0.0802026374562411,1
571,544,5,0.0818321917939502,1
571,545,5,0.0853201937467128,1
571,546,5,0.0789598968244415,1
571,547,5,0.0683194621315857,1
572,541,5,0.0843859205585192,1
572,542,5,0.0963087002781556,1
572,543,5,0.0905449190987391,1
572,544,5,0.0894792961256791,1
572,545,5,0.0933749322436606,1
572,546,5,0.0873999036652442,1
572,547,5,0.0732326053567951,1
573,541,5,0.0750785283514758,1
573,542,5,0.101065168948084,1
573,543,5,0.11258079967431,1
573,544,5,0.102559833543662,1
573,545,5,0.0939346468064243,1
573,546,5,0.0844343778415494,1
573,547,5,0.0680668373640848,1
574,541,5,0.0899691040196856,1
574,542,5,0.158900092271292,1
574,543,5,0.201506826235561,1
574,544,5,0.149235984979752,1
574,545,5,0.0912786965347856,1
575,540,5,0.0850216872996061,1
575,541,5,0.181132617173424,2
575,542,5,0.263347112372403,2
575,543,5,0.28799887162215,1
575,544,5,0.190318189328271,1
575,545,5,0.0865794182404282,1
576,540,5,0.185473311573358,2
576,541,5,0.371970467436322,2
576,542,5,0.363236823835818,2
576,543,5,0.258430153660261,2
576,544,5,0.14072634699986,1
577,539,5,0.0849070489881209,1
577,540,5,0.268670680998171,2
577,541,5,0.496320936191354,2
577,542,5,0.406311574891168,2
577,543,5,0.194299796692647,2
577,544,5,0.0799263231270116,1
578,539,5,0.0787074457604274,1
578,540,5,0.195338555523014,2
578,541,5,0.340217757566093,2
578,542,5,0.260074131377146,2
578,543,5,0.112866128615524,1
579,539,5,0.0741238300291496,1
579,540,5,0.112676288673823,1
579,541,5,0.148523441297518,2
579,542,5,0.110268662510945,1
580,539,5,0.0728693674068815,1
580,540,5,0.0814909363197747,1
580,541,5,0.0762190354966549,1
581,537,5,0.0678796928213165,1
581,539,5,0.0685729134880925,1
581,540,5,0.0680971995356151,1
582,536,5,0.0686955840883964,1
582,537,5,0.069861122504995,1
583,536,5,0.0683930525122172,1
583,537,5,0.0678018017819438,1
586,533,5,0.0683157604503851,1
587,533,5,0.0708533467702364,1
591,534,5,0.0718872778416261,1
591,535,5,0.0690382711188939,1
592,534,5,0.0747065453294702,1
592,535,5,0.0739811236301144,1
592,536,5,0.0696242328774843,1
593,534,5,0.0775809427101462,1
593,535,5,0.0793656082717552,1
593,536,5,0.0742946164952856,1
594,534,5,0.0740381882204023,1
594,535,5,0.0769024089726644,1
594,536,5,0.0727066671375429,1
595,535,5,0.0696208246952786,1
595,536,5,0.0678049763629087,1
560,568,6,0.0710809043276654,1
560,569,6,0.0686996032276935,1
561,566,6,0.0691476683768993,1
561,567,6,0.0886705326913316,1
561,568,6,0.0934619397212004,1
561,569,6,0.077703846911691,1
561,570,6,0.0685748661548747,1
562,558,6,0.0715071487250691,1
562,559,6,0.0739164041068584,1
562,566,6,0.0818953360062746,1
562,567,6,0.115086897744854,1
562,568,6,0.113452288036703,1
562,569,6,0.08249932099906,1
563,566,6,0.0760699619663637,1
563,567,6,0.104103734093073,1
563,568,6,0.0974014988622302,1
563,569,6,0.0714946121251455,1
563,571,6,0.0738414001392311,1
563,572,6,0.0851351635946626,1
564,571,6,0.0738893482913519,1
564,572,6,0.0889360414657297,1
565,572,6,0.0818329644749775,1
565,573,6,0.104892635432176,1
566,573,6,0.0785513342440348,1
566,574,6,0.101917010847148,1
566,576,6,0.0999814868021768,1
568,549,6,0.0694530810350485,1
568,550,6,0.0722546607161203,1
568,551,6,0.0679159489318457,1
569,549,6,0.068987543710985,1
569,550,6,0.0734020321439141,1
569,551,6,0.0702505118143288,1
570,544,6,0.0696358290826693,1
570,545,6,0.0731646453650447,1
570,546,6,0.0699832300664108,1
571,541,6,0.0693487391474853,1
571,542,6,0.077670519801335,1
571,543,6,0.0769385273183593,1
571,544,6,0.0806050305679802,1
571,545,6,0.0831183762667656,1
571,546,6,0.0772296783212682,1
571,547,6,0.068523623626281,1
572,541,6,0.0764897254267787,1
572,542,6,0.0888668535700212,1
572,543,6,0.0887992170261426,1
572,544,6,0.0912184813226344,1
572,545,6,0.0927690664613979,1
572,546,6,0.0842547384873642,1
572,547,6,0.070762296194298,1
573,541,6,0.0723189130368947,1
573,542,6,0.097103369770974,1
573,543,6,0.108223813085273,1
573,544,6,0.101964641541172,1
573,545,6,0.0933877743221299,1
573,546,6,0.0818434525717125,1
574,541,6,0.0899804127156511,1
574,542,6,0.14844592162422,1
574,543,6,0.177058240167568,1
574,544,6,0.130463525717891,1
574,545,6,0.0851940131380213,1
575,540,6,0.0842608780071548,1
575,541,6,0.169119331947411,2
575,542,6,0.242856593851443,2
575,543,6,0.253921673671669,1
575,544,6,0.163425307692367,1
575,545,6,0.0783015725891777,1
576,540,6,0.167378906866947,2
576,541,6,0.327450215861922,2
576,542,6,0.327040563142391,2
576,543,6,0.236140761830429,2
576,544,6,0.126898615048923,1
577,539,6,0.0874560757789967,1
577,540,6,0.250149600630527,2
577,541,6,0.45178350594109,2
577,542,6,0.37814700403893,2
577,543,6,0.188881745349634,2
577,544,6,0.0777809592802609,1
578,539,6,0.0795677512121389,1
578,540,6,0.186827647710737,1
578,541,6,0.320745572741366,2
578,542,6,0.251363680187011,2
578,543,6,0.113315816993865,1
579,539,6,0.0725264527649187,1
579,540,6,0.109672056921459,1
579,541,6,0.146642340351881,1
579,542,6,0.112159802320161,1
580,539,6,0.0716558029710819,1
580,540,6,0.0797214787979201,1
580,541,6,0.0755046050351681,1
581,537,6,0.0691238350605609,1
581,538,6,0.0678203101879467,1
581,539,6,0.069335615549572,1
581,540,6,0.068173143897981,1
582,536,6,0.0698587325846082,1
582,537,6,0.0716786539642538,1
583,536,6,0.0678228199038416,1
583,537,6,0.0681733595298956,1
585,533,6,0.0683372337952137,1
586,532,6,0.0775168760724094,1
586,533,6,0.0712114095541997,1
587,532,6,0.0801188345085432,1
587,533,6,0.0734890755601063,1
587,534,6,0.0683617199970712,1
588,533,6,0.0751611932418466,1
588,534,6,0.0691458355056252,1
591,534,6,0.0706151992898906,1
591,535,6,0.069064937598999,1
592,534,6,0.0746158241911791,1
592,535,6,0.0760112801367164,1
593,534,6,0.0792337313866531,1
593,535,6,0.0822737161084132,1
593,536,6,0.071251463182336,1
594,535,6,0.0766989243225899,1
559,568,7,0.0696877304865576,1
559,569,7,0.0692494705996906,1
560,567,7,0.0679607404723278,1
560,568,7,0.0827848476028631,1
560,569,7,0.0787473915726064,1
561,567,7,0.0831553810992206,1
561,568,7,0.0970536366657824,1
561,569,7,0.0856237375949356,1
561,570,7,0.0700828520109545,1
562,558,7,0.0689606376398637,1
562,566,7,0.0684297099376987,1
562,567,7,0.0902649569962877,1
562,568,7,0.0967038817003065,1
562,569,7,0.080490110737051,1
562,570,7,0.0688234598035277,1
563,567,7,0.0782751576796396,1
563,568,7,0.0783763549351149,1
563,569,7,0.0677439345617516,1
563,571,7,0.0733854584353672,1
564,554,7,0.0740986609928958,1
564,571,7,0.0723000152954905,1
564,572,7,0.0796538422540416,1
564,573,7,0.0947037279787105,1
565,553,7,0.0709953403859984,1
565,554,7,0.0760847567116152,1
565,572,7,0.0724953478612381,1
565,573,7,0.0905670453290869,1
565,574,7,0.12872092035918,1
566,573,7,0.0739516299760179,1
566,574,7,0.0898903564424299,1
566,575,7,0.0984912246915218,1
566,576,7,0.0847497874348504,1
568,548,7,0.0691641522388151,1
568,549,7,0.0698358636221102,1
568,550,7,0.0709188150154182,1
568,551,7,0.0702258219601075,1
569,548,7,0.0681755098592662,1
569,549,7,0.0695812442593993,1
569,550,7,0.0715469927110663,1
569,551,7,0.0701912489764672,1
570,544,7,0.070260766309823,1
570,545,7,0.0734503157234575,1
570,546,7,0.0725305437815206,1
570,547,7,0.0689310840880131,1
571,542,7,0.0744977118099587,1
571,543,7,0.0776891539926214,1
571,544,7,0.080917157764359,1
571,545,7,0.0822389155133075,1
571,546,7,0.0781418013200123,1
571,547,7,0.0710986640117426,1
572,541,7,0.0701902906124023,1
572,542,7,0.0831389870839358,1
572,543,7,0.0888607859275354,1
572,544,7,0.0928657953444207,1
572,545,7,0.09230184002067,1
572,546,7,0.0831560938824938,1
572,547,7,0.0708631580223506,1
573,541,7,0.0715734974672354,1
573,542,7,0.093370535748513,1
573,543,7,0.105388492999342,1
573,544,7,0.10309383400061,1
573,545,7,0.0945393266131567,1
573,546,7,0.0809203503146501,1
574,541,7,0.0922201874023427,1
574,542,7,0.13560732920419,1
574,543,7,0.152628366157941,1
574,544,7,0.118965480972257,1
574,545,7,0.0856044744772316,1
575,540,7,0.0905066803725506,1
575,541,7,0.157450063482036,1
575,542,7,0.212767244611311,1
575,543,7,0.209997165159096,1
575,544,7,0.139227705193413,1
575,545,7,0.0769281410478063,1
576,540,7,0.155568004172334,1
576,541,7,0.278167733453653,2
576,542,7,0.28612747411267,2
576,543,7,0.208542033081194,1
576,544,7,0.11549810780599,1
577,539,7,0.0924179697862311,1
577,540,7,0.226134842015601,2
577,541,7,0.382362703805702,2
577,542,7,0.334511753760237,2
577,543,7,0.179413623509361,2
577,544,7,0.0785956645718106,1
578,539,7,0.0858001724192789,1
578,540,7,0.183111519171881,1
578,541,7,0.292456055174169,2
578,542,7,0.239815560918987,2
578,543,7,0.116644335186682,1
579,539,7,0.0782137924306106,1
579,540,7,0.115491267482477,1
579,541,7,0.147957802846878,1
579,542,7,0.116922596192918,1
580,538,7,0.0682135808717433,1
580,539,7,0.0776220146001015,1
580,540,7,0.0866629696175591,1
580,541,7,0.0821165803404263,1
581,536,7,0.0682914359724635,1
581,537,7,0.0717899140424103,1
581,538,7,0.0729123799840682,1
581,539,7,0.0753266248487701,1
581,540,7,0.0742813431529871,1
582,533,7,0.0678891506766817,1
582,535,7,0.0681484899824121,1
582,536,7,0.0722452387994075,1
582,537,7,0.0747077313050005,1
582,538,7,0.0719345132104736,1
582,539,7,0.068540790322593,1
583,536,7,0.0695068632284142,1
583,537,7,0.0710339684475882,1
584,533,7,0.0698748211213473,1
585,532,7,0.0764058086733481,1
585,533,7,0.0708360902272933,1
586,532,7,0.0798278631988966,1
586,533,7,0.0740511441046043,1
586,534,7,0.0696401656800628,1
587,532,7,0.0815087858504829,1
587,533,7,0.0753900445907632,1
587,534,7,0.0698951923475013,1
588,532,7,0.0815175968101044,1
588,533,7,0.076090722527919,1
588,534,7,0.0701625639420504,1
589,533,7,0.0747286895291442,1
590,535,7,0.0701723512350629,1
591,534,7,0.0739127683131872,1
591,535,7,0.0730466827282095,1
592,534,7,0.0774476642175992,1
592,535,7,0.0796150584582912,1
592,536,7,0.0685807301449966,1
593,534,7,0.0801742638901454,1
593,535,7,0.0837463383304991,1
593,536,7,0.0706547258177912,1
594,535,7,0.0750586782357821,1
559,568,8,0.0746807952850021,1
559,569,8,0.0703279057023429,1
560,567,8,0.0756111751191822,1
560,568,8,0.0929426980708515,1
560,569,8,0.0850298633430345,1
561,567,8,0.0827327964545896,1
561,568,8,0.100985732546657,1
561,569,8,0.0903112938988243,1
561,570,8,0.0691798933685807,1
562,567,8,0.072142693844466,1
562,568,8,0.0827812717069461,1
562,569,8,0.0756909169991551,1
564,553,8,0.0778221030475211,1
564,554,8,0.0874109248519903,1
564,555,8,0.0744781372239336,1
564,571,8,0.0712574170190891,1
564,572,8,0.0751370963753904,1
564,573,8,0.0858345237812293,1
565,553,8,0.0849304570304054,1
565,554,8,0.0922933824577975,1
565,555,8,0.0749735036295164,1
565,572,8,0.0692874996837399,1
565,573,8,0.082857497588756,1
565,574,8,0.105922864822365,1
566,553,8,0.0744736389026041,1
566,554,8,0.0751295252992779,1
566,573,8,0.072618461704922,1
566,574,8,0.08307102110241,1
566,575,8,0.088718696475367,1
566,576,8,0.078966581413794,1
567,548,8,0.0682429786894333,1
567,549,8,0.0695877491554896,1
567,550,8,0.0710634980403372,1
567,551,8,0.0713970746224429,1
567,552,8,0.0686844071674898,1
568,548,8,0.0712338712119702,1
568,549,8,0.0732024288683024,1
568,550,8,0.075703974709539,1
568,551,8,0.0759423198524733,1
568,552,8,0.0703238925528212,1
569,547,8,0.0685662049396384,1
569,548,8,0.0703958117861146,1
569,549,8,0.0717223134371842,1
569,550,8,0.0743615282763401,1
569,551,8,0.0731763853248394,1
569,552,8,0.0686915769286502,1
570,543,8,0.0695472403044224,1
570,544,8,0.0710650553819426,1
570,545,8,0.0728139080764023,1
570,546,8,0.0742042008355401,1
570,547,8,0.0715829493328253,1
570,548,8,0.0683868471048972,1
571,542,8,0.0732051781752135,1
571,543,8,0.0798528585316636,1
571,544,8,0.0820390966057812,1
571,545,8,0.0817327495426687,1
571,546,8,0.0788980104649522,1
571,547,8,0.0723452800282296,1
572,542,8,0.0783377508326267,1
572,543,8,0.0887485435262124,1
572,544,8,0.0939640326445635,1
572,545,8,0.0918108042227054,1
572,546,8,0.0821404256363154,1
572,547,8,0.0705217528037899,1
573,541,8,0.0694652702279986,1
573,542,8,0.0883814182120607,1
573,543,8,0.102462104368147,1
573,544,8,0.10323283272867,1
573,545,8,0.0947158213352541,1
573,546,8,0.0793706816115237,1
574,541,8,0.0919392789153772,1
574,542,8,0.124186540581735,1
574,543,8,0.135507731218748,1
574,544,8,0.111319999869662,1
574,545,8,0.0856680799022622,1
575,540,8,0.0933995202717,1
575,541,8,0.149639647923877,1
575,542,8,0.190260783320785,1
575,543,8,0.178895903261965,1
575,544,8,0.121052582273638,1
575,545,8,0.0747082643950116,1
576,539,8,0.0787720574677261,1
576,540,8,0.147905284496123,1
576,541,8,0.247692115577173,2
576,542,8,0.258018656089905,1
576,543,8,0.187695685962497,1
576,544,8,0.103953498546353,1
577,539,8,0.095864330820375,1
577,540,8,0.207837156311479,2
577,541,8,0.333863252756638,2
577,542,8,0.300902261432517,2
577,543,8,0.169962069387858,1
577,544,8,0.0753789455369369,1
578,539,8,0.0906962747334598,1
578,540,8,0.178595204557059,1
578,541,8,0.269415928854119,2
578,542,8,0.225589844331008,1
578,543,8,0.114611381454965,1
579,539,8,0.0818656506793651,1
579,540,8,0.117109477185568,1
579,541,8,0.145198289358479,1
579,542,8,0.115133102872332,1
580,538,8,0.072348831965045,1
580,539,8,0.082849609054547,1
580,540,8,0.0916524764894128,1
580,541,8,0.0859647774371965,1
581,536,8,0.0705508631122605,1
581,537,8,0.0738611184798659,1
581,538,8,0.0771661807121948,1
581,539,8,0.0809153189033095,1
581,540,8,0.0793393610759285,1
582,532,8,0.0707340783623628,1
582,533,8,0.069755187337174,1
582,534,8,0.0694400233246646,1
582,535,8,0.0697522822961023,1
582,536,8,0.0732141149201184,1
582,537,8,0.0759921847327238,1
582,538,8,0.0756353678220448,1
582,539,8,0.0724504425150233,1
583,533,8,0.0691808337633193,1
583,536,8,0.0701348792001264,1
583,537,8,0.072714483794447,1
583,538,8,0.0705348404630508,1
584,532,8,0.0756843042871075,1
584,533,8,0.0707379357777239,1
584,534,8,0.0680505871034098,1
585,532,8,0.0766775468141678,1
585,533,8,0.0727077632664421,1
585,534,8,0.069517674773021,1
586,532,8,0.0789906663006994,1
586,533,8,0.0756134931622641,1
586,534,8,0.0716761861767867,1
587,531,8,0.0785928014591668,1
587,532,8,0.0792300416850034,1
587,533,8,0.0750707835718765,1
587,534,8,0.0698221590159824,1
588,532,8,0.0783311441103545,1
588,533,8,0.0742248715504644,1
588,534,8,0.0689772532768384,1
589,533,8,0.072016728867689,1
589,534,8,0.0713175064459567,1
590,535,8,0.0799014835284051,1
591,534,8,0.0829690871045598,1
591,535,8,0.0883588726974345,1
591,536,8,0.0733523828955782,1
592,534,8,0.0858510555613483,1
592,535,8,0.0933658038259427,1
592,536,8,0.076370367172274,1
593,534,8,0.0810461355981648,1
593,535,8,0.0875802617924781,1
593,536,8,0.0729427481453739,1
594,535,8,0.0726665416321017,1
559,568,9,0.0736162325021889,1
560,567,9,0.0828147485616872,1
560,568,9,0.0935018675640532,1
560,569,9,0.0824274796328469,1
561,567,9,0.0863962029903259,1
561,568,9,0.0988043761394949,1
561,569,9,0.0870645061914152,1
562,568,9,0.0737227366986735,1
562,569,9,0.0694542011230493,1
564,553,9,0.08145312286764,1
564,554,9,0.0899531292886792,1
564,555,9,0.0755359076014371,1
564,571,9,0.0680537317354977,1
564,572,9,0.0717354310453222,1
565,552,9,0.0720323262428448,1
565,553,9,0.0926026884699603,1
565,554,9,0.0989737669879614,1
565,555,9,0.078445003751037,1
565,573,9,0.0775914008580042,1
565,574,9,0.0893526183656289,1
566,552,9,0.0702055226112584,1
566,553,9,0.0810339583847655,1
566,554,9,0.0822963933980983,1
566,555,9,0.0694647610970892,1
566,573,9,0.0701641033143296,1
566,574,9,0.0758645905370365,1
566,575,9,0.0787665888027809,1
567,548,9,0.0682061535502405,1
567,549,9,0.0748261431749911,1
567,550,9,0.0801130184366245,1
567,551,9,0.0764829090623673,1
567,552,9,0.0709241339359782,1
567,553,9,0.0713713545268518,1
567,554,9,0.0703982376451538,1
568,548,9,0.0708112027104836,1
568,549,9,0.0775294186621084,1
568,550,9,0.0836949161086432,1
568,551,9,0.0806191364890601,1
568,552,9,0.0724598225033083,1
568,553,9,0.0692125196752142,1
569,548,9,0.0692382457605807,1
569,549,9,0.073086029562848,1
569,550,9,0.0778302910705003,1
569,551,9,0.0753923626338451,1
569,552,9,0.070600284749131,1
569,553,9,0.0685972259864633,1
570,543,9,0.0712919121356491,1
570,544,9,0.0707984025604421,1
570,545,9,0.0709030918549788,1
570,546,9,0.0728231083714251,1
570,547,9,0.0707659978754985,1
570,550,9,0.0685128540101019,1
571,542,9,0.0730807765298174,1
571,543,9,0.0815163928652479,1
571,544,9,0.0821716323661779,1
571,545,9,0.0806235629330847,1
571,546,9,0.0782178295392339,1
571,547,9,0.0715887414456424,1
572,542,9,0.0765075090699575,1
572,543,9,0.0877898140850383,1
572,544,9,0.0916459476342208,1
572,545,9,0.0879520291825691,1
572,546,9,0.0788064028399011,1
572,547,9,0.069053341393814,1
573,541,9,0.0695223767467143,1
573,542,9,0.0848081877450537,1
573,543,9,0.0983960411705535,1
573,544,9,0.0998869262178507,1
573,545,9,0.0907310633490147,1
573,546,9,0.0753977354623838,1
574,541,9,0.0911027648515762,1
574,542,9,0.113379356531366,1
574,543,9,0.12107446891297,1
574,544,9,0.104080865130575,1
574,545,9,0.0837316454114295,1
575,540,9,0.0957005044732601,1
575,541,9,0.143531838004272,1
575,542,9,0.169901764329076,1
575,543,9,0.154298447316044,1
575,544,9,0.108020879494536,1
575,545,9,0.0735227740365374,1
576,539,9,0.0831261270361403,1
576,540,9,0.14096802245792,1
576,541,9,0.222083837113377,1
576,542,9,0.226088457194861,1
576,543,9,0.16391742763968,1
576,544,9,0.0933716797956154,1
577,539,9,0.0992506024276512,1
577,540,9,0.190484166004757,1
577,541,9,0.290346120848942,2
577,542,9,0.261097879830347,1
577,543,9,0.153516338382251,1
577,544,9,0.0720344645926646,1
578,539,9,0.0950526863040575,1
578,540,9,0.167166437553764,1
578,541,9,0.237478853696909,1
578,542,9,0.198092043297355,1
578,543,9,0.106437554243406,1
579,538,9,0.0685314702320621,1
579,539,9,0.0853579532908689,1
579,540,9,0.113929649177417,1
579,541,9,0.135186451645549,1
579,542,9,0.107028553403112,1
580,537,9,0.0707601578444782,1
580,538,9,0.076793898201419,1
580,539,9,0.0867095161622349,1
580,540,9,0.0917450125296518,1
580,541,9,0.0851974991873073,1
581,535,9,0.0691863623260186,1
581,536,9,0.0727339086360869,1
581,537,9,0.0763767822217332,1
581,538,9,0.08148739636251,1
581,539,9,0.0849630773472636,1
581,540,9,0.0801383671661405,1
582,532,9,0.0693721411999945,1
582,533,9,0.0680562714002696,1
582,534,9,0.0688182906273528,1
582,535,9,0.0701533456777014,1
582,536,9,0.0726693208878898,1
582,537,9,0.07616016798397,1
582,538,9,0.0782190993716198,1
582,539,9,0.0748035557319371,1
583,533,9,0.0677434793388208,1
583,536,9,0.069490271550541,1
583,537,9,0.0723352651237516,1
583,538,9,0.0713445862205648,1
584,532,9,0.0751852421900996,1
584,533,9,0.0703082352799113,1
585,531,9,0.0788028808519627,1
585,532,9,0.0764946011039587,1
585,533,9,0.0735823363631694,1
585,534,9,0.0702364717807784,1
586,531,9,0.0767429791206971,1
586,532,9,0.076636894208491,1
586,533,9,0.0749739348933456,1
586,534,9,0.0713358950564515,1
587,531,9,0.0752025706103476,1
587,532,9,0.0757605002200404,1
587,533,9,0.0731947799251096,1
587,534,9,0.0687155839484753,1
588,532,9,0.0743324658860727,1
588,533,9,0.0720706548156644,1
588,534,9,0.0678554941286784,1
589,533,9,0.0693284996963903,1
589,534,9,0.0692410369959197,1
590,535,9,0.0970766793317672,1
590,536,9,0.0805858572969073,1
591,534,9,0.0969657726503597,1
591,535,9,0.124762086120895,1
591,536,9,0.101377643551437,1
592,534,9,0.0993300148699768,1
592,535,9,0.126846384207387,1
592,536,9,0.101553874723416,1
593,535,9,0.0962387636605214,1
593,536,9,0.0800312160739121,1
559,567,10,0.0714640942194546,1
559,568,10,0.072186790571001,1
560,566,10,0.0719591551464917,1
560,567,10,0.0908476603170575,1
560,568,10,0.0899078166377369,1
560,569,10,0.0735860320545945,1
561,566,10,0.0724679745876351,1
561,567,10,0.0905647692144328,1
561,568,10,0.0905690339345215,1
561,569,10,0.0756630765230705,1
564,553,10,0.0796299610195,1
564,554,10,0.0843436267543813,1
564,555,10,0.0703132607014765,1
565,552,10,0.0751468417399751,1
565,553,10,0.0945358525434216,1
565,554,10,0.0995844725087518,1
565,555,10,0.0785092440922606,1
566,550,10,0.0702873669023987,1
566,552,10,0.0721601720090991,1
566,553,10,0.0886108984873948,1
566,554,10,0.0947704241278504,1
566,555,10,0.0783447109516479,1
566,573,10,0.0683391085949156,1
566,574,10,0.0707744973667989,1
567,548,10,0.0715322698431196,1
567,549,10,0.081204619065618,1
567,550,10,0.0882089785679127,1
567,551,10,0.0802744788224542,1
567,552,10,0.0742825710569452,1
567,553,10,0.0828428585776651,1
567,554,10,0.0877097367776427,1
567,555,10,0.0763448327597205,1
568,548,10,0.0723098864453587,1
568,549,10,0.0823267675491794,1
568,550,10,0.0927787099998007,1
568,551,10,0.0915853670457699,1
568,552,10,0.086727126101927,1
568,553,10,0.0866873719625609,1
568,554,10,0.08055657328495,1
569,548,10,0.068943315209391,1
569,549,10,0.0751172282903705,1
569,550,10,0.0847801496063807,1
569,551,10,0.0914663022902601,1
569,552,10,0.0940876735884831,1
569,553,10,0.090138375072644,1
569,554,10,0.0737717809796934,1
570,543,10,0.0720968660728387,1
570,544,10,0.0705775954798951,1
570,545,10,0.0685034081342875,1
570,546,10,0.0702373043595598,1
570,547,10,0.0699280522553757,1
570,548,10,0.0685064988583967,1
570,549,10,0.0699403971824863,1
570,550,10,0.0736240132204406,1
570,551,10,0.0788042345412043,1
570,552,10,0.0823215205059242,1
570,553,10,0.0793687109754153,1
571,542,10,0.0733515323474706,1
571,543,10,0.0824251735693158,1
571,544,10,0.0816688985368464,1
571,545,10,0.0781222387135381,1
571,546,10,0.0759847753805472,1
571,547,10,0.070330523234195,1
572,542,10,0.077344975508048,1
572,543,10,0.0873206888855069,1
572,544,10,0.0885395003645617,1
572,545,10,0.0827056088640242,1
572,546,10,0.074699495363818,1
573,541,10,0.0711857793052397,1
573,542,10,0.0844137730141546,1
573,543,10,0.0955519101250013,1
573,544,10,0.0960638562289064,1
573,545,10,0.0860979541035616,1
573,546,10,0.071957933232309,1
574,541,10,0.0901961105177773,1
574,542,10,0.107649058196466,1
574,543,10,0.112171290709389,1
574,544,10,0.0997624107667219,1
574,545,10,0.083318889988239,1
575,540,10,0.0955303109948892,1
575,541,10,0.137461571996909,1
575,542,10,0.156833847367872,1
575,543,10,0.137618983294564,1
575,544,10,0.0998036503703885,1
575,545,10,0.073684941215865,1
576,539,10,0.0863567603192809,1
576,540,10,0.131806732852567,1
576,541,10,0.19704931923567,1
576,542,10,0.198123789107004,1
576,543,10,0.14330017745069,1
576,544,10,0.0851121269184532,1
577,538,10,0.0726867511343197,1
577,539,10,0.100385598979457,1
577,540,10,0.16870257535425,1
577,541,10,0.241995288107239,1
577,542,10,0.217689881630538,1
577,543,10,0.133357449766389,1
577,544,10,0.0680608475886793,1
578,538,10,0.0719104223337928,1
578,539,10,0.0962035857095651,1
578,540,10,0.148245060495773,1
578,541,10,0.196673412910774,1
578,542,10,0.164328577803062,1
578,543,10,0.0943445151578694,1
579,537,10,0.0677899899448442,1
579,538,10,0.0727400781047546,1
579,539,10,0.0862512743846153,1
579,540,10,0.106361591911714,1
579,541,10,0.120779628208411,1
579,542,10,0.0967766574714829,1
580,536,10,0.0709851996962369,1
580,537,10,0.0745036117387331,1
580,538,10,0.0809615539796643,1
580,539,10,0.0881467268321238,1
580,540,10,0.0885435314834096,1
580,541,10,0.0824707617499268,1
581,535,10,0.0707068129047171,1
581,536,10,0.0740878973664922,1
581,537,10,0.0796437554722588,1
581,538,10,0.0880229301540436,1
581,539,10,0.0890430667726745,1
581,540,10,0.0790966973049269,1
582,532,10,0.0683666855208824,1
582,534,10,0.0680365111312069,1
582,535,10,0.0701923630746926,1
582,536,10,0.0722813032371238,1
582,537,10,0.078434294032612,1
582,538,10,0.0845330354322529,1
582,539,10,0.0794194563526504,1
583,532,10,0.0698544798440703,1
583,536,10,0.0694127758363452,1
583,537,10,0.0732060886210751,1
583,538,10,0.0740913714362274,1
584,531,10,0.0761729801135623,1
584,532,10,0.0742056503611882,1
584,533,10,0.0696478086334802,1
585,531,10,0.0759031047928937,1
585,532,10,0.0754576032675614,1
585,533,10,0.0730046404946385,1
585,534,10,0.0696929056525079,1
586,531,10,0.0737154531317804,1
586,532,10,0.073802280916058,1
586,533,10,0.0729428918999836,1
586,534,10,0.0698258846562846,1
587,531,10,0.0720490676651031,1
587,532,10,0.0717199115372466,1
587,533,10,0.070380675623665,1
588,532,10,0.0697557144374096,1
588,533,10,0.0690458002665785,1
590,535,10,0.116318395568218,1
590,536,10,0.100656031349239,1
591,534,10,0.112460249454499,1
591,535,10,0.176390607821324,1
591,536,10,0.150719257022509,1
591,537,10,0.0836442665678146,1
592,534,10,0.11047038616705,1
592,535,10,0.168397240563181,1
592,536,10,0.140595374570845,1
592,537,10,0.0775646684903696,1
593,535,10,0.104301851904384,1
593,536,10,0.0896104422581818,1
594,535,10,0.0678866649198884,1
594,536,10,0.068210460198757,1
594,537,10,0.0678893243801685,1
595,536,10,0.0679369610639681,1
595,537,10,0.0765417945443784,1
595,538,10,0.0732466933085488,1
596,537,10,0.0748437111862554,1
596,538,10,0.0742924601761396,1
559,567,11,0.0724391757474856,1
559,568,11,0.0695607592275126,1
560,566,11,0.0743944660512947,1
560,567,11,0.0905566710380846,1
560,568,11,0.0823335539647138,1
561,566,11,0.0714998831275023,1
561,567,11,0.0852463218466372,1
561,568,11,0.0777411871715686,1
564,553,11,0.0724611881721007,1
564,554,11,0.0724666328779443,1
565,552,11,0.0729167704894404,1
565,553,11,0.0862749938952209,1
565,554,11,0.0914258114085192,1
565,555,11,0.0728389393478217,1
566,548,11,0.0686398731873502,1
566,549,11,0.0716712026836494,1
566,550,11,0.0744736269230533,1
566,551,11,0.0693937403301066,1
566,552,11,0.0718437142051022,1
566,553,11,0.0905048055728487,1
566,554,11,0.104977498570121,1
566,555,11,0.0855253255850238,1
567,548,11,0.0793180674243621,1
567,549,11,0.086827682451434,1
567,550,11,0.0919600814053604,1
567,551,11,0.0817616262498984,1
567,552,11,0.0768664942793332,1
567,553,11,0.0917652160420944,1
567,554,11,0.10633892660158,1
567,555,11,0.0884956791676953,1
568,548,11,0.0764865268867122,1
568,549,11,0.0839932668215894,1
568,550,11,0.0941222226130218,1
568,551,11,0.0973001638419205,1
568,552,11,0.098461179978088,1
568,553,11,0.0972177505221167,1
568,554,11,0.0909429935824109,1
568,555,11,0.0734457455248232,1
569,548,11,0.0708819120091451,1
569,549,11,0.0758652194634541,1
569,550,11,0.0892091512651172,1
569,551,11,0.108779819977061,1
569,552,11,0.120326513678539,1
569,553,11,0.105855204319385,1
569,554,11,0.0789506306418892,1
570,543,11,0.0708123527473614,1
570,544,11,0.0708689681044939,1
570,547,11,0.0686039105758158,1
570,548,11,0.0699188938887807,1
570,549,11,0.0711991544737201,1
570,550,11,0.0778843847321871,1
570,551,11,0.0930334731171213,1
570,552,11,0.101106606214339,1
570,553,11,0.0877114199045316,1
571,542,11,0.0731485508385302,1
571,543,11,0.0810582948422379,1
571,544,11,0.0811282733883,1
571,545,11,0.0763512537989552,1
571,546,11,0.0731885086302601,1
571,547,11,0.068728270292784,1
572,541,11,0.0689808531318571,1
572,542,11,0.0798250719635576,1
572,543,11,0.0876600276315527,1
572,544,11,0.0868325221899616,1
572,545,11,0.0790779253488062,1
572,546,11,0.0713959185957896,1
573,541,11,0.075353183512918,1
573,542,11,0.0873730155634491,1
573,543,11,0.09487486185182,1
573,544,11,0.0930753895654087,1
573,545,11,0.0822622516782872,1
573,546,11,0.0693715661815556,1
574,541,11,0.0914737954992923,1
574,542,11,0.105458381698773,1
574,543,11,0.107141652342318,1
574,544,11,0.0977202507502074,1
574,545,11,0.0836960481761948,1
575,540,11,0.0956864704294851,1
575,541,11,0.129061463050082,1
575,542,11,0.142282873995826,1
575,543,11,0.123013155559355,1
575,544,11,0.0951499243179898,1
575,545,11,0.0752696680744396,1
576,539,11,0.0892805074595225,1
576,540,11,0.121779393600888,1
576,541,11,0.167916716821053,1
576,542,11,0.167149618264426,1
576,543,11,0.124200568635734,1
576,544,11,0.08132497162284,1
577,539,11,0.0998198886515128,1
577,540,11,0.143148252787306,1
577,541,11,0.186879626981705,1
577,542,11,0.169769773638241,1
577,543,11,0.112740966268652,1
578,537,11,0.0696635377836949,1
578,538,11,0.0778529144522068,1
578,539,11,0.0961312412022179,1
578,540,11,0.1276930509405,1
578,541,11,0.153940103012637,1
578,542,11,0.131521571625063,1
578,543,11,0.084951013939597,1
579,537,11,0.0722098032881088,1
579,538,11,0.0770092845352241,1
579,539,11,0.0866899176171083,1
579,540,11,0.0994092296497141,1
579,541,11,0.106864565332062,1
579,542,11,0.0891303258207813,1
580,535,11,0.0678228917811464,1
580,536,11,0.0733433742733684,1
580,537,11,0.0769259428002325,1
580,538,11,0.0829309861432057,1
580,539,11,0.0860375651879237,1
580,540,11,0.0840942544349255,1
580,541,11,0.0793873331871509,1
581,532,11,0.0693893258656328,1
581,535,11,0.0718102672992381,1
581,536,11,0.0749232733729662,1
581,537,11,0.0820081055078333,1
581,538,11,0.0918111097012511,1
581,539,11,0.0887908493099012,1
581,540,11,0.0760268775118722,1
582,531,11,0.0723080356047584,1
582,532,11,0.070161893087205,1
582,534,11,0.0678015022931735,1
582,535,11,0.0702045702369689,1
582,536,11,0.0723220277201056,1
582,537,11,0.080863489376726,1
582,538,11,0.0899189456404402,1
582,539,11,0.082560183106955,1
583,531,11,0.072577629405983,1
583,532,11,0.0711281756351654,1
583,533,11,0.0680128335490291,1
583,535,11,0.068463839677959,1
583,536,11,0.0696293421559051,1
583,537,11,0.0743195339609724,1
583,538,11,0.0773726961886245,1
583,539,11,0.0699961919403882,1
584,531,11,0.0751988329904946,1
584,532,11,0.0747793630290745,1
584,533,11,0.0708919808216017,1
584,534,11,0.068282535166211,1
585,531,11,0.0745568129238844,1
585,532,11,0.0753114168090157,1
585,533,11,0.0727220069523563,1
585,534,11,0.0692750589202227,1
586,531,11,0.0719798677898438,1
586,532,11,0.0728776931946951,1
586,533,11,0.0715058489438061,1
586,534,11,0.068205584521577,1
587,531,11,0.0697447231995406,1
587,532,11,0.0699317120081484,1
587,533,11,0.0686043837680728,1
588,532,11,0.067865371268322,1
590,535,11,0.126162507590243,1
590,536,11,0.113398451935359,1
590,537,11,0.0697626685666554,1
591,534,11,0.125561625301118,1
591,535,11,0.210320565112788,1
591,536,11,0.186901789150705,1
591,537,11,0.0950841865329148,1
592,534,11,0.116354825382234,1
592,535,11,0.188856037233594,1
592,536,11,0.164803578972266,1
592,537,11,0.0849438621477629,1
593,535,11,0.105512169881914,1
593,536,11,0.0957529569364858,1
593,537,11,0.0686851439098647,1
594,536,11,0.0713578535730879,1
594,537,11,0.0744977477486111,1
595,536,11,0.0730819505257969,1
595,537,11,0.0895120062891683,1
595,538,11,0.088129697900646,1
595,539,11,0.0680069455998056,1
596,536,11,0.070111680799981,1
596,537,11,0.08880929781815,1
596,538,11,0.0914991562083591,1
596,539,11,0.0731047655803163,1
597,537,11,0.0710418749511234,1
597,538,11,0.0723888256954273,1
560,567,12,0.0842196204341619,1
560,568,12,0.0734232119897478,1
561,567,12,0.0743400010235328,1
564,553,12,0.0678506184514983,1
565,552,12,0.0719089189001661,1
565,553,12,0.0807394890462821,1
565,554,12,0.0856588316890362,1
565,555,12,0.069315334170049,1
566,547,12,0.068051521508373,1
566,548,12,0.0739844180065874,1
566,549,12,0.0757894308352488,1
566,550,12,0.080653421963481,1
566,551,12,0.0758497838122342,1
566,552,12,0.0756317619772507,1
566,553,12,0.0930507057009628,1
566,554,12,0.113155434767608,1
566,555,12,0.0916561003035331,1
567,547,12,0.0715860460467099,1
567,548,12,0.0857651801513602,1
567,549,12,0.0902755588987554,1
567,550,12,0.0940971733722761,1
567,551,12,0.0853607085875554,1
567,552,12,0.0812266374800085,1
567,553,12,0.0961083243215166,1
567,554,12,0.117526149921874,1
567,555,12,0.0963951926350105,1
568,547,12,0.0678124695719409,1
568,548,12,0.0804043371532447,1
568,549,12,0.0854029904121426,1
568,550,12,0.094202839000204,1
568,551,12,0.101645793816788,1
568,552,12,0.10461215820904,1
568,553,12,0.0959116740051798,1
568,554,12,0.0908728053942096,1
568,555,12,0.0744630968978905,1
569,548,12,0.0724995047653695,1
569,549,12,0.0771678698288592,1
569,550,12,0.0941829529458578,1
569,551,12,0.122799727882107,1
569,552,12,0.135753539621837,1
569,553,12,0.106256219782781,1
569,554,12,0.0747394471657725,1
570,543,12,0.0688809017496661,1
570,544,12,0.0705028790214873,1
570,545,12,0.0680031301128723,1
570,548,12,0.0695771472530219,1
570,549,12,0.0709243615474436,1
570,550,12,0.0817520785479021,1
570,551,12,0.103917859382691,1
570,552,12,0.111956209854129,1
570,553,12,0.0856810777148921,1
571,542,12,0.0709647026847994,1
571,543,12,0.0787211683358813,1
571,544,12,0.0798125173943078,1
571,545,12,0.0748921265408577,1
571,546,12,0.0701551785489755,1
571,551,12,0.0679402853893182,1
571,552,12,0.0681322397217371,1
572,541,12,0.0692297822079328,1
572,542,12,0.0792360075013072,1
572,543,12,0.086474159917228,1
572,544,12,0.0843755103288645,1
572,545,12,0.07630028680003,1
572,546,12,0.0686635687388542,1
573,541,12,0.0769319086165363,1
573,542,12,0.0880024091835045,1
573,543,12,0.0925310866947633,1
573,544,12,0.0880404382675538,1
573,545,12,0.0783434291397111,1
574,541,12,0.0900564708837497,1
574,542,12,0.100793604510751,1
574,543,12,0.0996841842999266,1
574,544,12,0.0914928609544079,1
574,545,12,0.0816007768211601,1
575,541,12,0.11486022068441,1
575,542,12,0.122811383985046,1
575,543,12,0.105757954325902,1
575,544,12,0.0864654507837885,1
575,545,12,0.0738807349943188,1
576,540,12,0.109324254622765,1
576,541,12,0.13672679426837,1
576,542,12,0.134435932787245,1
576,543,12,0.103068281618731,1
576,544,12,0.0737022336974606,1
577,538,12,0.0820092435651603,1
577,539,12,0.096226909894994,1
577,540,12,0.118957826039288,1
577,541,12,0.138724480202499,1
577,542,12,0.127784502831391,1
577,543,12,0.0928704074714829,1
578,537,12,0.0743931602802563,1
578,538,12,0.0824007113265599,1
578,539,12,0.0944727322901988,1
578,540,12,0.110172083372307,1
578,541,12,0.119787685462614,1
578,542,12,0.105868285988871,1
578,543,12,0.0767858958614773,1
579,536,12,0.069790479093863,1
579,537,12,0.0758186908881045,1
579,538,12,0.0804847079596352,1
579,539,12,0.0865962794581946,1
579,540,12,0.0937201050309513,1
579,541,12,0.0958693083237369,1
579,542,12,0.0831225571299986,1
580,535,12,0.0688708509065357,1
580,536,12,0.0738232810686296,1
580,537,12,0.0775932457088291,1
580,538,12,0.0823578005755551,1
580,539,12,0.0828869133757723,1
580,540,12,0.0807639632685888,1
580,541,12,0.0770753337886202,1
581,532,12,0.071146797846901,1
581,535,12,0.0710969569257521,1
581,536,12,0.0753014857613934,1
581,537,12,0.0832230116533237,1
581,538,12,0.0914603724126087,1
581,539,12,0.0856862229319654,1
581,540,12,0.0725294296832952,1
582,531,12,0.0736113268761318,1
582,532,12,0.0728530812075541,1
582,533,12,0.0682582226678402,1
582,535,12,0.0690911728152749,1
582,536,12,0.0737654018688866,1
582,537,12,0.0846323758573525,1
582,538,12,0.0935312354328662,1
582,539,12,0.0838650616688108,1
583,531,12,0.0726331666035424,1
583,532,12,0.0720545483095991,1
583,533,12,0.0686573633315342,1
583,535,12,0.0690758809186648,1
583,536,12,0.0710926742363372,1
583,537,12,0.0770995744096861,1
583,538,12,0.0809249504621615,1
583,539,12,0.0729686000160238,1
584,531,12,0.0744185928666279,1
584,532,12,0.0742614331395393,1
584,533,12,0.0712536853890115,1
584,534,12,0.0697392725039216,1
584,535,12,0.0691091541210422,1
585,531,12,0.0752332202910973,1
585,532,12,0.0768196242867855,1
585,533,12,0.0737100084259369,1
585,534,12,0.0692178625548759,1
586,531,12,0.0738492886734401,1
586,532,12,0.0768231702338255,1
586,533,12,0.0737497625653029,1
587,531,12,0.0704356857209888,1
587,532,12,0.0726512796843685,1
587,533,12,0.0701137772213729,1
588,532,12,0.0683108668038789,1
590,535,12,0.118061384272556,1
590,536,12,0.109262080754056,1
590,537,12,0.0684268647943811,1
591,534,12,0.118524609543313,1
591,535,12,0.204495772081091,1
591,536,12,0.189383940099179,1
591,537,12,0.0975159215418008,1
592,535,12,0.178943378221828,1
592,536,12,0.165747986860445,1
592,537,12,0.087733096901724,1
593,536,12,0.0953680419893798,1
593,537,12,0.0692954960339062,1
594,536,12,0.0701849477327406,1
594,537,12,0.0762274750902012,1
594,538,12,0.069315082599482,1
595,536,12,0.073357462225122,1
595,537,12,0.0949537531836854,1
595,538,12,0.0939207924559114,1
595,539,12,0.0715461062243063,1
596,536,12,0.0687641550372382,1
596,537,12,0.093852167599091,1
596,538,12,0.0984080686395677,1
596,539,12,0.0781613579367112,1
597,537,12,0.0716908671163055,1
597,538,12,0.075550738285341,1
565,547,13,0.0706632492681932,1
565,551,13,0.0687961404379034,1
565,552,13,0.0718041996567523,1
565,553,13,0.0770675770294701,1
565,554,13,0.0788546265216905,1
566,546,13,0.0737139736572553,1
566,547,13,0.0758428356727639,1
566,548,13,0.0742945685770824,1
566,549,13,0.0754519369400279,1
566,550,13,0.08240846808571,1
566,551,13,0.0820618577523219,1
566,552,13,0.0798635622603131,1
566,553,13,0.0919769006946989,1
566,554,13,0.1060363950254,1
566,555,13,0.0878551864938136,1
567,547,13,0.0750099753719603,1
567,548,13,0.0831676122205985,1
567,549,13,0.0863941484973618,1
567,550,13,0.0902265625359387,1
567,551,13,0.0886709399960592,1
567,552,13,0.0847838333182551,1
567,553,13,0.0939518374618379,1
567,554,13,0.108186125418422,1
567,555,13,0.0907625995165245,1
568,547,13,0.0680140794223135,1
568,548,13,0.0792442075038373,1
568,549,13,0.0837543047317884,1
568,550,13,0.0892958592538867,1
568,551,13,0.0989190563794079,1
568,552,13,0.0990877883525798,1
568,553,13,0.0870295378825981,1
568,554,13,0.0813491343768257,1
568,555,13,0.0703776447973098,1
569,548,13,0.0721868923971829,1
569,549,13,0.0772494086414538,1
569,550,13,0.0912844527089502,1
569,551,13,0.117222600083876,1
569,552,13,0.123214459931182,1
569,553,13,0.0924889546145613,1
570,544,13,0.0701488114177195,1
570,545,13,0.068552608149468,1
570,549,13,0.0693984063651474,1
570,550,13,0.078792560468939,1
570,551,13,0.0984770768420141,1
570,552,13,0.101975123648132,1
570,553,13,0.0759880038694907,1
571,542,13,0.0700870688128399,1
571,543,13,0.0779708112015125,1
571,544,13,0.0803997370057333,1
571,545,13,0.0753709971049738,1
571,546,13,0.0685302063894516,1
571,551,13,0.068164752222638,1
572,542,13,0.0800211113228031,1
572,543,13,0.0873217610553045,1
572,544,13,0.0853641167697611,1
572,545,13,0.0772975724254891,1
572,546,13,0.0685908828143089,1
573,541,13,0.0814020300834313,1
573,542,13,0.0910710070623765,1
573,543,13,0.0934552251829709,1
573,544,13,0.0878179480601178,1
573,545,13,0.0788389273203527,1
573,546,13,0.0687254790574451,1
574,541,13,0.093732258285249,1
574,542,13,0.100786979819153,1
574,543,13,0.0976551957995286,1
574,544,13,0.0909328828415265,1
574,545,13,0.0829161794184033,1
574,546,13,0.0701373769364704,1
575,541,13,0.107095722744509,1
575,542,13,0.110568067424362,1
575,543,13,0.0982877759800998,1
575,544,13,0.0871207322131463,1
575,545,13,0.0777491356035317,1
576,541,13,0.11671640416436,1
576,542,13,0.113033315226642,1
576,543,13,0.0929691728781436,1
576,544,13,0.0750944611540543,1
577,537,13,0.0764316246053457,1
577,538,13,0.0836812953593712,1
577,539,13,0.0934030123107614,1
577,540,13,0.104813726130985,1
577,541,13,0.111095610903423,1
577,542,13,0.103444211902728,1
577,543,13,0.0836556711001866,1
578,536,13,0.0694202271169495,1
578,537,13,0.0790372787329047,1
578,538,13,0.0858778538165124,1
578,539,13,0.0932952742205433,1
578,540,13,0.100054011002786,1
578,541,13,0.10077719252614,1
578,542,13,0.0913565755946074,1
578,543,13,0.0736900325249596,1
579,536,13,0.07243864864725,1
579,537,13,0.0797264383319558,1
579,538,13,0.0838737887715766,1
579,539,13,0.0870154559206198,1
579,540,13,0.0901840770589877,1
579,541,13,0.0888573837351051,1
579,542,13,0.0790008429291133,1
580,535,13,0.0692182099618495,1
580,536,13,0.0746186753242721,1
580,537,13,0.0792191942017441,1
580,538,13,0.0821170175940309,1
580,539,13,0.0816988534036491,1
580,540,13,0.0804472898326773,1
580,541,13,0.0764019931864148,1
581,532,13,0.0718301713229104,1
581,535,13,0.0697780622894474,1
581,536,13,0.0765822375079161,1
581,537,13,0.0844485795990358,1
581,538,13,0.0886787925916158,1
581,539,13,0.0830026597957075,1
581,540,13,0.0737988847134031,1
582,531,13,0.0751207083498811,1
582,532,13,0.0748808178448922,1
582,533,13,0.0687490907520935,1
582,535,13,0.0683337118072753,1
582,536,13,0.0772547275620138,1
582,537,13,0.0891562495687362,1
582,538,13,0.094267750196273,1
582,539,13,0.0847091108700719,1
582,540,13,0.0699271358197386,1
583,531,13,0.0723373555553681,1
583,532,13,0.0727296618853245,1
583,533,13,0.0689982174907575,1
583,534,13,0.0680909761589688,1
583,535,13,0.0690233026701556,1
583,536,13,0.0737736977078232,1
583,537,13,0.0811529273038689,1
583,538,13,0.084099741069197,1
583,539,13,0.0772553085702282,1
584,532,13,0.0730975658702789,1
584,533,13,0.0705352896962063,1
584,534,13,0.0705644658922063,1
584,535,13,0.0702080742555811,1
584,536,13,0.0686666414936372,1
584,537,13,0.0690273637378805,1
584,538,13,0.0701740643108289,1
584,539,13,0.0708869134716087,1
585,531,13,0.0754952549957602,1
585,532,13,0.0773362364257314,1
585,533,13,0.0729677674372425,1
585,534,13,0.0681529883037416,1
585,539,13,0.0727220069523563,1
585,540,13,0.0692255234776195,1
586,530,13,0.0734237630490851,1
586,531,13,0.0773772783668096,1
586,532,13,0.0819773120724738,1
586,533,13,0.0765046279879875,1
586,539,13,0.0721732416990338,1
587,531,13,0.0740095151655363,1
587,532,13,0.0779799156601288,1
587,533,13,0.0734206184169972,1
588,532,13,0.070783997150592,1
590,536,13,0.0951384958265162,1
591,535,13,0.161264436317091,1
591,536,13,0.156972762239076,1
591,537,13,0.0914385756199082,1
592,535,13,0.145833193571907,1
592,536,13,0.145086747760878,1
592,537,13,0.0873231626627494,1
593,535,13,0.0867207410013448,1
593,536,13,0.0911274187671451,1
593,537,13,0.069631438577297,1
594,536,13,0.0679150085371071,1
594,537,13,0.0733949821782618,1
595,536,13,0.0697530250282526,1
595,537,13,0.0889144123867405,1
595,538,13,0.0885797576450618,1
595,539,13,0.0702271756493492,1
596,537,13,0.0871236851724212,1
596,538,13,0.0921655426813186,1
596,539,13,0.075755205258582,1
597,538,13,0.072668482319333,1
565,546,14,0.0762980346444776,1
565,547,14,0.0721056351040323,1
565,551,14,0.0681623443329249,1
565,552,14,0.07143270779633,1
565,553,14,0.0761207732311283,1
565,554,14,0.0731003630953933,1
566,545,14,0.0712755300999152,1
566,546,14,0.0850816209923132,1
566,547,14,0.081570432618956,1
566,548,14,0.0707903223534201,1
566,549,14,0.0685397840403249,1
566,550,14,0.0750557432458334,1
566,551,14,0.0805244800683275,1
566,552,14,0.0819433799948018,1
566,553,14,0.0893931931042255,1
566,554,14,0.0909959671560968,1
566,555,14,0.0781992372763753,1
567,546,14,0.073626457048806,1
567,547,14,0.0749033813288446,1
567,548,14,0.0755935771590409,1
567,549,14,0.076739756621529,1
567,550,14,0.0808562237791592,1
567,551,14,0.0870288191095494,1
567,552,14,0.0886854112934388,1
567,553,14,0.0909768657623288,1
567,554,14,0.0900273426059529,1
567,555,14,0.0778341065574336,1
568,548,14,0.0750777796295501,1
568,549,14,0.0785810495198213,1
568,550,14,0.0810753417430419,1
568,551,14,0.0898920455590943,1
568,552,14,0.0904706339041605,1
568,553,14,0.0797633473280043,1
568,554,14,0.0707095682014037,1
569,548,14,0.0705218067117686,1
569,549,14,0.0746384355933347,1
569,550,14,0.0825741572529759,1
569,551,14,0.0970872033671546,1
569,552,14,0.0967280384645168,1
569,553,14,0.0751943586282667,1
570,544,14,0.0679757029312907,1
570,550,14,0.072616053815209,1
570,551,14,0.0827351863749764,1
570,552,14,0.081600495301716,1
571,543,14,0.0759169052354279,1
571,544,14,0.0790155897561615,1
571,545,14,0.0746109065855712,1
571,546,14,0.0677503136725584,1
572,542,14,0.0784584687661484,1
572,543,14,0.084344213752371,1
572,544,14,0.0829044753972611,1
572,545,14,0.0759563718655745,1
572,546,14,0.067887707140809,1
573,542,14,0.0893889283841369,1
573,543,14,0.088947775435749,1
573,544,14,0.0833119957567473,1
573,545,14,0.0762135009441803,1
573,546,14,0.0681794211826059,1
574,542,14,0.0958240855194257,1
574,543,14,0.0911258194971119,1
574,544,14,0.0862615648187618,1
574,545,14,0.0809035010764345,1
574,546,14,0.0708088906571771,1
575,542,14,0.0975073262140939,1
575,543,14,0.0907113989163586,1
575,544,14,0.0863069852856615,1
575,545,14,0.0796902720680576,1
575,546,14,0.0680263944005471,1
576,542,14,0.0948897164948256,1
576,543,14,0.085957266258838,1
576,544,14,0.0769390364492688,1
577,538,14,0.0820118910458895,1
577,539,14,0.0871203788163974,1
577,541,14,0.0912717543850906,1
577,542,14,0.0866702651640029,1
577,543,14,0.0778289733199111,1
578,537,14,0.0812149035099892,1
578,538,14,0.086535555115134,1
578,539,14,0.0893395726347958,1
578,540,14,0.0888809714706518,1
578,541,14,0.0867246103962567,1
578,542,14,0.0801980193394035,1
578,543,14,0.0706186074720963,1
579,536,14,0.0724762045390422,1
579,537,14,0.0821286257787666,1
579,538,14,0.0865314880576337,1
579,539,14,0.0864590057854522,1
579,540,14,0.0843448127299115,1
579,541,14,0.0814835928551276,1
579,542,14,0.0734991443725629,1
580,536,14,0.0732975644710674,1
580,537,14,0.0805786815459716,1
580,538,14,0.0826299939393057,1
580,539,14,0.0811403068470896,1
580,540,14,0.0790918276175223,1
580,541,14,0.0750009368008734,1
581,535,14,0.0679134871341541,1
581,536,14,0.0766961211077002,1
581,537,14,0.0856812933468067,1
581,538,14,0.0856402633852792,1
581,539,14,0.0807590636323071,1
581,540,14,0.0760601986324528,1
581,541,14,0.0686578005851388,1
582,532,14,0.0740028006273068,1
582,533,14,0.0677834011918982,1
582,535,14,0.0680172599930538,1
582,536,14,0.0804397487054418,1
582,537,14,0.0935633166699379,1
582,538,14,0.093244732495672,1
582,539,14,0.0849561531668949,1
582,540,14,0.0758592177084979,1
583,532,14,0.0714282394238775,1
583,536,14,0.0751979704628362,1
583,537,14,0.0842095815705824,1
583,538,14,0.0852074601838066,1
583,539,14,0.0815590400661348,1
583,540,14,0.0739879459843012,1
584,532,14,0.0706264121494496,1
584,535,14,0.0678584291186271,1
584,536,14,0.0683098126034075,1
584,537,14,0.0705527379119624,1
584,538,14,0.0740320906290395,1
584,539,14,0.0807924566301926,1
584,540,14,0.076914502329208,1
585,531,14,0.0734910521859901,1
585,532,14,0.0755710556035163,1
585,533,14,0.0693069005662782,1
585,538,14,0.0696877784047608,1
585,539,14,0.0826911495461954,1
585,540,14,0.0800996672272457,1
586,531,14,0.078653268241885,1
586,532,14,0.0848350099593194,1
586,533,14,0.0766432553499716,1
586,539,14,0.0766702033495207,1
586,540,14,0.0731642560296434,1
587,531,14,0.0768111906830146,1
587,532,14,0.0820242419627756,1
587,533,14,0.075327169918332,1
588,532,14,0.0723098085782784,1
590,536,14,0.077975752766222,1
591,535,14,0.109339480631846,1
591,536,14,0.114065042060682,1
591,537,14,0.0811076925200068,1
592,535,14,0.107765595266755,1
592,536,14,0.116279066702906,1
592,537,14,0.0830807724567701,1
593,535,14,0.0743364311173912,1
593,536,14,0.0827296338531756,1
593,537,14,0.0679084317637119,1
595,537,14,0.07542072422039,1
595,538,14,0.0762006229270585,1
596,537,14,0.0734363116285596,1
596,538,14,0.0784207990686235,1
596,539,14,0.068478760208494,1
565,552,15,0.0713325407822244,1
565,553,15,0.0727468106123103,1
566,546,15,0.0856601973578286,1
566,547,15,0.0795466971515887,1
566,551,15,0.0742085314431583,1
566,552,15,0.0809659744339135,1
566,553,15,0.0826234231556859,1
566,554,15,0.0751696328353929,1
567,548,15,0.0682099870065,1
567,549,15,0.068681514105969,1
567,550,15,0.0716701784320551,1
567,551,15,0.0804962921852694,1
567,552,15,0.0884566737502549,1
567,553,15,0.0851040047830034,1
567,554,15,0.0733762880892214,1
568,548,15,0.0692803718510074,1
568,549,15,0.072098213772305,1
568,550,15,0.072046701703818,1
568,551,15,0.0774932583879856,1
568,552,15,0.0801082445856264,1
568,553,15,0.0717232897705753,1
569,549,15,0.0699376778244522,1
569,550,15,0.0714907666893352,1
569,551,15,0.0753034384281756,1
569,552,15,0.073297366808479,1
571,544,15,0.0763742725058384,1
571,545,15,0.0736473553751957,1
572,543,15,0.0800525217050293,1
572,544,15,0.0792999603333114,1
572,545,15,0.0740873043787271,1
573,543,15,0.0849393997650858,1
573,544,15,0.0795412943741729,1
573,545,15,0.0733977794033762,1
574,543,15,0.0869964503632583,1
574,544,15,0.0819657817548183,1
574,545,15,0.0773829387045678,1
574,546,15,0.0695573690146331,1
575,542,15,0.0899412156253977,1
575,543,15,0.0861045907747108,1
575,544,15,0.0840440900659048,1
575,545,15,0.0788388494532725,1
575,546,15,0.0691765271148028,1
576,542,15,0.0844757971384782,1
576,543,15,0.0820562633020932,1
576,544,15,0.0778020732385652,1
576,545,15,0.0699680939039612,1
577,538,15,0.0793783065956148,1
577,541,15,0.0804827133644252,1
577,542,15,0.0781219691736448,1
577,543,15,0.0749492091004718,1
577,544,15,0.0679660414235616,1
578,537,15,0.0790956311249047,1
578,538,15,0.0836624455361702,1
578,539,15,0.0840324459425166,1
578,540,15,0.0805354473470949,1
578,541,15,0.0776834397468845,1
578,542,15,0.0735456669581371,1
578,543,15,0.0684578019843503,1
579,536,15,0.071492330020716,1
579,537,15,0.0804865647900109,1
579,538,15,0.0859914618866278,1
579,539,15,0.084071289636021,1
579,540,15,0.0786963047781732,1
579,541,15,0.0741908196772843,1
579,542,15,0.0680502097475592,1
580,536,15,0.0722766851202862,1
580,537,15,0.0804056069856307,1
580,538,15,0.082867099198731,1
580,539,15,0.0801199486067687,1
580,540,15,0.0761321597941741,1
580,541,15,0.0706984871169035,1
581,536,15,0.0762522727603799,1
581,537,15,0.0850037119836143,1
581,538,15,0.0829582635804021,1
581,539,15,0.0786067157074337,1
581,540,15,0.0759566354156923,1
581,541,15,0.0685741713409277,1
582,535,15,0.0680073529045331,1
582,536,15,0.0806578783563826,1
582,537,15,0.0921352104586654,1
582,538,15,0.0881760887111613,1
582,539,15,0.0819760422400878,1
582,540,15,0.0778549869144971,1
582,541,15,0.0683830975054933,1
583,536,15,0.0742944847202267,1
583,537,15,0.0820547838275681,1
583,538,15,0.0812537172546166,1
583,539,15,0.080746874439357,1
583,540,15,0.0784236621812673,1
583,541,15,0.0685363758581192,1
584,537,15,0.0696050715859622,1
584,538,15,0.0738011308791802,1
584,539,15,0.0829878710402314,1
584,540,15,0.0828600612126296,1
584,541,15,0.0697099944817397,1
585,532,15,0.0716040093831509,1
585,538,15,0.0703961771624143,1
585,539,15,0.0834459690632413,1
585,540,15,0.0838088416368552,1
585,541,15,0.0679887846007762,1
586,531,15,0.0757515155569322,1
586,532,15,0.0811161800317564,1
586,533,15,0.0725834095392492,1
586,539,15,0.0732290594097551,1
586,540,15,0.0720405082760487,1
587,531,15,0.0755169140236264,1
587,532,15,0.0801703106383778,1
587,533,15,0.0726431695284695,1
588,532,15,0.071092686215888,1
591,536,15,0.079333533024459,1
591,537,15,0.0695883780819072,1
592,535,15,0.0778925128574123,1
592,536,15,0.0877449626468022,1
592,537,15,0.0740979422198472,1
593,536,15,0.0732619612460573,1
566,552,16,0.0758871600107643,1
566,553,16,0.076034113160562,1
567,551,16,0.0718935371569248,1
567,552,16,0.083351198836776,1
567,553,16,0.0798339128720561,1
568,551,16,0.0687912707504987,1
568,552,16,0.0732078436252689,1
574,544,16,0.0780525057482677,1
574,545,16,0.0737587232693095,1
574,546,16,0.0684752681694326,1
575,543,16,0.079791217752966,1
575,544,16,0.0791598594865775,1
575,545,16,0.0761947888858136,1
575,546,16,0.0699765933952615,1
576,543,16,0.0759526402354969,1
576,544,16,0.0750133595950643,1
576,545,16,0.0701003181960368,1
577,542,16,0.0727279847482109,1
577,543,16,0.0712323198601402,1
578,538,16,0.0820078838861433,1
578,541,16,0.071874172213039,1
578,542,16,0.0699081602112541,1
579,537,16,0.0781149132182172,1
579,538,16,0.085162069665784,1
579,539,16,0.082210116673158,1
579,540,16,0.0747473896079601,1
579,541,16,0.0694127039590403,1
580,536,16,0.0705437772079558,1
580,537,16,0.0794500581151969,1
580,538,16,0.0834154391779996,1
580,539,16,0.0791178891303114,1
580,540,16,0.0727975380202192,1
581,536,16,0.0744649776873678,1
581,537,16,0.0827019850499039,1
581,538,16,0.0815264077697258,1
581,539,16,0.0766551929723547,1
581,540,16,0.0734815883408495,1
582,536,16,0.0777318670810377,1
582,537,16,0.0862739396947495,1
582,538,16,0.0823931103015703,1
582,539,16,0.0777617141318832,1
582,540,16,0.0759616788065837,1
582,541,16,0.0683108727936542,1
583,536,16,0.0722114564661207,1
583,537,16,0.0778701350564975,1
583,538,16,0.0765456040415363,1
583,539,16,0.0770521174191486,1
583,540,16,0.077662499492067,1
583,541,16,0.0691970181364649,1
584,537,16,0.0687080128723628,1
584,538,16,0.0713904020126412,1
584,539,16,0.0784076035934052,1
584,540,16,0.081039726538481,1
584,541,16,0.0701773646770773,1
585,538,16,0.0679519175331556,1
585,539,16,0.0765997276521,1
585,540,16,0.0796475410103151,1
585,541,16,0.0683327833920874,1
586,532,16,0.0748683830711505,1
586,533,16,0.0679454306063914,1
586,540,16,0.0678218914886537,1
587,532,16,0.0750640271052192,1
587,533,16,0.0681044591434065,1
592,536,16,0.067771948741323,1
567,552,17,0.0701970770279367,1
574,545,17,0.0707977616544737,1
575,544,17,0.0744276733661426,1
575,545,17,0.0729770455993455,1
575,546,17,0.0688571582799588,1
576,543,17,0.0716259559202365,1
576,544,17,0.0713644363362585,1
576,545,17,0.0689102756082545,1
577,542,17,0.0695435865414251,1
577,543,17,0.0690611041427395,1
578,541,17,0.0689729825669743,1
578,542,17,0.0677967464115016,1
579,538,17,0.0824569313585156,1
580,537,17,0.0770030132403746,1
580,538,17,0.081693917828715,1
580,539,17,0.0772552127338217,1
581,537,17,0.0779686189437141,1
581,538,17,0.078286376528974,1
581,539,17,0.0735000009104459,1
581,540,17,0.0689346000861761,1
582,537,17,0.0776677165864452,1
582,538,17,0.0749990799704977,1
582,539,17,0.0713846937566798,1
582,540,17,0.0700564071525394,1
583,537,17,0.0729145902111928,1
583,538,17,0.0711054564170524,1
583,539,17,0.0702892956100792,1
583,540,17,0.0712990639274833,1
584,539,17,0.0696360926327871,1
584,540,17,0.0720083851105492,1
585,540,17,0.069829981662662,1
602,560,17,0.0686889653865734,1
603,560,17,0.0786815160226971,1
603,561,17,0.0703302836431788,1
575,545,18,0.0685504458405466,1
580,538,18,0.0771904273230362,1
602,560,18,0.0889226243688214,1
602,561,18,0.102735022494721,1
602,562,18,0.0759797858976344,1
603,560,18,0.103100278998947,1
603,561,18,0.116369548250181,1
603,562,18,0.082365952659882,1
604,560,18,0.0719047200676068,1
604,561,18,0.0780695406695208,1
602,560,19,0.0954772715336738,1
602,561,19,0.127892127115876,1
602,562,19,0.0974006303447964,1
603,560,19,0.112238687662251,1
603,561,19,0.147109051671924,1
603,562,19,0.109337743596978,1
604,560,19,0.0757259811443787,1
604,561,19,0.0942295354291861,1
604,562,19,0.0731863463213387,1
602,560,20,0.089898939790586,1
602,561,20,0.129182588288331,1
602,562,20,0.102189186241572,1
603,560,20,0.10792004761536,1
603,561,20,0.152000002779256,1
603,562,20,0.117897875383537,1
604,561,20,0.10005673036082,1
604,562,20,0.0797840719509072,1
602,561,21,0.111892179155045,1
603,560,21,0.0947229431782112,1
603,561,21,0.134841991641532,1
603,562,21,0.109878692193396,1
604,561,21,0.0959449052791293,1
603,561,22,0.103646965800203,1
