x,y,z,signal,cytoplasm.p
420,534,1,0.141928135537213,1
420,535,1,0.0833082281880172,1
421,533,1,0.157395879973718,1
421,534,1,0.123386342526217,1
421,535,1,0.0752552446952632,1
422,532,1,0.0952755478775686,1
422,533,1,0.102558875179597,1
422,534,1,0.0834371640933953,1
423,532,1,0.0803519385979977,1
423,533,1,0.0771968962804741,1
424,531,1,0.0868680894763192,1
424,532,1,0.0783587569749737,1
424,533,1,0.0692675357623134,1
425,530,1,0.132278535481704,1
425,531,1,0.124942641910717,1
425,532,1,0.0909416039545168,1
425,533,1,0.0683163115097224,1
426,529,1,0.123854659106069,1
426,530,1,0.169901812247279,1
426,531,1,0.158063069076582,1
426,532,1,0.103113911727769,1
426,533,1,0.0680648427688748,1
427,529,1,0.117815755562728,1
427,530,1,0.154358560702013,1
427,531,1,0.143987588035323,1
427,532,1,0.0973820440717132,1
428,529,1,0.105395297384203,1
428,530,1,0.117238676641064,1
428,531,1,0.10894659928345,1
428,532,1,0.0839210361199749,1
429,528,1,0.100641524113207,1
429,529,1,0.10804620426495,1
429,530,1,0.105639680220746,1
429,531,1,0.0954499761271511,1
429,532,1,0.0801412602276613,1
429,557,1,0.0688806741382007,1
430,528,1,0.103258852313031,1
430,529,1,0.11186093648653,1
430,530,1,0.107499529443244,1
430,531,1,0.0955741262019802,1
430,532,1,0.0821533096432126,1
430,533,1,0.0716322751332893,1
430,558,1,0.0682689263964898,1
431,529,1,0.105420442461355,1
431,530,1,0.106922953662714,1
431,531,1,0.098078954440139,1
431,532,1,0.0855311775955949,1
431,533,1,0.0759758026969898,1
431,560,1,0.070592174593232,1
432,531,1,0.105517560679779,1
432,532,1,0.0894942406153157,1
432,533,1,0.0783407996283081,1
432,534,1,0.0715017279783272,1
432,561,1,0.095379272818265,1
433,531,1,0.119565344999563,1
433,532,1,0.0971494491131682,1
433,533,1,0.0840133625180747,1
433,534,1,0.0801086459005785,1
433,535,1,0.0738163688678117,1
433,561,1,0.0890253430272497,1
433,562,1,0.134241253107016,1
434,530,1,0.138082328360829,1
434,531,1,0.123732695299263,1
434,532,1,0.102517246240529,1
434,533,1,0.0926559615324165,1
434,534,1,0.0890977414425756,1
434,535,1,0.079900830642886,1
434,562,1,0.0918056290567551,1
434,563,1,0.0976956567323926,1
435,529,1,0.11612992129531,1
435,530,1,0.124471534095527,1
435,531,1,0.115131138225999,1
435,532,1,0.103338779876041,1
435,533,1,0.100179682480568,1
435,534,1,0.0964168336935504,1
435,535,1,0.0848656476605183,1
436,529,1,0.102201189751485,1
436,530,1,0.111797396949029,1
436,531,1,0.107001958800312,1
436,532,1,0.100679211780058,1
436,533,1,0.100648352457169,1
436,534,1,0.0984500988935879,1
436,535,1,0.0888292976782289,1
436,536,1,0.0709656430795381,1
437,529,1,0.095089906768427,1
437,530,1,0.106378830485331,1
437,531,1,0.104053707488887,1
437,532,1,0.0985427667088858,1
437,533,1,0.0969983390592392,1
437,534,1,0.0957945139982489,1
437,535,1,0.0902369008882885,1
437,536,1,0.0747743016688568,1
438,529,1,0.0871077883084951,1
438,530,1,0.0988047355260192,1
438,531,1,0.101835442085676,1
438,532,1,0.0997766844015131,1
438,533,1,0.0947399361710366,1
438,534,1,0.0910195369223173,1
438,535,1,0.0871921782541827,1
438,536,1,0.0732088558973124,1
439,530,1,0.0913591392184809,1
439,531,1,0.0991090999734725,1
439,532,1,0.100864379696942,1
439,533,1,0.0955260103361481,1
439,534,1,0.0897471109636082,1
439,536,1,0.0716927838444353,1
440,533,1,0.0943545959498768,1
440,534,1,0.089970248066788,1
441,533,1,0.093641022026273,1
441,534,1,0.0895645605785759,1
441,536,1,0.0703562612991123,1
442,533,1,0.0953903898414176,1
442,534,1,0.0905647991633098,1
442,535,1,0.0823029641817181,1
442,536,1,0.071587435674604,1
443,534,1,0.0942794841662923,1
443,535,1,0.0853877104950832,1
443,536,1,0.0753130280585997,1
444,535,1,0.0849570576229811,1
444,536,1,0.0765250890607725,1
444,537,1,0.068743544220068,1
445,536,1,0.0782849329931013,1
445,537,1,0.0713076892040671,1
446,536,1,0.0809530604781393,1
446,537,1,0.0744188084985425,1
447,535,1,0.0894300901207232,1
447,536,1,0.0814827602763462,1
447,537,1,0.0765577812549356,1
447,538,1,0.0689253099445222,1
448,536,1,0.0837420796001858,1
448,537,1,0.0807578956261031,1
448,538,1,0.0763842934000917,1
448,539,1,0.0690077412336522,1
449,537,1,0.0869430814643956,1
449,538,1,0.0841035625459056,1
449,539,1,0.0790486053981964,1
449,540,1,0.0688173562223895,1
449,565,1,0.0687416574408153,1
450,538,1,0.0925724760428151,1
450,539,1,0.0892586986872712,1
450,540,1,0.0807412680095775,1
450,541,1,0.0684440075315915,1
451,540,1,0.0904349887507226,1
451,541,1,0.0797749734820663,1
452,541,1,0.0930881957052256,1
452,542,1,0.0780968300862681,1
453,542,1,0.092495405602673,1
453,543,1,0.0740072450406576,1
454,543,1,0.0887797562458503,1
454,544,1,0.0685029888500091,1
454,561,1,0.0683192405098957,1
454,562,1,0.0704288453974758,1
454,563,1,0.0692224387432857,1
455,543,1,0.101085390429853,1
455,544,1,0.0797697264388111,1
455,560,1,0.0748535224383695,1
455,561,1,0.0799399738251607,1
455,562,1,0.0783151693793481,1
455,563,1,0.0737450965302621,1
455,566,1,0.0694393584595946,1
456,544,1,0.089847649343789,1
456,545,1,0.0748133130760726,1
456,557,1,0.0690593671078719,1
456,558,1,0.0733600198592202,1
456,561,1,0.0913346829655004,1
456,562,1,0.0836889922207672,1
456,563,1,0.0741694840972901,1
456,566,1,0.0760058474104236,1
456,567,1,0.087074814594888,1
456,568,1,0.0801872617027753,1
457,544,1,0.0999045481370936,1
457,545,1,0.0860216204057943,1
457,546,1,0.0755902049154876,1
457,547,1,0.0776132455689079,1
457,548,1,0.0909355782404589,1
457,549,1,0.0945832915646328,1
457,550,1,0.0825320730909771,1
457,551,1,0.0719798318511914,1
457,554,1,0.0684645165225798,1
457,555,1,0.0728327578996033,1
457,560,1,0.102571585483008,1
457,561,1,0.105207218436471,1
457,562,1,0.0890124709999034,1
457,563,1,0.0725972698795375,1
457,567,1,0.08729857463471,1
457,568,1,0.0813065590532436,1
458,547,1,0.091525642995202,1
458,548,1,0.107532640921686,1
458,549,1,0.111252986262426,1
458,550,1,0.0957072369808158,1
458,551,1,0.0837871706294382,1
458,552,1,0.0805137823294534,1
458,553,1,0.0806137756400722,1
458,559,1,0.108954326093723,1
458,560,1,0.119856136615947,1
458,561,1,0.119565416876868,1
458,562,1,0.0956709389418587,1
459,548,1,0.10906314833329,1
459,549,1,0.107767703667698,1
459,550,1,0.0939899623822937,1
459,551,1,0.0888389292370809,1
459,552,1,0.0909878270513208,1
459,559,1,0.120874997412417,1
459,560,1,0.123495548111409,1
459,561,1,0.116010724764741,1
459,562,1,0.0919503659896527,1
460,555,1,0.118040515895043,1
460,556,1,0.121975822295535,1
460,557,1,0.128163823328268,1
460,558,1,0.133927173243855,1
460,559,1,0.129355381329228,1
460,560,1,0.118558487713006,1
460,561,1,0.101330827466867,1
461,555,1,0.108252144722941,1
461,556,1,0.124147008064059,1
461,557,1,0.141194280234086,1
461,558,1,0.144969971099573,1
461,559,1,0.134050993881037,1
462,556,1,0.124362903528773,1
462,557,1,0.143345172643536,1
463,556,1,0.104429781527494,1
421,534,2,0.154486035102192,1
421,535,2,0.074114336235132,1
422,533,2,0.112990021130011,1
422,534,2,0.0879946045061512,1
423,532,2,0.0762545309057077,1
423,533,2,0.0764287794620281,1
424,530,2,0.0850240592506666,1
424,531,2,0.0851933782218283,1
424,532,2,0.0769740826251662,1
424,533,2,0.0711450488324826,1
425,529,2,0.105267882881778,1
425,530,2,0.152882907653572,1
425,531,2,0.145082183552019,1
425,532,2,0.0955199606629886,1
425,533,2,0.0690835717902854,1
426,528,2,0.0822424075523688,1
426,529,2,0.145229244517774,1
426,530,2,0.230778067991714,1
426,531,2,0.214644008959554,1
426,532,2,0.12153788585654,1
426,533,2,0.0688930190653114,1
427,528,2,0.0843119408424863,1
427,529,2,0.136607477942293,1
427,530,2,0.206197131846361,1
427,531,2,0.191576928650179,1
427,532,2,0.112144288801861,1
427,533,2,0.0677951950596716,1
428,528,2,0.0894491795349404,1
428,529,2,0.115348722807378,1
428,530,2,0.14051287140441,1
428,531,2,0.127763993840402,1
428,532,2,0.0885272991920608,1
429,528,2,0.0989563367415315,1
429,529,2,0.119287299625241,1
429,530,2,0.122100601296782,1
429,531,2,0.104838236291944,1
429,532,2,0.080983368741691,1
429,533,2,0.0694267320130399,1
429,557,2,0.0696287970863432,1
430,528,2,0.102706630959299,1
430,529,2,0.12271527204889,1
430,530,2,0.121856326276196,1
430,531,2,0.101535450174269,1
430,532,2,0.0802624453636647,1
430,533,2,0.0710968131711424,1
431,529,2,0.107809021138445,1
431,530,2,0.110916648393858,1
431,531,2,0.0982850266731887,1
431,532,2,0.0816076830322026,1
431,533,2,0.0734376593280258,1
431,560,2,0.0677944702968475,1
432,530,2,0.108377079458348,1
432,531,2,0.104035845978628,1
432,532,2,0.0855463556864723,1
432,533,2,0.0737470132583918,1
432,561,2,0.100091566894578,1
433,530,2,0.129119036771279,1
433,531,2,0.122577399398607,1
433,532,2,0.0944461676362755,1
433,533,2,0.0781906000202407,1
433,534,2,0.0746368542926276,1
433,535,2,0.0729250184101737,1
433,561,2,0.0949725191500307,1
433,562,2,0.161699785173111,1
434,529,2,0.123202492359922,1
434,530,2,0.139877883334126,1
434,531,2,0.126812733649159,1
434,532,2,0.0979142715551412,1
434,533,2,0.0853081662776986,1
434,534,2,0.0837673265035199,1
434,535,2,0.0803002108975961,1
434,562,2,0.0984943333849572,1
434,563,2,0.107578714274104,1
435,529,2,0.117694881895046,1
435,530,2,0.133907131455349,1
435,531,2,0.124086175905041,1
435,532,2,0.103229083129266,1
435,533,2,0.0955764921632654,1
435,534,2,0.0926622268374906,1
435,535,2,0.0868521626635161,1
435,536,2,0.0716539042122784,1
436,528,2,0.0769982453791518,1
436,529,2,0.110390877888318,1
436,530,2,0.130727267508545,1
436,531,2,0.126470286209678,1
436,532,2,0.110975228397324,1
436,533,2,0.102245873476009,1
436,534,2,0.097293670925381,1
436,535,2,0.0922387137776718,1
436,536,2,0.0772016102337182,1
437,528,2,0.0722431423780156,1
437,529,2,0.104333729489092,1
437,530,2,0.12612655695826,1
437,531,2,0.125875765062033,1
437,532,2,0.113164730899038,1
437,533,2,0.101669441450089,1
437,534,2,0.0954630877455137,1
437,535,2,0.0925028688628282,1
437,536,2,0.0784854407247992,1
438,529,2,0.0909022750892045,1
438,530,2,0.108081579878495,1
438,531,2,0.112377231167379,1
438,532,2,0.107158124224683,1
438,533,2,0.0966380001606218,1
438,534,2,0.0904867823386537,1
438,536,2,0.0739513125179214,1
439,530,2,0.0917676598704598,1
439,531,2,0.0983181321618547,1
439,532,2,0.0990306219361101,1
439,533,2,0.0934793999165073,1
440,533,2,0.0914819775324962,1
441,533,2,0.0916628986986183,1
442,534,2,0.0876576496907168,1
442,536,2,0.0728820896898427,1
443,535,2,0.083844456841416,1
443,536,2,0.0776545570498794,1
443,537,2,0.0704465631531251,1
444,536,2,0.0788968783974006,1
444,537,2,0.0736568611487642,1
445,536,2,0.080058781020328,1
445,537,2,0.0748350020528158,1
446,536,2,0.0820999706932269,1
446,537,2,0.0771476243879887,1
446,538,2,0.0683406120285424,1
447,536,2,0.0822678700876175,1
447,537,2,0.0789007058638847,1
447,538,2,0.0735140349542209,1
448,537,2,0.0830819584323004,1
448,538,2,0.0801044410782439,1
448,539,2,0.0739097255072813,1
448,565,2,0.0691029487137221,1
449,537,2,0.0885283833414092,1
449,538,2,0.0863022234142141,1
449,539,2,0.0828449609888324,1
449,540,2,0.0736576817479947,1
449,565,2,0.0715069151238283,1
449,566,2,0.0687256647404827,1
450,539,2,0.0909619691908954,1
450,540,2,0.0847157295718949,1
450,541,2,0.0720934638804084,1
451,541,2,0.0817985651948239,1
452,542,2,0.0778701110973959,1
453,543,2,0.0720019101633359,1
454,543,2,0.0839371066873878,1
454,561,2,0.0682221941687763,1
454,562,2,0.0732189786177477,1
454,563,2,0.0726485363672328,1
455,543,2,0.0935418852535371,1
455,544,2,0.0744503985740309,1
455,560,2,0.0690762582745153,1
455,561,2,0.07856544615489,1
455,562,2,0.0811819956839116,1
455,563,2,0.0773585842777692,1
455,564,2,0.0687243350103427,1
455,566,2,0.0718535254572163,1
455,567,2,0.0796111231758498,1
455,568,2,0.0752495364393018,1
456,544,2,0.0825314860929874,1
456,545,2,0.0691970301160157,1
456,558,2,0.0688116659357543,1
456,560,2,0.0782627049365716,1
456,561,2,0.0866294268752885,1
456,562,2,0.0840136080988664,1
456,563,2,0.0763055697819377,1
456,566,2,0.0790389618597936,1
456,567,2,0.0981245306411992,1
456,568,2,0.0919183686094367,1
456,569,2,0.0700373057587713,1
457,545,2,0.0781575304702271,1
457,546,2,0.0694452763576952,1
457,547,2,0.0723851060449005,1
457,548,2,0.0889898955364002,1
457,549,2,0.0971036393108672,1
457,550,2,0.0831207002996229,1
457,551,2,0.0699443444444785,1
457,559,2,0.0813462832437327,1
457,560,2,0.0907946508047191,1
457,561,2,0.0950325007609411,1
457,562,2,0.0824870419594788,1
457,563,2,0.0705062332957143,1
457,566,2,0.0756259938235353,1
457,567,2,0.0966887635071831,1
457,568,2,0.0936356671670605,1
457,569,2,0.0724119222693908,1
458,548,2,0.105927704560893,1
458,549,2,0.115784466988575,1
458,550,2,0.0985315059311235,1
458,551,2,0.0834971037758777,1
458,552,2,0.0757986251404962,1
458,553,2,0.0729605437681035,1
458,558,2,0.0925849886836371,1
458,559,2,0.0997145464714568,1
458,560,2,0.114804539732241,1
458,561,2,0.113563637961491,1
458,562,2,0.087991322109229,1
458,563,2,0.0693025340200076,1
458,567,2,0.0759741195701009,1
458,568,2,0.0753944171268092,1
459,549,2,0.104023507041292,1
459,550,2,0.0921600740163735,1
459,551,2,0.0872187968160846,1
459,552,2,0.0867923847049695,1
459,555,2,0.108294372639549,1
459,556,2,0.107335241883423,1
459,557,2,0.105251111510642,1
459,558,2,0.107158723202224,1
459,559,2,0.113118046589527,1
459,560,2,0.124660691202831,1
459,561,2,0.115585869995231,1
459,562,2,0.086527031664732,1
460,550,2,0.0861466929060359,1
460,551,2,0.0871505133764623,1
460,554,2,0.101084336229382,1
460,555,2,0.116341408285326,1
460,556,2,0.118151925717585,1
460,557,2,0.117976593011916,1
460,558,2,0.118062366595722,1
460,559,2,0.116703322494875,1
460,560,2,0.114321296632079,1
460,561,2,0.098678027817092,1
460,562,2,0.0778056611140331,1
461,554,2,0.0912523834514293,1
461,555,2,0.104752618442298,1
461,556,2,0.116399305454395,1
461,557,2,0.126756789146872,1
461,558,2,0.126332245845683,1
461,559,2,0.118186906005953,1
461,560,2,0.106958293337606,1
461,561,2,0.0874235752576466,1
462,555,2,0.0981861474607952,1
462,556,2,0.116873456075491,1
462,557,2,0.128706401143597,1
462,558,2,0.118124444628024,1
462,559,2,0.106448491573296,1
463,555,2,0.0858341584049295,1
463,556,2,0.0979734685054734,1
463,557,2,0.10318955061159,1
464,556,2,0.0795419772085691,1
422,534,3,0.0966073804287491,1
423,533,3,0.0780890074395886,1
423,534,3,0.0681044172149787,1
424,530,3,0.0875214362082211,1
424,531,3,0.0893601894417414,1
424,532,3,0.0804061640347434,1
424,533,3,0.0758645306392825,1
425,529,3,0.110013006917088,1
425,530,3,0.175258851738012,1
425,531,3,0.174455754631199,1
425,532,3,0.111373704195948,1
425,533,3,0.0772151231670329,1
426,528,3,0.0848832036922317,1
426,529,3,0.165463783997007,1
426,530,3,0.292075560681313,1
426,531,3,0.286139932845513,2
426,532,3,0.159824027107136,1
426,533,3,0.0827103048479421,1
427,528,3,0.0872253376508273,1
427,529,3,0.155192145765641,1
427,530,3,0.259301306595231,1
427,531,3,0.252408776199757,1
427,532,3,0.145825610516244,1
427,533,3,0.081622004585197,1
428,528,3,0.0896985877930486,1
428,529,3,0.124307414249417,1
428,530,3,0.163188052688556,1
428,531,3,0.150241512536169,1
428,532,3,0.102793638436839,1
428,533,3,0.0775086161721252,1
429,528,3,0.0999652964392558,1
429,529,3,0.13106622889874,1
429,530,3,0.140661130325246,1
429,531,3,0.114361332290889,1
429,532,3,0.0860974090339997,1
429,533,3,0.0759841883825575,1
429,557,3,0.0727753698614436,1
430,528,3,0.103078727787038,1
430,529,3,0.13278104169957,1
430,530,3,0.138006533742849,1
430,531,3,0.107651933288661,1
430,532,3,0.0806195557733385,1
430,533,3,0.0726323759531889,1
431,529,3,0.111537380798678,1
431,530,3,0.115832481028225,1
431,531,3,0.0980050885298389,1
431,532,3,0.0783144805551765,1
431,533,3,0.0715844168277996,1
432,530,3,0.104778781781269,1
432,532,3,0.0809541685865893,1
432,533,3,0.0711893791602584,1
432,534,3,0.0678739606062534,1
433,532,3,0.0907547948391712,1
433,533,3,0.0763757759394651,1
433,534,3,0.0755365485074055,1
433,535,3,0.0767635480094395,1
433,536,3,0.0729376748056054,1
433,561,3,0.113103826862715,1
434,530,3,0.143022060199064,1
434,531,3,0.129727550034271,1
434,532,3,0.0975871459611471,1
434,533,3,0.0841035026481516,1
434,534,3,0.0854081296394404,1
434,535,3,0.0856477625840869,1
434,536,3,0.0770527283762399,1
434,561,3,0.0716237157442349,1
434,562,3,0.108693902638645,1
435,529,3,0.126170330236923,1
435,530,3,0.159898408138121,1
435,531,3,0.150787792032698,1
435,532,3,0.118692443050174,1
435,533,3,0.0993795083841522,1
435,534,3,0.0946051542448628,1
435,535,3,0.0919353076942834,1
435,536,3,0.0812737290942463,1
436,528,3,0.077303316620103,1
436,529,3,0.125276032809785,1
436,530,3,0.171261778773539,1
436,531,3,0.17393696820378,1
436,532,3,0.144770607414978,1
436,533,3,0.113825007801083,1
436,534,3,0.100505160886326,1
436,535,3,0.098097936038399,1
436,536,3,0.0884893240159901,1
436,537,3,0.0723478616214293,1
437,528,3,0.0715680288022903,1
437,529,3,0.113034273590706,1
437,530,3,0.156691206856367,1
437,531,3,0.169022872604282,1
437,532,3,0.14952653700512,1
437,533,3,0.116635182809862,1
437,534,3,0.0997720003971461,1
437,535,3,0.0971429142682009,1
437,536,3,0.08716266663076,1
437,537,3,0.0702481278837175,1
438,529,3,0.0920898618690706,1
438,530,3,0.118123797732281,1
438,531,3,0.129992334045845,1
438,532,3,0.123638020909204,1
438,533,3,0.103969359471627,1
438,534,3,0.0940665955688312,1
439,530,3,0.0938296700026681,1
439,531,3,0.100088218610127,1
439,532,3,0.0999637870158536,1
439,533,3,0.094447371581132,1
440,533,3,0.0918214360740501,1
442,537,3,0.0689663458958251,1
443,536,3,0.084289215634598,1
443,537,3,0.0781314629676625,1
444,536,3,0.0855080091443266,1
444,537,3,0.0819517836496957,1
444,538,3,0.0677490917583757,1
445,536,3,0.085817782358971,1
445,537,3,0.0822295355250225,1
445,538,3,0.0718486976982395,1
446,536,3,0.0854873024907499,1
446,537,3,0.0827508077092339,1
446,538,3,0.0770333933812311,1
447,537,3,0.0840578246209095,1
447,538,3,0.0819060037962717,1
447,539,3,0.0745466542647968,1
447,565,3,0.0704918338756396,1
448,537,3,0.0861914664771917,1
448,538,3,0.0857636946870596,1
448,539,3,0.0818502389872469,1
448,540,3,0.0698280888936339,1
448,564,3,0.0679111870603984,1
448,565,3,0.0745311227771704,1
448,566,3,0.0683750232882468,1
449,537,3,0.0912064239047432,1
449,538,3,0.0913545929789482,1
449,539,3,0.0905795040619303,1
449,540,3,0.0825379909890777,1
449,564,3,0.0699087711683455,1
449,565,3,0.0750334732608759,1
449,566,3,0.0693579035038557,1
450,539,3,0.0949610666994555,1
450,540,3,0.0905904773304731,1
450,541,3,0.0775301014965047,1
450,564,3,0.0680766186673219,1
450,565,3,0.0699832061073092,1
451,540,3,0.0934261208642757,1
451,541,3,0.0853125867319479,1
451,542,3,0.0693401258504523,1
451,563,3,0.0683656672590634,1
451,564,3,0.0678593455542641,1
452,541,3,0.092524995093176,1
452,542,3,0.0819702860659232,1
452,563,3,0.0718205697129355,1
452,564,3,0.0687748108476845,1
453,542,3,0.0920653696774377,1
453,543,3,0.0747809443297815,1
453,562,3,0.0704465152349219,1
453,563,3,0.0727300272616242,1
453,564,3,0.0702241807616464,1
453,565,3,0.0691599114778281,1
454,542,3,0.0982521907244159,1
454,543,3,0.0828288305236655,1
454,561,3,0.0684196890434453,1
454,562,3,0.0764217594452529,1
454,563,3,0.0760651581664885,1
454,564,3,0.0727000604152706,1
454,565,3,0.0706061726983545,1
454,566,3,0.0684658941709231,1
455,543,3,0.0902428786841431,1
455,544,3,0.0722936900926623,1
455,561,3,0.0778177784296783,1
455,562,3,0.0842172964013046,1
455,563,3,0.0796022583082498,1
455,564,3,0.0715268490963777,1
455,566,3,0.0686587110310004,1
455,567,3,0.0734712799373767,1
455,568,3,0.0721293066964347,1
456,543,3,0.0974948015937211,1
456,544,3,0.0799372664466774,1
456,558,3,0.06823517401208,1
456,560,3,0.0745065107900293,1
456,561,3,0.0840625864923569,1
456,562,3,0.086281642545921,1
456,563,3,0.07766025332629,1
456,566,3,0.0732836981410037,1
456,567,3,0.0910976735424816,1
456,568,3,0.0911197039364229,1
456,569,3,0.0695069171363928,1
457,546,3,0.0683484286854465,1
457,547,3,0.0700662363739797,1
457,548,3,0.0831171603423583,1
457,549,3,0.0925665701242653,1
457,550,3,0.0831598434818977,1
457,551,3,0.0701278891322282,1
457,560,3,0.0865688462868376,1
457,561,3,0.0886495924365141,1
457,562,3,0.0810365699268423,1
457,563,3,0.070151758387219,1
457,566,3,0.0714091200607833,1
457,567,3,0.0934884085387171,1
457,568,3,0.097480396183871,1
457,569,3,0.0755733616670475,1
458,548,3,0.0982874525322279,1
458,549,3,0.110487720577073,1
458,550,3,0.101808260484886,1
458,551,3,0.0895181098703065,1
458,552,3,0.0772570276357695,1
458,559,3,0.0971270892815796,1
458,560,3,0.113606836221715,1
458,561,3,0.106327941353486,1
458,562,3,0.0825881313989969,1
458,567,3,0.0746650421756858,1
458,568,3,0.0788033181055672,1
459,549,3,0.0995845863144845,1
459,550,3,0.0982500044563929,1
459,551,3,0.097645731954388,1
459,552,3,0.0914432176958474,1
459,555,3,0.105001026407913,1
459,556,3,0.10507291569233,1
459,557,3,0.102655837663861,1
459,558,3,0.100865409938312,1
459,559,3,0.113195961588002,1
459,560,3,0.132238919107173,1
459,561,3,0.116993910458895,1
459,562,3,0.0839021563478969,1
460,550,3,0.0919590451742153,1
460,551,3,0.0963092153988405,1
460,554,3,0.103738884893576,1
460,555,3,0.118853196642506,1
460,556,3,0.121615237816126,1
460,557,3,0.118376506356637,1
460,558,3,0.111095898412642,1
460,559,3,0.112883990125783,1
460,560,3,0.118439219305132,1
460,561,3,0.100934531946491,1
460,562,3,0.075606431217061,1
461,554,3,0.0948005526981398,1
461,555,3,0.108421367857696,1
461,556,3,0.117041684907529,1
461,557,3,0.12011233128959,1
461,558,3,0.113983197769542,1
461,559,3,0.107655634969861,1
461,560,3,0.101505165869819,1
461,561,3,0.085371220643392,1
462,555,3,0.101104677506659,1
462,556,3,0.114810134182469,1
462,557,3,0.116870053883061,1
463,556,3,0.0999288246968119,1
423,534,4,0.0697813626556958,1
424,530,4,0.0913782226429228,1
424,531,4,0.0956800973084537,1
424,532,4,0.0846897399364106,1
424,533,4,0.0797930326549138,1
424,534,4,0.0708023677917605,1
425,529,4,0.112426227530196,1
425,530,4,0.190094650910139,1
425,531,4,0.205728132432113,2
425,532,4,0.134713822427406,1
425,533,4,0.0889662239439978,1
425,534,4,0.071193140739213,1
426,528,4,0.0823222931869515,1
426,529,4,0.171596559300502,1
426,530,4,0.325546641278964,2
426,531,4,0.350916263131504,2
426,532,4,0.209072870936728,2
426,533,4,0.103966735949999,1
426,534,4,0.0700301300078356,1
427,528,4,0.086887113003007,1
427,529,4,0.164671145038051,1
427,530,4,0.29550971455318,1
427,531,4,0.316308634630217,2
427,532,4,0.195023205827467,1
427,533,4,0.103718507677646,1
427,534,4,0.0692291532815152,1
428,528,4,0.0873999875220999,1
428,529,4,0.12848589355182,1
428,530,4,0.180953235379581,1
428,531,4,0.177834706732929,1
428,532,4,0.125060844138569,1
428,533,4,0.0904856323017758,1
428,534,4,0.0692296983510771,1
429,528,4,0.0987038617184158,1
429,529,4,0.137802917317715,1
429,530,4,0.154955310046109,1
429,531,4,0.123155664295802,1
429,532,4,0.0910641966877404,1
429,533,4,0.0818900410448162,1
429,534,4,0.0704046347252869,1
429,557,4,0.0769649302483466,1
430,528,4,0.100458021353885,1
430,529,4,0.137155518432791,1
430,530,4,0.148754359118949,1
430,531,4,0.111587694912084,1
430,532,4,0.0804913446307845,1
430,533,4,0.0746354766442844,1
430,534,4,0.0694284930070091,1
431,529,4,0.113726727566231,1
431,530,4,0.120167820568946,1
431,531,4,0.0982844935831776,1
431,532,4,0.0765578052140372,1
431,533,4,0.0716291364909768,1
431,534,4,0.0686739190707549,1
432,530,4,0.100879246319499,1
432,532,4,0.0776960242650114,1
432,533,4,0.0706818175719501,1
432,534,4,0.0690155758598826,1
433,533,4,0.0748820517386257,1
433,534,4,0.0744728183033736,1
433,535,4,0.0775833865385117,1
433,536,4,0.0777269914038577,1
433,537,4,0.0683183240742587,1
433,561,4,0.119818377071791,1
434,530,4,0.136411001329443,1
434,531,4,0.125818119463531,1
434,532,4,0.0984719555840424,1
434,533,4,0.0836179894231108,1
434,534,4,0.0835093468768065,1
434,535,4,0.0864460019830469,1
434,536,4,0.0814060192738514,1
434,537,4,0.0681339587872784,1
434,561,4,0.0720228504181534,1
434,562,4,0.106871273880516,1
435,529,4,0.127943423552449,1
435,530,4,0.180208562542072,1
435,531,4,0.175724760428151,1
435,532,4,0.13643119885211,1
435,533,4,0.102520588535206,1
435,534,4,0.0923154128517388,1
435,535,4,0.0923889792732687,1
435,536,4,0.0846420193957553,1
435,537,4,0.0697477899645482,1
436,528,4,0.0755103073013541,1
436,529,4,0.13452050841597,1
436,530,4,0.209648608148701,1
436,531,4,0.222532016068315,1
436,532,4,0.179503014917512,1
436,533,4,0.121928143683307,1
436,534,4,0.098456615769229,1
436,535,4,0.0987983025072337,1
436,536,4,0.0934601847170066,1
436,537,4,0.0781555298852417,1
437,528,4,0.0689295507055093,1
437,529,4,0.115803730106279,1
437,530,4,0.182980498824662,1
437,531,4,0.209446992308553,1
437,532,4,0.181926825453536,1
437,533,4,0.125340446854496,1
437,534,4,0.098240079398546,1
437,535,4,0.0966018578558252,1
437,536,4,0.0898096382290659,1
437,537,4,0.0734337959228893,1
438,529,4,0.0885461430254864,1
438,530,4,0.123394320907057,1
438,531,4,0.142337093442796,1
438,532,4,0.134260324551907,1
438,533,4,0.105196580595351,1
438,534,4,0.0925612931321331,1
439,530,4,0.0926136377794015,1
439,531,4,0.0990074534848417,1
439,532,4,0.0981252793631249,1
439,533,4,0.0922502500851027,1
443,537,4,0.0801725807632565,1
444,536,4,0.0857521943182811,1
444,537,4,0.0848255221550771,1
444,538,4,0.0706921978527278,1
445,536,4,0.0855696858616766,1
445,537,4,0.0845518013985982,1
445,538,4,0.0753552260263312,1
446,536,4,0.084716897578099,1
446,537,4,0.0848612092369429,1
446,538,4,0.0822953751362794,1
446,539,4,0.0716884592265925,1
447,537,4,0.0867452751214056,1
447,538,4,0.0879838408797475,1
447,539,4,0.0811259793043197,1
447,565,4,0.0728890318395377,1
448,537,4,0.089648189822787,1
448,538,4,0.0916801911802139,1
448,539,4,0.0891775132714256,1
448,540,4,0.0774040586526475,1
448,564,4,0.0711723442390053,1
448,565,4,0.0760452182041638,1
449,538,4,0.0980267355781542,1
449,539,4,0.0981581871892025,1
449,540,4,0.0906739089120958,1
449,541,4,0.0730078749733575,1
449,564,4,0.071477217817368,1
449,565,4,0.0741072263717256,1
450,538,4,0.101210361103913,1
450,539,4,0.0992134238917095,1
450,540,4,0.09476502734021,1
450,541,4,0.0821054333683967,1
450,564,4,0.0702433001247407,1
450,565,4,0.0702389156091439,1
451,539,4,0.0978759849107495,1
451,540,4,0.0930247579939063,1
451,541,4,0.0869944677475991,1
451,542,4,0.0733848774271528,1
451,563,4,0.0732330605797259,1
451,564,4,0.0713801774660241,1
451,565,4,0.0682163780968576,1
452,540,4,0.0945924259721262,1
452,541,4,0.0913651289938864,1
452,542,4,0.0841296180689194,1
452,562,4,0.0702156393419182,1
452,563,4,0.0763168485290262,1
452,564,4,0.0725186241284637,1
452,565,4,0.0694297748189459,1
453,541,4,0.0966301415752898,1
453,542,4,0.091357456091592,1
453,543,4,0.0778442053187672,1
453,562,4,0.0739114385830472,1
453,563,4,0.0771958301004519,1
453,564,4,0.0749641835389855,1
453,565,4,0.0739011122102482,1
453,566,4,0.0712851796280934,1
454,542,4,0.0937909880330996,1
454,543,4,0.0827005714629082,1
454,561,4,0.0714653041540865,1
454,562,4,0.0803530347268969,1
454,563,4,0.0798267431108958,1
454,564,4,0.0767434463231788,1
454,565,4,0.0752204740490345,1
454,566,4,0.0724786184185306,1
455,542,4,0.0998646562328932,1
455,543,4,0.0863857508322434,1
455,544,4,0.0714668435263657,1
455,561,4,0.0802387797610377,1
455,562,4,0.0876374162293971,1
455,563,4,0.0814240904262497,1
455,564,4,0.0724770371178236,1
455,565,4,0.0681014462863776,1
455,567,4,0.0705277725280724,1
455,568,4,0.0721627176636464,1
456,544,4,0.0782933246684444,1
456,545,4,0.0686246950964728,1
456,558,4,0.0681722993396488,1
456,560,4,0.0719531414119846,1
456,561,4,0.0827560008445104,1
456,562,4,0.087008543719802,1
456,563,4,0.077258231580626,1
456,567,4,0.0768324184470515,1
456,568,4,0.082471887827703,1
457,547,4,0.0730919115222961,1
457,548,4,0.0810067588146493,1
457,549,4,0.087964865271263,1
457,550,4,0.0819967429038891,1
457,551,4,0.0697439145798609,1
457,557,4,0.0694179030840922,1
457,560,4,0.0815715766660584,1
457,561,4,0.0824749545927106,1
457,562,4,0.0780030541625201,1
457,567,4,0.0775978039279126,1
457,568,4,0.0865075768742151,1
457,569,4,0.0696365718148195,1
458,548,4,0.0925671750915813,1
458,549,4,0.102795591103621,1
458,550,4,0.100320723722041,1
458,551,4,0.0919605306385158,1
458,559,4,0.0911204227094715,1
458,560,4,0.106136639906586,1
458,561,4,0.0958685476222604,1
458,562,4,0.0757542888229449,1
458,568,4,0.0721443170736008,1
459,549,4,0.0973215952583213,1
459,550,4,0.101831524772561,1
459,551,4,0.104567630218676,1
459,552,4,0.0924033068160386,1
459,556,4,0.0963403262922964,1
459,558,4,0.0908686185412012,1
459,559,4,0.108022544652099,1
459,560,4,0.131300285362484,1
459,561,4,0.112882660395643,1
459,562,4,0.0791623871717986,1
460,550,4,0.0943011192350568,1
460,551,4,0.101228665857552,1
460,555,4,0.113563098881704,1
460,556,4,0.116820913765635,1
460,557,4,0.111206853012253,1
460,558,4,0.0992098959139956,1
460,559,4,0.103926772168494,1
460,560,4,0.116761794682383,1
460,561,4,0.0995450537968084,1
460,562,4,0.0726263442493556,1
461,555,4,0.107433354404565,1
461,556,4,0.113346089318764,1
461,557,4,0.109362110003327,1
461,559,4,0.0923439900701983,1
461,560,4,0.0917254199743005,1
461,561,4,0.0808012616000386,1
462,556,4,0.108664397004997,1
423,531,5,0.0761988140148861,1
424,530,5,0.0986640476812956,1
424,531,5,0.103742814186242,1
424,532,5,0.0922318075666293,1
424,533,5,0.086364960321811,1
425,529,5,0.114515329416563,1
425,530,5,0.185948408578968,1
425,531,5,0.214472964933076,2
425,532,5,0.153110914444157,1
425,533,5,0.101830003369608,1
425,534,5,0.0799800094839708,1
426,528,5,0.0829210071773802,1
426,529,5,0.159954891720195,1
426,530,5,0.30159204396821,2
426,531,5,0.35507779136951,2
426,532,5,0.237481848584611,2
426,533,5,0.124060431850348,1
426,534,5,0.0799267064726376,1
427,528,5,0.0873898468323384,1
427,529,5,0.155591244500907,1
427,530,5,0.278381280926408,1
427,531,5,0.326084762701391,2
427,532,5,0.226278644543535,1
427,533,5,0.125125952997226,1
427,534,5,0.079896739626284,1
428,528,5,0.0886491971113374,1
428,529,5,0.126766276951114,1
428,530,5,0.177565226737437,1
428,531,5,0.186883664090328,1
428,532,5,0.144223669043154,1
428,533,5,0.10566972493418,1
428,534,5,0.0810628171226691,1
429,528,5,0.0981223323936254,1
429,529,5,0.136014034954221,1
429,530,5,0.156076823613477,1
429,531,5,0.127540730951939,1
429,532,5,0.100190188546629,1
429,533,5,0.0920726053261275,1
429,534,5,0.0822573520420055,1
430,528,5,0.0986917743516475,1
430,529,5,0.13441931715027,1
430,530,5,0.150133241355939,1
430,531,5,0.114825336232449,1
430,532,5,0.0865827066271258,1
430,533,5,0.0818270705359785,1
430,534,5,0.0791200334699066,1
431,529,5,0.112398830297492,1
431,530,5,0.120728547403753,1
431,531,5,0.0993603890210579,1
431,533,5,0.0762877322307802,1
431,534,5,0.0757863041724871,1
431,535,5,0.0688070837575692,1
432,530,5,0.100619302046452,1
432,533,5,0.0743622769982657,1
432,534,5,0.0735276017955142,1
432,535,5,0.0722633997984369,1
432,536,5,0.0712201486365163,1
432,560,5,0.0714923060616144,1
433,533,5,0.0764211305188353,1
433,534,5,0.0757355168668242,1
433,535,5,0.0808440944839631,1
433,536,5,0.0862769106233507,1
433,537,5,0.079014990778621,1
433,561,5,0.113147683998234,1
434,530,5,0.12583583721918,1
434,531,5,0.11999252380193,1
434,532,5,0.100123803865811,1
434,533,5,0.0857819455327201,1
434,534,5,0.0835276216815686,1
434,535,5,0.0904066870619318,1
434,536,5,0.0918617712216305,1
434,537,5,0.0793599419442217,1
434,561,5,0.0723855552780559,1
434,562,5,0.097273078077537,1
435,529,5,0.12137997141775,1
435,530,5,0.177930028018732,1
435,531,5,0.180132312701161,1
435,532,5,0.142561769918255,1
435,533,5,0.104562550889132,1
435,534,5,0.0925622574859734,1
435,535,5,0.0980119947408814,1
435,536,5,0.0960602204352353,1
435,537,5,0.0799293120249389,1
436,529,5,0.131533239707553,1
436,530,5,0.213347869480015,1
436,531,5,0.233174601090542,1
436,532,5,0.187186543073481,1
436,533,5,0.123281329783808,1
436,534,5,0.0980697900837687,1
436,535,5,0.101965707721194,1
436,536,5,0.101557468588659,1
436,537,5,0.085836692079926,1
437,529,5,0.111817858021814,1
437,530,5,0.181640825657476,1
437,531,5,0.213544118481399,1
437,532,5,0.184132955571775,1
437,533,5,0.124941455935187,1
437,534,5,0.0969245869546717,1
437,535,5,0.0961986321653048,1
437,537,5,0.0767597265327308,1
438,529,5,0.0862447455294233,1
438,530,5,0.119667806097649,1
438,531,5,0.139898236590953,1
438,532,5,0.131588693048257,1
438,533,5,0.103979661885324,1
438,534,5,0.0915234088089758,1
439,530,5,0.0919311268310504,1
439,531,5,0.0975344958353331,1
439,532,5,0.0959001676466259,1
439,533,5,0.0913359827467634,1
443,537,5,0.0828052068494663,1
443,538,5,0.0691729572086612,1
444,536,5,0.0878934970973069,1
444,537,5,0.0891451025967066,1
444,538,5,0.0776333412653932,1
445,536,5,0.0882588134992862,1
445,537,5,0.0898643488376194,1
445,538,5,0.0832258208579889,1
446,536,5,0.0882160225437896,1
446,537,5,0.0909320802116221,1
446,538,5,0.0911913356604969,1
446,539,5,0.0789387409377094,1
446,565,5,0.0690325209345046,1
447,537,5,0.0912992294848755,1
447,538,5,0.094449911245904,1
447,539,5,0.0871654398967727,1
447,540,5,0.0694965128965136,1
447,564,5,0.0714020341564786,1
447,565,5,0.0753996402109628,1
448,537,5,0.0937002129868298,1
448,538,5,0.0965506093374561,1
448,539,5,0.0946106947871128,1
448,540,5,0.0833927319394375,1
448,564,5,0.0773325587036324,1
448,565,5,0.0784127907389064,1
449,538,5,0.100952657006868,1
449,539,5,0.101068786772429,1
449,540,5,0.0940413187166202,1
449,541,5,0.0781202920365313,1
449,564,5,0.0760974849843518,1
449,565,5,0.0750843743722715,1
450,538,5,0.103238319362941,1
450,539,5,0.100442358091199,1
450,540,5,0.0948363416061875,1
450,541,5,0.0838665052046836,1
450,542,5,0.0679620043149384,1
450,563,5,0.0712922954812751,1
450,564,5,0.0758267411462494,1
450,565,5,0.0729051623047046,1
451,539,5,0.0978721095260621,1
451,540,5,0.0913458838455087,1
451,541,5,0.0860009437010947,1
451,542,5,0.0743851399709884,1
451,562,5,0.0719996999362113,1
451,563,5,0.0806781836950071,1
451,564,5,0.0777566168330131,1
451,565,5,0.0726191026108904,1
452,540,5,0.0924614795147764,1
452,541,5,0.0885327858263322,1
452,542,5,0.0824538705832834,1
452,562,5,0.0766034473026268,1
452,563,5,0.0829942980692414,1
452,564,5,0.0786055297319034,1
452,565,5,0.074702508220847,1
452,566,5,0.0714099107111368,1
453,541,5,0.0923541487292859,1
453,542,5,0.0881019951893957,1
453,543,5,0.0781472040974281,1
453,562,5,0.0794083153703962,1
453,563,5,0.0829165148458261,1
453,564,5,0.0802346348364571,1
453,565,5,0.0787353641035923,1
453,566,5,0.0758484900207467,1
454,542,5,0.0898472839674892,1
454,543,5,0.0814014670445432,1
454,561,5,0.076425808533427,1
454,562,5,0.0842881853932283,1
454,563,5,0.0830011623518561,1
454,564,5,0.0793538802915113,1
454,565,5,0.078027264834709,1
454,566,5,0.0755236285618559,1
454,567,5,0.0712434189139665,1
455,543,5,0.0834901676159582,1
455,544,5,0.0713714204143813,1
455,560,5,0.0692471166179562,1
455,561,5,0.083475007494407,1
455,562,5,0.0888133109676717,1
455,563,5,0.0816398720852315,1
455,564,5,0.0730190698635903,1
455,565,5,0.0697782599520358,1
455,566,5,0.0680047713113334,1
455,567,5,0.0705369967821968,1
455,568,5,0.0720345903779481,1
456,558,5,0.0706121504942092,1
456,560,5,0.0736819463281623,1
456,561,5,0.0828279979448841,1
456,562,5,0.0857665458201526,1
456,563,5,0.0762391192135894,1
456,568,5,0.0733766055473179,1
457,547,5,0.0757909881768542,1
457,548,5,0.0780962071496259,1
457,549,5,0.0808517074885035,1
457,550,5,0.0771997474135671,1
457,557,5,0.0686915649490994,1
457,560,5,0.0800066520049743,1
457,561,5,0.0807450834965108,1
457,562,5,0.077337116922716,1
457,568,5,0.0733119339422651,1
458,548,5,0.0872941422009099,1
458,549,5,0.0924150527656087,1
458,550,5,0.0928026211832193,1
458,551,5,0.0874700978432208,1
458,560,5,0.0970356553600152,1
458,561,5,0.0881602757040909,1
458,562,5,0.073313868639721,1
459,550,5,0.100120126143712,1
459,551,5,0.101875322010326,1
459,559,5,0.10151980488091,1
459,560,5,0.120978021549391,1
459,561,5,0.104309530796454,1
459,562,5,0.0758860099738865,1
460,556,5,0.106400465554095,1
460,559,5,0.098843495362668,1
460,560,5,0.113095980256934,1
460,561,5,0.0975737648028913,1
460,562,5,0.0725656857938245,1
461,555,5,0.100465610399323,1
461,556,5,0.106409042912476,1
461,557,5,0.100218723836661,1
461,560,5,0.0874580104764526,1
461,561,5,0.0794224332710269,1
462,556,5,0.100662428429372,1
423,530,6,0.0860682567971013,1
423,531,6,0.0829730942643061,1
423,532,6,0.0815865750636737,1
424,529,6,0.0921345096549429,1
424,530,6,0.103936703216116,1
424,531,6,0.108802233716628,1
424,532,6,0.0972425062638675,1
424,533,6,0.0894616023291313,1
425,529,6,0.11036949439012,1
425,530,6,0.1673309407455,1
425,531,6,0.200185182292345,1
425,532,6,0.155652819392075,1
425,533,6,0.106881636191967,1
425,534,6,0.0855331003135,1
426,529,6,0.138354228225585,1
426,530,6,0.247883764431046,1
426,531,6,0.312640160744488,2
426,532,6,0.23366902111161,1
426,533,6,0.131569873173933,1
426,534,6,0.0866071628801064,1
427,529,6,0.132802544993276,1
427,530,6,0.229357077633623,1
427,531,6,0.289433710340978,1
427,532,6,0.223968028783123,1
427,533,6,0.132581498321713,1
427,534,6,0.0869968756373121,1
428,529,6,0.11546339106774,1
428,530,6,0.157996199223955,1
428,531,6,0.175319959426699,1
428,532,6,0.145739645259625,1
428,533,6,0.110077636593713,1
428,534,6,0.0877365949305608,1
429,529,6,0.121743538805311,1
429,530,6,0.141569539663239,1
429,531,6,0.122840626068576,1
429,532,6,0.10192339594773,1
429,533,6,0.0952267252182387,1
429,534,6,0.0883023172380561,1
429,535,6,0.0707302209470017,1
430,529,6,0.122816535191895,1
430,530,6,0.139315898646483,1
430,531,6,0.112927392038371,1
430,532,6,0.0894360439574762,1
430,534,6,0.0839912542570532,1
430,535,6,0.0719518116818446,1
431,530,6,0.115165148170751,1
431,533,6,0.079004281060196,1
431,534,6,0.0790613815891363,1
431,535,6,0.0719417548489388,1
432,533,6,0.0770314107655719,1
432,534,6,0.075763596933925,1
432,535,6,0.0738326311080375,1
432,536,6,0.0753603353047521,1
432,537,6,0.070312883345626,1
433,534,6,0.075463874562411,1
433,535,6,0.081290284833467,1
433,536,6,0.0954646510768945,1
433,537,6,0.0917410053699055,1
434,531,6,0.110511260394417,1
434,532,6,0.0982928732789698,1
434,533,6,0.084513508764431,1
434,534,6,0.0825958582092699,1
434,535,6,0.0956934904462603,1
434,536,6,0.112255614767547,1
434,537,6,0.101235973383546,1
434,561,6,0.0699762040598602,1
435,530,6,0.151774667428502,1
435,531,6,0.160172703913039,1
435,532,6,0.13266758337384,1
435,533,6,0.0995610704562426,1
435,534,6,0.0929771153203313,1
435,535,6,0.109746809318519,1
435,536,6,0.123768226646968,1
435,537,6,0.104178570346989,1
436,529,6,0.115138445751994,1
436,530,6,0.181140631492917,1
436,531,6,0.201920528043266,1
436,532,6,0.165590168258062,1
436,533,6,0.113515683819594,1
436,534,6,0.0970029152476489,1
436,535,6,0.109844969757864,1
436,536,6,0.119630130410348,1
436,537,6,0.1001062957523,1
437,529,6,0.101729758488422,1
437,530,6,0.156542516671701,1
437,531,6,0.183258112935155,1
437,532,6,0.159092759386984,1
437,533,6,0.11359892971818,1
437,534,6,0.0937400030648483,1
437,535,6,0.0969063241294604,1
437,537,6,0.081718601693161,1
438,530,6,0.109867167865516,1
438,531,6,0.125613233206011,1
438,532,6,0.118370384806173,1
438,533,6,0.0987999377159194,1
438,534,6,0.0892493067194355,1
439,531,6,0.0941837855246392,1
439,532,6,0.0921779115675309,1
443,537,6,0.0860312220157693,1
443,538,6,0.0759242067716471,1
444,536,6,0.0892054975021199,1
444,537,6,0.0940529508604576,1
444,538,6,0.0883245452945858,1
445,536,6,0.089926564634756,1
445,537,6,0.097052330894744,1
445,538,6,0.0965630201520962,1
445,539,6,0.0762759144039052,1
446,536,6,0.0915135795875354,1
446,537,6,0.0980209554448879,1
446,538,6,0.102656221009487,1
446,539,6,0.0872886675461893,1
446,565,6,0.0679816268191667,1
447,537,6,0.0949720160088967,1
447,538,6,0.0996618963456428,1
447,539,6,0.0917490136996226,1
447,540,6,0.0744098058661081,1
447,564,6,0.0725904894537785,1
447,565,6,0.0729465995709596,1
448,538,6,0.0994834549465386,1
448,539,6,0.0979438191172164,1
448,540,6,0.0881443608708386,1
448,541,6,0.0715143184862295,1
448,563,6,0.0678824421282276,1
448,564,6,0.0778994909457597,1
448,565,6,0.0753747586839285,1
449,538,6,0.101961095594132,1
449,539,6,0.101315086337102,1
449,540,6,0.0953150204974906,1
449,541,6,0.0821586704922005,1
449,563,6,0.0700196419111006,1
449,564,6,0.0766700955335634,1
449,565,6,0.0727706858570765,1
450,539,6,0.0999824271969154,1
450,540,6,0.0939859252736704,1
450,541,6,0.0851013573022742,1
450,542,6,0.0710942794961458,1
450,563,6,0.0767717659812958,1
450,564,6,0.0789861380304928,1
450,565,6,0.0742306756428323,1
451,540,6,0.0899405387807769,1
451,541,6,0.0846832530096465,1
451,542,6,0.0755261143186492,1
451,562,6,0.0761795988153853,1
451,563,6,0.0848897025985467,1
451,564,6,0.0832560991726635,1
451,565,6,0.0779183527485115,1
451,566,6,0.0707658840697658,1
452,541,6,0.0859926957803614,1
452,542,6,0.0811060692908719,1
452,543,6,0.0686252641251363,1
452,562,6,0.0787784305887575,1
452,563,6,0.0861028956682711,1
452,564,6,0.0845923222292161,1
452,565,6,0.0813332075640226,1
452,566,6,0.0769946035957053,1
453,542,6,0.0865557765969029,1
453,543,6,0.0785536942155445,1
453,561,6,0.0696584764234773,1
453,562,6,0.0807099115353299,1
453,563,6,0.0851391228362056,1
453,564,6,0.083904935603685,1
453,565,6,0.0822246059398638,1
453,566,6,0.0806978660969895,1
453,567,6,0.0737949075025339,1
454,543,6,0.0821848877391502,1
454,544,6,0.0694405743840019,1
454,561,6,0.0775745096913608,1
454,562,6,0.0842277785082642,1
454,563,6,0.0830630547011208,1
454,564,6,0.0793995044107748,1
454,565,6,0.0774213930626709,1
454,566,6,0.0771313861068645,1
454,567,6,0.0758432429774915,1
454,568,6,0.0690314248056054,1
455,544,6,0.0750732154206912,1
455,559,6,0.0686971893482051,1
455,560,6,0.0728979086866886,1
455,561,6,0.0827317362643429,1
455,562,6,0.0859140081008598,1
455,563,6,0.0788658992790035,1
455,564,6,0.0715607512251726,1
455,565,6,0.0687572967443989,1
455,567,6,0.0695714150379589,1
455,568,6,0.0696470000138004,1
456,558,6,0.0751648829434964,1
456,559,6,0.0756492221725577,1
456,560,6,0.0758583791399411,1
456,561,6,0.0809621829060819,1
456,562,6,0.0816242986691773,1
456,563,6,0.0727490987065152,1
457,548,6,0.0781930678077077,1
457,549,6,0.0775060046300485,1
457,550,6,0.075486521903219,1
457,551,6,0.0683741727401392,1
457,557,6,0.0712891209003102,1
457,561,6,0.0789482886397057,1
457,562,6,0.0751060154308115,1
458,550,6,0.088658247661975,1
458,551,6,0.0832880426449008,1
458,552,6,0.075424210269676,1
458,560,6,0.0894534083163767,1
458,561,6,0.0829846185921862,1
458,562,6,0.0718806471602523,1
459,559,6,0.0943172077717959,1
459,560,6,0.106217046651629,1
459,561,6,0.0944627653039241,1
459,562,6,0.0744398206306649,1
460,559,6,0.0955241355364462,1
460,560,6,0.10558242994742,1
460,561,6,0.093901463450678,1
460,562,6,0.0746867670910814,1
461,556,6,0.097093768160999,1
461,560,6,0.0847780232361118,1
461,561,6,0.077703655238878,1
461,562,6,0.0687466708828296,1
423,530,7,0.0981919515531631,1
423,531,7,0.0962033461185489,1
423,532,7,0.0895969652635195,1
424,529,7,0.0968590348526343,1
424,530,7,0.114377217175264,1
424,531,7,0.118662709805061,1
424,532,7,0.104730396375544,1
424,533,7,0.0937796314189308,1
425,529,7,0.106496781142615,1
425,530,7,0.150155439463592,1
425,531,7,0.179880143156591,1
425,532,7,0.151332478248969,1
425,533,7,0.111065122946609,1
425,534,7,0.0921708436325525,1
426,529,7,0.119142442896836,1
426,530,7,0.193170412560396,1
426,531,7,0.250727637916256,1
426,532,7,0.209077519002443,1
426,533,7,0.133525415048309,1
426,534,7,0.0950012401231,1
426,535,7,0.0765750018592263,1
427,529,7,0.112246869695455,1
427,530,7,0.17739124772101,1
427,531,7,0.229949178912004,1
427,532,7,0.198073774482368,1
427,533,7,0.133074876121861,1
427,534,7,0.0959041208983935,1
427,535,7,0.0762188078851895,1
428,529,7,0.104328937668768,1
428,530,7,0.137563410158352,1
428,531,7,0.154927936772506,1
428,532,7,0.137654203173948,1
428,533,7,0.111664507791883,1
428,534,7,0.0948814266456644,1
428,535,7,0.0780042940460291,1
429,529,7,0.105776989832141,1
429,530,7,0.125669632931229,1
429,531,7,0.117740667738245,1
429,532,7,0.101822588027656,1
429,533,7,0.096479492734067,1
429,534,7,0.0942537101627225,1
429,535,7,0.0818675733972703,1
429,536,7,0.0694656715429508,1
430,530,7,0.124618750795442,1
430,531,7,0.110410907697273,1
430,532,7,0.0908190291906194,1
430,535,7,0.0821616294412507,1
430,536,7,0.0695178125378554,1
431,534,7,0.0828842179768398,1
431,535,7,0.0785999592407763,1
431,536,7,0.0698870702120515,1
432,534,7,0.0786854513051385,1
432,535,7,0.0768293936104718,1
432,536,7,0.078168875104845,1
432,537,7,0.0757066162004928,1
432,558,7,0.0684583650232384,1
432,559,7,0.0681056570984876,1
433,534,7,0.0754900977991361,1
433,535,7,0.0815407472920465,1
433,536,7,0.106430929551808,1
433,537,7,0.112069847873122,1
433,538,7,0.0759797080305542,1
433,560,7,0.0683475961066652,1
434,534,7,0.080644928461956,1
434,535,7,0.104468918719994,1
434,536,7,0.158590792248905,1
434,537,7,0.163840447046169,1
434,538,7,0.101299237391379,1
434,561,7,0.0711500862335986,1
435,531,7,0.129757462972646,1
435,532,7,0.114720874549377,1
435,533,7,0.0927576679188013,1
435,534,7,0.0919823753494195,1
435,535,7,0.129099330410195,1
435,536,7,0.190081868729424,1
435,537,7,0.183175094648035,1
435,538,7,0.108255642751778,1
435,559,7,0.071602637724583,1
435,560,7,0.0727532017026679,1
435,561,7,0.0683027087297766,1
436,530,7,0.137005462579333,1
436,531,7,0.153894964065181,1
436,532,7,0.13394363314667,1
436,533,7,0.102260464568897,1
436,534,7,0.0961529721073889,1
436,535,7,0.12454514843526,1
436,536,7,0.161617857025115,1
436,537,7,0.14655457816264,1
436,538,7,0.088003169884981,1
436,559,7,0.0850364101675527,1
436,560,7,0.0836982524135441,1
436,561,7,0.0702949918864898,1
437,530,7,0.126210569548097,1
437,531,7,0.143672537828546,1
437,532,7,0.129710527092569,1
437,533,7,0.102707589323364,1
437,534,7,0.0914713456811515,1
437,535,7,0.0997827640235497,1
437,537,7,0.091995648691718,1
437,559,7,0.0846068234754728,1
437,560,7,0.0833521452212901,1
437,561,7,0.0701877808965074,1
438,531,7,0.112011243910555,1
438,532,7,0.106928021012707,1
438,534,7,0.0879682854330196,1
438,560,7,0.0681323475376944,1
443,538,7,0.0888591567086251,1
443,539,7,0.073772853149491,1
444,537,7,0.100415745519073,1
444,538,7,0.112899755214651,1
444,539,7,0.0974214867427582,1
445,537,7,0.108356342855894,1
445,538,7,0.131320794353472,1
445,539,7,0.115383080159104,1
445,540,7,0.0757056638262034,1
446,536,7,0.0944701087685712,1
446,537,7,0.10661148534163,1
446,538,7,0.125613580612985,1
446,539,7,0.113473923105468,1
446,540,7,0.0808002792768721,1
447,537,7,0.0992958971092673,1
447,538,7,0.106233937818273,1
447,539,7,0.100896329158955,1
447,540,7,0.0841837117306062,1
447,563,7,0.0723723777721639,1
447,564,7,0.0762564057054096,1
447,565,7,0.071554995051008,1
448,538,7,0.100334224675805,1
448,539,7,0.100883523019138,1
448,540,7,0.0934400351125426,1
448,541,7,0.0798680186532148,1
448,563,7,0.0772614001718155,1
448,564,7,0.0801616074947137,1
448,565,7,0.0736882835105412,1
449,539,7,0.0997899517540363,1
449,540,7,0.0952695760714894,1
449,541,7,0.0862184084869655,1
449,542,7,0.0706278197466699,1
449,562,7,0.0690586663041495,1
449,563,7,0.0795321719462304,1
449,564,7,0.080261001827792,1
449,565,7,0.0735985566749674,1
450,540,7,0.0921028417123742,1
450,541,7,0.085872558855054,1
450,542,7,0.0742102624882505,1
450,562,7,0.0765793983543739,1
450,563,7,0.0853708193284398,1
450,564,7,0.0854166830387194,1
450,565,7,0.0796874628633925,1
450,566,7,0.0684953518863672,1
451,541,7,0.0831994718359802,1
451,542,7,0.0758232970253913,1
451,562,7,0.0818970970002438,1
451,563,7,0.0906034332146751,1
451,564,7,0.092770515987046,1
451,565,7,0.0894930785988871,1
451,566,7,0.0772368301131023,1
452,542,7,0.0798193038098422,1
452,543,7,0.0697068019314486,1
452,561,7,0.0691370185562284,1
452,562,7,0.0817077841587787,1
452,563,7,0.0893968468672229,1
452,564,7,0.0939170668156092,1
452,565,7,0.0937977265304307,1
452,566,7,0.0857325238958496,1
452,567,7,0.0752983650884072,1
453,543,7,0.078209174313773,1
453,561,7,0.0749793316809859,1
453,562,7,0.0833804469100809,1
453,563,7,0.0876051792581649,1
453,564,7,0.0891381724265625,1
453,565,7,0.0886999484783479,1
453,566,7,0.0887325807747568,1
453,567,7,0.0878276994144779,1
453,568,7,0.0739859394095404,1
454,544,7,0.0719815089883049,1
454,560,7,0.0718070507898453,1
454,561,7,0.0814328594574433,1
454,562,7,0.0856763278229955,1
454,563,7,0.0840758778039816,1
454,564,7,0.0803071829961681,1
454,565,7,0.0777922200580232,1
454,566,7,0.0808466940464891,1
454,567,7,0.0858153025919531,1
454,568,7,0.0768060215068397,1
455,558,7,0.071784990447027,1
455,559,7,0.0762975794215468,1
455,560,7,0.0790166798952853,1
455,561,7,0.0842843040187655,1
455,562,7,0.0846971552783626,1
455,563,7,0.0780327275098788,1
455,564,7,0.0716370909127153,1
455,565,7,0.0685901400821586,1
455,566,7,0.0684033189872622,1
455,567,7,0.0716540060384603,1
455,568,7,0.0700902134449278,1
456,557,7,0.0710629110423474,1
456,558,7,0.079142848524426,1
456,559,7,0.0817460708031704,1
456,560,7,0.080443695967434,1
456,561,7,0.0813450433602237,1
456,562,7,0.0792839436738771,1
456,563,7,0.0712534517877707,1
457,549,7,0.0774455618064319,1
457,550,7,0.0752017919395449,1
457,551,7,0.0698134858211953,1
457,559,7,0.0832220592790342,1
457,560,7,0.0821965917602925,1
457,561,7,0.0794166950661885,1
457,562,7,0.074390171382329,1
458,560,7,0.0863927648592432,1
458,561,7,0.0816915698367561,1
458,562,7,0.073270406829379,1
459,559,7,0.087351224760524,1
459,560,7,0.0946931560251199,1
459,561,7,0.0898762864600025,1
459,562,7,0.0780567045808269,1
460,559,7,0.0897994556108766,1
460,560,7,0.0979727257733231,1
460,561,7,0.0934151835343853,1
460,562,7,0.0812194617290728,1
461,560,7,0.0854332567472664,1
461,561,7,0.0799244902557375,1
461,562,7,0.0726240801142523,1
423,530,8,0.105498644969049,1
423,531,8,0.103990874744883,1
424,529,8,0.0960419935486765,1
424,530,8,0.119407658172239,1
424,531,8,0.123044937307656,1
424,532,8,0.108404680343416,1
424,533,8,0.0950163163877955,1
425,529,8,0.101536576252045,1
425,530,8,0.137859556633949,1
425,531,8,0.161858094937078,1
425,532,8,0.146886303904145,1
425,533,8,0.113854381659672,1
425,534,8,0.0947657640825849,1
426,529,8,0.106817066413096,1
426,530,8,0.158197635370841,1
426,531,8,0.202639540682938,1
426,532,8,0.188277281174816,1
426,533,8,0.134677907734075,1
426,534,8,0.100356267049297,1
426,535,8,0.0834405902449272,1
426,536,8,0.0710195450684119,1
427,529,8,0.102915506407239,1
427,530,8,0.14993087080409,1
427,531,8,0.188841601874867,1
427,532,8,0.178351456636709,1
427,533,8,0.133251286987103,1
427,534,8,0.102127335820735,1
427,535,8,0.083914123919157,1
427,536,8,0.072814405227761,1
428,529,8,0.0992337232405586,1
428,530,8,0.129778019881838,1
428,531,8,0.143470095399392,1
428,532,8,0.132153696582704,1
428,533,8,0.111632450513913,1
428,534,8,0.0985832815497284,1
428,535,8,0.0853934486999216,1
428,536,8,0.0764162129132274,1
428,537,8,0.0722050414166614,1
429,530,8,0.118359243823919,1
429,531,8,0.117138072373354,1
429,532,8,0.102400134151802,1
429,533,8,0.0952289773737911,1
429,534,8,0.0948928731064643,1
429,535,8,0.0871466260122241,1
429,536,8,0.0770689007698347,1
429,537,8,0.0721188784974538,1
430,531,8,0.109565822264867,1
430,532,8,0.0918758771427104,1
430,535,8,0.086902506725799,1
430,536,8,0.0755214123449559,1
430,537,8,0.0682991567929612,1
431,535,8,0.0827135513062119,1
431,536,8,0.0742516099078744,1
432,535,8,0.0779703799376833,1
432,536,8,0.0767246384284056,1
432,537,8,0.0738836699842675,1
432,558,8,0.0715849259587091,1
433,535,8,0.0797626525140573,1
433,536,8,0.114224346127366,1
433,537,8,0.131770458772711,1
433,538,8,0.0844049680443086,1
433,559,8,0.068165536883216,1
434,535,8,0.11204071360555,1
434,536,8,0.218165541675036,1
434,537,8,0.257156080513315,1
434,538,8,0.146441371407476,1
434,559,8,0.069916875334469,1
434,560,8,0.070769549812314,1
435,534,8,0.0840264202284587,1
435,535,8,0.147543645816243,1
435,536,8,0.27865223440665,1
435,537,8,0.309563476668819,3
435,538,8,0.170569516470828,1
435,558,8,0.0782198960117488,1
435,559,8,0.10151507295834,1
435,560,8,0.0950070442154678,1
436,531,8,0.112238328275727,1
436,532,8,0.105447588123492,1
436,534,8,0.0895056211885861,1
436,535,8,0.133449560532574,1
436,536,8,0.206454764066101,1
436,537,8,0.211290429546441,1
436,538,8,0.11719902432788,1
436,558,8,0.106768117968483,1
436,559,8,0.151294263481882,1
436,560,8,0.13479069520496,1
436,561,8,0.0875288635297238,1
437,531,8,0.109625612202965,1
437,532,8,0.10454331173053,1
437,535,8,0.0988327137669381,1
437,537,8,0.0988390988675203,1
437,558,8,0.105294669157391,1
437,559,8,0.152484515711804,1
437,560,8,0.137489723941314,1
437,561,8,0.0900135840918466,1
438,558,8,0.0739290545125147,1
438,559,8,0.103985723538035,1
438,560,8,0.101411701414392,1
438,561,8,0.0780899837729797,1
439,560,8,0.0677456476375176,1
443,538,8,0.101405124640997,1
443,539,8,0.0955977139375269,1
444,537,8,0.102872368044769,1
444,538,8,0.155099519878771,1
444,539,8,0.161542218141295,1
444,540,8,0.100066044461576,1
445,537,8,0.116102332389792,1
445,538,8,0.189495325962619,1
445,539,8,0.199285661781054,1
445,540,8,0.122543125903737,1
446,537,8,0.108672159753923,1
446,538,8,0.153338945193843,1
446,539,8,0.15892326072256,1
446,540,8,0.107964671442131,1
447,538,8,0.107891488366227,1
447,539,8,0.110150328508034,1
447,540,8,0.0947693938864806,1
447,541,8,0.0759067765252172,1
447,563,8,0.0789014605755858,1
447,564,8,0.0768543829534634,1
447,565,8,0.0684929200375525,1
448,539,8,0.103166609771787,1
448,540,8,0.099017384532464,1
448,541,8,0.087965913481959,1
448,542,8,0.0724767136699517,1
448,562,8,0.0703115176768335,1
448,563,8,0.0829376048450287,1
448,564,8,0.0798135536254529,1
448,565,8,0.0704517502986262,1
449,540,8,0.0961326248403366,1
449,541,8,0.0903818115246729,1
449,542,8,0.0783956899301238,1
449,562,8,0.0778136394948731,1
449,563,8,0.0868906709295978,1
449,564,8,0.0825383324062758,1
449,565,8,0.073055302015018,1
450,541,8,0.0879777552679356,1
450,542,8,0.0798754759235946,1
450,562,8,0.0839698647690803,1
450,563,8,0.0926932598638663,1
450,564,8,0.0926123799265663,1
450,565,8,0.085591554531682,1
450,566,8,0.0696595246341733,1
451,542,8,0.0798858502145969,1
451,543,8,0.0687269166035424,1
451,561,8,0.0709937530955159,1
451,562,8,0.0854192346830422,1
451,563,8,0.096291377847683,1
451,564,8,0.10537072732549,1
451,565,8,0.103890042865708,1
451,566,8,0.0820459848474974,1
452,543,8,0.0730495458408533,1
452,561,8,0.07378650384764,1
452,562,8,0.0829291832208086,1
452,563,8,0.0931264044825371,1
452,564,8,0.106314128931401,1
452,565,8,0.109332185085402,1
452,566,8,0.0924803532970791,1
452,567,8,0.0816978051929532,1
453,560,8,0.0681174928946888,1
453,561,8,0.0786919861501059,1
453,562,8,0.0845825888441823,1
453,563,8,0.0892437182589822,1
453,564,8,0.0936435616910449,1
453,565,8,0.0944314447683289,1
453,566,8,0.0926906603013403,1
453,567,8,0.0983843850676145,1
453,568,8,0.0825084434270026,1
454,559,8,0.0704728822262567,1
454,560,8,0.0771383042974578,1
454,561,8,0.0833592371153702,1
454,562,8,0.0859233281913907,1
454,563,8,0.0843459507872386,1
454,564,8,0.0798898034663645,1
454,565,8,0.0767077352822114,1
454,566,8,0.0817083711567684,1
454,567,8,0.0939039372279204,1
454,568,8,0.0827814753593099,1
455,557,8,0.0707146056025197,1
455,558,8,0.0767980970339782,1
455,559,8,0.0819041289965698,1
455,560,8,0.083673640426403,1
455,561,8,0.0841012504925991,1
455,562,8,0.0824474555338241,1
455,563,8,0.0770637076345582,1
455,564,8,0.0709922796107662,1
455,567,8,0.0718371853499102,1
455,568,8,0.0683698002040932,1
456,549,8,0.0699709450370542,1
456,550,8,0.0679524446333912,1
456,557,8,0.0763160518888972,1
456,558,8,0.0828459253426727,1
456,559,8,0.0865935720797114,1
456,560,8,0.0844098077828362,1
456,561,8,0.0807460119116986,1
456,562,8,0.0760419058583645,1
456,563,8,0.0693264991114048,1
457,557,8,0.0793940537151558,1
457,558,8,0.0844650874200533,1
457,559,8,0.0874307629881332,1
457,560,8,0.0845414390871467,1
457,561,8,0.0787175385319856,1
457,562,8,0.0722371106741823,1
458,561,8,0.0799682455650745,1
458,562,8,0.07331909771365,1
459,560,8,0.0861628652996306,1
459,561,8,0.0870180854320229,1
459,562,8,0.080748557566246,1
460,560,8,0.0888283632732656,1
460,561,8,0.0921374326653408,1
460,562,8,0.0861618170889347,1
460,563,8,0.0681575225637235,1
461,560,8,0.0815506244316901,1
461,561,8,0.0792332402250699,1
461,562,8,0.0741033449972629,1
423,538,9,0.0688003991682167,1
424,530,9,0.113408574655794,1
424,531,9,0.115609325955719,1
424,532,9,0.104169166399603,1
424,533,9,0.091710876799616,1
424,537,9,0.0697572657892396,1
424,538,9,0.0677871927197299,1
425,530,9,0.120495437324524,1
425,531,9,0.1369407131072,1
425,532,9,0.132842880140857,1
425,533,9,0.10955389063226,1
425,534,9,0.0922811752955211,1
425,535,9,0.0823836764053067,1
425,536,9,0.0742433260484886,1
425,537,9,0.0701044990592698,1
425,538,9,0.0688918630386581,1
426,530,9,0.127886664440706,1
426,531,9,0.160797820833455,1
426,532,9,0.164875995356918,1
426,533,9,0.130534444658692,1
426,534,9,0.100536439493493,1
426,535,9,0.0860739171348595,1
426,536,9,0.0772423886246786,1
426,537,9,0.0727953397726454,1
426,538,9,0.0717122925429309,1
427,529,9,0.0951939970854232,1
427,530,9,0.130730753557831,1
427,531,9,0.162820747681142,1
427,532,9,0.165138814722159,1
427,533,9,0.132906946778593,1
427,534,9,0.104412818483546,1
427,535,9,0.0917505470821264,1
427,536,9,0.0843234172521632,1
427,537,9,0.077673622504995,1
427,538,9,0.0704349489786139,1
428,529,9,0.0947870397648251,1
428,530,9,0.124792538139056,1
428,531,9,0.141492283540059,1
428,532,9,0.13425592805676,1
428,533,9,0.113814274123557,1
428,534,9,0.100350397069399,1
428,535,9,0.095835376246065,1
428,536,9,0.0915069429163862,1
428,537,9,0.0839944707664459,1
428,538,9,0.0700736577057071,1
429,530,9,0.112672610951725,1
429,531,9,0.119062203865504,1
429,532,9,0.107471904599074,1
429,533,9,0.0966612943971737,1
429,534,9,0.0944226637575845,1
429,535,9,0.09371882920879,1
429,536,9,0.0884686473112904,1
429,537,9,0.0811767845793088,1
429,538,9,0.0680772416039641,1
430,531,9,0.104679782773368,1
430,532,9,0.0932066435138687,1
430,534,9,0.0890231268103497,1
430,535,9,0.0904375344052699,1
430,536,9,0.0833841246321799,1
430,537,9,0.0750835717423672,1
431,535,9,0.0892845864965737,1
431,536,9,0.0828492257089211,1
431,537,9,0.0723021596350856,1
432,536,9,0.0792764324955187,1
432,537,9,0.0717290219856383,1
433,536,9,0.11375035124043,1
433,537,9,0.138975080425912,1
434,535,9,0.113110631247575,1
434,536,9,0.247398305113984,1
434,537,9,0.319073419120973,3
434,538,9,0.175421534038025,1
434,559,9,0.0738967396742022,1
435,535,9,0.153187954935422,1
435,536,9,0.329991174425327,3
435,537,9,0.403643058070729,3
435,538,9,0.21800604593554,3
435,558,9,0.0978396090047121,1
435,559,9,0.136553510065889,1
435,560,9,0.11900570830388,1
436,535,9,0.12975826560255,1
436,536,9,0.220103066304993,1
436,537,9,0.249002630517685,3
436,538,9,0.133306776266459,1
436,558,9,0.152358371041765,1
436,559,9,0.229748880822445,1
436,560,9,0.192575496087575,1
436,561,9,0.102488543236786,1
437,536,9,0.107348383450663,1
437,537,9,0.099636727309389,1
437,558,9,0.150060657257576,1
437,559,9,0.228934774508436,1
437,560,9,0.195765806202686,1
437,561,9,0.106699175653566,1
438,537,9,0.0779145672104552,1
438,558,9,0.0922310708242544,1
438,559,9,0.138220704152246,1
438,560,9,0.13269550770678,1
438,561,9,0.0912413502851325,1
439,559,9,0.073693686287957,1
439,560,9,0.0872081769442907,1
439,561,9,0.0792690111637913,1
440,560,9,0.0678382914937139,1
443,539,9,0.118398536750578,1
443,540,9,0.0761728663078296,1
444,537,9,0.106118335152947,1
444,538,9,0.192540108494479,1
444,539,9,0.231417656209509,1
444,540,9,0.13321933752509,1
445,537,9,0.12110135102499,1
445,538,9,0.235447744816017,1
445,539,9,0.283866573488123,1
445,540,9,0.164829598556627,1
446,538,9,0.161948253036481,1
446,539,9,0.190589478235935,1
446,540,9,0.123037102681426,1
447,539,9,0.108650476766955,1
447,540,9,0.0971418840268311,1
447,541,9,0.0817466278522831,1
447,542,9,0.0698791876676179,1
447,562,9,0.0712983032260068,1
447,563,9,0.0811390849329068,1
447,564,9,0.0754797893956633,1
448,540,9,0.0978431669313029,1
448,541,9,0.0898201083564746,1
448,562,9,0.0769361314081972,1
448,563,9,0.086937546911921,1
448,564,9,0.0797599571151248,1
449,541,9,0.0891890495788565,1
449,542,9,0.0812884459724175,1
449,562,9,0.0875269468015941,1
449,563,9,0.0943586630073771,1
449,564,9,0.0862844457608107,1
449,565,9,0.0718474039067519,1
450,561,9,0.073981944229345,1
450,562,9,0.0919181589672975,1
450,563,9,0.0992997545246284,1
450,564,9,0.0992176526731457,1
450,565,9,0.0885624891225679,1
450,566,9,0.0689813323138895,1
451,561,9,0.077586980403755,1
451,562,9,0.0892737090644373,1
451,563,9,0.100823589326431,1
451,564,9,0.11572116704209,1
451,565,9,0.113457786650525,1
451,566,9,0.0843869328305628,1
452,561,9,0.0790946068733104,1
452,562,9,0.0850993806763904,1
452,563,9,0.0968923320141132,1
452,564,9,0.116925315550952,1
452,565,9,0.120558246109425,1
452,566,9,0.095725571683332,1
452,567,9,0.083523195237544,1
452,568,9,0.0692181021458921,1
453,560,9,0.0744882958830213,1
453,561,9,0.0830253550547188,1
453,562,9,0.0860324079912996,1
453,563,9,0.0902455321546478,1
453,564,9,0.0976068702915573,1
453,565,9,0.0987332295872288,1
453,566,9,0.0920566006462441,1
453,567,9,0.0986374890171478,1
453,568,9,0.0836573063088723,1
454,557,9,0.0700869550071072,1
454,558,9,0.0721928282646097,1
454,559,9,0.0784469324587175,1
454,560,9,0.0839670615541905,1
454,561,9,0.0862960120171187,1
454,562,9,0.0862938796570743,1
454,563,9,0.0845788991425325,1
454,564,9,0.080959481517374,1
454,565,9,0.0771086010012221,1
454,566,9,0.0788012516330524,1
454,567,9,0.0918651794038362,1
454,568,9,0.0811669912965209,1
455,556,9,0.0744574066112553,1
455,557,9,0.0792221531507944,1
455,558,9,0.0815502949940428,1
455,559,9,0.0870650512609771,1
455,560,9,0.088575564802278,1
455,561,9,0.0848619759281948,1
455,562,9,0.08102508752739,1
455,563,9,0.0770070683183241,1
455,564,9,0.0725865242224601,1
455,567,9,0.0685365855002584,1
456,556,9,0.0748534805099417,1
456,557,9,0.080987771226614,1
456,558,9,0.0845532030060431,1
456,559,9,0.0882629524340914,1
456,560,9,0.0864948725605801,1
456,561,9,0.0801841829582169,1
456,562,9,0.0732949349596644,1
457,556,9,0.0767193794055996,1
457,557,9,0.0824555057919691,1
457,558,9,0.0857906366968334,1
457,559,9,0.0870564020252916,1
457,560,9,0.0838744656161974,1
457,561,9,0.0769841154989703,1
457,562,9,0.0698892385107482,1
458,561,9,0.0772121162997794,1
458,562,9,0.0715161693268297,1
459,560,9,0.081388019998758,1
459,561,9,0.0837402227698101,1
459,562,9,0.0798256649513228,1
460,560,9,0.0828246975786357,1
460,561,9,0.0896745328550202,1
460,562,9,0.0856557769035794,1
460,563,9,0.0680630817749056,1
461,560,9,0.0775712812024172,1
461,561,9,0.0790683836365853,1
461,562,9,0.0741835361103913,1
462,561,9,0.0690124312277947,1
424,538,10,0.0726349755157149,1
425,531,10,0.11990670229992,1
425,532,10,0.119189306899608,1
425,533,10,0.105515032994558,1
425,534,10,0.0914237748848813,1
425,535,10,0.0825982181807797,1
425,536,10,0.076721733387334,1
425,537,10,0.0744238518894339,1
425,538,10,0.0749346180075841,1
425,539,10,0.0718592576722794,1
426,531,10,0.133920512613604,1
426,532,10,0.143787182129807,1
426,533,10,0.125451641045123,1
426,534,10,0.100887176782135,1
426,535,10,0.0887575940768501,1
426,536,10,0.0822674687726653,1
426,537,10,0.078576599116695,1
426,538,10,0.0786341249196891,1
426,539,10,0.0762626590309329,1
426,540,10,0.069633816518133,1
426,541,10,0.0702172206426253,1
427,530,10,0.119214991056547,1
427,531,10,0.148858868720224,1
427,532,10,0.154819833305988,1
427,533,10,0.130501225364293,1
427,534,10,0.104872102482086,1
427,535,10,0.0998633444720794,1
427,536,10,0.0972329945005237,1
427,537,10,0.0857405561846683,1
427,538,10,0.0762196284844201,1
427,539,10,0.0709554424920226,1
428,529,10,0.091738441746032,1
428,530,10,0.120418300996852,1
428,531,10,0.144086311513556,1
428,532,10,0.138671099324085,1
428,533,10,0.11495490705402,1
428,534,10,0.100606627681694,1
428,535,10,0.107294092126388,1
428,536,10,0.109661922221473,1
428,537,10,0.0932141786513287,1
428,538,10,0.0744248701512528,1
429,530,10,0.108141262000635,1
429,531,10,0.123613798257464,1
429,532,10,0.115132252324225,1
429,533,10,0.0980684603536287,1
429,534,10,0.0920668791008398,1
429,535,10,0.100541291211572,1
429,536,10,0.103544828149989,1
429,537,10,0.0888070875910254,1
429,538,10,0.0710534292278806,1
430,531,10,0.0998761925403241,1
430,532,10,0.0944267547741864,1
430,534,10,0.0860782896709054,1
430,535,10,0.0955362887907439,1
430,536,10,0.098131293097632,1
430,537,10,0.0853347548907235,1
430,538,10,0.0693158133520815,1
431,535,10,0.0953379912861706,1
431,536,10,0.0964887289677422,1
431,537,10,0.0820681410267223,1
432,536,10,0.0841335773104624,1
432,537,10,0.0736374542764505,1
433,536,10,0.110269465140849,1
433,537,10,0.137259165506407,1
433,538,10,0.0881348550972701,1
434,535,10,0.109301445558021,1
434,536,10,0.244371983069924,1
434,537,10,0.329742215400374,3
434,538,10,0.18639367650306,1
434,559,10,0.0737217004675283,1
434,560,10,0.074057595092716,1
435,535,10,0.149223430410502,1
435,536,10,0.335061878692577,3
435,537,10,0.431740279888308,3
435,538,10,0.241727856614935,3
435,539,10,0.0751828582594882,1
435,558,10,0.107732411911009,1
435,559,10,0.160917041323125,1
435,560,10,0.135438501394611,1
435,561,10,0.0804132978572513,1
436,535,10,0.121898889620227,1
436,536,10,0.212189255243785,1
436,537,10,0.255453930097692,3
436,538,10,0.142510605256742,1
436,557,10,0.0738031973516951,1
436,558,10,0.182136922815658,1
436,559,10,0.289324624551294,1
436,560,10,0.235955893402315,1
436,561,10,0.113284825895917,1
437,536,10,0.10532123980109,1
437,537,10,0.102938291512881,1
437,557,10,0.0719270080218906,1
437,558,10,0.178739642001187,1
437,559,10,0.284384233837765,1
437,560,10,0.23758420186674,1
437,561,10,0.118126505110764,1
438,558,10,0.101435061538473,1
438,559,10,0.157725629089339,1
438,560,10,0.150682623556129,1
438,561,10,0.0983014686066767,1
439,559,10,0.0808697726511263,1
439,560,10,0.101456672648136,1
439,561,10,0.0902421718906453,1
440,560,10,0.0758995408765274,1
440,561,10,0.0724267709226209,1
443,539,10,0.129239814602555,1
444,537,10,0.107308299873649,1
444,538,10,0.207239041298591,1
444,539,10,0.267591203674598,1
444,540,10,0.150835698256391,1
445,537,10,0.121321403393836,1
445,538,10,0.249844529389576,1
445,539,10,0.32436270227232,1
445,540,10,0.186700017576397,1
446,538,10,0.154592293717885,1
446,539,10,0.196966947844294,1
446,540,10,0.126839316272408,1
447,539,10,0.103705497885466,1
447,562,10,0.0717988807361923,1
447,563,10,0.0772756318781789,1
447,564,10,0.0712130567424362,1
448,562,10,0.0782972958895382,1
448,563,10,0.0858272162552346,1
448,564,10,0.077574970904067,1
449,561,10,0.0712937809455757,1
449,562,10,0.0895008413478126,1
449,563,10,0.0959392748902481,1
449,564,10,0.086339491796787,1
449,565,10,0.0693179097734734,1
450,561,10,0.0788108352737011,1
450,562,10,0.0931030563380066,1
450,563,10,0.0995244010512104,1
450,564,10,0.099033634793139,1
450,565,10,0.0860041662002628,1
451,560,10,0.0679481619439763,1
451,561,10,0.0801136952812453,1
451,562,10,0.0877022555481612,1
451,563,10,0.0978725048512389,1
451,564,10,0.114817477647117,1
451,565,10,0.111086614260764,1
451,566,10,0.0831648030159334,1
452,560,10,0.0704942297858018,1
452,561,10,0.0803132027204506,1
452,562,10,0.0832560153158078,1
452,563,10,0.0934080497118774,1
452,564,10,0.115322954793584,1
452,565,10,0.117887405256129,1
452,566,10,0.093239826869615,1
452,567,10,0.0781978057200534,1
453,559,10,0.069634451434326,1
453,560,10,0.0760460987011484,1
453,561,10,0.0817512279997945,1
453,562,10,0.0827300651170048,1
453,563,10,0.0860720063965051,1
453,564,10,0.0951273189056096,1
453,565,10,0.094882307142649,1
453,566,10,0.0853097595579565,1
453,567,10,0.0861747909424629,1
453,568,10,0.0750620085509075,1
454,555,10,0.0677735060829284,1
454,556,10,0.0775136655527921,1
454,557,10,0.0782003873132532,1
454,558,10,0.0766651599586293,1
454,559,10,0.0817953067570033,1
454,560,10,0.0843666035328366,1
454,561,10,0.0839006469244947,1
454,562,10,0.0828474407558502,1
454,563,10,0.0834114320182534,1
454,564,10,0.08233157733883,1
454,565,10,0.0762454444164176,1
454,566,10,0.0727730218694846,1
454,567,10,0.0800457173201687,1
454,568,10,0.072495509585174,1
455,555,10,0.0726253259875367,1
455,556,10,0.0833707913921273,1
455,557,10,0.0844072501487381,1
455,558,10,0.0828321428694647,1
455,559,10,0.0873873251368927,1
455,560,10,0.087587719062858,1
455,561,10,0.0819385642153758,1
455,562,10,0.0776354197174589,1
455,563,10,0.077228360570679,1
455,564,10,0.0758862136262503,1
455,565,10,0.0686999326653408,1
456,555,10,0.073107922191955,1
456,556,10,0.0798711153670994,1
456,557,10,0.0827555935397828,1
456,558,10,0.0834128216461475,1
456,559,10,0.0860572416001306,1
456,560,10,0.0844113651244417,1
456,561,10,0.0774395420821494,1
456,562,10,0.0700050208693359,1
457,555,10,0.0761549269304902,1
457,556,10,0.0789115174084916,1
457,557,10,0.0822201435571867,1
457,558,10,0.0840211671954281,1
457,559,10,0.0836960122375424,1
457,560,10,0.0805328597641198,1
457,561,10,0.0736634019835069,1
459,561,10,0.0746772732970637,1
459,562,10,0.0723719045799069,1
460,560,10,0.0737884864632993,1
460,561,10,0.0804038400018861,1
460,562,10,0.0775965939932807,1
461,561,10,0.0753163224350727,1
461,562,10,0.0704817291245306,1
425,533,11,0.0979828484937584,1
425,534,11,0.0888848109166867,1
425,535,11,0.0806122602268946,1
425,538,11,0.0761381615491303,1
425,539,11,0.0751623492684999,1
425,540,11,0.0733593549941501,1
426,531,11,0.115621053935963,1
426,532,11,0.119070014532633,1
426,533,11,0.112502824778081,1
426,534,11,0.0968560998626856,1
426,535,11,0.0870402775499001,1
426,536,11,0.0830402755852538,1
426,537,11,0.0793673453066228,1
426,538,11,0.0799307855096887,1
426,539,11,0.0790890962799374,1
426,540,11,0.0770475532102896,1
426,541,11,0.0856418087473338,1
427,530,11,0.11278526664755,1
427,531,11,0.13277483629225,1
427,532,11,0.1348585114421,1
427,533,11,0.118502758842634,1
427,534,11,0.10033630312787,1
427,535,11,0.0999669376377169,1
427,536,11,0.101794567858309,1
427,537,11,0.086897690946373,1
427,538,11,0.0781983687589415,1
427,539,11,0.074855996215612,1
427,540,11,0.0709448885077582,1
428,530,11,0.112479991754236,1
428,531,11,0.137051847400073,1
428,532,11,0.133394706169411,1
428,533,11,0.111171716989725,1
428,534,11,0.0987030171600836,1
428,535,11,0.109794571787602,1
428,536,11,0.116822243495775,1
428,537,11,0.0940539271938487,1
428,538,11,0.075866782794835,1
428,539,11,0.0688139480401838,1
429,531,11,0.119336379844914,1
429,532,11,0.115049198098452,1
429,533,11,0.0976815747704143,1
429,534,11,0.0902006747266362,1
429,535,11,0.102530783132946,1
429,536,11,0.112690220891417,1
429,537,11,0.0918091450549181,1
429,538,11,0.0726147001259674,1
430,532,11,0.0928099466785402,1
430,534,11,0.0858795788718292,1
430,535,11,0.10076595570748,1
430,536,11,0.113325616266428,1
430,537,11,0.0953417768242268,1
430,538,11,0.0734253323702413,1
431,535,11,0.0953829146017116,1
431,536,11,0.105298610429608,1
431,537,11,0.0895919158828526,1
431,538,11,0.0712097024682092,1
432,536,11,0.0878735511452067,1
432,537,11,0.0784423143418799,1
433,536,11,0.105690174027414,1
433,537,11,0.127192760939534,1
433,538,11,0.0901919536136459,1
434,535,11,0.105950585502942,1
434,536,11,0.211235874672048,1
434,537,11,0.283899109948126,3
434,538,11,0.175503090819946,1
434,539,11,0.0742440328419865,1
434,559,11,0.0745408322031026,1
434,560,11,0.075621956714912,1
435,535,11,0.138004533157863,1
435,536,11,0.287578724816109,3
435,537,11,0.375211007807984,3
435,538,11,0.228299882274558,3
435,539,11,0.0878224523712227,1
435,558,11,0.111127248897115,1
435,559,11,0.16392142880965,1
435,560,11,0.136749315823894,1
435,561,11,0.0806404900383806,1
436,535,11,0.114185676137348,1
436,536,11,0.186558479183566,1
436,537,11,0.228395167621708,3
436,538,11,0.141914538747042,1
436,557,11,0.0803887397780889,1
436,558,11,0.184621074349117,1
436,559,11,0.293798483638042,1
436,560,11,0.238609938925375,1
436,561,11,0.115720352432635,1
437,536,11,0.104758967604228,1
437,537,11,0.105899408861878,1
437,557,11,0.0772110081913293,1
437,558,11,0.177259676314454,1
437,559,11,0.281508159319976,1
437,560,11,0.23442021082476,1
437,561,11,0.119035776976415,1
438,558,11,0.102046821259735,1
438,559,11,0.154839970930901,1
438,560,11,0.148074555549081,1
438,561,11,0.0998702387035711,1
439,559,11,0.0852897177694498,1
439,560,11,0.106846596005845,1
439,561,11,0.0951029764583618,1
440,560,11,0.0786576827063588,1
440,561,11,0.074214790758457,1
443,539,11,0.129866500844127,1
444,538,11,0.196844900180632,1
444,539,11,0.253633709229276,1
444,540,11,0.155738545057678,1
445,538,11,0.231292421985332,1
445,539,11,0.301577884139151,1
445,540,11,0.188547036699977,1
446,539,11,0.184641870849325,1
447,562,11,0.0701484999493984,1
447,563,11,0.0717426846633382,1
448,562,11,0.0756024659857426,1
448,563,11,0.0810469322382938,1
448,564,11,0.0725462369930829,1
449,561,11,0.0704399444513021,1
449,562,11,0.0841140027244374,1
449,563,11,0.0911202609855356,1
449,564,11,0.081977359990677,1
450,561,11,0.0774192427333003,1
450,562,11,0.0867109776674339,1
450,563,11,0.0931403666490072,1
450,564,11,0.0918669284182546,1
450,565,11,0.0800928568526097,1
451,553,11,0.0692181860027478,1
451,554,11,0.0682151501928995,1
451,560,11,0.0692049605786526,1
451,561,11,0.0780227605236041,1
451,562,11,0.0823575310356619,1
451,563,11,0.0906748373272836,1
451,564,11,0.103978763419014,1
451,565,11,0.100169847269352,1
451,566,11,0.0788962554607584,1
452,553,11,0.070013694064123,1
452,554,11,0.0684422105989699,1
452,556,11,0.0679024180292048,1
452,557,11,0.067956355956731,1
452,560,11,0.0716748744159729,1
452,561,11,0.0786781138302668,1
452,562,11,0.0802196484183926,1
452,563,11,0.0877110844771089,1
452,564,11,0.105477728673333,1
452,565,11,0.10658150052595,1
452,566,11,0.0868114741191868,1
452,567,11,0.0698180440402789,1
453,555,11,0.0688557746418402,1
453,556,11,0.0732076220035789,1
453,557,11,0.0717711001578617,1
453,558,11,0.0682553475756456,1
453,559,11,0.0703630836532991,1
453,560,11,0.0754600470959269,1
453,561,11,0.0787224681171443,1
453,562,11,0.0790072100603693,1
453,563,11,0.0823144585607212,1
453,564,11,0.091952156932499,1
453,565,11,0.0891506910571599,1
453,566,11,0.0765152119211289,1
453,567,11,0.0698974205439521,1
454,554,11,0.0688777032095996,1
454,555,11,0.0765012617342096,1
454,556,11,0.0844745213163169,1
454,557,11,0.0819437992790802,1
454,558,11,0.0771612331577099,1
454,559,11,0.0800456454428639,1
454,560,11,0.0816695154837132,1
454,561,11,0.0800042021868335,1
454,562,11,0.0787496497179343,1
454,563,11,0.0826361394488717,1
454,564,11,0.0864609464726836,1
454,565,11,0.0777822710410747,1
455,554,11,0.073865137619163,1
455,555,11,0.0802725561045491,1
455,556,11,0.0882366034120828,1
455,557,11,0.0864846420241876,1
455,558,11,0.0820959994721331,1
455,559,11,0.0843332644429298,1
455,560,11,0.083851398991111,1
455,561,11,0.0782005130985367,1
455,562,11,0.0741801099588593,1
455,563,11,0.0767795526893229,1
455,564,11,0.0795053257728631,1
455,565,11,0.0703529549430885,1
456,554,11,0.0773235141427702,1
456,555,11,0.0783540010933017,1
456,556,11,0.0831876839579822,1
456,557,11,0.0837070933220425,1
456,558,11,0.081636200352908,1
456,559,11,0.0821819707185277,1
456,560,11,0.0803296266846124,1
456,561,11,0.074162805497713,1
457,554,11,0.0804420128405451,1
457,555,11,0.0786674879686975,1
457,556,11,0.0803067038141356,1
457,557,11,0.0813322372204069,1
457,558,11,0.0809866810874902,1
457,559,11,0.0798029277638836,1
457,560,11,0.0768641522771497,1
458,555,11,0.0786914231112178,1
460,561,11,0.0708510407067053,1
460,562,11,0.0681895738519182,1
426,533,12,0.0993100629281012,1
426,534,12,0.0924338666501573,1
426,535,12,0.0845313103769361,1
426,536,12,0.0813343935395528,1
426,537,12,0.076982013087803,1
426,538,12,0.0774937794984459,1
426,539,12,0.0782927616295563,1
426,540,12,0.077897280718635,1
427,531,12,0.115935636940258,1
427,532,12,0.111909070321688,1
427,533,12,0.104364397139168,1
427,534,12,0.0964432366235377,1
427,535,12,0.0984592392908566,1
427,536,12,0.099961103596472,1
427,537,12,0.0847356575546689,1
427,538,12,0.0779521650306753,1
427,539,12,0.077300142039138,1
427,540,12,0.0756765355484066,1
428,531,12,0.120100411636533,1
428,532,12,0.118297644973649,1
428,533,12,0.104194479190466,1
428,534,12,0.0971634172694138,1
428,535,12,0.109685677670731,1
428,536,12,0.116153640805915,1
428,537,12,0.0927396327050554,1
428,538,12,0.0766528330008449,1
428,539,12,0.0734756464836472,1
428,540,12,0.070119599283067,1
429,532,12,0.1071170104063,1
429,533,12,0.0952574228171917,1
429,534,12,0.0896843321275836,1
429,535,12,0.104221648811705,1
429,536,12,0.116823633123669,1
429,537,12,0.0948204267729352,1
429,538,12,0.0749323718418071,1
429,539,12,0.0691570184163072,1
430,534,12,0.0866720201681967,1
430,535,12,0.10368591131989,1
430,536,12,0.120940717228166,1
430,537,12,0.102207311301949,1
430,538,12,0.0771414728886473,1
431,535,12,0.0902811293898824,1
431,536,12,0.103364104646456,1
431,537,12,0.0916106918161842,1
431,538,12,0.0743836844555649,1
432,536,12,0.0874330450925626,1
432,537,12,0.0825698506044594,1
433,537,12,0.112981311996571,1
434,536,12,0.166310055404943,1
434,537,12,0.214013932505102,1
434,538,12,0.14838875520775,1
434,559,12,0.0721260123199617,1
435,536,12,0.216346926066429,1
435,537,12,0.279251020274383,3
435,538,12,0.188986015359893,1
435,539,12,0.0900948353952217,1
435,558,12,0.101874267809854,1
435,559,12,0.143919316575252,1
435,560,12,0.122421210015134,1
436,536,12,0.152370721958651,1
436,537,12,0.18568340893548,1
436,538,12,0.130486119150721,1
436,557,12,0.0773085636633581,1
436,558,12,0.158747928016892,1
436,559,12,0.245929684061869,1
436,560,12,0.203467016175652,1
436,561,12,0.104500448897728,1
437,537,12,0.102848229249885,1
437,558,12,0.147742710012068,1
437,559,12,0.227956332716402,1
437,560,12,0.193227746690577,1
437,561,12,0.104602957914017,1
438,558,12,0.0921740960805977,1
438,559,12,0.132494167396301,1
438,560,12,0.126636742068196,1
438,561,12,0.0887951859072948,1
439,559,12,0.0823964046780433,1
439,560,12,0.0967954473969299,1
439,561,12,0.0846504410199754,1
440,560,12,0.0733119459218159,1
440,561,12,0.0680865257558426,1
443,543,12,0.0687313729964441,1
444,539,12,0.197818358479529,1
445,539,12,0.230154963635834,1
448,555,12,0.0736702542865708,1
448,562,12,0.070804368376746,1
448,563,12,0.0729886657636322,1
449,555,12,0.0746275821203,1
449,556,12,0.0758549410088584,1
449,557,12,0.0723354987249925,1
449,558,12,0.0691172223485133,1
449,561,12,0.0681549828989516,1
449,562,12,0.0766108746241296,1
449,563,12,0.0813071760001104,1
449,564,12,0.0735636063354765,1
450,553,12,0.0697848487049818,1
450,554,12,0.0730703663001627,1
450,555,12,0.074698165633678,1
450,556,12,0.0734879794312071,1
450,557,12,0.0720060131594887,1
450,558,12,0.0698350550024304,1
450,561,12,0.0730874790884961,1
450,562,12,0.0782112587556141,1
450,563,12,0.0827910170715308,1
450,564,12,0.0812205518681966,1
450,565,12,0.0723817397911226,1
451,552,12,0.0767275674285789,1
451,553,12,0.0816326064876647,1
451,554,12,0.0791583919916032,1
451,555,12,0.0751719748375765,1
451,556,12,0.0744663014277324,1
451,557,12,0.0735854270872786,1
451,558,12,0.0697597814949099,1
451,560,12,0.0683564789435915,1
451,561,12,0.0736228392244611,1
451,562,12,0.0757435910840708,1
451,563,12,0.0806087861571594,1
451,564,12,0.0887690285580991,1
451,565,12,0.0869871901704815,1
451,566,12,0.0738504027716655,1
452,551,12,0.067792631435798,1
452,552,12,0.0782785838311715,1
452,553,12,0.082571455864268,1
452,554,12,0.0784403616750977,1
452,555,12,0.0734935079939063,1
452,556,12,0.0740111084457942,1
452,557,12,0.0728550937720903,1
452,558,12,0.068322229407823,1
452,560,12,0.0705314622297222,1
452,561,12,0.0748519231683363,1
452,562,12,0.075783051724442,1
452,563,12,0.0798105587377502,1
452,564,12,0.0918970989169719,1
452,565,12,0.0936592549026072,1
452,566,12,0.0800126956883584,1
453,552,12,0.0730717559280568,1
453,553,12,0.074744891871616,1
453,554,12,0.0746563989297757,1
453,555,12,0.075409098066328,1
453,556,12,0.0774853099560226,1
453,557,12,0.0745386698941813,1
453,558,12,0.0695813999935598,1
453,559,12,0.0697920424252438,1
453,560,12,0.0729914749682973,1
453,561,12,0.0745286849385804,1
453,562,12,0.0748330314167074,1
453,563,12,0.0780061089479769,1
453,564,12,0.0870460457036156,1
453,565,12,0.0833992548048541,1
453,566,12,0.069644082993178,1
454,553,12,0.0720402626952571,1
454,554,12,0.075437196102755,1
454,555,12,0.082103546589144,1
454,556,12,0.0857088403238964,1
454,557,12,0.0815243053585585,1
454,558,12,0.075572822587261,1
454,559,12,0.0763219637972224,1
454,560,12,0.0771244858855974,1
454,561,12,0.0751044700687569,1
454,562,12,0.0742782584186533,1
454,563,12,0.0806976504650749,1
454,564,12,0.0897583477822689,1
454,565,12,0.0807245804952979,1
455,553,12,0.076569383449896,1
455,554,12,0.0787418210814793,1
455,555,12,0.0844789238012399,1
455,556,12,0.0878165284833467,1
455,557,12,0.0849168961788875,1
455,558,12,0.0797308887350821,1
455,559,12,0.0797466957523771,1
455,560,12,0.0782427290355944,1
455,561,12,0.0732587327571137,1
455,562,12,0.070018539792426,1
455,563,12,0.0749044055804389,1
455,564,12,0.0830313807687767,1
455,565,12,0.0747296179443321,1
456,553,12,0.0803958017232919,1
456,554,12,0.0794224632199039,1
456,555,12,0.0811338318998763,1
456,556,12,0.0836439251506165,1
456,557,12,0.0831034557362306,1
456,558,12,0.0797364472466584,1
456,559,12,0.078602894230725,1
456,560,12,0.0756170930172828,1
456,561,12,0.0700310763923497,1
456,564,12,0.0679347688061697,1
457,554,12,0.0799803568909443,1
457,555,12,0.0790613755993609,1
457,556,12,0.0801524790769957,1
457,557,12,0.0798588662763953,1
457,558,12,0.077733747870515,1
457,559,12,0.0762474749502801,1
457,560,12,0.0729086124153381,1
458,555,12,0.0768909804811908,1
458,556,12,0.0756653466479492,1
426,535,13,0.0828439307474626,1
426,536,13,0.0801436741071497,1
427,534,13,0.0929986904913418,1
427,535,13,0.0938117545844303,1
427,536,13,0.0933319376358002,1
427,537,13,0.0823470968469056,1
427,538,13,0.0770137349383504,1
427,539,13,0.0771132251078351,1
428,532,13,0.0992633247106124,1
428,534,13,0.0935475396015199,1
428,535,13,0.102779873932957,1
428,536,13,0.107979226596366,1
428,537,13,0.0908483731003308,1
428,538,13,0.0779265228021645,1
428,539,13,0.0759826070818504,1
429,534,13,0.0869343184229774,1
429,535,13,0.100592132425213,1
429,536,13,0.113487004774953,1
429,537,13,0.0966684821276602,1
429,538,13,0.0780748056821022,1
429,539,13,0.0729110502539281,1
430,534,13,0.0829046790496249,1
430,535,13,0.0973752037482002,1
430,536,13,0.113920772330266,1
430,537,13,0.101160142826913,1
430,538,13,0.0800074007269,1
430,539,13,0.0711339497786562,1
431,535,13,0.0818453094020882,1
431,536,13,0.0929887175152917,1
431,537,13,0.0882937159205738,1
431,538,13,0.0767520296713348,1
434,537,13,0.146142409737439,1
435,537,13,0.186353221559971,1
435,538,13,0.142941006558277,1
435,559,13,0.113185072176314,1
436,537,13,0.142345826535338,1
436,558,13,0.119630166349001,1
436,559,13,0.171289487474565,1
436,560,13,0.147136101497655,1
437,559,13,0.15474954928138,1
437,560,13,0.136350911902575,1
438,559,13,0.103946730100145,1
438,560,13,0.0998535451995161,1
439,559,13,0.0767926523281347,1
439,560,13,0.0825616206530523,1
439,561,13,0.0716912265028299,1
449,554,13,0.0802418345464945,1
449,555,13,0.0850499051315412,1
449,562,13,0.0691874045469391,1
449,563,13,0.0707465969929602,1
450,553,13,0.0784556775308095,1
450,554,13,0.083454857889943,1
450,555,13,0.0839331833844972,1
450,556,13,0.0802542094224822,1
450,557,13,0.07709121268322,1
450,558,13,0.0732927786405184,1
450,561,13,0.0683023373637015,1
450,562,13,0.0701463496200278,1
450,563,13,0.0727110097247118,1
450,564,13,0.0715649859963843,1
451,552,13,0.0834302099641495,1
451,553,13,0.0887501907144489,1
451,554,13,0.08763162411658,1
451,555,13,0.0834771458442267,1
451,556,13,0.0809582715827421,1
451,557,13,0.0786496863561925,1
451,558,13,0.0732240519575161,1
451,561,13,0.0700989944556722,1
451,562,13,0.0702626231401987,1
451,563,13,0.0725137963694869,1
451,564,13,0.0763579084394306,1
451,565,13,0.0764141464407125,1
451,566,13,0.0692226004672216,1
452,552,13,0.0858993930488704,1
452,553,13,0.0906913451483011,1
452,554,13,0.0862082857665303,1
452,555,13,0.0810980968998073,1
452,556,13,0.0796148308468258,1
452,557,13,0.0764186747109191,1
452,558,13,0.0701607789889796,1
452,560,13,0.068634847765785,1
452,561,13,0.0722008485738776,1
452,562,13,0.0720141832131417,1
452,563,13,0.0742836432267428,1
452,564,13,0.0808051429745014,1
452,565,13,0.0829459545919439,1
452,566,13,0.0737661505908123,1
453,553,13,0.0829020135995694,1
453,554,13,0.0810488669357497,1
453,555,13,0.0806847544786269,1
453,556,13,0.0801941379649407,1
453,557,13,0.0756340081430278,1
453,558,13,0.0697340733788697,1
453,559,13,0.0681956774330564,1
453,560,13,0.0704127927993891,1
453,561,13,0.0719602812242679,1
453,562,13,0.0710963998766394,1
453,563,13,0.074369356912795,1
453,564,13,0.0817594579512016,1
453,565,13,0.0801147914101445,1
454,555,13,0.0839303801696074,1
454,556,13,0.0835242973562186,1
454,557,13,0.0785370426399173,1
454,558,13,0.0730078330449296,1
454,559,13,0.0721166562907784,1
454,560,13,0.0724868184210607,1
454,561,13,0.0712903607838191,1
454,562,13,0.0691948198888911,1
454,563,13,0.0756385364132343,1
454,564,13,0.0886758156732393,1
454,565,13,0.086144848055211,1
454,566,13,0.0678277434992249,1
455,554,13,0.0807256826139725,1
455,555,13,0.0852326352098357,1
455,556,13,0.0847494939358555,1
455,557,13,0.0810986479591446,1
455,558,13,0.0767034046745932,1
455,559,13,0.0751320709538253,1
455,560,13,0.0728198319642783,1
455,561,13,0.0692456012047786,1
455,563,13,0.0709382099081811,1
455,564,13,0.085173474198156,1
455,565,13,0.0851001533574177,1
456,554,13,0.0795260743548677,1
456,555,13,0.0818143362734665,1
456,556,13,0.0819773779600032,1
456,557,13,0.0805768247155959,1
456,558,13,0.0775103232581158,1
456,559,13,0.0758012426723484,1
456,560,13,0.0717386176058379,1
456,564,13,0.069454668325531,1
457,554,13,0.0785519811397785,1
457,555,13,0.078244052775959,1
457,556,13,0.0783797870764222,1
458,555,13,0.0747596566679905,1
