x,y,z,signal,cytoplasm.p
132,761,1,0.0683633911444094,1
150,748,1,0.0724161091223992,1
150,749,1,0.0771149621427027,1
151,745,1,0.074970041539332,1
151,746,1,0.0781418731973172,1
151,747,1,0.0842198600251781,1
151,748,1,0.0977418498803195,1
152,744,1,0.0749550251723905,1
152,745,1,0.0883667492520927,1
152,746,1,0.0942153995592292,1
153,744,1,0.0740780322063994,1
150,748,2,0.0686054319787688,1
151,745,2,0.0715298140352034,1
151,746,2,0.0738391599632295,1
151,747,2,0.0768460152372219,1
152,744,2,0.0745364177386288,1
152,745,2,0.0844050339318381,1
152,746,2,0.0889792157668523,1
151,746,3,0.0691041227097016,1
152,743,3,0.0685889900452808,1
152,744,3,0.0733068126842934,1
132,727,4,0.0680605121612566,1
150,742,4,0.0720799269879921,1
151,741,4,0.0697239207095574,1
151,742,4,0.073555651913738,1
151,743,4,0.0682388277750773,1
152,742,4,0.0719881097208017,1
152,743,4,0.0719801433195124,1
149,742,5,0.0876053349923254,1
149,743,5,0.0868543429417637,1
150,741,5,0.081808064978617,1
150,742,5,0.109977822976357,1
150,743,5,0.104292807343522,1
150,744,5,0.0777020919074972,1
151,741,5,0.0836271178408288,1
151,742,5,0.107196147318957,1
151,743,5,0.100453103748277,1
151,744,5,0.0783591223512734,1
152,741,5,0.072870128108358,1
152,742,5,0.0879630863079676,1
148,743,6,0.069245607194554,1
149,741,6,0.0725172884085483,1
149,742,6,0.122691025438049,1
149,743,6,0.136373553253608,1
149,744,6,0.0920990441947672,1
150,741,6,0.0997521622610032,1
150,742,6,0.188269458528137,1
150,743,6,0.205172472947299,1
150,744,6,0.12947758472705,1
151,741,6,0.100456368175873,1
151,742,6,0.176646766556314,1
151,743,6,0.188822326777612,2
151,744,6,0.12249486029352,1
147,749,7,0.0694606700804872,1
147,750,7,0.0685070798666111,1
148,742,7,0.0701760289571619,1
148,743,7,0.0800372238186438,1
149,741,7,0.0751982759413819,1
149,742,7,0.142578181902866,1
149,743,7,0.184684937334491,1
149,744,7,0.120751440325353,1
150,741,7,0.106964798233697,1
150,742,7,0.252195013095087,1
150,743,7,0.336651684880695,2
150,744,7,0.21978201434326,2
151,742,7,0.245382458180826,2
151,743,7,0.332282095804205,2
151,744,7,0.22802440052411,2
152,743,7,0.198268993242383,2
140,759,8,0.0694230063727377,1
142,755,8,0.0678663535914885,1
142,756,8,0.0756633161140867,1
142,757,8,0.0698156301607905,1
143,755,8,0.0714804223472099,1
143,756,8,0.0776189837737463,1
144,755,8,0.0715957614624176,1
145,750,8,0.0679513065760642,1
146,735,8,0.0735620609734219,1
146,749,8,0.076805111060978,1
146,750,8,0.0819588515846741,1
147,734,8,0.0909666052770592,1
147,735,8,0.105173735591955,1
147,736,8,0.0846666253931209,1
147,747,8,0.0691147964894741,1
147,748,8,0.0799312467223949,1
147,749,8,0.0849942960566769,1
148,733,8,0.0716178038359097,1
148,734,8,0.102748367714325,1
148,735,8,0.115478916565591,1
148,736,8,0.0944897851807781,1
148,743,8,0.0781893661265071,1
148,747,8,0.072058387755634,1
148,748,8,0.07847503648492,1
149,734,8,0.085752487817276,1
149,735,8,0.0946315751441763,1
149,736,8,0.083818485175258,1
149,742,8,0.125605039193257,1
149,743,8,0.190399063275796,2
149,744,8,0.133798908193323,2
150,742,8,0.247756373887723,2
150,743,8,0.417918082489845,2
150,744,8,0.319460310693963,2
150,745,8,0.150600084451041,2
151,742,8,0.271622801704508,2
151,743,8,0.492471666924786,2
151,744,8,0.414529738420279,2
151,745,8,0.207720930709511,2
152,743,8,0.31334956578441,2
152,744,8,0.289342809509425,2
152,745,8,0.166327797119694,1
134,763,9,0.0693704460935547,1
139,758,9,0.0711958840563487,1
139,759,9,0.0737027967363487,1
140,728,9,0.067927431331298,1
140,758,9,0.079334197889529,1
140,759,9,0.0806352789337778,1
141,728,9,0.0724197209569687,1
141,729,9,0.0751709146473297,1
141,756,9,0.073108365435335,1
141,757,9,0.0695987823217865,1
141,759,9,0.0750563661824756,1
142,729,9,0.0716865185393612,1
142,755,9,0.0852077956112293,1
142,756,9,0.0920876336726198,1
143,755,9,0.0887395768324304,1
143,756,9,0.0945052867195275,1
144,749,9,0.0677616163787485,1
144,750,9,0.0801436741071497,1
144,751,9,0.070385108057465,1
144,754,9,0.0695348534488839,1
145,745,9,0.070424712452446,1
145,746,9,0.0726126216739017,1
145,749,9,0.0780365609661383,1
145,750,9,0.0946050464289055,1
145,751,9,0.0845284652336185,1
146,734,9,0.0837627443253347,1
146,735,9,0.113364849295334,1
146,736,9,0.0859206028435812,1
146,748,9,0.0700504113873585,1
146,749,9,0.082998221372132,1
146,750,9,0.0929741324121793,1
147,733,9,0.0710555376288233,1
147,734,9,0.150582127104376,1
147,735,9,0.210132558042361,3
147,736,9,0.149508819249471,1
147,744,9,0.0678818970586657,1
147,747,9,0.0761878167872416,1
147,748,9,0.0837524419116373,1
147,749,9,0.0879850328450532,1
148,733,9,0.0814843894952565,1
148,734,9,0.168790289625287,1
148,735,9,0.22998044553962,3
148,736,9,0.16471131247192,1
148,737,9,0.0759379952346305,1
148,743,9,0.0812636902306667,1
148,744,9,0.0763166927948656,1
148,745,9,0.0686320685099969,1
148,747,9,0.0849639219055958,1
149,734,9,0.11593019822419,1
149,735,9,0.149201124486892,1
149,736,9,0.115646654236046,1
149,737,9,0.0733992648676768,1
149,742,9,0.100311014296108,1
149,743,9,0.157445367498118,2
149,744,9,0.130397829861244,2
150,742,9,0.195031064412799,2
150,743,9,0.382492705891102,2
150,744,9,0.349823344751922,2
150,745,9,0.184020108203136,2
151,742,9,0.254039073269616,2
151,743,9,0.545996539539035,2
151,744,9,0.546555074116043,2
151,745,9,0.292133254198018,2
151,746,9,0.109970707123175,1
152,742,9,0.175754313980002,2
152,743,9,0.387488969229613,2
152,744,9,0.41374134022231,2
152,745,9,0.236420699973779,2
152,746,9,0.0997041602009038,1
153,743,9,0.161565446490317,2
153,744,9,0.179868894358379,2
153,745,9,0.125910889105011,1
134,762,10,0.0687706898822056,1
134,763,10,0.0714266102049672,1
135,762,10,0.0678117088704644,1
135,763,10,0.0709890091933948,1
136,729,10,0.0729592320072897,1
137,729,10,0.0761076017150117,1
137,730,10,0.0690540002691086,1
138,729,10,0.0720460787671758,1
139,729,10,0.0683430079387046,1
139,758,10,0.0816285693790414,1
139,759,10,0.0858469405856448,1
140,728,10,0.0707036742624047,1
140,729,10,0.0763007540025117,1
140,757,10,0.0703111582903092,1
140,758,10,0.089903623794953,1
140,759,10,0.0925791426628414,1
140,760,10,0.073630829584852,1
141,728,10,0.0803938310871835,1
141,729,10,0.094276111922739,1
141,730,10,0.080641412463793,1
141,755,10,0.0789905584847421,1
141,756,10,0.0845317416407653,1
141,757,10,0.0785010440897305,1
141,759,10,0.082103636435775,1
142,728,10,0.0760304893464417,1
142,729,10,0.0938986542460128,1
142,730,10,0.0842050293412742,1
142,754,10,0.0717033557980259,1
142,755,10,0.0993325485449733,1
142,756,10,0.104623670557369,1
142,757,10,0.0862340238314475,1
143,729,10,0.075055958877748,1
143,730,10,0.0723675500131871,1
143,750,10,0.0812552206882434,1
143,751,10,0.0703720383675303,1
143,754,10,0.0767531377797848,1
143,755,10,0.10276985902848,1
143,756,10,0.106644680676927,1
143,757,10,0.0899080622185285,1
144,744,10,0.0695177406605505,1
144,745,10,0.0858843407432765,1
144,746,10,0.0933530515941045,1
144,747,10,0.0756881018047145,1
144,749,10,0.0894197397888226,1
144,750,10,0.117364965065713,1
144,751,10,0.0989006977177902,1
144,754,10,0.0774929169707875,1
144,756,10,0.101811135577081,1
145,731,10,0.0694054982592275,1
145,743,10,0.0682677883391627,1
145,744,10,0.0762036597431891,1
145,745,10,0.0912443152239582,1
145,746,10,0.100650640551374,1
145,747,10,0.0839475708250211,1
145,748,10,0.0679858316415013,1
145,749,10,0.089585524792495,1
145,750,10,0.117133005023361,1
145,751,10,0.103213006572077,1
146,731,10,0.0700138138596311,1
146,734,10,0.10739946425532,1
146,735,10,0.161130996100608,3
146,736,10,0.113767014795608,1
146,737,10,0.0687809084390473,1
146,742,10,0.0714666278944511,1
146,743,10,0.0828060873464509,1
146,744,10,0.0845988750435097,1
146,745,10,0.0806432333555163,1
146,746,10,0.0804466848653613,1
146,747,10,0.0749133842537717,1
146,748,10,0.0696532174006713,1
146,749,10,0.0801898373061996,1
146,750,10,0.0947505440632796,1
147,733,10,0.0916491102356349,1
147,734,10,0.23030779874508,3
147,735,10,0.350226264963897,3
147,736,10,0.237420273693443,3
147,737,10,0.104797865205711,1
147,738,10,0.0732537372844256,1
147,739,10,0.0699633859404925,1
147,742,10,0.0746757219452337,1
147,743,10,0.0903481370073434,1
147,744,10,0.0906620910852208,1
147,745,10,0.0763105712444012,1
147,746,10,0.072938363629777,1
147,747,10,0.0792573969892801,1
148,733,10,0.101862108565781,1
148,734,10,0.255383801807245,3
148,735,10,0.380919958583339,3
148,736,10,0.25753758128844,3
148,737,10,0.113606416937436,1
148,738,10,0.0766944619399129,1
148,739,10,0.0715962047057976,1
148,742,10,0.0724347373239102,1
148,743,10,0.0877827641193861,1
148,744,10,0.0873812994228348,1
149,734,10,0.15808386557679,1
149,735,10,0.221143106947296,3
149,736,10,0.159091980716182,1
149,738,10,0.0797650064957916,1
149,739,10,0.0707331679165012,1
149,743,10,0.127798351192128,2
149,744,10,0.124343772186128,2
150,742,10,0.156164645700472,2
150,743,10,0.315257668637574,2
150,744,10,0.329260853089689,2
150,745,10,0.183504843763657,2
151,742,10,0.23119356673204,2
151,743,10,0.512008110060063,2
151,744,10,0.561854445965901,2
151,745,10,0.306174030480577,2
151,746,10,0.116924357186887,1
152,742,10,0.178852537288029,2
152,743,10,0.394630626363752,2
152,744,10,0.44670408056085,2
152,745,10,0.252309944905567,2
152,746,10,0.105204139691913,1
153,743,10,0.169439808890705,2
153,744,10,0.192700862086811,2
153,745,10,0.129481597876572,1
154,744,10,0.0805768666440237,1
134,763,11,0.0710357593904345,1
135,729,11,0.07053017442801,1
135,730,11,0.0720574114222429,1
135,763,11,0.0722038614309066,1
136,729,11,0.0812661041101551,1
136,730,11,0.085333802516434,1
136,731,11,0.0681751624522926,1
137,729,11,0.085674872307572,1
137,730,11,0.0867252752613267,1
138,729,11,0.0778128368649688,1
138,730,11,0.0741904483112092,1
139,729,11,0.0721369077214243,1
139,758,11,0.0835517245378002,1
139,759,11,0.0885240287746894,1
139,760,11,0.0709702012986216,1
140,728,11,0.072241183721458,1
140,729,11,0.0825833455684479,1
140,730,11,0.0733081543939842,1
140,757,11,0.0756467963135184,1
140,758,11,0.0936143615359433,1
140,759,11,0.0964079149179717,1
140,760,11,0.0782619801737476,1
141,728,11,0.0845720288701424,1
141,729,11,0.107832501058034,1
141,730,11,0.0966138374066362,1
141,754,11,0.0689095268863288,1
141,755,11,0.0835550129244978,1
141,756,11,0.0881717281546662,1
141,758,11,0.0867317262494384,1
141,759,11,0.0866406217655213,1
141,760,11,0.0745352257733231,1
142,728,11,0.082699637057945,1
142,729,11,0.112244773274063,1
142,730,11,0.104572206407085,1
142,754,11,0.0784482741684083,1
142,755,11,0.100495050145441,1
142,756,11,0.103227394012601,1
142,757,11,0.0869658186518348,1
142,759,11,0.0737607178645195,1
143,729,11,0.0869461721885048,1
143,730,11,0.0890280444159576,1
143,731,11,0.0685266903912885,1
143,744,11,0.0767721313575955,1
143,745,11,0.0785924300930917,1
143,746,11,0.0765967986519268,1
143,749,11,0.0779808979832953,1
143,750,11,0.101347071737767,1
143,751,11,0.0909197832027147,1
143,752,11,0.0684972865838231,1
143,754,11,0.0805368249954382,1
143,755,11,0.103887670914647,1
143,756,11,0.106276632937363,1
143,757,11,0.0902405366819596,1
144,730,11,0.0790475452079497,1
144,731,11,0.0819544251406495,1
144,743,11,0.0775173971828697,1
144,744,11,0.0935099837097276,1
144,745,11,0.104937498849963,1
144,746,11,0.112317189658715,1
144,747,11,0.0938627215833554,1
144,748,11,0.0811894829031684,1
144,749,11,0.107863827583405,1
144,750,11,0.145070491510428,1
144,751,11,0.124562231274716,1
144,752,11,0.0828252426481976,1
144,756,11,0.0993528059653946,1
145,730,11,0.083219855041685,1
145,731,11,0.102624738749956,1
145,732,11,0.0919697309335386,1
145,738,11,0.0703314636289337,1
145,742,11,0.0707057587042458,1
145,743,11,0.086334071050045,1
145,744,11,0.0985662166795982,1
145,745,11,0.108776980823518,1
145,746,11,0.120817387752567,1
145,747,11,0.103926460700173,1
145,748,11,0.0844782709157207,1
145,749,11,0.0981357914189615,1
145,750,11,0.127144962531799,1
146,730,11,0.0743928967301385,1
146,731,11,0.0965834512760042,1
146,732,11,0.0929530783516291,1
146,733,11,0.090135523939551,1
146,734,11,0.131636203946773,1
146,735,11,0.19520303086469,3
146,736,11,0.139808485796278,1
146,737,11,0.105703495287916,1
146,738,11,0.101584578312145,1
146,739,11,0.0856999095687668,1
146,741,11,0.0692964004899924,1
146,742,11,0.0823236648455194,1
146,743,11,0.101274379823446,1
146,744,11,0.104792067103118,1
146,745,11,0.0940067457329798,1
146,746,11,0.0940797131769692,1
146,747,11,0.0871390189974592,1
147,731,11,0.0720108169593638,1
147,732,11,0.0749589724343827,1
147,733,11,0.119649920628288,1
147,734,11,0.285945169308429,3
147,735,11,0.439495745246898,3
147,736,11,0.301921673288323,3
147,737,11,0.159797252811073,1
147,738,11,0.12243163222434,1
147,739,11,0.0992457147709203,1
147,740,11,0.0721582552809693,1
147,741,11,0.0733773961976714,1
147,742,11,0.0859975175495628,1
147,743,11,0.106299609715818,1
147,744,11,0.107097687390842,1
148,733,11,0.125074620622001,3
148,734,11,0.316934278650869,3
148,735,11,0.479541610634314,3
148,736,11,0.324391021930437,3
148,737,11,0.156522546760499,3
148,738,11,0.10824829928713,1
148,739,11,0.090674591746492,1
148,740,11,0.0738782132988731,1
148,741,11,0.0731013214594581,1
149,734,11,0.211392926583179,3
149,735,11,0.291834460241692,3
149,736,11,0.203157153114377,3
149,743,11,0.118310463093017,1
149,744,11,0.123773377853817,1
150,742,11,0.141250512245593,1
150,743,11,0.262607279273422,2
150,744,11,0.28155741923291,2
150,745,11,0.171843889106544,1
151,742,11,0.206615002537748,2
151,743,11,0.421653833532929,2
151,744,11,0.462308643447167,2
151,745,11,0.266767992901972,2
151,746,11,0.123329882903245,1
152,742,11,0.168822670351129,2
152,743,11,0.335393879963751,2
152,744,11,0.373984014295725,2
152,745,11,0.226568669468668,2
152,746,11,0.119497948046701,1
153,743,11,0.15413781351922,2
153,744,11,0.170356244527741,2
153,745,11,0.125802270517808,1
154,744,11,0.083987971860131,1
132,731,12,0.0847082603219643,1
132,732,12,0.0707501848684281,1
133,730,12,0.071011554708021,1
133,731,12,0.0856284096197518,1
133,732,12,0.0713489527668354,1
134,730,12,0.0769887695544604,1
134,731,12,0.0834027827825679,1
134,732,12,0.0698199487888578,1
134,763,12,0.0690498793036297,1
135,729,12,0.0746752906814045,1
135,730,12,0.0896757547692029,1
135,731,12,0.0901243050902166,1
135,732,12,0.0718634864537156,1
135,763,12,0.0709915129195143,1
136,729,12,0.0867843883548032,1
136,730,12,0.105835581815157,1
136,731,12,0.0972751685091535,1
136,732,12,0.0695804655885965,1
137,729,12,0.0889398449731121,1
137,730,12,0.101332528563083,1
137,731,12,0.08490171808801,1
138,729,12,0.0775965460750775,1
138,730,12,0.0816034482609909,1
139,729,12,0.0722842202577463,1
139,730,12,0.070373451954526,1
139,758,12,0.0837626185400512,1
139,759,12,0.0863658048801432,1
139,760,12,0.0726253739057399,1
140,728,12,0.070177951675067,1
140,729,12,0.0825124745458504,1
140,730,12,0.0774206024123174,1
140,757,12,0.08216715800395,1
140,758,12,0.0969073603606056,1
140,759,12,0.0975161132146137,1
140,760,12,0.0817358402667779,1
141,728,12,0.0807771048358284,1
141,729,12,0.106151865915667,1
141,730,12,0.0987390217000459,1
141,754,12,0.0739382188688851,1
141,755,12,0.0819419903669078,1
141,758,12,0.0922270337156312,1
141,759,12,0.0907351184269642,1
141,760,12,0.0781096781545128,1
142,728,12,0.0802339220531838,1
142,729,12,0.112755605279743,1
142,730,12,0.108607841545619,1
142,731,12,0.0731740553022067,1
142,750,12,0.0726397673360392,1
142,751,12,0.077310821808686,1
142,752,12,0.072338978784503,1
142,753,12,0.071193583982593,1
142,754,12,0.0812493087799182,1
142,756,12,0.0961714625440656,1
142,759,12,0.0771709665427438,1
143,729,12,0.0865606882127354,1
143,730,12,0.0930863448646253,1
143,731,12,0.0773281562187094,1
143,743,12,0.0821562506229366,1
143,744,12,0.0938499334128648,1
143,745,12,0.0859263709972966,1
143,746,12,0.0797778665435872,1
143,747,12,0.0727079788983567,1
143,748,12,0.0710797183521352,1
143,749,12,0.0822514341439049,1
143,750,12,0.104000554221939,1
143,751,12,0.10102507339152,1
143,752,12,0.0803647567173654,1
143,756,12,0.0991247931850348,1
144,730,12,0.0876312647300557,1
144,731,12,0.101626890085609,1
144,732,12,0.0884348649780036,1
144,742,12,0.0833100910081683,1
144,743,12,0.108968509881884,1
144,744,12,0.123088698606769,1
144,745,12,0.114008103255678,1
144,746,12,0.109434849835851,1
144,747,12,0.0977174056068898,1
144,748,12,0.0910247060984922,1
144,749,12,0.108747187680652,1
144,750,12,0.138661144317361,1
145,730,12,0.0939934424418043,1
145,731,12,0.129873281269886,1
145,732,12,0.124745422565717,1
145,733,12,0.0872863315337812,1
145,734,12,0.0696565237566951,1
145,735,12,0.0682124547939671,1
145,736,12,0.071014849084494,1
145,737,12,0.103393885809772,1
145,738,12,0.125075375333702,1
145,739,12,0.0893353258840334,1
145,742,12,0.0844183671718906,1
145,743,12,0.107388263375312,1
145,744,12,0.120468854701274,1
145,745,12,0.115302793209569,1
145,746,12,0.118372984368699,1
145,747,12,0.107662020070444,1
146,731,12,0.117615744982389,1
146,732,12,0.122705173287557,1
146,733,12,0.114159872184901,1
146,734,12,0.153414212711588,1
146,735,12,0.203956644376396,3
146,736,12,0.169734206351884,3
146,737,12,0.18743737090836,1
146,738,12,0.209052553618553,1
146,739,12,0.136794981871585,1
146,740,12,0.0680327675215785,1
146,742,12,0.0852783970939335,1
146,743,12,0.105701806171251,1
146,744,12,0.112616786244946,1
146,745,12,0.100478817854093,1
147,732,12,0.0873321053974297,1
147,733,12,0.135756067307058,1
147,734,12,0.295952358955644,3
147,735,12,0.433358190102629,3
147,736,12,0.327989511280328,3
147,737,12,0.241381791351109,3
147,738,12,0.224286756711999,3
147,739,12,0.146821015352226,1
147,740,12,0.0776096397241138,1
147,741,12,0.07525320218185,1
147,742,12,0.0899302363670795,1
148,733,12,0.139429165299401,3
148,734,12,0.332654899425442,3
148,735,12,0.48542725978413,3
148,736,12,0.348834121364158,3
148,737,12,0.203434575552056,3
148,738,12,0.157743861965674,1
149,734,12,0.273291145827743,3
149,735,12,0.35216654489054,3
149,736,12,0.242489396659986,3
149,743,12,0.118362550179942,1
149,744,12,0.124239526134971,1
149,745,12,0.104020655908199,1
150,735,12,0.234446997100374,3
150,742,12,0.130728776931947,1
150,743,12,0.225896377077158,1
150,744,12,0.234410531347705,2
150,745,12,0.151459808894539,1
150,746,12,0.103906263177506,1
151,742,12,0.176653271452405,1
151,743,12,0.323337755864038,2
151,744,12,0.336542838682027,2
151,745,12,0.206619842276276,2
151,746,12,0.122012803168888,1
152,742,12,0.144680593070184,1
152,743,12,0.250358332323857,2
152,744,12,0.264709402931521,2
152,745,12,0.179198542654101,1
152,746,12,0.12649410155669,1
153,743,12,0.13331978605864,1
153,744,12,0.140437807539028,1
153,745,12,0.116573488123186,1
125,745,13,0.077314307857972,1
126,745,13,0.0688230884374526,1
132,731,13,0.0864634801476801,1
132,732,13,0.079941219698445,1
133,730,13,0.0715683103217343,1
133,731,13,0.0915762625871536,1
133,732,13,0.0842944087698746,1
134,729,13,0.068821321453708,1
134,730,13,0.0817671488228223,1
134,731,13,0.10026628265338,1
134,732,13,0.0900946676815103,1
135,729,13,0.0765572361853737,1
135,730,13,0.0990133474238407,1
135,731,13,0.116334448166305,1
135,732,13,0.0984282661622349,1
136,729,13,0.0842960978865389,1
136,730,13,0.111229374567778,1
136,731,13,0.118901893516552,1
136,732,13,0.0911774932895348,1
137,729,13,0.0842405666787548,1
137,730,13,0.1045074209963,1
137,731,13,0.101160490233887,1
137,732,13,0.0724974323030792,1
138,729,13,0.0734635770862052,1
138,730,13,0.0832404418997536,1
138,731,13,0.0758454711739423,1
139,729,13,0.0712392679996105,1
139,730,13,0.0734348680926868,1
139,758,13,0.0828765271052192,1
139,759,13,0.0800960733620025,1
139,760,13,0.0707707357878443,1
140,729,13,0.0775802838348516,1
140,730,13,0.0773297854376197,1
140,757,13,0.0909779079832493,1
140,758,13,0.0959839466352221,1
140,759,13,0.0924013361799302,1
140,760,13,0.0789212627730763,1
141,728,13,0.0709957596702768,1
141,729,13,0.0908734642695042,1
141,730,13,0.0903584334312654,1
141,731,13,0.0684487993519159,1
141,751,13,0.0757409855317694,1
141,752,13,0.0772951106277975,1
141,753,13,0.075845998274178,1
141,754,13,0.0759053090302429,1
141,758,13,0.0931171862181881,1
141,759,13,0.0901678387778635,1
141,760,13,0.0769214265095767,1
142,728,13,0.0712557159228739,1
142,729,13,0.0960150515389027,1
142,730,13,0.0988814346000862,1
142,731,13,0.0765219204695831,1
142,749,13,0.0707591276031085,1
142,750,13,0.0855313992172849,1
142,751,13,0.0983437025130606,1
142,752,13,0.0942937158726557,1
142,753,13,0.0848590768768985,1
142,759,13,0.0795041218280066,1
143,729,13,0.0780088522651126,1
143,730,13,0.0892005559374104,1
143,731,13,0.0834360440053944,1
143,742,13,0.0817565588999054,1
143,743,13,0.097159344222138,1
143,744,13,0.0998185229827203,1
143,745,13,0.0868136124690065,1
143,746,13,0.080021716290119,1
143,747,13,0.0797975729046711,1
143,748,13,0.0808318633625852,1
143,749,13,0.0860635009154294,1
143,750,13,0.100827722271461,1
143,751,13,0.107643978866922,1
144,730,13,0.090451406725109,1
144,731,13,0.113600798528106,1
144,732,13,0.106431576447551,1
144,733,13,0.0737756683439316,1
144,741,13,0.0760091537664474,1
144,742,13,0.113610130598188,1
144,743,13,0.139427607957795,1
144,744,13,0.139450776409064,1
144,745,13,0.115640305074116,1
144,746,13,0.100768495372252,1
144,747,13,0.0972613081688653,1
145,730,13,0.0969542722815812,1
145,731,13,0.142032585240733,1
145,732,13,0.144235672553067,1
145,733,13,0.103619892015371,1
145,734,13,0.0881589280046247,1
145,735,13,0.0852045671222857,1
145,736,13,0.0934179448208473,1
145,737,13,0.144699568678669,1
145,738,13,0.177904655330114,1
145,739,13,0.107175722184825,1
145,741,13,0.07312505893939,1
145,742,13,0.105891142971818,1
145,743,13,0.127317468063476,1
145,744,13,0.131654293068498,1
145,745,13,0.118636929811716,1
146,731,13,0.123218580896661,1
146,732,13,0.135297418224711,1
146,733,13,0.127037925245303,1
146,734,13,0.165929932278162,1
146,735,13,0.196970697443698,3
146,736,13,0.196726506279968,3
146,737,13,0.283205973138205,3
146,738,13,0.336826250895112,3
146,739,13,0.192731505777785,1
146,740,13,0.0750686092834044,1
146,741,13,0.0703741946866763,1
146,742,13,0.0917269114283765,1
146,743,13,0.106281209125773,1
147,733,13,0.136641847273569,1
147,734,13,0.265261181041872,3
147,735,13,0.356433229625563,3
147,736,13,0.310836878960919,3
147,737,13,0.319182672624369,3
147,738,13,0.342611535368234,3
147,739,13,0.199248848621412,3
148,733,13,0.140341467991407,3
148,734,13,0.301733498504185,3
148,735,13,0.409275028252573,3
148,736,13,0.322894320811221,3
148,737,13,0.235508960320661,3
148,738,13,0.211488235889431,3
149,734,13,0.307778475679787,3
149,735,13,0.36615429968121,3
149,736,13,0.256184059760516,3
149,743,13,0.121403583112398,1
149,744,13,0.12685352401967,1
150,735,13,0.302220203694532,3
150,742,13,0.120155505590713,1
150,743,13,0.189077311516623,1
150,744,13,0.193657728707834,1
150,745,13,0.135189254860439,1
151,742,13,0.14293868252542,1
151,743,13,0.229354753600765,1
151,744,13,0.229571966816069,2
151,745,13,0.153919989346825,1
152,743,13,0.171935233181477,1
152,744,13,0.173056195689508,1
152,745,13,0.133274311683761,1
124,745,14,0.0782605186685486,1
125,744,14,0.0788829581593583,1
125,745,14,0.0947451892040671,1
125,746,14,0.0770249837365618,1
126,745,14,0.0806493848548577,1
132,731,14,0.0789062703652364,1
132,732,14,0.0842682933491067,1
133,730,14,0.0699207327498302,1
133,731,14,0.0902755648885308,1
133,732,14,0.0940525914739333,1
133,733,14,0.069699141008705,1
134,729,14,0.0703044976600583,1
134,730,14,0.0840678215560612,1
134,731,14,0.109987514432963,1
134,732,14,0.107031140986088,1
134,733,14,0.071986031268736,1
135,729,14,0.0757317073696663,1
135,730,14,0.10233510915,1
135,731,14,0.131959651818668,1
135,732,14,0.118119113727914,1
135,733,14,0.0728618502387477,1
136,729,14,0.0784525628475986,1
136,730,14,0.108928054938795,1
136,731,14,0.130256878466403,1
136,732,14,0.106144893817095,1
137,729,14,0.0785322268604913,1
137,730,14,0.102166209463117,1
137,731,14,0.111355004117132,1
137,732,14,0.0853778273656642,1
138,729,14,0.0725821936148419,1
138,730,14,0.0834220279309456,1
138,731,14,0.0825191651249783,1
138,751,14,0.0723619016549797,1
138,759,14,0.0678104869562817,1
139,729,14,0.0737101701498728,1
139,730,14,0.0769226963419627,1
139,731,14,0.0679717856181755,1
139,750,14,0.0739238793465644,1
139,751,14,0.0770033905962251,1
139,752,14,0.0686989263830727,1
139,758,14,0.0841566559150997,1
139,759,14,0.0775891726615534,1
139,760,14,0.0701320041079317,1
140,729,14,0.0749681966885071,1
140,730,14,0.0777296328948115,1
140,750,14,0.0678578121717603,1
140,751,14,0.0698999362496224,1
140,752,14,0.0698123058354405,1
140,753,14,0.0691807978246669,1
140,754,14,0.0708062252071216,1
140,757,14,0.0975716683814994,1
140,758,14,0.0943228501402278,1
140,759,14,0.0891156568608133,1
140,760,14,0.0766998647173286,1
141,729,14,0.0765950256784068,1
141,730,14,0.0812984129586922,1
141,731,14,0.0699949221080023,1
141,740,14,0.0756446939023511,1
141,741,14,0.0810722150802802,1
141,742,14,0.080751911840473,1
141,750,14,0.0752934834214517,1
141,751,14,0.086584599396154,1
141,752,14,0.0899893913889839,1
141,753,14,0.0829882064676541,1
141,758,14,0.0944570750172889,1
141,759,14,0.0907815571556828,1
141,760,14,0.0768337661465178,1
142,729,14,0.0771690797634911,1
142,730,14,0.0860194161684451,1
142,731,14,0.0781387405447801,1
142,741,14,0.079110761297579,1
142,742,14,0.0855442892139575,1
142,743,14,0.0751309209169474,1
142,747,14,0.0706320724872078,1
142,748,14,0.0707828950319174,1
142,749,14,0.0741738386640098,1
142,750,14,0.0908123565808177,1
142,751,14,0.111433613929553,1
142,752,14,0.111668856368828,1
142,759,14,0.0819728916182246,1
143,730,14,0.0818478131282076,1
143,731,14,0.0870743893208342,1
143,732,14,0.0787720514779507,1
143,741,14,0.0788603048287748,1
143,742,14,0.0993455403678278,1
143,743,14,0.101815723745041,1
143,744,14,0.0893640169082255,1
143,745,14,0.0785611035677211,1
143,746,14,0.0774155170929981,1
143,747,14,0.084113170145656,1
143,748,14,0.085602929115177,1
143,749,14,0.0846372635140833,1
144,730,14,0.0850136610005627,1
144,731,14,0.114171779858407,1
144,732,14,0.113824193191628,1
144,733,14,0.082179640695895,1
144,741,14,0.0881391617457866,1
144,742,14,0.125702720450569,1
144,743,14,0.141952693616375,1
144,744,14,0.12827627537173,1
144,745,14,0.106630269277301,1
145,730,14,0.0901687971419284,1
145,731,14,0.137050948933762,1
145,732,14,0.14441875602811,1
145,733,14,0.109164159905728,1
145,734,14,0.097343248296412,1
145,735,14,0.0970414354932815,1
145,736,14,0.104069017354823,1
145,737,14,0.166895951276004,3
145,738,14,0.207110668432101,3
145,739,14,0.118761445262845,1
145,740,14,0.0678560451880157,1
145,741,14,0.0808870351838449,1
145,742,14,0.113828769380038,1
145,743,14,0.128626054296308,1
146,731,14,0.111915551258677,1
146,732,14,0.126589554617551,1
146,733,14,0.125620205304583,1
146,734,14,0.165449815840761,1
146,735,14,0.188481460638838,1
146,736,14,0.20441701851406,3
146,737,14,0.345056992952574,3
146,738,14,0.426027232106576,3
146,739,14,0.238544171191423,3
146,740,14,0.0843444593331626,1
147,734,14,0.224450852599007,1
147,735,14,0.280693477987527,3
147,736,14,0.272537248736109,3
147,737,14,0.368890500963731,3
147,738,14,0.433181755278286,3
147,739,14,0.248608575173311,3
148,734,14,0.253664065411031,3
148,735,14,0.321111859486961,3
148,736,14,0.272477207227445,3
148,737,14,0.252122584730884,3
148,738,14,0.25209505572312,3
149,734,14,0.309350911519229,3
149,735,14,0.353377006622679,3
149,736,14,0.253203379805046,3
150,734,14,0.320723817877093,3
150,735,14,0.336549259721262,3
150,736,14,0.216955199738405,3
150,743,14,0.15253321258585,1
150,744,14,0.167306490482295,1
151,735,14,0.178932440891938,3
151,743,14,0.153873987871711,1
151,744,14,0.162999662272504,1
124,745,15,0.0809507843634853,1
125,744,15,0.0809702391540022,1
125,745,15,0.0965072493532959,1
125,746,15,0.0800362594648035,1
126,744,15,0.0695631790967764,1
126,745,15,0.0814184061293899,1
126,746,15,0.0686315114608842,1
132,731,15,0.0684307401790684,1
132,732,15,0.0801356058796785,1
132,733,15,0.0725824931036122,1
133,730,15,0.068903339448335,1
133,731,15,0.084407322026043,1
133,732,15,0.0944448139470339,1
133,733,15,0.0763805917188911,1
134,729,15,0.0709926330075151,1
134,730,15,0.0859422498918965,1
134,731,15,0.108658754636565,1
134,732,15,0.112146744609777,1
134,733,15,0.0801572828768709,1
135,729,15,0.0733543535316866,1
135,730,15,0.0994527214089332,1
135,731,15,0.127477586739615,1
135,732,15,0.120765743909021,1
135,733,15,0.0792816136512444,1
136,729,15,0.0721559971356415,1
136,730,15,0.100662140920152,1
136,731,15,0.125088888267017,1
136,732,15,0.10946998585838,1
136,733,15,0.0697643996117475,1
136,754,15,0.0727383650289886,1
137,729,15,0.0725644758591926,1
137,730,15,0.0954152893377781,1
137,731,15,0.111053526741424,1
137,732,15,0.0923549633387411,1
137,753,15,0.0688896468217581,1
137,754,15,0.0721568596632999,1
138,729,15,0.0711951952321771,1
138,730,15,0.0823663180361817,1
138,731,15,0.0859559425184734,1
138,732,15,0.0698086400928923,1
138,750,15,0.0814471750206623,1
138,751,15,0.0849675756685931,1
138,752,15,0.0767193135180701,1
138,753,15,0.071347928515241,1
138,754,15,0.0695692946574653,1
138,761,15,0.0677625028655086,1
139,729,15,0.0727248520956739,1
139,730,15,0.0778593115323398,1
139,731,15,0.0726247869077502,1
139,749,15,0.0770528901001759,1
139,750,15,0.0856247618465299,1
139,751,15,0.0854559040880744,1
139,752,15,0.0783908681609224,1
139,753,15,0.0738442512723241,1
139,759,15,0.0741019014613902,1
139,760,15,0.0695636223401564,1
140,729,15,0.0709044155953434,1
140,730,15,0.0762133991179984,1
140,731,15,0.0696484195905715,1
140,741,15,0.0747433764584384,1
140,742,15,0.0785543590806145,1
140,743,15,0.06856689376381,1
140,747,15,0.0681514249723608,1
140,748,15,0.0722518035932519,1
140,749,15,0.0780593400820053,1
140,750,15,0.0777294472117739,1
140,751,15,0.076577966798052,1
140,752,15,0.0768877220433702,1
140,753,15,0.0753906675274054,1
140,758,15,0.08779005966583,1
140,759,15,0.0814974891340682,1
140,760,15,0.0730365180793464,1
141,730,15,0.0737661985090155,1
141,731,15,0.0710589697701306,1
141,740,15,0.0779214255032945,1
141,741,15,0.0980389068017781,1
141,742,15,0.106395649774669,1
141,743,15,0.0827791034082493,1
141,747,15,0.0693739561019423,1
141,748,15,0.071941048055441,1
141,749,15,0.0749391882062185,1
141,750,15,0.0795139690187732,1
141,751,15,0.0908319850748214,1
141,752,15,0.0963306048868134,1
141,759,15,0.0840932002344542,1
142,730,15,0.0744172571467125,1
142,731,15,0.078404482920419,1
142,732,15,0.074179115656142,1
142,740,15,0.0767883756284952,1
142,741,15,0.102852553867727,1
142,742,15,0.11501769187982,1
142,743,15,0.0905646015007215,1
142,746,15,0.0690119520457623,1
142,747,15,0.0762658276221224,1
142,748,15,0.076198340822629,1
142,749,15,0.0772055934343628,1
143,730,15,0.0731082995478055,1
143,731,15,0.0870364920118439,1
143,732,15,0.0902190573473556,1
143,733,15,0.0769335318456712,1
143,740,15,0.0729275281260686,1
143,741,15,0.0945526598532093,1
143,742,15,0.109552261413349,1
143,743,15,0.099002625725865,1
143,744,15,0.0810527782590895,1
143,745,15,0.0758768456175161,1
143,746,15,0.0795462718775349,1
144,731,15,0.102414857019748,1
144,732,15,0.111062068161152,1
144,733,15,0.0884749245959154,1
144,734,15,0.0687469524022737,1
144,737,15,0.0678812022447186,1
144,738,15,0.0724162588667843,1
144,740,15,0.0738913908047651,1
144,741,15,0.0963277657332712,1
144,742,15,0.119952164695248,1
144,743,15,0.125522476129068,1
145,731,15,0.114346273995519,1
145,732,15,0.126523439476626,1
145,733,15,0.104711983805947,1
145,734,15,0.0984740280463327,1
145,735,15,0.103828947156572,1
145,736,15,0.114069678146846,1
145,737,15,0.172930326549138,3
145,738,15,0.210761724050951,3
145,739,15,0.129038066987348,1
145,740,15,0.0834277182175808,1
145,741,15,0.0906000250324694,1
146,732,15,0.104805436281823,1
146,734,15,0.149998411511562,1
146,735,15,0.175715943478754,1
146,736,15,0.203882131570352,3
146,737,15,0.351738898885691,3
146,738,15,0.440599972322446,3
146,739,15,0.258365991186117,3
147,736,15,0.241087429828583,3
147,737,15,0.373123690874687,3
147,738,15,0.459604906747343,3
147,739,15,0.276862633270107,3
148,735,15,0.242720985336263,3
148,737,15,0.248241881122988,3
148,738,15,0.269411712052233,3
149,735,15,0.300308794485343,3
150,735,15,0.305649517827872,3
125,744,16,0.0754948117523802,1
125,745,16,0.0864764060830051,1
126,745,16,0.0755207534696613,1
126,746,16,0.0677452942407687,1
131,733,16,0.0700251225555966,1
132,732,16,0.0747671798258998,1
132,733,16,0.0757849924116733,1
133,730,16,0.0729138055506147,1
133,731,16,0.083274379967201,1
133,732,16,0.0921945391840565,1
133,733,16,0.0793669619609969,1
134,729,16,0.074271813420317,1
134,730,16,0.0948796117437166,1
134,731,16,0.111312141284331,1
134,732,16,0.11292249240209,1
134,733,16,0.0845808398297639,1
135,729,16,0.0752274461476065,1
135,730,16,0.103025263051769,1
135,731,16,0.12267316392779,1
135,732,16,0.115923046432356,1
135,733,16,0.0811372340923066,1
135,754,16,0.0683223072749033,1
136,729,16,0.0715564325971053,1
136,730,16,0.0977456354183757,1
136,731,16,0.116360731300784,1
136,732,16,0.105251650590429,1
136,733,16,0.0730241012749309,1
136,753,16,0.0791392067409795,1
136,754,16,0.0830575560872985,1
136,755,16,0.0714720905696209,1
137,729,16,0.0715702270498641,1
137,730,16,0.0914751851271864,1
137,731,16,0.104399712854959,1
137,732,16,0.0922544309483357,1
137,750,16,0.0687816092427697,1
137,751,16,0.0731669993467791,1
137,752,16,0.0791208241202601,1
137,753,16,0.0843396136048596,1
137,754,16,0.0810485973958565,1
138,729,16,0.0722217349207165,1
138,730,16,0.0830711349081427,1
138,731,16,0.0863510400837687,1
138,732,16,0.0749405478852355,1
138,739,16,0.0741888849798284,1
138,740,16,0.0713450893616989,1
138,749,16,0.0795844507059693,1
138,750,16,0.0862214812417485,1
138,751,16,0.086441940915322,1
138,752,16,0.0851098567935745,1
138,753,16,0.0825365055247772,1
138,761,16,0.069962403617326,1
139,729,16,0.0723043878315365,1
139,730,16,0.0794492554852926,1
139,731,16,0.0771650726037448,1
139,739,16,0.069721698502882,1
139,748,16,0.074303427454907,1
139,749,16,0.0853288310028475,1
139,750,16,0.0873370529519147,1
139,751,16,0.084157075199378,1
139,752,16,0.0819706813911,1
139,760,16,0.0704249700127884,1
140,729,16,0.0677989865875032,1
140,730,16,0.075442425176684,1
140,731,16,0.0735570355518567,1
140,740,16,0.068131736580603,1
140,741,16,0.0773453049456953,1
140,742,16,0.0845672370498181,1
140,743,16,0.0741590439187583,1
140,747,16,0.0693004795270435,1
140,748,16,0.0748085871432777,1
140,749,16,0.0814501219901618,1
140,750,16,0.0793156595346491,1
140,751,16,0.0789154646704838,1
140,759,16,0.0788181487894712,1
141,730,16,0.0704984405979118,1
141,731,16,0.072819059283251,1
141,732,16,0.0681656506889488,1
141,739,16,0.0697132229706833,1
141,740,16,0.0783921260137575,1
141,741,16,0.104943500604919,1
141,742,16,0.120399912386357,1
141,743,16,0.095047714790471,1
141,744,16,0.0696728339151242,1
141,746,16,0.0680165052813527,1
141,747,16,0.0707499632467381,1
141,748,16,0.0722677543651566,1
141,749,16,0.0747861254855072,1
142,731,16,0.0778914766262672,1
142,732,16,0.0826821708728627,1
142,733,16,0.0754012814094239,1
142,738,16,0.0688566072206215,1
142,739,16,0.0722841064520136,1
142,740,16,0.0846590962454363,1
142,741,16,0.115788372322139,1
142,742,16,0.131898999352913,1
142,743,16,0.103519922663853,1
142,744,16,0.0730111394009535,1
142,746,16,0.0719023900449741,1
142,747,16,0.0773272457728478,1
143,731,16,0.0844263635220569,1
143,732,16,0.0982941970193344,1
143,733,16,0.0903390684873795,1
143,734,16,0.0689131267413475,1
143,738,16,0.0690266629341581,1
143,739,16,0.0731082755887039,1
143,740,16,0.0846941304417828,1
143,741,16,0.104358227670501,1
143,742,16,0.115523480494608,1
143,743,16,0.101074489038615,1
143,744,16,0.0827973243050327,1
144,731,16,0.0878765819715619,1
144,732,16,0.103989988258123,1
144,733,16,0.0918632506961557,1
144,734,16,0.0732541326096024,1
144,737,16,0.0775252138397738,1
144,738,16,0.0834458852063856,1
144,739,16,0.0810727122316389,1
144,740,16,0.0870291605267476,1
144,741,16,0.101851806152084,1
145,732,16,0.104026645683605,1
145,733,16,0.0951651203781935,1
145,734,16,0.0917136081372009,1
145,735,16,0.100201377447087,1
145,736,16,0.115950874928889,1
145,737,16,0.163685371760921,1
145,738,16,0.19442377306399,3
145,739,16,0.133493154117975,1
146,737,16,0.306732109834655,3
146,738,16,0.381827337679962,3
146,739,16,0.241814444808197,3
147,736,16,0.208924156792961,3
147,737,16,0.327404022713995,3
147,738,16,0.406794159116036,3
147,739,16,0.260990758686995,3
148,737,16,0.227692806557664,3
148,738,16,0.253878738961563,3
126,745,17,0.068333220645692,1
131,733,17,0.0715761629172909,1
132,732,17,0.0719334170815744,1
132,733,17,0.0774871008988688,1
133,730,17,0.07845383866976,1
133,731,17,0.0881841868875095,1
133,732,17,0.0905307053617019,1
133,733,17,0.0810716161027397,1
134,729,17,0.0736363521577759,1
134,730,17,0.103641682818296,1
134,731,17,0.119272337166278,1
134,732,17,0.112863013932313,1
134,733,17,0.0868980503328973,1
135,729,17,0.0741529762762726,1
135,730,17,0.105022361987908,1
135,731,17,0.120609219098126,1
135,732,17,0.109872127399552,1
135,733,17,0.0820868291259873,1
135,753,17,0.0728631799688877,1
135,754,17,0.0741755217908988,1
136,729,17,0.071112392576972,1
136,730,17,0.0926086482964887,1
136,731,17,0.104820231027075,1
136,732,17,0.0968131531730284,1
136,733,17,0.0762747044692733,1
136,751,17,0.0715836201876707,1
136,752,17,0.0845545626850601,1
136,753,17,0.0928524800736944,1
136,754,17,0.0881549747528571,1
137,729,17,0.0704941279596199,1
137,730,17,0.0848074210538018,1
137,731,17,0.092429829541534,1
137,732,17,0.0870849972130773,1
137,733,17,0.0727323752535831,1
137,739,17,0.0736199761118173,1
137,740,17,0.0740088083720385,1
137,748,17,0.0689329768570412,1
137,749,17,0.0746165070255753,1
137,750,17,0.075147991776853,1
137,751,17,0.080642239052799,1
137,752,17,0.0916191613586076,1
137,753,17,0.095574389752098,1
138,729,17,0.0708315140388835,1
138,730,17,0.0807541040982714,1
138,731,17,0.0839183946290211,1
138,732,17,0.0788993701439693,1
138,733,17,0.0681075438777403,1
138,738,17,0.0694456477237703,1
138,739,17,0.0820587250997849,1
138,740,17,0.0797696425819555,1
138,741,17,0.069552936580833,1
138,748,17,0.0766612486352896,1
138,749,17,0.0860119529082899,1
138,750,17,0.0842519053235974,1
138,751,17,0.0846369640253131,1
138,752,17,0.089560247940284,1
139,729,17,0.0692315911201053,1
139,730,17,0.0781512891242546,1
139,731,17,0.0805856416649927,1
139,732,17,0.0759923165077827,1
139,738,17,0.0760660147043715,1
139,739,17,0.082983522463287,1
139,740,17,0.077396960768792,1
139,741,17,0.0714871548547657,1
139,746,17,0.0679700485833079,1
139,747,17,0.0709221393407682,1
139,748,17,0.0805624073261949,1
139,749,17,0.0890557830658603,1
139,750,17,0.0848000057118498,1
139,751,17,0.0825074970424885,1
140,730,17,0.0739671974022967,1
140,731,17,0.0773491084530777,1
140,732,17,0.0738859580784724,1
140,738,17,0.0804208928924654,1
140,739,17,0.0823619814387881,1
140,740,17,0.0768461470122809,1
140,741,17,0.0800086046717565,1
140,742,17,0.0854252424277739,1
140,743,17,0.0798072104532985,1
140,744,17,0.0721435384027981,1
140,745,17,0.0709572454144196,1
140,746,17,0.0723791102797196,1
140,747,17,0.0728273730915138,1
140,748,17,0.0773211062530572,1
140,749,17,0.0823118350390936,1
141,730,17,0.0695380220400734,1
141,731,17,0.0751648949230472,1
141,732,17,0.0763486123080013,1
141,733,17,0.0695692766881391,1
141,737,17,0.0688446097004844,1
141,738,17,0.0808513061735513,1
141,739,17,0.0826673222196325,1
141,740,17,0.0852143424357474,1
141,741,17,0.101596222435533,1
141,742,17,0.114278661410743,1
141,743,17,0.100292410053699,1
141,744,17,0.0791609436359259,1
141,745,17,0.0723975587879685,1
141,746,17,0.0747784465934374,1
141,747,17,0.0748674965843905,1
142,731,17,0.0774202010973652,1
142,732,17,0.0907492063787179,1
142,733,17,0.087647239461062,1
142,734,17,0.0708426490313623,1
142,737,17,0.0720211852605907,1
142,738,17,0.0825704435922245,1
142,739,17,0.0885006327119556,1
142,740,17,0.0978966616154491,1
142,741,17,0.117711545450224,1
142,742,17,0.129230374716516,1
142,743,17,0.112118688501778,1
142,744,17,0.0845110589462902,1
142,745,17,0.0748590510010688,1
143,731,17,0.0824334394593753,1
143,732,17,0.106182940870471,1
143,733,17,0.104493944001638,1
143,734,17,0.0816152002003364,1
143,737,17,0.0756652927399705,1
143,738,17,0.0856881636191967,1
143,739,17,0.0934924156984634,1
143,740,17,0.102817310029242,1
143,741,17,0.113925935516666,1
143,742,17,0.119850865613591,1
143,743,17,0.110695314213076,1
144,732,17,0.101374648663734,1
144,733,17,0.0991676200791839,1
144,734,17,0.0825035917089241,1
144,735,17,0.0735257689242402,1
144,736,17,0.077840419780711,1
144,737,17,0.0888481235423283,1
144,738,17,0.0987944750407496,1
144,739,17,0.102638958476768,1
144,740,17,0.105234004712084,1
144,741,17,0.110167806672667,1
145,733,17,0.0893122592589469,1
145,734,17,0.0871406542061449,1
145,735,17,0.0946826200101817,1
145,736,17,0.114623971962868,1
145,737,17,0.146825184235908,1
146,738,17,0.287229712582784,3
147,737,17,0.270621455011324,3
147,738,17,0.302380178616061,3
131,733,18,0.0712691629686592,1
132,732,18,0.0712480250512533,1
132,733,18,0.0788568666976921,1
132,734,18,0.073841220445969,1
133,730,18,0.0824991952137765,1
133,731,18,0.0955604695140558,1
133,732,18,0.0905829541725638,1
133,733,18,0.0820785991745802,1
133,734,18,0.0700126997614057,1
133,747,18,0.0705289644933781,1
133,748,18,0.0683594678415188,1
134,729,18,0.0722803448730589,1
134,730,18,0.109294940661931,1
134,731,18,0.132388867144673,1
134,732,18,0.115441157021435,1
134,733,18,0.087798451341173,1
134,747,18,0.0686980458860881,1
134,748,18,0.0679391533217665,1
134,752,18,0.0742969764667954,1
135,729,18,0.0732999424119033,1
135,730,18,0.106511935274391,1
135,731,18,0.128031006048427,1
135,732,18,0.110839104761459,1
135,733,18,0.0848811671685939,1
135,740,18,0.0680059752561899,1
135,741,18,0.0707933651593261,1
135,748,18,0.0695640536039856,1
135,749,18,0.0710716980428672,1
135,750,18,0.0713202377835416,1
135,751,18,0.0731664842260942,1
135,752,18,0.0852676634164069,1
136,729,18,0.0704268627818165,1
136,730,18,0.0884877546948339,1
136,731,18,0.101417176069113,1
136,732,18,0.0939865482103126,1
136,733,18,0.0818059805367759,1
136,740,18,0.0731672808662231,1
136,741,18,0.069946404927218,1
136,747,18,0.0679969546544292,1
136,748,18,0.0729778542190253,1
136,749,18,0.0756501625672963,1
136,750,18,0.077372217006592,1
136,751,18,0.0837151256108613,1
136,752,18,0.0996873588808914,1
137,729,18,0.0688282516238521,1
137,730,18,0.0794471890127777,1
137,731,18,0.0864315486549935,1
137,732,18,0.0861787681533321,1
137,733,18,0.0824148891249446,1
137,734,18,0.0691765390943536,1
137,739,18,0.0794837086734248,1
137,740,18,0.0831195263036435,1
137,741,18,0.0739657658459748,1
137,746,18,0.0677874802289493,1
137,747,18,0.071578468980822,1
137,748,18,0.0783670947423381,1
137,749,18,0.0810477228886473,1
137,750,18,0.0804834381272493,1
137,751,18,0.0864455707192177,1
137,752,18,0.0986096725001648,1
138,730,18,0.0771987231619727,1
138,731,18,0.0839952374576978,1
138,732,18,0.0856048877717345,1
138,733,18,0.0816902221372899,1
138,734,18,0.0686396216167832,1
138,738,18,0.0780505770405871,1
138,739,18,0.0925486007980489,1
138,740,18,0.0947160489467196,1
138,741,18,0.0822348065273793,1
138,742,18,0.0679051912952175,1
138,746,18,0.0703331647251488,1
138,747,18,0.0748484431088257,1
138,748,18,0.0822631441548226,1
138,749,18,0.0851740731756965,1
138,750,18,0.0818618112333302,1
139,730,18,0.0757870289353112,1
139,731,18,0.085099212962679,1
139,732,18,0.087077384208537,1
139,733,18,0.0795520220619241,1
139,737,18,0.0756558528539315,1
139,738,18,0.0945711622694368,1
139,739,18,0.105333123515494,1
139,740,18,0.101049272084158,1
139,741,18,0.0870779712065267,1
139,742,18,0.0755428557409074,1
139,743,18,0.0717531428111961,1
139,744,18,0.0699741495668961,1
139,745,18,0.0706806675350723,1
139,746,18,0.0738931577885098,1
139,747,18,0.0774661905929283,1
139,748,18,0.0843408954167964,1
139,749,18,0.0874578008343134,1
140,730,18,0.0728345129037971,1
140,731,18,0.0824145776566235,1
140,732,18,0.0843784513085886,1
140,733,18,0.0762911404129859,1
140,737,18,0.0838129446330079,1
140,738,18,0.102386034220497,1
140,739,18,0.106267612335602,1
140,740,18,0.09691658461473,1
140,741,18,0.0871448410591533,1
140,742,18,0.0849925230831569,1
140,743,18,0.0853480821410007,1
140,744,18,0.0805005269564811,1
140,745,18,0.0781026761070638,1
140,746,18,0.0785856496673327,1
140,747,18,0.0783062925321972,1
141,730,18,0.0693443486421131,1
141,731,18,0.079060890427553,1
141,732,18,0.0855990417509388,1
141,733,18,0.0812607133122902,1
141,734,18,0.0700757181884466,1
141,736,18,0.0685513562864083,1
141,737,18,0.0820291655581589,1
141,738,18,0.0962095635054197,1
141,739,18,0.100867865746228,1
141,740,18,0.0982997375615845,1
141,741,18,0.0978025622438293,1
141,742,18,0.103436796560776,1
141,743,18,0.102457791729855,1
141,744,18,0.0891543208610556,1
141,745,18,0.082214489209204,1
141,746,18,0.0819824273406701,1
142,731,18,0.0789114275618605,1
142,732,18,0.0985525300427967,1
142,733,18,0.100722601713095,1
142,734,18,0.083235248764477,1
142,735,18,0.0683734180284381,1
142,736,18,0.0704837356992914,1
142,737,18,0.0815936370088768,1
142,738,18,0.0963785829878111,1
142,739,18,0.110026148484328,1
142,740,18,0.116364540797942,1
142,741,18,0.118061048845133,1
142,742,18,0.121415035562974,1
142,743,18,0.115663868850561,1
142,744,18,0.0946508023232278,1
143,731,18,0.0819583244844385,1
143,732,18,0.112626501660653,1
143,733,18,0.118820576325648,1
143,734,18,0.096848852234445,1
143,735,18,0.0762246299468836,1
143,736,18,0.0753050436879843,1
143,737,18,0.0859269400259602,1
143,738,18,0.103225501243573,1
143,739,18,0.12139296923038,1
143,740,18,0.129023260262546,1
143,741,18,0.127616932874648,1
143,742,18,0.126020130628856,1
144,732,18,0.102212234897332,1
144,733,18,0.108821089529604,1
144,734,18,0.0951499362975406,1
144,735,18,0.082839091008935,1
144,736,18,0.0849425563767245,1
144,737,18,0.0959652046279784,1
144,738,18,0.111850969500255,1
144,739,18,0.12490693086975,1
144,740,18,0.124677474553517,1
144,741,18,0.120928030883857,1
126,744,19,0.068927286570406,1
127,744,19,0.0683133106322443,1
127,745,19,0.0693885951130333,1
127,746,19,0.0697129953592178,1
128,746,19,0.0683459788673057,1
129,746,19,0.0705894672147487,1
129,747,19,0.0704399444513021,1
129,748,19,0.0681423205137445,1
130,745,19,0.0682078127180278,1
130,746,19,0.0752109922345677,1
130,747,19,0.075112759917918,1
130,748,19,0.0718831269272701,1
130,749,19,0.0687427356003883,1
131,733,19,0.0697001652602993,1
131,734,19,0.0698441355019451,1
131,746,19,0.0737388491945142,1
131,747,19,0.0760514176217084,1
131,748,19,0.0727634621879375,1
131,749,19,0.0703455515806874,1
131,750,19,0.0695443352633508,1
132,732,19,0.0708050512111422,1
132,733,19,0.0785759941493791,1
132,734,19,0.0793217870748889,1
132,746,19,0.0733757130707825,1
132,747,19,0.0793552519500792,1
132,748,19,0.0753973221678809,1
132,749,19,0.0723723538130623,1
132,750,19,0.0727648757749332,1
132,751,19,0.0705622616548571,1
133,730,19,0.0812633008952654,1
133,731,19,0.0954761394661222,1
133,732,19,0.0877878135000529,1
133,733,19,0.0805281398211003,1
133,734,19,0.0755240837847867,1
133,746,19,0.0744355738799024,1
133,747,19,0.0806169981392403,1
133,748,19,0.0766283048705595,1
133,749,19,0.0728299546847136,1
133,750,19,0.0716379893790261,1
133,751,19,0.0716754554241873,1
134,730,19,0.1056330914678,1
134,731,19,0.132239110779986,1
134,732,19,0.113092003046064,1
134,733,19,0.086747275706391,1
134,734,19,0.0721348831773372,1
134,740,19,0.0722602911050014,1
134,741,19,0.0761684937717836,1
134,746,19,0.072390520801867,1
134,747,19,0.0776919691870619,1
134,748,19,0.0793815830027616,1
134,749,19,0.0791946660714587,1
134,750,19,0.0768012296865153,1
134,751,19,0.0793815530538846,1
135,730,19,0.101646081326008,1
135,731,19,0.127186471675358,1
135,732,19,0.110897337357951,1
135,733,19,0.0872573530003695,1
135,734,19,0.0719984001549483,1
135,739,19,0.0694583520374053,1
135,740,19,0.0843385594043882,1
135,741,19,0.0889981194980319,1
135,742,19,0.076095981550725,1
135,745,19,0.069238383525415,1
135,746,19,0.0708401692643444,1
135,747,19,0.0753806705922537,1
135,748,19,0.0830372687180002,1
135,749,19,0.0870389597993109,1
135,750,19,0.0859645498257311,1
135,751,19,0.0902337442766498,1
136,730,19,0.084589926319054,1
136,731,19,0.0994770099482023,1
136,732,19,0.0948327417511688,1
136,733,19,0.0866439940090746,1
136,734,19,0.0746083789003501,1
136,738,19,0.0689984271328967,1
136,739,19,0.0756041071842037,1
136,740,19,0.0853001160195537,1
136,741,19,0.0847369573359319,1
136,742,19,0.0733279446119239,1
136,744,19,0.0706727670213125,1
136,745,19,0.0723329111420173,1
136,746,19,0.0720456475033466,1
136,747,19,0.0754731587142894,1
136,748,19,0.083774316571418,1
136,749,19,0.0887439074400486,1
136,750,19,0.0909860061595975,1
136,751,19,0.0979389614093625,1
137,730,19,0.0766041960245525,1
137,731,19,0.0853719993141947,1
137,732,19,0.0889764185417379,1
137,733,19,0.0890344774347431,1
137,734,19,0.0776065609795554,1
137,737,19,0.0691606901486308,1
137,738,19,0.0761093088010022,1
137,739,19,0.0851872207327115,1
137,740,19,0.0902818960811343,1
137,741,19,0.0825393446783193,1
137,742,19,0.0717123704100111,1
137,743,19,0.0683947296493308,1
137,744,19,0.0711807778427762,1
137,745,19,0.07296795312028,1
137,746,19,0.0748756606482681,1
137,747,19,0.0790368834077279,1
137,748,19,0.0845567968712863,1
137,749,19,0.0856424256942006,1
138,730,19,0.0745467141625508,1
138,731,19,0.0876337684561752,1
138,732,19,0.0956940714544746,1
138,733,19,0.0930995223705173,1
138,734,19,0.0779542075440886,1
138,737,19,0.0731392187684485,1
138,738,19,0.0874455757027109,1
138,739,19,0.105479956869784,1
138,740,19,0.110166009740046,1
138,741,19,0.0923903509318365,1
138,742,19,0.0768735741938625,1
138,743,19,0.0726195278849442,1
138,744,19,0.0721669704041843,1
138,745,19,0.0732569957222462,1
138,746,19,0.0781519659688754,1
138,747,19,0.0834208599247416,1
138,748,19,0.0864283980331303,1
139,730,19,0.0731641122750336,1
139,731,19,0.0911611771413303,1
139,732,19,0.10021686101651,1
139,733,19,0.0923799766408343,1
139,734,19,0.0748257777986914,1
139,735,19,0.0682341377809348,1
139,736,19,0.0725488964533629,1
139,737,19,0.0841871139230365,1
139,738,19,0.104382953463374,1
139,739,19,0.124790130249343,1
139,740,19,0.125172553449881,1
139,741,19,0.101135692563708,1
139,742,19,0.0828104538927215,1
139,743,19,0.0788429764085268,1
139,744,19,0.0764792972277978,1
139,745,19,0.0757073709121939,1
139,746,19,0.079598317036033,1
139,747,19,0.0834461607360543,1
140,730,19,0.0707231530120233,1
140,731,19,0.0864243788938332,1
140,732,19,0.0935400943106909,1
140,733,19,0.0873252291352643,1
140,734,19,0.0731570383502798,1
140,735,19,0.0701029956256431,1
140,736,19,0.0782267842534651,1
140,737,19,0.093110567516365,1
140,738,19,0.109096463464095,1
140,739,19,0.11995544709217,1
140,740,19,0.114943310848835,1
140,741,19,0.0959274750326994,1
140,742,19,0.0856244443884334,1
140,743,19,0.087087932203026,1
140,744,19,0.085978877368501,1
140,745,19,0.0837772575511421,1
140,746,19,0.0833525405464669,1
141,731,19,0.0812770713889225,1
141,732,19,0.0913583365885766,1
141,733,19,0.0921793670829545,1
141,734,19,0.0799820999155873,1
141,735,19,0.0728598137151098,1
141,736,19,0.0770209466279385,1
141,737,19,0.0883823705863501,1
141,738,19,0.0976175919895331,1
141,739,19,0.105870394389813,1
141,740,19,0.105644867366247,1
141,741,19,0.0977649704133846,1
141,742,19,0.0962660171386162,1
141,743,19,0.100664596728068,1
141,744,19,0.0973813252986646,1
142,732,19,0.100330145638753,1
142,733,19,0.108648583997927,1
142,734,19,0.0922665722230826,1
142,735,19,0.0773360627222446,1
142,736,19,0.0772366683891663,1
142,737,19,0.0870767133536915,1
142,738,19,0.101398643704008,1
142,739,19,0.121860974341911,1
142,740,19,0.130247702130482,1
142,741,19,0.121778938377957,1
142,742,19,0.115113600163612,1
143,732,19,0.110629774090589,1
143,733,19,0.124361346187168,1
143,734,19,0.105788550098673,1
143,735,19,0.0841373748280695,1
143,736,19,0.0806673841299511,1
143,737,19,0.0907504702213284,1
143,738,19,0.110843093951879,1
143,739,19,0.137739713207637,1
143,740,19,0.147735007160896,1
143,741,19,0.137712076383916,1
127,743,20,0.0707587083188301,1
127,744,20,0.0721727205885735,1
128,743,20,0.0698788582299706,1
128,744,20,0.0707865188460377,1
128,745,20,0.0708221220710477,1
128,746,20,0.0723179546728298,1
129,744,20,0.069127794302104,1
129,745,20,0.072957183504101,1
129,746,20,0.0778095245191696,1
129,747,20,0.0759900643522302,1
130,744,20,0.0713506059448473,1
130,745,20,0.07984408950047,1
130,746,20,0.0881243190823319,1
130,747,20,0.085042825217012,1
130,748,20,0.078238793753153,1
131,734,20,0.0693534650802802,1
131,744,20,0.0724552043864707,1
131,745,20,0.0798773567130719,1
131,746,20,0.0899115542575899,1
131,747,20,0.089365604198708,1
131,748,20,0.0814095412617898,1
131,749,20,0.0775079872457077,1
132,732,20,0.0678870302961882,1
132,733,20,0.0748819439226684,1
132,734,20,0.0789403342179673,1
132,735,20,0.0696482758359618,1
132,744,20,0.0701589461177055,1
132,745,20,0.0771435453509376,1
132,746,20,0.0902022560273433,1
132,747,20,0.0936149425441576,1
132,748,20,0.0842050832492529,1
132,749,20,0.0798165305438294,1
132,750,20,0.0789235508672811,1
133,731,20,0.0859495933565436,1
133,732,20,0.0814713018359955,1
133,733,20,0.0765505575857966,1
133,734,20,0.0767950122996444,1
133,735,20,0.0701853250885912,1
133,744,20,0.0689051064320796,1
133,745,20,0.075844033627845,1
133,746,20,0.087761889752098,1
133,747,20,0.0913079865365183,1
133,748,20,0.0841833942725097,1
133,749,20,0.0805086970101341,1
133,750,20,0.0783292573311018,1
134,731,20,0.116599435830242,1
134,732,20,0.106331607096034,1
134,733,20,0.0856771304528999,1
134,734,20,0.0767199664035893,1
134,735,20,0.0718896318233605,1
134,739,20,0.0701722853475335,1
134,740,20,0.0821658642124624,1
134,741,20,0.0864082244695647,1
134,742,20,0.0766946356433996,1
134,743,20,0.0694463006092895,1
134,744,20,0.0701199706491421,1
134,745,20,0.0741030335289418,1
134,746,20,0.0800842735044537,1
134,747,20,0.0847985621759771,1
134,748,20,0.0902235017607065,1
134,749,20,0.0926861140618076,1
134,750,20,0.0902227350694546,1
135,731,20,0.115493783188148,1
135,732,20,0.109718705292316,1
135,733,20,0.0908864980207865,1
135,734,20,0.0787695417620558,1
135,735,20,0.0728077685566117,1
135,736,20,0.0693320935616335,1
135,737,20,0.0688681015996246,1
135,738,20,0.0708769644546602,1
135,739,20,0.0775913888784534,1
135,740,20,0.0932350170799644,1
135,741,20,0.100484747731744,1
135,742,20,0.0876245022736229,1
135,743,20,0.0753372866489919,1
135,744,20,0.0741108082574181,1
135,745,20,0.0756172068230155,1
135,746,20,0.0767331319299306,1
135,747,20,0.0821918598377221,1
135,748,20,0.0962521448187772,1
135,749,20,0.104330638764983,1
135,750,20,0.104977354815511,1
136,731,20,0.0957269732907769,1
136,732,20,0.098863261621506,1
136,733,20,0.0928513539959181,1
136,734,20,0.0816659875059994,1
136,735,20,0.0718376345830656,1
136,736,20,0.0692350472205142,1
136,737,20,0.0743403963487096,1
136,738,20,0.079848935228773,1
136,739,20,0.0842733606990998,1
136,740,20,0.0936508452579379,1
136,741,20,0.0967213179365118,1
136,742,20,0.0863368203569561,1
136,743,20,0.0776185165712647,1
136,744,20,0.0779191553784158,1
136,745,20,0.0788322666901019,1
136,746,20,0.0780733082382508,1
136,747,20,0.0811801508330867,1
136,748,20,0.091236468618177,1
136,749,20,0.0989732518672765,1
137,731,20,0.0883773212056833,1
137,732,20,0.100451408641837,1
137,733,20,0.100835760550055,1
137,734,20,0.086465828139639,1
137,735,20,0.0725296153663327,1
137,736,20,0.0694544706629426,1
137,737,20,0.0771087747047089,1
137,738,20,0.0860499700127884,1
137,739,20,0.0927311212342042,1
137,740,20,0.095534827285545,1
137,741,20,0.0890461574967837,1
137,742,20,0.0823112600206547,1
137,743,20,0.080918547392253,1
137,744,20,0.0819062972952666,1
137,745,20,0.0803217022117509,1
137,746,20,0.0806381240770954,1
137,747,20,0.0844664411092949,1
137,748,20,0.0868791645710439,1
138,731,20,0.0974748855904979,1
138,732,20,0.119670441598827,1
138,733,20,0.114969366371848,1
138,734,20,0.0906454514891444,1
138,735,20,0.0752258229184716,1
138,736,20,0.0724079450585216,1
138,737,20,0.0788491518669699,1
138,738,20,0.0942534585921555,1
138,739,20,0.116728383715171,1
138,740,20,0.121907886262886,1
138,741,20,0.10020652266416,1
138,742,20,0.0868141036305898,1
138,743,20,0.085928665081277,1
138,744,20,0.0841949904776946,1
138,745,20,0.0804783348386038,1
138,746,20,0.0841698334209917,1
138,747,20,0.0917205982050991,1
139,731,20,0.102307388469424,1
139,732,20,0.125859820279904,1
139,733,20,0.114742569515896,1
139,734,20,0.0867887309419722,1
139,735,20,0.0760547718959355,1
139,736,20,0.0785361681327081,1
139,737,20,0.0877238546782733,1
139,738,20,0.10809923773639,1
139,739,20,0.141107751938579,1
139,740,20,0.147555888917171,1
139,741,20,0.115882579509716,1
139,742,20,0.0924376581779889,1
139,743,20,0.0882933086158463,1
139,744,20,0.0858303189588946,1
139,745,20,0.0823917266634517,1
140,731,20,0.0906080872701651,1
140,732,20,0.106420806831372,1
140,733,20,0.1000505249535,1
140,734,20,0.0826021594529965,1
140,735,20,0.0781206753821573,1
140,736,20,0.0848258515927244,1
140,737,20,0.0955875792375409,1
140,738,20,0.108334096830038,1
140,739,20,0.129764183500651,1
140,740,20,0.132968018528627,1
140,741,20,0.110166273290163,1
140,742,20,0.0926566084281603,1
140,743,20,0.0913963417135243,1
140,744,20,0.0934216225429462,1
141,732,20,0.0958599163559011,1
141,733,20,0.0998322994661529,1
141,734,20,0.0893294918427884,1
141,735,20,0.0812912971055105,1
141,736,20,0.0833361165823051,1
141,737,20,0.0908652882260758,1
141,738,20,0.0958678587980888,1
141,739,20,0.108167425339606,1
141,740,20,0.112315800030821,1
141,741,20,0.104438191172164,1
141,742,20,0.0974015827190859,1
142,733,20,0.109013564972483,1
142,734,20,0.0968784836533758,1
142,735,20,0.0832674497970568,1
142,736,20,0.0829037925628649,1
142,737,20,0.0902972358959477,1
142,738,20,0.101333654640859,1
142,739,20,0.12388156517719,1
142,740,20,0.134364762275877,1
142,741,20,0.125416097717867,1
131,747,21,0.101315529580482,1
131,748,21,0.0878032251921712,1
132,734,21,0.0755619451551246,1
132,747,21,0.108385740673584,1
132,748,21,0.0908777409691437,1
133,732,21,0.0772345480086728,1
133,733,21,0.0751113403411469,1
133,734,21,0.0769314354242793,1
133,735,21,0.0748719829261692,1
133,747,21,0.102863778706837,1
133,748,21,0.0911732824774248,1
133,749,21,0.0905517773915784,1
134,732,21,0.0994697742995125,1
134,733,21,0.0884123074838267,1
134,734,21,0.0822937519071445,1
134,735,21,0.0797302657984399,1
134,739,21,0.0789300857122485,1
134,740,21,0.087270788066604,1
134,741,21,0.090737448449597,1
134,742,21,0.0830405630944732,1
134,748,21,0.100036047666345,1
134,749,21,0.106199724221157,1
135,732,21,0.108751680012206,1
135,733,21,0.0981034945499752,1
135,734,21,0.0867513787025437,1
135,735,21,0.0807777098031444,1
135,736,21,0.0775865910683536,1
135,737,21,0.0755375428101228,1
135,738,21,0.0787381613287066,1
135,739,21,0.084685786684643,1
135,740,21,0.0953509292010464,1
135,741,21,0.103290202797503,1
135,742,21,0.0941149689950058,1
135,743,21,0.0831404066607069,1
135,748,21,0.109360169316096,1
135,749,21,0.120217547684362,1
136,732,21,0.112744164808718,1
136,733,21,0.106096316738557,1
136,734,21,0.0888685007582577,1
136,735,21,0.078476396163937,1
136,736,21,0.0766436027569451,1
136,737,21,0.0810426735079805,1
136,738,21,0.0886996010713744,1
136,739,21,0.0923669668486536,1
136,740,21,0.0968682231681063,1
136,741,21,0.102887653951603,1
136,742,21,0.0960427063319497,1
136,743,21,0.0879662788582587,1
136,744,21,0.0844987559476074,1
136,748,21,0.0968799152096977,1
137,732,21,0.140384450619717,1
137,733,21,0.132812583856856,1
137,734,21,0.0991566108719886,1
137,737,21,0.0837655295708982,1
137,738,21,0.0948178212206338,1
137,739,21,0.0998647820181767,1
137,740,21,0.0978132599827034,1
137,741,21,0.0952511095939143,1
137,742,21,0.0933975376560408,1
137,743,21,0.0947162945275112,1
137,744,21,0.092204548098759,1
138,731,21,0.120408477765187,1
138,732,21,0.172664272705178,1
138,733,21,0.158821626213481,1
138,734,21,0.10912165645945,1
138,738,21,0.0992402161570981,1
138,739,21,0.120410011147691,1
138,740,21,0.123289451919258,1
138,741,21,0.105903661602415,1
138,742,21,0.097152444000871,1
138,743,21,0.0996282637567411,1
138,744,21,0.0955181876894686,1
139,731,21,0.116437975444413,1
139,732,21,0.162773488353193,1
139,733,21,0.147414338544789,1
139,734,21,0.104185865893433,1
139,738,21,0.109672548083042,1
139,739,21,0.145079032930156,1
139,740,21,0.154742708957867,1
139,741,21,0.125510939821637,1
139,742,21,0.101617222588104,1
139,743,21,0.0970280782941273,1
139,744,21,0.0943231616085489,1
140,732,21,0.11963709052937,1
140,733,21,0.113700767879623,1
140,738,21,0.107742570570096,1
140,739,21,0.132333401824418,1
140,740,21,0.141383880584771,1
140,741,21,0.121166591658706,1
140,742,21,0.100639487589569,1
141,733,21,0.104072575281414,1
141,738,21,0.0990439192375102,1
141,739,21,0.110140265685353,1
141,740,21,0.117691587518573,1
136,732,22,0.144006851153027,1
136,733,22,0.132418037350898,1
137,731,22,0.142271529361208,1
137,732,22,0.232976507238332,1
137,733,22,0.206551319245637,1
137,734,22,0.122971634436244,1
137,739,22,0.10202665967572,1
138,731,22,0.162102645487332,1
138,732,22,0.275703515892743,4
138,733,22,0.243251966946407,1
138,734,22,0.140013108503679,1
138,738,22,0.100471150941574,1
138,739,22,0.11638047360052,1
138,740,22,0.118131069319623,1
139,731,22,0.128439101426352,1
139,732,22,0.209220123575296,1
139,733,22,0.188816756286485,1
139,734,22,0.124684542488496,1
139,738,22,0.107375421296843,1
139,739,22,0.135574373459909,1
139,740,22,0.148682062529805,1
139,741,22,0.129624801426966,1
140,732,22,0.128216832840606,1
140,733,22,0.126152312992503,1
140,739,22,0.127703952331738,1
140,740,22,0.148033789137672,1
140,741,22,0.138708164054294,1
141,740,22,0.134472482396769,1
141,741,22,0.138808337058175,1
136,732,23,0.180012672927212,1
136,733,23,0.157677279622267,1
136,742,23,0.12340855261342,1
136,743,23,0.121577130864996,1
137,731,23,0.188740075181744,1
137,732,23,0.334211378503204,4
137,733,23,0.28179097255552,4
137,734,23,0.146659662782353,1
137,742,23,0.128685844234405,1
137,743,23,0.135068189519944,1
138,731,23,0.205720872824322,4
138,732,23,0.375132973014001,4
138,733,23,0.320117413015044,4
138,734,23,0.167366292399943,1
138,735,23,0.101642643194925,1
138,739,23,0.113176159390511,1
138,740,23,0.114787576688292,1
139,731,23,0.133881758766731,1
139,732,23,0.238282729474525,4
139,733,23,0.213593546108045,1
139,734,23,0.137811362901037,1
139,739,23,0.125851662205801,1
139,740,23,0.143515725508431,1
139,741,23,0.136217040422263,1
140,732,23,0.128933892813496,1
140,733,23,0.131745721000287,1
140,739,23,0.126910151356354,1
140,740,23,0.16475666705129,1
140,741,23,0.167651681238912,1
140,742,23,0.12722461456514,1
141,739,23,0.123994556300439,1
141,740,23,0.167271522173478,1
141,741,23,0.179676299119992,1
141,742,23,0.135239808564861,1
142,740,23,0.139050443780064,1
142,741,23,0.150799567931145,1
135,742,24,0.118174579048168,1
135,743,24,0.123689473079937,1
136,732,24,0.205143913698166,4
136,733,24,0.173373785561057,4
136,734,24,0.109509170969082,1
136,741,24,0.113506699156486,1
136,742,24,0.156017357123252,1
136,743,24,0.173450334890739,1
136,744,24,0.137165485419066,1
137,731,24,0.224360766376908,4
137,732,24,0.400837231638895,4
137,733,24,0.332529186019232,4
137,734,24,0.163315263538617,4
137,735,24,0.0992018037274229,1
137,741,24,0.114315953752417,1
137,742,24,0.167209971241411,1
137,743,24,0.193039500029134,1
137,744,24,0.151628840356481,1
138,731,24,0.23567188221169,4
138,732,24,0.434201598397922,4
138,733,24,0.370060399936825,4
138,734,24,0.186756980340503,4
138,735,24,0.106903870238272,1
138,742,24,0.135672282328687,1
138,743,24,0.151847215588213,1
139,731,24,0.138262536743678,1
139,732,24,0.252064939132382,4
139,733,24,0.230517704434389,4
139,734,24,0.147023206210812,1
139,735,24,0.105285756371588,1
139,740,24,0.136637738287641,1
139,741,24,0.139262182340647,1
140,732,24,0.127831438711468,1
140,733,24,0.136058227517162,1
140,734,24,0.117567275719808,1
140,735,24,0.101746014738873,1
140,739,24,0.125540756923605,1
140,740,24,0.17526177474841,1
140,741,24,0.190316655945767,1
140,742,24,0.142075675685,1
141,739,24,0.130586986968549,1
141,740,24,0.190409868830627,1
141,741,24,0.209895458772711,1
141,742,24,0.148860521898236,1
142,740,24,0.146184733490454,1
142,741,24,0.158226530047397,1
135,742,25,0.128273280484028,1
135,743,25,0.148762996375084,1
136,732,25,0.205537010678476,4
136,733,25,0.175720304035249,4
136,734,25,0.114850589125558,1
136,741,25,0.119498499106038,1
136,742,25,0.186615897170603,1
136,743,25,0.231846212660219,1
136,744,25,0.166433109350873,1
137,731,25,0.229297994489023,4
137,732,25,0.392519206574224,4
137,733,25,0.332944780595964,4
137,734,25,0.171687963273189,4
137,735,25,0.10170948908845,1
137,741,25,0.122354891221845,1
137,742,25,0.198846611243834,1
137,743,25,0.249233141034389,1
137,744,25,0.179193175815338,1
137,745,25,0.108548422973597,1
138,731,25,0.233899411832806,4
138,732,25,0.418900597329154,4
138,733,25,0.369491610864322,4
138,734,25,0.197789931005454,4
138,735,25,0.112336967897104,1
138,742,25,0.148666417236446,1
138,743,25,0.172776904441902,1
138,744,25,0.142961635344773,1
139,731,25,0.139165878731678,1
139,732,25,0.245361206457687,4
139,733,25,0.23519119075585,4
139,734,25,0.157967376424704,1
139,735,25,0.117442484739011,1
139,740,25,0.134922362447922,1
139,741,25,0.144138170989016,1
139,742,25,0.131286808367822,1
139,743,25,0.121129443071641,1
140,732,25,0.126611117809011,1
140,733,25,0.139261942749631,1
140,734,25,0.125400176894839,1
140,735,25,0.115339941796634,1
140,736,25,0.108417366687725,1
140,739,25,0.128322025276277,1
140,740,25,0.176907237929596,1
140,741,25,0.200613906456767,1
140,742,25,0.156684067044083,1
140,743,25,0.114764480114329,1
141,734,25,0.102569620836675,1
141,735,25,0.103406548194979,1
141,739,25,0.134091352987719,1
141,740,25,0.194440209007702,1
141,741,25,0.21926600717163,1
141,742,25,0.159910255913873,1
142,740,25,0.144677454427872,1
142,741,25,0.157098212095168,1
135,742,26,0.133952905318997,1
135,743,26,0.166586351764847,1
135,744,26,0.127962015815307,1
136,732,26,0.178502602629291,1
136,733,26,0.161375199243889,1
136,734,26,0.116504677583328,1
136,741,26,0.130024834567195,1
136,742,26,0.207744434588202,1
136,743,26,0.26875147108884,1
136,744,26,0.183229134401743,1
136,745,26,0.102672117873413,1
137,731,26,0.193694865315348,1
137,732,26,0.316623768693849,4
137,733,26,0.285376356276825,4
137,734,26,0.166948086281133,1
137,735,26,0.104379742943757,1
137,741,26,0.142360010323498,1
137,742,26,0.221318942794099,1
137,743,26,0.278524460517701,1
137,744,26,0.189871567714938,1
137,745,26,0.110221966221884,1
138,731,26,0.195752616717243,4
138,732,26,0.341397815198274,4
138,733,26,0.322829990623366,4
138,734,26,0.194239755183983,1
138,735,26,0.116874007134829,1
138,741,26,0.135738421428714,1
138,742,26,0.161162921603519,1
138,743,26,0.181065603566188,1
138,744,26,0.142720726577966,1
139,732,26,0.214809734065472,4
139,733,26,0.220629926949658,1
139,734,26,0.162334905018454,1
139,735,26,0.129542154505921,1
139,736,26,0.115719633659586,1
139,740,26,0.136411528429678,1
139,741,26,0.147347229101147,1
139,742,26,0.138840250581535,1
139,743,26,0.123225984259062,1
140,733,26,0.136591605037468,1
140,734,26,0.1329388004042,1
140,735,26,0.133784868159772,1
140,736,26,0.123370805048815,1
140,737,26,0.104758835829169,1
140,739,26,0.12605935167821,1
140,740,26,0.165603393682157,1
140,741,26,0.190093824321133,1
140,742,26,0.161041664590211,1
140,743,26,0.119270348560844,1
141,734,26,0.111144140063758,1
141,735,26,0.117046440789201,1
141,736,26,0.110370045449457,1
141,739,26,0.129167518013411,1
141,740,26,0.178422339638858,1
141,741,26,0.203009205661862,1
141,742,26,0.160857323262333,1
142,735,26,0.102686589170793,1
142,740,26,0.137284789765592,1
142,741,26,0.148582368707957,1
135,742,27,0.133919230801668,1
135,743,27,0.168519084574479,1
135,744,27,0.13151340157141,1
136,733,27,0.137546938275987,1
136,734,27,0.113085354395364,1
136,741,27,0.152612936496497,1
136,742,27,0.211171784075209,1
136,743,27,0.259685826217161,1
136,744,27,0.179882670841812,1
136,745,27,0.104796235986801,1
137,732,27,0.216699939469726,1
137,733,27,0.213502190053561,1
137,734,27,0.149947246850049,1
137,735,27,0.106101336170347,1
137,740,27,0.157609247753211,1
137,741,27,0.197166323508441,1
137,742,27,0.243237064385198,1
137,743,27,0.269990995211246,1
137,744,27,0.183974993214782,1
137,745,27,0.109044208663458,1
138,732,27,0.239363979771618,4
138,733,27,0.248432451817288,1
138,734,27,0.175425535207996,1
138,735,27,0.118250349707047,1
138,736,27,0.101306880344796,1
138,740,27,0.157735811707529,1
138,741,27,0.183570527640753,1
138,742,27,0.189658559321969,1
138,743,27,0.18544749564136,1
138,744,27,0.141289302031118,1
139,732,27,0.168758148490462,1
139,733,27,0.186625109445176,1
139,734,27,0.154621967065244,1
139,735,27,0.131823001082568,1
139,736,27,0.11788905843414,1
139,737,27,0.105967428751382,1
139,740,27,0.140130687794889,1
139,741,27,0.154672520769666,1
139,742,27,0.149952589729711,1
139,743,27,0.132191288413148,1
140,733,27,0.12624739468729,1
140,734,27,0.132955907202758,1
140,735,27,0.14127898763787,1
140,736,27,0.130681721256362,1
140,737,27,0.107825756570927,1
140,739,27,0.119067774356631,1
140,740,27,0.144052433343863,1
140,741,27,0.159589802929681,1
140,742,27,0.148352385291488,1
140,743,27,0.121328782797135,1
141,733,27,0.100266168847648,1
141,734,27,0.118350786261046,1
141,735,27,0.128458771848784,1
141,736,27,0.117591354616938,1
141,737,27,0.100594097071546,1
141,739,27,0.121586319180468,1
141,740,27,0.15297432360581,1
141,741,27,0.166990014708972,1
141,742,27,0.146480664334136,1
142,734,27,0.109105795534177,1
142,735,27,0.116970262825595,1
142,736,27,0.10743712796307,1
142,740,27,0.129004596122382,1
142,741,27,0.134536752686869,1
143,735,27,0.109252748683974,1
135,741,28,0.104302786309348,1
135,742,28,0.124548430832182,1
135,743,28,0.148543542983778,1
136,740,28,0.141024937303823,1
136,741,28,0.183437039506067,1
136,742,28,0.201507664804118,1
136,743,28,0.217149172625136,1
136,744,28,0.153540980318269,1
137,733,28,0.153811107209505,1
137,734,28,0.129114867887597,1
137,739,28,0.120779819881224,1
137,740,28,0.223913378072324,1
137,741,28,0.292525560527974,5
137,742,28,0.271535111392572,1
137,743,28,0.240797261148841,1
137,744,28,0.164031053679121,1
137,745,28,0.103810522607425,1
138,733,28,0.179571513989049,1
138,734,28,0.150142729160182,1
138,735,28,0.114981441759066,1
138,739,28,0.123027183613355,1
138,740,28,0.218484317522115,1
138,741,28,0.276227549363416,5
138,742,28,0.23435255032178,1
138,743,28,0.188683040540333,1
138,744,28,0.138288544348489,1
139,733,28,0.149692537640707,1
139,734,28,0.141164487091219,1
139,735,28,0.126801305157685,1
139,736,28,0.115284680128743,1
139,739,28,0.110589127474688,1
139,740,28,0.152212819499412,1
139,741,28,0.179449909568767,1
139,742,28,0.161046049105808,1
139,743,28,0.14007929552191,1
139,744,28,0.118958628669193,1
140,733,28,0.114106635061098,1
140,734,28,0.12905420344229,1
140,735,28,0.139601862503891,1
140,736,28,0.131897430031756,1
140,737,28,0.109588188086231,1
140,740,28,0.124986594882643,1
140,741,28,0.132067000573485,1
140,742,28,0.128541047403753,1
140,743,28,0.119221963155119,1
141,733,28,0.0963255555061466,1
141,734,28,0.122227416821666,1
141,735,28,0.136064073537958,1
141,736,28,0.126515269422973,1
141,737,28,0.105998623501694,1
141,740,28,0.131650711182805,1
141,741,28,0.134113323483906,1
142,733,28,0.0886237166067625,1
142,734,28,0.121002399935291,1
142,735,28,0.133641448977464,1
142,736,28,0.121768108864024,1
142,737,28,0.106444777912545,1
143,734,28,0.107310875477074,1
143,735,28,0.124988607447179,1
143,736,28,0.121786880820145,1
143,737,28,0.113915704980273,1
144,735,28,0.112750921275376,1
135,741,29,0.107181532266968,1
135,742,29,0.114245394198141,1
135,743,29,0.122272507850918,1
136,740,29,0.157346955488206,1
136,741,29,0.210759400018094,5
136,742,29,0.189103450896492,1
136,743,29,0.172227366507553,1
136,744,29,0.128028969524789,1
137,739,29,0.135591743808585,1
137,740,29,0.280087073125478,5
137,741,29,0.381725751089085,5
137,742,29,0.2952913752601,5
137,743,29,0.20988628243679,1
137,744,29,0.143921317160237,1
138,734,29,0.121526852690243,1
138,735,29,0.105835102633124,1
138,739,29,0.13745612130129,1
138,740,29,0.280268970624991,5
138,741,29,0.376000388329119,5
138,742,29,0.281398642266462,5
138,743,29,0.191149462338592,1
138,744,29,0.136702883084951,1
139,733,29,0.117971609518779,1
139,734,29,0.122556842489416,1
139,735,29,0.114919339767662,1
139,736,29,0.10758795050778,1
139,739,29,0.112259520101111,1
139,740,29,0.171904266042631,1
139,741,29,0.215610830587301,5
139,742,29,0.176778757247149,1
139,743,29,0.147008423445112,1
139,744,29,0.121223207015838,1
140,733,29,0.102725019569794,1
140,734,29,0.119143736688323,1
140,735,29,0.126645834547261,1
140,736,29,0.122706155610723,1
140,737,29,0.108761371468812,1
140,740,29,0.119662990318223,1
140,741,29,0.1210808180749,1
140,742,29,0.118238693604108,1
140,743,29,0.119431377682844,1
141,733,29,0.0923906983388101,1
141,734,29,0.118653269919022,1
141,735,29,0.132177679643427,1
141,736,29,0.126876728409591,1
141,737,29,0.110248033724448,1
141,738,29,0.105429570879073,1
142,734,29,0.121211574872001,1
142,735,29,0.136051734600623,1
142,736,29,0.129275034481939,1
142,737,29,0.11470761318663,1
143,734,29,0.108309023630191,1
143,735,29,0.1293335426081,1
143,736,29,0.136234003466211,1
143,737,29,0.131491610768485,1
143,738,29,0.118794892168709,1
144,735,29,0.116174293551513,1
144,736,29,0.135071364100909,1
144,737,29,0.135810777915612,1
135,741,30,0.103954828276493,1
135,742,30,0.102361176652565,1
136,740,30,0.152953083862223,1
136,741,30,0.20410013543601,5
136,742,30,0.165394781784336,1
136,743,30,0.135754941229282,1
137,739,30,0.138371538676507,1
137,740,30,0.281744372102865,5
137,741,30,0.391585736015935,5
137,742,30,0.281231216064328,5
137,743,30,0.17740896547666,1
137,744,30,0.128707575139576,1
138,739,30,0.141056874786285,1
138,740,30,0.296470139100794,5
138,741,30,0.410123515877409,5
138,742,30,0.291958304837975,5
138,743,30,0.181917840790428,1
138,744,30,0.134163254251686,1
139,734,30,0.104975785494355,1
139,735,30,0.102625972643689,1
139,736,30,0.0983760832389025,1
139,739,30,0.109039428822684,1
139,740,30,0.177425652990939,1
139,741,30,0.233967240049498,5
139,742,30,0.183335776363062,1
139,743,30,0.14934720312948,1
139,744,30,0.127477730494225,1
140,734,30,0.106501560983389,1
140,735,30,0.112547903827783,1
140,736,30,0.110276832564598,1
140,737,30,0.102521331267356,1
140,740,30,0.114502056074265,1
140,741,30,0.118083474564251,1
140,742,30,0.114188000170205,1
140,743,30,0.120392509023956,1
141,734,30,0.108896991963542,1
141,735,30,0.124303832363724,1
141,736,30,0.121625731902636,1
141,737,30,0.108619581505414,1
141,738,30,0.104587516273022,1
142,734,30,0.109858279038815,1
142,735,30,0.130986828435965,1
142,736,30,0.132636688112299,1
142,737,30,0.121829695734743,1
142,738,30,0.109980626191247,1
143,734,30,0.100607430311599,1
143,735,30,0.131780749206858,1
143,736,30,0.153308313482419,1
143,737,30,0.15287726528514,1
143,738,30,0.125915069968244,1
144,735,30,0.122179822066294,1
144,736,30,0.155114554215039,1
144,737,30,0.158031323266933,1
144,738,30,0.124437787700892,1
145,736,30,0.123894491112515,1
145,737,30,0.119712897126901,1
135,741,31,0.102239895680155,1
136,740,31,0.139726521709629,1
136,741,31,0.17326186061783,1
136,742,31,0.14069191777083,1
137,739,31,0.133134354591637,1
137,740,31,0.234639197013584,1
137,741,31,0.320352811188479,5
137,742,31,0.238329114295265,1
137,743,31,0.152173754184217,1
138,739,31,0.135462700087249,1
138,740,31,0.258490314964433,5
138,741,31,0.362403118976682,5
138,742,31,0.27454219427803,5
138,743,31,0.174906688882824,1
138,744,31,0.129929860688366,1
139,739,31,0.1084007390712,1
139,740,31,0.168567086634578,1
139,741,31,0.230698955038158,5
139,742,31,0.194785914885004,1
139,743,31,0.160036616215827,1
139,744,31,0.137598630037737,1
140,735,31,0.101090972900531,1
140,736,31,0.0993846655807763,1
140,740,31,0.112492773934951,1
140,741,31,0.125491736601687,1
140,742,31,0.125649004144733,1
140,743,31,0.128848358820706,1
141,734,31,0.0995695759373184,1
141,735,31,0.115981051417382,1
141,736,31,0.115046095394792,1
141,737,31,0.105490450956294,1
142,734,31,0.0972690289893629,1
142,735,31,0.12096825821548,1
142,736,31,0.130317027791024,1
142,737,31,0.125249845511713,1
142,738,31,0.111659500339644,1
143,735,31,0.125630771268399,1
143,736,31,0.159786507153996,1
143,737,31,0.166006002425811,1
143,738,31,0.13079012421165,1
144,735,31,0.120965778448462,1
144,736,31,0.165503759758063,1
144,737,31,0.171803781570429,1
144,738,31,0.127058721745511,1
145,736,31,0.125449915989806,1
145,737,31,0.123927422897694,1
136,740,32,0.127362595031381,1
136,741,32,0.142596870002131,1
136,742,32,0.119963593186722,1
137,739,32,0.115905520349519,1
137,740,32,0.169085118350295,1
137,741,32,0.219029339165809,1
137,742,32,0.182919930215762,1
137,743,32,0.132524391802997,1
138,739,32,0.116387625392354,1
138,740,32,0.189142192763815,1
138,741,32,0.263034565891746,5
138,742,32,0.230296801517435,1
138,743,32,0.167004965188384,1
138,744,32,0.128674607415744,1
139,740,32,0.141384060278033,1
139,741,32,0.19392741235569,1
139,742,32,0.187235755068213,1
139,743,32,0.163012576228278,1
140,741,32,0.12238730788634,1
140,742,32,0.129430816560684,1
141,735,32,0.10584671081786,1
141,736,32,0.107819922529682,1
142,735,32,0.109886371085466,1
142,736,32,0.123839145587769,1
142,737,32,0.123671407917314,1
143,735,32,0.114050259294981,1
143,736,32,0.154547058934023,1
143,737,32,0.167700761458584,1
143,738,32,0.1337564646448,1
144,735,32,0.111510702339022,1
144,736,32,0.163244045109046,1
144,737,32,0.178287857201454,1
144,738,32,0.133981919791061,1
145,736,32,0.118935783665796,1
145,737,32,0.124806302642938,1
137,740,33,0.122875223011318,1
137,741,33,0.14473577088122,1
137,742,33,0.133328075907801,1
138,740,33,0.12550581257389,1
138,741,33,0.164856540566401,1
138,742,33,0.168213186744522,1
138,743,33,0.145407727845306,1
139,741,33,0.143228479839087,1
139,742,33,0.155365429968121,1
142,736,33,0.108125628686827,1
142,737,33,0.111522322503308,1
143,736,33,0.128773043384758,1
143,737,33,0.143385387995608,1
143,738,33,0.120423380326396,1
144,736,33,0.137816466189682,1
144,737,33,0.159349636895023,1
144,738,33,0.130216171952747,1
145,737,33,0.11648934375829,1
143,737,34,0.109511483022389,1
144,737,34,0.122054659719422,1
