x,y,z,signal,mito.p
120,511,1,0.202110064621331,1
120,512,1,0.225866271973185,1
121,511,1,0.238508541028821,1
121,512,1,0.251237945684316,1
121,513,1,0.191028606978825,1
121,514,1,0.120618379891763,1
122,507,1,0.108590566279674,1
122,508,1,0.116337503349567,1
122,509,1,0.126482030212183,1
122,510,1,0.154657837282811,1
122,511,1,0.19019698177987,1
122,512,1,0.195660847900327,1
122,513,1,0.152640422833864,1
123,505,1,0.103413315158444,1
123,506,1,0.108189120123184,1
123,507,1,0.117752419518696,1
123,508,1,0.12041101456445,1
123,509,1,0.12995413624617,1
123,510,1,0.152998301190425,1
123,511,1,0.176301441346855,1
123,512,1,0.178426682196702,1
123,513,1,0.138730114411318,1
123,524,1,0.106574356470356,1
123,525,1,0.11466387966596,1
124,502,1,0.166015469714423,1
124,503,1,0.148425991090485,1
124,504,1,0.126383740541683,1
124,505,1,0.119199035556589,1
124,506,1,0.127873009745713,1
124,507,1,0.141688608954434,1
124,508,1,0.137970098345887,1
124,509,1,0.145808565719472,1
124,510,1,0.161883410782738,1
124,511,1,0.171665419195406,1
124,512,1,0.16340760338195,1
124,513,1,0.123641813434159,1
124,523,1,0.111496714769266,1
124,524,1,0.123408057575706,1
124,525,1,0.139195105308258,1
124,526,1,0.134139567405878,1
125,500,1,0.219222617492742,1
125,501,1,0.214105486812275,1
125,502,1,0.213637038153436,1
125,503,1,0.193615793664327,1
125,504,1,0.153149929626738,1
125,505,1,0.128344012686729,1
125,506,1,0.130426756527429,1
125,507,1,0.148514431716609,1
125,508,1,0.15781761818474,1
125,509,1,0.175070957735799,1
125,510,1,0.172444352564647,1
125,511,1,0.157022054096172,1
125,512,1,0.134897229962404,1
125,522,1,0.104412519114731,1
125,523,1,0.113402131194893,1
125,524,1,0.124609942149636,1
125,525,1,0.147496879314116,1
125,526,1,0.142775015435003,1
125,527,1,0.110019056952774,1
126,499,1,0.231705204873062,1
126,500,1,0.217154273557241,1
126,501,1,0.204508836745542,1
126,502,1,0.204882944274888,1
126,503,1,0.192578532019009,1
126,504,1,0.153419322740892,1
126,505,1,0.12233939722153,1
126,506,1,0.118349128835851,1
126,507,1,0.138487245677151,1
126,508,1,0.162656131334631,1
126,509,1,0.183642682559343,1
126,510,1,0.161190185292314,1
126,511,1,0.124329473043333,1
126,524,1,0.1057632101451,1
126,525,1,0.122263806084786,1
126,526,1,0.117942819504561,1
127,499,1,0.203111923246431,1
127,500,1,0.180503045908995,1
127,501,1,0.163182670393376,1
127,502,1,0.155163183607335,1
127,503,1,0.144854223435309,1
127,504,1,0.122685184565515,1
127,505,1,0.104296293698637,1
127,506,1,0.103155700742888,1
127,507,1,0.116713049754026,1
127,508,1,0.128521842034981,1
127,509,1,0.131613259637942,1
127,510,1,0.10761970481689,1
128,500,1,0.158823726510754,1
128,501,1,0.132800454300836,1
128,502,1,0.116397311476352,1
128,503,1,0.103224342893621,1
129,500,1,0.147593852804281,1
129,501,1,0.111326024026225,1
130,500,1,0.124492043622946,1
131,499,1,0.141000536644647,1
132,498,1,0.152105953230893,1
132,499,1,0.10824271543262,1
133,498,1,0.116366225081472,1
134,497,1,0.135134477044967,1
139,490,1,0.169663564675005,1
139,495,1,0.136443139537156,1
140,490,1,0.16283130601407,1
140,495,1,0.112482098832026,1
141,490,1,0.161249959956886,1
142,490,1,0.149049403252759,1
143,491,1,0.154160432656585,1
143,494,1,0.128025329734406,1
144,492,1,0.145330558022092,1
144,493,1,0.1294054563572,1
145,492,1,0.153968671874101,1
145,493,1,0.113153428881779,1
147,493,1,0.103435154828762,1
148,493,1,0.108051802359505,1
149,492,1,0.151245740148881,1
149,493,1,0.104270527795453,1
150,493,1,0.107934896545102,1
151,493,1,0.127022311085959,1
152,493,1,0.142472795890947,1
153,492,1,0.182669021424828,1
153,493,1,0.127384193753881,1
154,492,1,0.124087429710393,1
154,493,1,0.114034656232881,1
155,492,1,0.103535217996495,1
155,493,1,0.129792803768398,1
155,494,1,0.142781607490753,1
155,495,1,0.127906148489592,1
156,493,1,0.123562039520925,1
156,494,1,0.168259244872987,1
156,495,1,0.182450658183862,1
156,496,1,0.130045376544025,1
157,494,1,0.161458284534274,1
157,495,1,0.200803409861858,1
157,496,1,0.157534784415461,1
158,496,1,0.133483752668388,1
119,511,2,0.107869767926622,1
119,512,2,0.126112261616318,1
120,510,2,0.161353302421388,1
120,511,2,0.215582776544435,1
120,512,2,0.247628287651168,1
120,513,2,0.204962562031133,1
121,510,2,0.189104529793013,1
121,511,2,0.272460773587446,1
121,512,2,0.296113114233478,1
121,513,2,0.225913989087393,1
121,514,2,0.134402747702685,1
122,508,2,0.107469749491174,1
122,509,2,0.113440099651359,1
122,510,2,0.142418029404093,1
122,511,2,0.184689146312942,1
122,512,2,0.195462996995272,1
122,513,2,0.153871051447839,1
123,507,2,0.116408722090619,1
123,508,2,0.126456375849706,1
123,509,2,0.131509537935039,1
123,510,2,0.152799111796893,1
123,511,2,0.177889134070234,1
123,512,2,0.182998066508779,1
123,513,2,0.143418069915678,1
123,524,2,0.109796655938235,1
123,525,2,0.120483661026544,1
124,503,2,0.132303830459554,1
124,504,2,0.116788562812275,1
124,505,2,0.111039275178151,1
124,506,2,0.119740654918843,1
124,507,2,0.145920809132346,1
124,508,2,0.151486779615463,1
124,509,2,0.152539679267822,1
124,510,2,0.177850886762001,1
124,511,2,0.211828427906914,1
124,512,2,0.208717758378023,1
124,513,2,0.148094224413298,1
124,522,2,0.106878014889524,1
124,523,2,0.121413096270962,1
124,524,2,0.140858857639347,1
124,525,2,0.169715698801187,1
124,526,2,0.160478075960292,1
125,501,2,0.197534263297281,1
125,502,2,0.201615783134885,1
125,503,2,0.181458570524646,1
125,504,2,0.14496206099028,1
125,505,2,0.12345777126856,1
125,506,2,0.123522877578899,1
125,507,2,0.14496536259519,1
125,508,2,0.154893656644333,1
125,509,2,0.170542717368967,1
125,510,2,0.185511368630345,1
125,511,2,0.19827411280299,1
125,512,2,0.179060344949896,1
125,513,2,0.11856162503566,1
125,522,2,0.111548759662883,1
125,523,2,0.128148147206249,1
125,524,2,0.152650171491605,1
125,525,2,0.19497540795121,1
125,526,2,0.183435261461678,1
126,500,2,0.206370897298582,1
126,501,2,0.198248793062632,1
126,502,2,0.199788969445074,1
126,503,2,0.18135013064986,1
126,504,2,0.141922398275099,1
126,505,2,0.115649910664817,1
126,506,2,0.111010419597399,1
126,507,2,0.128225322221024,1
126,508,2,0.151292732248497,1
126,509,2,0.17814760734923,1
126,510,2,0.165430951796479,1
126,511,2,0.13980476450143,1
126,512,2,0.113822081954579,1
126,521,2,0.106517359169373,1
126,522,2,0.114525424187076,1
126,523,2,0.110481861651868,1
126,524,2,0.122262110666049,1
126,525,2,0.153053458069751,1
126,526,2,0.147333829109465,1
126,527,2,0.108811372262111,1
127,500,2,0.178939323283426,1
127,501,2,0.161743226422905,1
127,502,2,0.149453403691426,1
127,503,2,0.134746940014568,1
127,504,2,0.113915508450279,1
127,507,2,0.111652425595433,1
127,508,2,0.123720382707764,1
127,509,2,0.131361188795495,1
127,510,2,0.108612662493617,1
127,525,2,0.112971907536145,1
127,526,2,0.108100043715034,1
128,500,2,0.154282380110918,1
128,501,2,0.129048269553019,1
128,502,2,0.11273740435496,1
129,501,2,0.108902478711118,1
130,500,2,0.120599942212991,1
132,499,2,0.112107098977029,1
133,498,2,0.12435529471687,1
140,490,2,0.139899607564102,1
144,494,2,0.105689392505589,1
145,493,2,0.110161750978502,1
153,493,2,0.117201932670282,1
154,492,2,0.106311901188141,1
155,493,2,0.124196583445699,1
155,494,2,0.140228552261416,1
155,495,2,0.120804630563349,1
156,494,2,0.153361221186916,1
156,495,2,0.174686398842261,1
156,496,2,0.131864962396059,1
157,495,2,0.188310627660971,1
157,496,2,0.165768607822965,1
158,496,2,0.132463244437175,1
119,511,3,0.110001723526996,1
119,512,3,0.118853482448088,1
119,513,3,0.118960427677407,1
120,510,3,0.177288710447554,1
120,511,3,0.227080615644021,1
120,512,3,0.257313077184117,1
120,513,3,0.22887492637198,1
120,514,3,0.146417209892215,1
121,510,3,0.188447577340318,1
121,511,3,0.292294295067643,1
121,512,3,0.325081574180236,1
121,513,3,0.248546869984851,1
121,514,3,0.142964511941146,1
122,509,3,0.106883246148656,1
122,510,3,0.132931035005846,1
122,511,3,0.180170186132885,1
122,512,3,0.192407160877659,1
122,513,3,0.152373461307109,1
123,507,3,0.11700378060532,1
123,508,3,0.143867099337529,1
123,509,3,0.143922222754643,1
123,510,3,0.160885668009706,1
123,511,3,0.192819950723993,1
123,512,3,0.193488101863613,1
123,513,3,0.151494821700396,1
123,521,3,0.111099841781739,1
123,522,3,0.109279687072102,1
123,523,3,0.105529688522131,1
123,524,3,0.112858492945853,1
124,503,3,0.123939705198805,1
124,504,3,0.115234354608965,1
124,505,3,0.105839158212104,1
124,506,3,0.111737508846293,1
124,507,3,0.152563638211562,1
124,508,3,0.193879498202455,1
124,509,3,0.186995172339761,1
124,510,3,0.221079123318602,1
124,511,3,0.293361851168826,2
124,512,3,0.280589302568086,1
124,513,3,0.182477338720839,1
124,520,3,0.106258004718797,1
124,521,3,0.121360002894704,1
124,522,3,0.121603808570806,1
124,523,3,0.129865561771199,1
124,524,3,0.161092999874807,1
124,525,3,0.202874252309183,1
125,501,3,0.188742290194831,1
125,502,3,0.194662447037126,1
125,503,3,0.175104721107633,1
125,504,3,0.146578865838035,1
125,505,3,0.122797004123705,1
125,506,3,0.117658268008403,1
125,507,3,0.142439144059819,1
125,508,3,0.172053145845006,1
125,509,3,0.179504968513843,1
125,510,3,0.213426003136882,1
125,511,3,0.262403393478759,2
125,512,3,0.229684868057606,1
125,513,3,0.138521410595528,1
125,522,3,0.114948241542917,1
125,523,3,0.138013855765017,1
125,524,3,0.182186897875382,1
125,525,3,0.239016006626767,1
125,526,3,0.217251023965993,1
126,500,3,0.21087823493703,1
126,501,3,0.213253628129174,1
126,502,3,0.208185664592099,1
126,503,3,0.17168372302533,1
126,504,3,0.132411668014525,1
126,505,3,0.110989907261487,1
126,506,3,0.107522920945926,1
126,507,3,0.120725548202495,1
126,508,3,0.144791504096087,1
126,509,3,0.165747928175994,1
126,510,3,0.162278978744,1
126,511,3,0.150772662550725,1
126,512,3,0.12036256128158,1
126,521,3,0.107605226833196,1
126,522,3,0.115443314968379,1
126,523,3,0.114674375646434,1
126,524,3,0.1328670329485,1
126,525,3,0.17130172956804,1
126,526,3,0.165919444320262,1
127,500,3,0.19792927355501,1
127,501,3,0.186167417603319,1
127,502,3,0.161964679341439,1
127,503,3,0.129201493021433,1
127,504,3,0.10607610413476,1
127,507,3,0.110527716036279,1
127,508,3,0.125922586645044,1
127,509,3,0.133619821176155,1
127,510,3,0.108032751206848,1
127,521,3,0.116993251162633,1
127,522,3,0.110976555838928,1
127,525,3,0.128075556514508,1
127,526,3,0.123411303410263,1
128,500,3,0.154491340470332,1
128,501,3,0.132632886697575,1
128,502,3,0.112161173911503,1
128,525,3,0.112970658280233,1
129,500,3,0.1294091037383,1
129,501,3,0.106400866055584,1
130,500,3,0.112543602377548,1
131,499,3,0.129338676936264,1
132,499,3,0.114493992016005,1
133,498,3,0.126810283357118,1
139,491,3,0.141479626286879,1
143,495,3,0.104154179684583,1
144,494,3,0.119858966146146,1
145,492,3,0.126332699514423,1
145,493,3,0.108661461552677,1
155,493,3,0.112577220746464,1
155,494,3,0.130616688042328,1
155,495,3,0.110147317611091,1
156,494,3,0.13115135841857,1
156,495,3,0.151431645044278,1
156,496,3,0.130081281497422,1
157,495,3,0.154895262830505,1
157,496,3,0.15980451509641,1
119,512,4,0.105404026762274,1
120,511,4,0.200311470730246,1
120,512,4,0.226299897623478,1
120,513,4,0.21165629828876,1
121,510,4,0.163350505694332,1
121,511,4,0.255798465931587,1
121,512,4,0.289026397758978,1
121,513,4,0.22344833715561,1
121,514,4,0.133850364662262,1
122,510,4,0.119603236768528,1
122,511,4,0.159473975366993,1
122,512,4,0.168691665883651,1
122,513,4,0.134043419316941,1
123,507,4,0.110685590752151,1
123,508,4,0.150204128416012,1
123,509,4,0.149729176933989,1
123,510,4,0.167803389159903,1
123,511,4,0.205058018567691,2
123,512,4,0.194660997007943,1
123,513,4,0.144553442766367,1
123,521,4,0.11312548793482,1
123,522,4,0.111155288666902,1
124,507,4,0.146201579398556,1
124,508,4,0.221054227432928,1
124,509,4,0.215742904382577,1
124,510,4,0.265072629507906,2
124,511,4,0.364384302885308,2
124,512,4,0.325625580513607,2
124,513,4,0.189730987016573,1
124,520,4,0.113127205661699,1
124,521,4,0.126771087952881,1
124,522,4,0.125220259432975,1
124,523,4,0.12695511896441,1
124,524,4,0.160426008758533,1
124,525,4,0.202725992402204,1
125,502,4,0.183172159243365,1
125,503,4,0.160391330752906,1
125,504,4,0.136939161058623,1
125,505,4,0.114322219328113,1
125,506,4,0.10761241005469,1
125,507,4,0.13469453819069,1
125,508,4,0.187946224173084,1
125,509,4,0.197592465237893,1
125,510,4,0.25444451791259,2
125,511,4,0.327756231087716,2
125,512,4,0.266998692118293,2
125,513,4,0.145201605811396,1
125,522,4,0.115236998123707,1
125,523,4,0.136950883986868,1
125,524,4,0.182546795118729,1
125,525,4,0.233953084729622,1
125,526,4,0.20916046344182,1
126,500,4,0.224518904855867,1
126,501,4,0.237982559673609,1
126,502,4,0.21877165841667,1
126,503,4,0.161753666633026,1
126,504,4,0.121689694914752,1
126,505,4,0.105380067818534,1
126,506,4,0.104305919661602,1
126,507,4,0.11552007728254,1
126,508,4,0.142273394570073,1
126,509,4,0.160989144323055,1
126,510,4,0.171914523055062,1
126,511,4,0.173761882542996,2
126,512,4,0.134908015948715,1
126,521,4,0.105840630549429,1
126,522,4,0.114552004337417,1
126,523,4,0.114220449587572,1
126,524,4,0.127320860940774,1
126,525,4,0.158659806288594,1
126,526,4,0.155441232280309,1
127,500,4,0.223667046172766,1
127,501,4,0.22828596913392,1
127,502,4,0.190635292139833,1
127,503,4,0.132634570962242,1
127,504,4,0.10307186674794,1
127,506,4,0.103444122701559,1
127,507,4,0.111553756686531,1
127,508,4,0.12691344735649,1
127,509,4,0.133686879448857,1
127,510,4,0.111168472778401,1
127,521,4,0.121807069200122,1
127,522,4,0.1160595662173,1
127,525,4,0.126051338082469,1
128,500,4,0.165822247748685,1
128,501,4,0.152233265793205,1
128,502,4,0.12821900901704,1
128,503,4,0.103306381083196,1
128,525,4,0.118158472306361,1
128,526,4,0.103991709491605,1
129,500,4,0.133039943351598,1
129,501,4,0.114064303752649,1
130,500,4,0.118661743973746,1
131,500,4,0.113596156253717,1
132,499,4,0.129320529263329,1
133,498,4,0.136431728922889,1
139,524,4,0.109816744419462,1
145,492,4,0.127186499005815,1
145,493,4,0.110566208734066,1
150,492,4,0.120186471968348,1
151,493,4,0.107701363768063,1
152,493,4,0.110679076774896,1
155,494,4,0.10986949201953,1
156,495,4,0.126396300025226,1
156,496,4,0.122149588401408,1
157,496,4,0.137878746507326,1
120,512,5,0.178250849427096,1
121,511,5,0.187669268599034,1
121,512,5,0.210719914058332,1
121,513,5,0.169796019263883,1
122,510,5,0.105066828052684,1
122,511,5,0.131327916202769,1
122,512,5,0.136966321220637,1
122,513,5,0.112594119163488,1
123,507,5,0.106571712955614,1
123,508,5,0.14692569051059,1
123,509,5,0.147762725433806,1
123,510,5,0.164505297782009,1
123,511,5,0.198808058164641,2
123,512,5,0.18209241174297,1
123,513,5,0.129619346815839,1
123,521,5,0.110035040736004,1
123,522,5,0.111298540396162,1
124,507,5,0.13272951441155,1
124,508,5,0.219533592982251,1
124,509,5,0.22888257806444,1
124,510,5,0.290407472477777,2
124,511,5,0.388155679773235,2
124,512,5,0.328428196919496,2
124,513,5,0.180380139204586,1
124,520,5,0.111090126586209,1
124,521,5,0.123659593022763,1
124,522,5,0.127780029412838,1
124,523,5,0.131900621959902,1
124,524,5,0.162292374782841,1
125,502,5,0.168363725052694,1
125,503,5,0.139999336109715,1
125,504,5,0.119277727524972,1
125,507,5,0.120921569839964,1
125,508,5,0.18542550459454,1
125,509,5,0.210020241515076,1
125,510,5,0.288063221450866,2
125,511,5,0.364884496029195,2
125,512,5,0.283397919863981,2
125,513,5,0.147807620568142,1
125,522,5,0.118668001407376,1
125,523,5,0.141198911791022,1
125,524,5,0.175205141205627,1
125,525,5,0.204255282411699,1
126,501,5,0.259053513750872,1
126,502,5,0.219755023592644,1
126,503,5,0.14735648302694,1
126,504,5,0.109041090346991,1
126,507,5,0.109106665128297,1
126,508,5,0.133771695002022,1
126,509,5,0.15168622555262,1
126,510,5,0.176133762202888,1
126,511,5,0.189371602860475,2
126,512,5,0.147437762739711,1
126,522,5,0.111464736048734,1
126,523,5,0.115868798147104,1
126,524,5,0.121197711166858,1
126,525,5,0.137773530158956,1
127,500,5,0.245561148355297,1
127,501,5,0.270706171350975,1
127,502,5,0.216897953013879,1
127,503,5,0.136752352683504,1
127,507,5,0.108249597494207,1
127,508,5,0.119477496930177,1
127,509,5,0.124094557161534,1
127,510,5,0.10795273190406,1
127,521,5,0.116696987892301,1
127,522,5,0.114841742476423,1
127,525,5,0.11881912791051,1
128,500,5,0.182212585700071,1
128,501,5,0.178373923442564,1
128,502,5,0.147770867905375,1
128,503,5,0.112775885898676,1
128,521,5,0.105626628550084,1
128,525,5,0.112249190682942,1
129,500,5,0.138721481160641,1
129,501,5,0.121679656251174,1
129,502,5,0.10891693438667,1
130,500,5,0.130264409029229,1
130,501,5,0.111461802528155,1
131,500,5,0.133418434430707,1
131,501,5,0.103716605493282,1
132,499,5,0.151353767323053,1
132,500,5,0.107922292445277,1
133,498,5,0.141078882836839,1
133,499,5,0.10505478165639,1
133,523,5,0.111121937995681,1
135,497,5,0.118277977019224,1
136,497,5,0.107256528276774,1
141,496,5,0.114852606541229,1
145,493,5,0.111909950778425,1
150,492,5,0.103356161700473,1
151,492,5,0.158203705185956,1
156,496,5,0.104610593101198,1
122,511,6,0.106131919104255,1
123,508,6,0.128569793384672,1
123,509,6,0.137365837722906,1
123,510,6,0.159312397499668,1
123,511,6,0.185928129325827,2
123,512,6,0.165347329728873,1
123,513,6,0.116337994128676,1
123,522,6,0.108135614046312,1
124,507,6,0.117291901404083,1
124,508,6,0.183328383156782,1
124,509,6,0.219354570148441,1
124,510,6,0.30307606514013,2
124,511,6,0.380992580222976,2
124,512,6,0.307561273102423,2
124,513,6,0.16765418115692,1
124,514,6,0.104363608514964,1
124,521,6,0.116782361148998,1
124,522,6,0.132131711995471,1
124,523,6,0.142667055185255,1
125,507,6,0.110280374519784,1
125,508,6,0.163897311699433,1
125,509,6,0.214597782874147,2
125,510,6,0.322424830710208,2
125,511,6,0.393585927524775,2
125,512,6,0.299975813513219,2
125,513,6,0.158120228121268,1
125,521,6,0.107978274725831,1
125,522,6,0.132676800273694,1
125,523,6,0.153785153949822,1
125,524,6,0.165025032857661,1
126,502,6,0.216880151117134,1
126,503,6,0.137566822921811,1
126,507,6,0.107848497113907,1
126,508,6,0.127718124320773,1
126,509,6,0.151341430920922,1
126,510,6,0.191004714959509,2
126,511,6,0.210006455083762,2
126,512,6,0.16650680652622,1
126,513,6,0.107847627096396,1
126,522,6,0.118717090472273,1
126,523,6,0.127719362422614,1
126,524,6,0.123183414592969,1
126,525,6,0.123226380073083,1
127,502,6,0.223489562600705,1
127,503,6,0.137173753472374,1
127,506,6,0.104740560332323,1
127,507,6,0.108316968080887,1
127,508,6,0.116211562737944,1
127,509,6,0.124249286429485,1
127,510,6,0.120081188695555,1
127,511,6,0.10963264648351,1
127,521,6,0.115745300276951,1
127,522,6,0.12112760783287,1
127,523,6,0.114249026316557,1
127,524,6,0.106208302180014,1
127,525,6,0.113071379538134,1
128,501,6,0.195113026874796,1
128,502,6,0.15691211957592,1
128,503,6,0.119240082536553,1
128,521,6,0.115450475881732,1
128,522,6,0.105904119519525,1
129,500,6,0.147412521077847,1
129,501,6,0.128862587739035,1
129,502,6,0.114571022027862,1
130,501,6,0.123240356123598,1
131,501,6,0.120599618744942,1
132,500,6,0.119333865962515,1
132,523,6,0.112734493142522,1
132,524,6,0.105547523881088,1
133,499,6,0.109138610386617,1
133,523,6,0.119475979976569,1
133,524,6,0.106307751873862,1
134,497,6,0.124332138866216,1
135,497,6,0.116283238795892,1
136,497,6,0.109617856185838,1
141,496,6,0.114272929489944,1
145,493,6,0.108902746408813,1
123,508,7,0.107608952292791,1
123,509,7,0.122428205931985,1
123,510,7,0.148713364566516,1
123,511,7,0.16334578752245,2
123,512,7,0.141269360901199,1
123,513,7,0.103999205027077,1
123,522,7,0.106506127020236,1
124,507,7,0.108520886800371,1
124,508,7,0.142603744680289,1
124,509,7,0.199052733858253,1
124,510,7,0.302615915109848,2
124,511,7,0.349215592212888,2
124,512,7,0.263195332494369,2
124,513,7,0.148127653163013,1
124,514,7,0.107536216598132,1
124,515,7,0.105039612120317,1
124,521,7,0.115253093447644,1
124,522,7,0.142379882482496,1
124,523,7,0.163423040615719,1
125,507,7,0.104721520333737,1
125,508,7,0.138474541190689,1
125,509,7,0.210311585840255,2
125,510,7,0.345068218742212,2
125,511,7,0.399996439620651,2
125,512,7,0.293429623302049,2
125,513,7,0.159602592955571,1
125,514,7,0.114886648764829,1
125,515,7,0.11626444418686,1
125,516,7,0.108772500325922,1
125,520,7,0.104703004576471,1
125,521,7,0.121382355652272,1
125,522,7,0.156081732478807,1
125,523,7,0.179310307672992,1
125,524,7,0.174840871566587,1
126,503,7,0.127981081536167,1
126,507,7,0.105227736675771,1
126,508,7,0.119250734674017,1
126,509,7,0.15059302624303,1
126,510,7,0.205749504023095,2
126,511,7,0.224661141564698,2
126,512,7,0.175767016360166,1
126,513,7,0.115751033469261,1
126,516,7,0.106114953762808,1
126,521,7,0.108997065230165,1
126,522,7,0.131667033412509,1
126,523,7,0.145880732556528,1
126,524,7,0.137384253093537,1
126,525,7,0.121834418981337,1
127,503,7,0.138163543393038,1
127,504,7,0.108069358866696,1
127,505,7,0.107165946069087,1
127,506,7,0.108377255832709,1
127,507,7,0.109465235037238,1
127,508,7,0.115637507338263,1
127,509,7,0.133865054573298,1
127,510,7,0.150406362870829,1
127,511,7,0.141810032167447,1
127,512,7,0.112776488218491,1
127,520,7,0.11221373189237,1
127,521,7,0.118945403144252,1
127,522,7,0.131295970944449,1
127,523,7,0.135222939979232,1
127,524,7,0.121524001195359,1
127,525,7,0.11484428560453,1
128,502,7,0.162483767480994,1
128,503,7,0.127886617711897,1
128,504,7,0.108041663309291,1
128,509,7,0.11314405946244,1
128,510,7,0.122728540438102,1
128,511,7,0.107848508267977,1
128,520,7,0.122426153582986,1
128,521,7,0.123269847486377,1
128,522,7,0.116229108091065,1
128,523,7,0.10882369751017,1
129,501,7,0.135450204168571,1
129,502,7,0.119801076519512,1
129,503,7,0.108447883408017,1
130,501,7,0.133382451398814,1
130,502,7,0.1080506646443,1
131,501,7,0.13805800357662,1
132,500,7,0.134305093814211,1
132,501,7,0.109168681761069,1
132,523,7,0.13007134322048,1
132,524,7,0.133690560292169,1
133,496,7,0.136896954055312,1
133,499,7,0.112977484571466,1
133,523,7,0.123778171947762,1
133,524,7,0.113726748112798,1
134,496,7,0.146138101582531,1
134,497,7,0.110120469763055,1
135,496,7,0.159366505896354,1
135,497,7,0.110035877291303,1
136,496,7,0.154473360108457,1
136,497,7,0.107490261827085,1
137,496,7,0.143898832668506,1
138,496,7,0.149351042785141,1
139,496,7,0.163797382380548,1
140,496,7,0.156671503964023,1
141,496,7,0.11544455307022,1
144,494,7,0.125297947534999,1
145,493,7,0.105887890346741,1
123,509,8,0.106072713297285,1
123,510,8,0.129576459414219,1
123,511,8,0.135681907678025,1
123,512,8,0.1178380939353,1
124,507,8,0.105250937142707,1
124,508,8,0.118585093200291,1
124,509,8,0.17195353999417,1
124,510,8,0.269904282904352,2
124,511,8,0.293961895553104,2
124,512,8,0.214170782741815,1
124,513,8,0.131175551597794,1
124,514,8,0.108433483502817,1
124,515,8,0.111517818270921,1
124,519,8,0.106928319748121,1
124,520,8,0.106362540668857,1
124,521,8,0.115936324890773,1
124,522,8,0.152035972591682,1
125,507,8,0.108147493131546,1
125,508,8,0.129479140147864,1
125,509,8,0.197363003696637,2
125,510,8,0.33017815906258,2
125,511,8,0.37292629095652,2
125,512,8,0.27109364145695,2
125,513,8,0.159303117312893,1
125,514,8,0.128611966925771,1
125,515,8,0.139726039070836,1
125,516,8,0.134278580588294,1
125,517,8,0.106691351517324,1
125,518,8,0.110784482742467,1
125,519,8,0.131310694317697,1
125,520,8,0.126440882845584,1
125,521,8,0.13181984418031,1
125,522,8,0.174162949461084,1
125,523,8,0.21556046840315,1
125,524,8,0.215730880294425,1
126,503,8,0.121673387663473,1
126,505,8,0.104353982552,1
126,506,8,0.102916111305489,1
126,507,8,0.10857260822594,1
126,508,8,0.119403389284829,1
126,509,8,0.148430363486177,1
126,510,8,0.207886222411633,2
126,511,8,0.230993932096338,2
126,512,8,0.183648460367936,1
126,513,8,0.130556522985283,1
126,514,8,0.115902528056726,1
126,515,8,0.133074074807764,1
126,516,8,0.143396352940137,1
126,517,8,0.12245712843716,1
126,518,8,0.117965317265047,1
126,519,8,0.130277526216305,1
126,520,8,0.123882060961725,1
126,521,8,0.119945577504684,1
126,522,8,0.144692768262761,1
126,523,8,0.175260197698317,1
126,524,8,0.184098705583487,1
127,503,8,0.141464244823463,1
127,504,8,0.120637910669458,1
127,505,8,0.120543089914927,1
127,506,8,0.115495058702089,1
127,507,8,0.112412943594043,1
127,508,8,0.117343901681418,1
127,509,8,0.13998500312894,1
127,510,8,0.175673210626064,1
127,511,8,0.177895201884663,1
127,512,8,0.142572948291245,1
127,513,8,0.117945351478597,1
127,514,8,0.109487342405251,1
127,515,8,0.110493729583031,1
127,516,8,0.119695927095567,1
127,517,8,0.122622476380363,1
127,518,8,0.127989335548443,1
127,519,8,0.133950762452114,1
127,520,8,0.131666553787472,1
127,521,8,0.123670144773591,1
127,522,8,0.138416640409984,1
127,523,8,0.154760042032107,1
127,524,8,0.151092538988608,1
127,525,8,0.138392402614478,1
128,502,8,0.164691659994302,1
128,503,8,0.141281463067846,1
128,504,8,0.122905421690349,1
128,505,8,0.116083915553513,1
128,506,8,0.108127293109613,1
128,507,8,0.104825030109298,1
128,508,8,0.112262084788605,1
128,509,8,0.135373207618926,1
128,510,8,0.161213575378451,1
128,511,8,0.148778470876855,1
128,512,8,0.117197259114683,1
128,513,8,0.1080058698966,1
128,517,8,0.118663762860532,1
128,518,8,0.1429645677115,1
128,519,8,0.151805730265482,1
128,520,8,0.147079047827852,1
128,521,8,0.126325070130104,1
128,522,8,0.121277908934776,1
128,523,8,0.12229060931654,1
128,524,8,0.112823491472178,1
128,525,8,0.103602287423268,1
129,501,8,0.142053369372582,1
129,502,8,0.127175266856678,1
129,503,8,0.119812241744225,1
129,504,8,0.10845835708035,1
129,518,8,0.109683274810155,1
129,519,8,0.113421516969669,1
129,520,8,0.108545392293572,1
130,501,8,0.141922699435006,1
130,502,8,0.117351374908749,1
131,501,8,0.154593244059721,1
131,502,8,0.11571627738514,1
131,524,8,0.117510242336908,1
132,501,8,0.132142732217266,1
132,523,8,0.131630091130542,1
132,524,8,0.150098532829241,1
133,496,8,0.120632880183598,1
133,500,8,0.10499452736678,1
133,523,8,0.119169421499034,1
133,524,8,0.114441144029302,1
134,496,8,0.123364099383305,1
135,496,8,0.130483575363281,1
136,495,8,0.15087726542521,1
136,496,8,0.127548303595243,1
137,495,8,0.130195119942399,1
137,496,8,0.119199548643839,1
138,495,8,0.137740413723219,1
138,496,8,0.120868074917163,1
139,494,8,0.177340599184182,1
139,495,8,0.171734317889764,1
139,496,8,0.138070696909011,1
140,495,8,0.189767795449692,1
140,496,8,0.141273577139902,1
141,495,8,0.146128029456741,1
141,496,8,0.106780249460344,1
142,495,8,0.106111228303213,1
144,494,8,0.113492345318248,1
147,498,8,0.110477266174763,1
123,510,9,0.110002270076457,1
123,511,9,0.113307756603188,1
123,512,9,0.104036638088153,1
124,508,9,0.110134010804814,1
124,509,9,0.148140402265758,1
124,510,9,0.217348220537571,1
124,511,9,0.229850349849657,1
124,512,9,0.172227160501098,1
124,513,9,0.120706463587626,1
124,514,9,0.109096381075165,1
124,515,9,0.113704484587796,1
124,516,9,0.10447049797393,1
124,519,9,0.117121221815114,1
124,520,9,0.111303615498305,1
124,521,9,0.114715054542067,1
124,523,9,0.218474134736355,1
124,524,9,0.233859078222248,1
125,507,9,0.122602521747984,1
125,508,9,0.136318727033211,1
125,509,9,0.182566370512706,1
125,510,9,0.28675685669723,2
125,511,9,0.323071342952782,2
125,512,9,0.24241824356225,1
125,513,9,0.161065203930766,1
125,514,9,0.141425038265155,1
125,515,9,0.154713752638942,1
125,516,9,0.147872838419188,1
125,517,9,0.111801142819308,1
125,518,9,0.124713396154844,1
125,519,9,0.166920020227238,1
125,520,9,0.151679823116071,1
125,521,9,0.13846292980315,1
125,522,9,0.185684178646808,1
125,523,9,0.257108511528535,1
125,524,9,0.273228419037197,1
125,525,9,0.192933476854991,1
126,503,9,0.118071481709421,1
126,504,9,0.110259103707069,1
126,505,9,0.119925845953718,1
126,506,9,0.123311965257122,1
126,507,9,0.132353332225065,1
126,508,9,0.135240016861386,1
126,509,9,0.151516036742758,1
126,510,9,0.210246847614247,1
126,511,9,0.243732996177009,1
126,512,9,0.200737132374101,1
126,513,9,0.154957000611511,1
126,514,9,0.147269481275929,1
126,515,9,0.168151741940135,1
126,516,9,0.173406558468612,1
126,517,9,0.137041042339871,1
126,518,9,0.139635233781736,1
126,519,9,0.171328354334664,1
126,520,9,0.156115886243114,1
126,521,9,0.135343147398545,1
126,522,9,0.162960771312016,1
126,523,9,0.221600910743253,1
126,524,9,0.263952426193291,3
126,525,9,0.219882849242206,1
127,503,9,0.149561843566212,1
127,504,9,0.138925645269679,1
127,505,9,0.14248343687434,1
127,506,9,0.134023051983948,1
127,507,9,0.128997897769998,1
127,508,9,0.131858314569956,1
127,509,9,0.151868483066916,1
127,510,9,0.197541334978068,1
127,511,9,0.212032948946212,1
127,512,9,0.177953046895015,1
127,513,9,0.1620718364981,1
127,514,9,0.15614534414368,1
127,515,9,0.147740684990217,1
127,516,9,0.150426261732855,1
127,517,9,0.150191524316186,1
127,518,9,0.16135993909342,1
127,519,9,0.166125783473076,1
127,520,9,0.150058445099352,1
127,521,9,0.132859325485686,1
127,522,9,0.149619487803291,1
127,523,9,0.180503101679348,1
127,524,9,0.202449237601425,1
128,502,9,0.166952768578644,1
128,503,9,0.155959294245365,1
128,504,9,0.139946320811952,1
128,505,9,0.13223603601819,1
128,506,9,0.119928790628368,1
128,507,9,0.11725556144193,1
128,508,9,0.132976956314681,1
128,509,9,0.163501219496851,1
128,510,9,0.193736213010982,1
128,511,9,0.182207220592092,1
128,512,9,0.157710260254807,1
128,513,9,0.169413869649604,1
128,514,9,0.160414185443652,1
128,515,9,0.12671603146019,1
128,516,9,0.126629542796429,1
128,517,9,0.165193582019138,1
128,518,9,0.206309081439082,1
128,519,9,0.196777169598358,1
128,520,9,0.161278480915519,1
128,521,9,0.128203806018754,1
128,522,9,0.127691031083182,1
128,523,9,0.139228366746914,1
128,524,9,0.138597035194484,1
129,501,9,0.148117781810495,1
129,502,9,0.135469734946265,1
129,503,9,0.133016542111391,1
129,504,9,0.125321761475821,1
129,505,9,0.113762820377256,1
129,508,9,0.10897300589979,1
129,509,9,0.124637470395981,1
129,510,9,0.124946103530656,1
129,511,9,0.11059823207088,1
129,512,9,0.106769775788011,1
129,513,9,0.120361490490798,1
129,514,9,0.112181663939273,1
129,517,9,0.124762306754611,1
129,518,9,0.157020760223977,1
129,519,9,0.145392016951332,1
129,520,9,0.120544662638887,1
130,501,9,0.155371686649853,1
130,502,9,0.130567967061762,1
130,503,9,0.11838018176852,1
130,504,9,0.106085841638431,1
131,502,9,0.13779009395386,1
131,503,9,0.104289846645806,1
131,524,9,0.128697362490609,1
132,501,9,0.168936408501686,1
132,502,9,0.117418009326766,1
132,523,9,0.125784086549877,1
132,524,9,0.147286970858697,1
133,497,9,0.119500608164548,1
133,500,9,0.130696618112551,1
133,501,9,0.116427695164782,1
133,522,9,0.104237567516705,1
133,523,9,0.116085655588533,1
133,524,9,0.10809476783962,1
134,523,9,0.108840149764368,1
135,496,9,0.103549383666211,1
139,495,9,0.130126979724844,1
139,496,9,0.106431640136487,1
140,495,9,0.145616392236374,1
140,496,9,0.114707837858361,1
141,495,9,0.11386082004192,1
156,505,9,0.103286448758958,1
123,524,10,0.239192240942917,1
124,509,10,0.126519396348835,1
124,510,10,0.16241145564102,1
124,511,10,0.173292563866647,1
124,512,10,0.14071184698828,1
124,513,10,0.110261144901996,1
124,514,10,0.105624776974358,1
124,515,10,0.111392624982031,1
124,516,10,0.104977651257898,1
124,519,10,0.115955342581218,1
124,520,10,0.105685220883169,1
124,523,10,0.22789111503318,1
124,524,10,0.243808933089943,1
124,525,10,0.173960670389985,1
125,506,10,0.120383709399517,1
125,507,10,0.144383298572788,1
125,508,10,0.144590496589041,1
125,509,10,0.16255748473387,1
125,510,10,0.232804572383717,1
125,511,10,0.272586680736858,1
125,512,10,0.217778053803846,1
125,513,10,0.163966043082732,1
125,514,10,0.151624208919848,1
125,515,10,0.160181678841112,1
125,516,10,0.14783328608469,1
125,517,10,0.114608276623807,1
125,518,10,0.132953543920402,1
125,519,10,0.185265175983126,1
125,520,10,0.161621803209892,1
125,521,10,0.135686056992304,1
125,522,10,0.184550623909634,1
125,523,10,0.280550285628979,1
125,524,10,0.300395251185655,3
125,525,10,0.213749315028522,1
126,503,10,0.116870589847779,1
126,504,10,0.117869381103452,1
126,505,10,0.140530716035119,1
126,506,10,0.171631990445691,1
126,507,10,0.188352522350304,1
126,508,10,0.164464261956115,1
126,509,10,0.161755228202916,1
126,510,10,0.227355965031899,1
126,511,10,0.278109975745696,1
126,512,10,0.236564431132135,1
126,513,10,0.201408072031382,1
126,514,10,0.199636404066828,1
126,515,10,0.211073520405837,1
126,516,10,0.195742830319548,1
126,517,10,0.14770600698459,1
126,518,10,0.157313956124883,1
126,519,10,0.207559876612778,1
126,520,10,0.184963937997287,1
126,521,10,0.14792809568515,1
126,522,10,0.175309364841709,1
126,523,10,0.265067208629574,3
126,524,10,0.329670224993667,3
126,525,10,0.270873170096633,3
126,526,10,0.181707183605194,1
127,502,10,0.172561492614533,1
127,503,10,0.158493387554609,1
127,504,10,0.157994097890444,1
127,505,10,0.167968012088514,1
127,506,10,0.172851732686718,1
127,507,10,0.168509174133871,1
127,508,10,0.155381290304677,1
127,509,10,0.16812837416214,1
127,510,10,0.218982760357648,1
127,511,10,0.243385056097391,1
127,512,10,0.212754795781905,1
127,513,10,0.21187801890499,1
127,514,10,0.212738622379474,1
127,515,10,0.203394098925542,1
127,516,10,0.196147276921041,1
127,517,10,0.178699856540805,1
127,518,10,0.188277633920011,1
127,519,10,0.192200007477689,1
127,520,10,0.163252706802939,1
127,521,10,0.137224415261231,1
127,522,10,0.153780926557048,1
127,523,10,0.209810076516032,1
127,524,10,0.255832240457492,3
127,525,10,0.213491209833857,1
128,502,10,0.168791639818819,1
128,503,10,0.172092876644634,1
128,504,10,0.161689575343115,1
128,505,10,0.149844588102925,1
128,506,10,0.135967730738236,1
128,507,10,0.135563986843194,1
128,508,10,0.158997875015694,1
128,509,10,0.196412074558091,1
128,510,10,0.217093171558262,1
128,511,10,0.203841778704845,1
128,512,10,0.189963861703444,1
128,513,10,0.219266363757801,1
128,514,10,0.206862568732499,1
128,515,10,0.165658862921915,1
128,516,10,0.16788650929433,1
128,517,10,0.204955512658487,1
128,518,10,0.248021669414584,1
128,519,10,0.215729296416393,1
128,520,10,0.158218662794687,1
128,521,10,0.124736708162486,1
128,522,10,0.131166583724997,1
128,523,10,0.162687306962076,1
128,524,10,0.171847219392806,1
129,501,10,0.149764847651903,1
129,502,10,0.145338488566319,1
129,503,10,0.152752744325233,1
129,504,10,0.150508980320739,1
129,505,10,0.132698874179495,1
129,506,10,0.112522008096784,1
129,507,10,0.115944500824554,1
129,508,10,0.148093421320212,1
129,509,10,0.175577319080751,1
129,510,10,0.161889121666907,1
129,511,10,0.140167115640318,1
129,512,10,0.142011920846075,1
129,513,10,0.162374201045074,1
129,514,10,0.144884651740022,1
129,515,10,0.113693062819458,1
129,516,10,0.119598797448413,1
129,517,10,0.152727926518053,1
129,518,10,0.184961350252898,1
129,519,10,0.157503173779261,1
129,520,10,0.125413782558621,1
129,521,10,0.109902329603501,1
129,522,10,0.109938323789464,1
129,523,10,0.120218997238341,1
129,524,10,0.119589439183144,1
130,501,10,0.162320438424578,1
130,502,10,0.141115144720497,1
130,503,10,0.138431586864645,1
130,504,10,0.133049636238987,1
130,505,10,0.11021485550883,1
130,508,10,0.10525706072749,1
130,509,10,0.111298295006608,1
130,524,10,0.111853756570528,1
131,502,10,0.149917647265633,1
131,503,10,0.121046952748055,1
131,524,10,0.128537836972282,1
131,525,10,0.10652928287089,1
132,501,10,0.190473714272508,1
132,502,10,0.127270411079258,1
132,523,10,0.115099836517017,1
132,524,10,0.125192396564511,1
133,497,10,0.110227571149363,1
133,498,10,0.116420433864794,1
133,499,10,0.12879634371349,1
133,500,10,0.151559225304285,1
133,501,10,0.127736071220436,1
133,522,10,0.112581581988085,1
133,523,10,0.117477159363383,1
134,522,10,0.108108721581993,1
134,523,10,0.112057139894622,1
135,499,10,0.105781078966269,1
135,500,10,0.112499499182228,1
136,499,10,0.122015594550781,1
136,500,10,0.147326166262934,1
136,501,10,0.103284340639607,1
137,499,10,0.107901668568659,1
137,500,10,0.135986190725149,1
156,504,10,0.117379483166767,1
156,505,10,0.114753022998534,1
124,509,11,0.108433204651051,1
124,510,11,0.1231474984855,1
124,511,11,0.134320151809578,1
124,512,11,0.117624136552237,1
124,515,11,0.10534753139447,1
124,516,11,0.105383659429281,1
124,517,11,0.103417196775028,1
124,518,11,0.107984666008309,1
124,519,11,0.110354638322121,1
124,523,11,0.223649846595836,1
124,524,11,0.240843355711968,1
124,525,11,0.180560478218732,1
125,506,11,0.130428385021743,1
125,507,11,0.153651940884139,1
125,508,11,0.139228232898066,1
125,509,11,0.138274492933718,1
125,510,11,0.183722199928953,1
125,511,11,0.224445421838475,1
125,512,11,0.196163338782766,1
125,513,11,0.167149526384776,1
125,514,11,0.154702286254321,1
125,515,11,0.152024785058828,1
125,516,11,0.140078173081016,1
125,517,11,0.12459335604659,1
125,518,11,0.144510633443241,1
125,519,11,0.182737529726714,1
125,520,11,0.165291860535568,1
125,521,11,0.14037984607561,1
125,522,11,0.182350661940553,1
125,523,11,0.280143139742391,1
125,524,11,0.30014252225304,3
125,525,11,0.225685531412495,1
125,526,11,0.179513813691863,1
126,503,11,0.118806791508379,1
126,504,11,0.120903042928627,1
126,505,11,0.14845489128752,1
126,506,11,0.208946885297159,1
126,507,11,0.233794384612522,1
126,508,11,0.182829416960666,1
126,509,11,0.17333879748946,1
126,510,11,0.245114918605177,1
126,511,11,0.29828670797956,1
126,512,11,0.272291566335801,1
126,513,11,0.26547691995241,1
126,514,11,0.254641610340841,1
126,515,11,0.233561599158216,1
126,516,11,0.198008958235679,1
126,517,11,0.156040362030794,1
126,518,11,0.178044309501011,1
126,519,11,0.233508305008686,1
126,520,11,0.212702527806875,1
126,521,11,0.162904599412261,1
126,522,11,0.188347971489482,1
126,523,11,0.298264466762699,3
126,524,11,0.360640729080027,3
126,525,11,0.286405168849875,3
126,526,11,0.201612146907855,1
127,502,11,0.171486452131949,1
127,503,11,0.167464818499624,1
127,504,11,0.171567798769144,1
127,505,11,0.179871580507717,1
127,506,11,0.202586678059881,1
127,507,11,0.20299418087673,1
127,508,11,0.17917864502313,1
127,509,11,0.200139653426071,1
127,510,11,0.252742049802301,1
127,511,11,0.265688021893388,1
127,512,11,0.250091597228115,1
127,513,11,0.281281568808436,4
127,514,11,0.281710264359505,4
127,515,11,0.260520564046183,1
127,516,11,0.241764258092345,1
127,517,11,0.212285900960241,1
127,518,11,0.224500522947448,1
127,519,11,0.229905317109782,1
127,520,11,0.187369246406895,1
127,521,11,0.144314611805772,1
127,522,11,0.166486829585699,1
127,523,11,0.253655144333228,1
127,524,11,0.299382060024783,3
127,525,11,0.224666138588346,1
128,501,11,0.179849640450764,1
128,502,11,0.180445423980056,1
128,503,11,0.196252325958351,1
128,504,11,0.189630890386628,1
128,505,11,0.165374512199029,1
128,506,11,0.148782464034145,1
128,507,11,0.149599455092418,1
128,508,11,0.183838246879916,1
128,509,11,0.234411583957448,1
128,510,11,0.242238752257472,1
128,511,11,0.220479458172726,1
128,512,11,0.22239349669496,1
128,513,11,0.264029946984256,1
128,514,11,0.247542066685102,1
128,515,11,0.209052848968262,1
128,516,11,0.213717592851615,1
128,517,11,0.238429904830792,1
128,518,11,0.267302238996755,1
128,519,11,0.222955104151804,1
128,520,11,0.158104556652016,1
128,521,11,0.126567425777022,1
128,522,11,0.144234637119266,1
128,523,11,0.195083446279453,1
128,524,11,0.199732752929037,1
129,500,11,0.172321345473602,1
129,501,11,0.16128683531443,1
129,502,11,0.173201669344982,1
129,503,11,0.195031802932378,1
129,504,11,0.189803666940878,1
129,505,11,0.158076348007361,1
129,506,11,0.131837835696256,1
129,507,11,0.13950941586489,1
129,508,11,0.193003412877919,1
129,509,11,0.232865473609424,1
129,510,11,0.201909090576497,1
129,511,11,0.176422909176151,1
129,512,11,0.188360374816036,1
129,513,11,0.206163119270656,1
129,514,11,0.178705132416219,1
129,515,11,0.149503139692421,1
129,516,11,0.158856564094725,1
129,517,11,0.182046423509711,1
129,518,11,0.195614179268759,1
129,519,11,0.160526875019352,1
129,520,11,0.133834815887787,1
129,521,11,0.124365444921155,1
129,522,11,0.125334811738473,1
129,523,11,0.139081846874955,1
129,524,11,0.133846706127092,1
130,501,11,0.175866778367992,1
130,502,11,0.165576858194552,1
130,503,11,0.174894299564964,1
130,504,11,0.170785887263042,1
130,505,11,0.140197923183432,1
130,506,11,0.114034198915985,1
130,507,11,0.116036566523636,1
130,508,11,0.141920914783703,1
130,509,11,0.153190307362463,1
130,510,11,0.127235900384691,1
130,511,11,0.117175095976316,1
130,512,11,0.123108191540557,1
130,513,11,0.120015390832835,1
130,514,11,0.107174066232515,1
130,515,11,0.105396932773345,1
130,516,11,0.111954901683114,1
130,517,11,0.108000426710126,1
130,520,11,0.106024193089991,1
130,521,11,0.108602066126506,1
130,523,11,0.107759889176723,1
130,524,11,0.122430537132749,1
131,502,11,0.157540584532195,1
131,503,11,0.140298789444252,1
131,504,11,0.128235650890438,1
131,505,11,0.104287626985748,1
131,524,11,0.119532185338536,1
131,525,11,0.106463195002334,1
132,501,11,0.190770077929476,1
132,502,11,0.128924938993926,1
132,523,11,0.106417797934819,1
133,498,11,0.106683097505049,1
133,499,11,0.129704552761476,1
133,500,11,0.161216665056019,1
133,501,11,0.131614575818278,1
133,522,11,0.117591957058434,1
133,523,11,0.119265591896113,1
134,499,11,0.110064420558077,1
134,500,11,0.131872770245508,1
134,501,11,0.11099082189528,1
134,522,11,0.112242442470204,1
134,523,11,0.110640104452071,1
135,499,11,0.123360329307428,1
135,500,11,0.165655360543733,1
135,501,11,0.128861215788346,1
135,522,11,0.107115016582534,1
135,523,11,0.103270464975727,1
136,499,11,0.132400034318845,1
136,500,11,0.191662381272726,1
136,501,11,0.135974557029469,1
137,499,11,0.110603597178859,1
137,500,11,0.159456073083612,1
137,501,11,0.113094189612598,1
138,500,11,0.103695356988708,1
155,504,11,0.10759453007945,1
156,504,11,0.124736150458954,1
156,505,11,0.111849004936435,1
124,510,12,0.108264677797715,1
124,511,12,0.118088982446259,1
124,512,12,0.106946991662377,1
124,516,12,0.105706547466237,1
124,517,12,0.113236560170277,1
124,518,12,0.11141709701302,1
124,523,12,0.208451934566474,1
124,524,12,0.231979951941125,1
124,525,12,0.19828209911757,1
125,505,12,0.104041523571094,1
125,506,12,0.136200605425108,1
125,507,12,0.154981907651255,1
125,508,12,0.133276800041689,1
125,509,12,0.127728441836117,1
125,510,12,0.159114635827178,1
125,511,12,0.192232577363965,1
125,512,12,0.183894240314541,1
125,513,12,0.168066982157324,1
125,514,12,0.148936747139271,1
125,515,12,0.138833724573515,1
125,516,12,0.136299140485163,1
125,517,12,0.140902760061396,1
125,518,12,0.150107043385141,1
125,519,12,0.162643672237723,1
125,520,12,0.158523470083132,1
125,522,12,0.172909544234858,1
125,523,12,0.259885897426631,3
125,524,12,0.285252239491995,3
125,525,12,0.239640032262926,1
125,526,12,0.200484403441486,1
125,527,12,0.222549586759529,1
125,528,12,0.232620708683248,1
126,503,12,0.119879656947188,1
126,504,12,0.121015487114773,1
126,505,12,0.147678211040549,1
126,506,12,0.218831801165574,1
126,507,12,0.24679974097571,1
126,508,12,0.1898603073116,1
126,509,12,0.192135715414506,1
126,510,12,0.257654904833023,1
126,511,12,0.291616261421434,1
126,512,12,0.291359650872235,1
126,513,12,0.312038762447831,4
126,514,12,0.283107958643561,4
126,515,12,0.231604305150031,1
126,516,12,0.188831567376253,1
126,517,12,0.165247846572814,1
126,518,12,0.188994528348338,1
126,519,12,0.231758565947015,1
126,520,12,0.213621533995243,1
126,521,12,0.165146958003853,1
126,522,12,0.191927736613308,3
126,523,12,0.313872714742853,3
126,524,12,0.350270031126996,3
126,525,12,0.268912686024244,3
126,526,12,0.205223366510893,1
127,502,12,0.171122450190605,1
127,503,12,0.173137321511446,1
127,504,12,0.17921477305794,1
127,505,12,0.18207384021535,1
127,506,12,0.21298894203283,1
127,507,12,0.219137088079056,1
127,508,12,0.198099216975318,1
127,509,12,0.241305937329649,1
127,510,12,0.288422404833692,1
127,511,12,0.274221778260466,1
127,512,12,0.28018391902466,4
127,513,12,0.343016828994088,4
127,514,12,0.340220302710769,4
127,515,12,0.299104747520472,4
127,516,12,0.264237725012182,1
127,517,12,0.233641975391265,1
127,518,12,0.246753540815109,1
127,519,12,0.253153768857853,1
127,520,12,0.196282330408379,1
127,521,12,0.142890549298717,1
127,522,12,0.180079938547317,1
127,523,12,0.298767961511496,3
127,524,12,0.312598919875492,3
127,525,12,0.21265208909943,1
128,501,12,0.174702237622573,1
128,502,12,0.195560929735512,1
128,503,12,0.229793397164956,1
128,504,12,0.227246655139604,1
128,505,12,0.186680025227831,1
128,506,12,0.161730878866704,1
128,507,12,0.159907143700391,1
128,508,12,0.197030121612386,1
128,509,12,0.256946375957677,1
128,510,12,0.25792086249342,1
128,511,12,0.232946117540169,1
128,512,12,0.250027729019617,1
128,513,12,0.291045596859228,4
128,514,12,0.277022654631335,4
128,515,12,0.252197954236365,1
128,516,12,0.259258391720432,1
128,517,12,0.264836676297537,1
128,518,12,0.257449491468073,1
128,519,12,0.20979441620085,1
128,520,12,0.14830852757255,1
128,521,12,0.124239415076966,1
128,522,12,0.153650122770625,1
128,523,12,0.218501774523407,1
128,524,12,0.204288142303812,1
129,500,12,0.174996593546826,1
129,501,12,0.174463618589321,1
129,502,12,0.212498274465272,1
129,503,12,0.262397414896895,5
129,504,12,0.250552304961928,5
129,505,12,0.195917302292536,1
129,506,12,0.156546277212921,1
129,507,12,0.157905869191663,1
129,508,12,0.216708445353665,1
129,509,12,0.262173708856091,1
129,510,12,0.226212405093359,1
129,511,12,0.210967802124288,1
129,512,12,0.23464151396967,1
129,513,12,0.23967204444567,1
129,514,12,0.208601287572375,1
129,515,12,0.193715756445424,1
129,516,12,0.21325286965237,1
129,517,12,0.21677833676031,1
129,518,12,0.188956448351165,1
129,519,12,0.147278917619693,1
129,520,12,0.128903768567847,1
129,521,12,0.128303880340558,1
129,522,12,0.131508589839034,1
129,523,12,0.146788729677172,1
129,524,12,0.134123862474414,1
130,500,12,0.202206904262649,1
130,501,12,0.188199510809231,1
130,502,12,0.195519882755548,1
130,503,12,0.225257928960349,1
130,504,12,0.222034335620275,1
130,505,12,0.186694235513829,1
130,506,12,0.153511332669622,1
130,507,12,0.144608231561362,1
130,508,12,0.173256134671929,1
130,509,12,0.192937737709976,1
130,510,12,0.165023192436005,1
130,511,12,0.159839103869472,1
130,512,12,0.176302311364365,1
130,513,12,0.173794128961223,1
130,514,12,0.154529576624494,1
130,515,12,0.147708873580745,1
130,516,12,0.150196811345671,1
130,517,12,0.133463530338314,1
130,518,12,0.109421544542532,1
130,520,12,0.107733665956643,1
130,521,12,0.110360538825491,1
130,522,12,0.103949469026083,1
130,523,12,0.115603989355983,1
130,524,12,0.124274115390735,1
131,501,12,0.202895110421284,1
131,502,12,0.163244017781909,1
131,503,12,0.159316390656958,1
131,504,12,0.159861043926426,1
131,505,12,0.144823560895113,1
131,506,12,0.122265969974491,1
131,507,12,0.111598127579546,1
131,508,12,0.120211133618538,1
131,509,12,0.130798644396717,1
131,510,12,0.119238621353299,1
131,511,12,0.111452421954745,1
131,512,12,0.114164389228523,1
131,513,12,0.114019966321845,1
131,514,12,0.107768544735542,1
131,524,12,0.113017204217024,1
131,525,12,0.103902097688065,1
132,498,12,0.14395568496657,1
132,499,12,0.181032998113356,1
132,500,12,0.228612314932775,1
132,501,12,0.184275609143875,1
132,502,12,0.130188304805236,1
132,503,12,0.108079575995405,1
133,498,12,0.107419690022131,1
133,499,12,0.137558479676971,1
133,500,12,0.174665964584844,1
133,501,12,0.148886453434744,1
133,502,12,0.106786729975387,1
133,522,12,0.112318345920925,1
133,523,12,0.113869453292597,1
134,499,12,0.126387053300663,1
134,500,12,0.18055731046267,1
134,501,12,0.163990336648591,1
134,502,12,0.104052711103949,1
134,522,12,0.110289632398417,1
135,499,12,0.140207169907995,1
135,500,12,0.221173263674824,1
135,501,12,0.187927195328568,1
135,521,12,0.107167440714553,1
135,522,12,0.118736453938908,1
136,499,12,0.132935106241631,1
136,500,12,0.201034522205568,1
136,501,12,0.15070849318232,1
136,522,12,0.116367162023406,1
137,499,12,0.109491904420144,1
137,500,12,0.152670929217071,1
137,501,12,0.107882160099105,1
137,522,12,0.111199670713988,1
138,500,12,0.106766016866204,1
139,519,12,0.120620655322174,1
139,520,12,0.119079263146031,1
155,503,12,0.105424371787126,1
155,504,12,0.10820642008675,1
156,504,12,0.115644690559757,1
124,508,13,0.104050223746195,1
124,509,13,0.109034018666203,1
124,510,13,0.116190860782832,1
124,511,13,0.11816939214152,1
124,512,13,0.105077156722099,1
124,517,13,0.116420433864794,1
124,524,13,0.232728992401044,1
124,525,13,0.24060046466966,1
124,526,13,0.197030099304245,1
124,527,13,0.184403680182991,1
124,528,13,0.183489737942695,1
125,505,13,0.127192801055728,1
125,506,13,0.160270130621306,1
125,507,13,0.162442564344041,1
125,508,13,0.137719198680857,1
125,509,13,0.14079639484375,1
125,510,13,0.161496732615779,1
125,511,13,0.176119507300607,1
125,512,13,0.179245959839456,1
125,513,13,0.169639795350466,4
125,514,13,0.14354955410041,1
125,515,13,0.127966347008849,1
125,516,13,0.139649042521191,1
125,517,13,0.165753828679364,1
125,518,13,0.15748771423735,1
125,519,13,0.146797742166251,1
125,523,13,0.225169343331307,1
125,524,13,0.273354638500586,1
125,525,13,0.268675394325398,1
125,526,13,0.231263146745363,1
125,527,13,0.243886119258788,1
125,528,13,0.257946048384931,1
125,529,13,0.182900535315082,1
126,504,13,0.133146944351271,1
126,505,13,0.162667564257039,1
126,506,13,0.220433838023799,1
126,507,13,0.232961644006503,1
126,508,13,0.191309600326448,1
126,509,13,0.215874232410321,1
126,510,13,0.258815976662472,1
126,511,13,0.261504241536135,1
126,512,13,0.283485434702241,4
126,513,13,0.315619196815897,4
126,514,13,0.278258347193381,4
126,515,13,0.214549262666853,1
126,516,13,0.182482659212535,1
126,517,13,0.191465467309605,1
126,518,13,0.204143094769178,1
126,519,13,0.215628932088753,1
126,520,13,0.200985355062177,1
126,521,13,0.160234236821979,1
126,522,13,0.181921743308071,1
126,523,13,0.288053294327994,3
126,524,13,0.302031620273318,3
126,525,13,0.234259598590875,1
126,526,13,0.1974352820744,1
126,527,13,0.21730358194686,1
126,528,13,0.220516913541943,1
127,503,13,0.183241983725586,1
127,504,13,0.190543851068707,1
127,505,13,0.189904968210452,1
127,506,13,0.21368450987809,1
127,507,13,0.220194650132943,1
127,508,13,0.213723036038088,1
127,509,13,0.27514558069921,1
127,510,13,0.305199644033451,6
127,511,13,0.268065891289215,4
127,512,13,0.294180693802825,4
127,513,13,0.367420619379296,4
127,514,13,0.363607801103468,4
127,515,13,0.304197272321102,4
127,516,13,0.25591607445244,1
127,517,13,0.242590016250142,1
127,518,13,0.251465265644008,1
127,519,13,0.250746564256236,1
127,520,13,0.192354759053781,1
127,521,13,0.143535990750509,1
127,522,13,0.189054760329807,1
127,523,13,0.300664822764941,1
127,524,13,0.277919129597005,1
127,525,13,0.181304164724743,1
128,502,13,0.215242577389842,1
128,503,13,0.264754403872479,5
128,504,13,0.262780177985059,5
128,505,13,0.209768003361569,1
128,506,13,0.177819075352529,1
128,507,13,0.176434342098559,1
128,508,13,0.210146550211031,1
128,509,13,0.269267296238107,1
128,510,13,0.268137701196011,1
128,511,13,0.247080600474485,1
128,512,13,0.276230135604052,4
128,513,13,0.307866872329883,4
128,514,13,0.296857559216292,4
128,515,13,0.284062590933561,4
128,516,13,0.291135476360464,1
128,517,13,0.282294893818155,1
128,518,13,0.232926664840968,1
128,519,13,0.188403741842694,1
128,520,13,0.142148190127113,1
128,521,13,0.128776534084029,1
128,522,13,0.163001874062333,1
128,523,13,0.216136710000677,1
128,524,13,0.184827111012717,1
129,501,13,0.198776313679593,1
129,502,13,0.25624371412349,5
129,503,13,0.329384413087526,5
129,504,13,0.309015228518799,5
129,505,13,0.2305512047244,5
129,506,13,0.179529652472175,1
129,507,13,0.174581829429989,1
129,508,13,0.224969752391232,1
129,509,13,0.268381506872112,1
129,510,13,0.244477218078411,1
129,511,13,0.244798031458227,1
129,512,13,0.271916343399391,1
129,513,13,0.260901140936501,4
129,514,13,0.228418836423412,4
129,515,13,0.230890065390516,1
129,516,13,0.26869054155333,1
129,517,13,0.260788239433459,1
129,518,13,0.181092895472705,1
129,519,13,0.131031831397567,1
129,520,13,0.120202031896894,1
129,521,13,0.126073266985352,1
129,522,13,0.132456830846556,1
129,523,13,0.142343799063968,1
129,524,13,0.124702353624908,1
130,500,13,0.209097130628712,1
130,501,13,0.205261468816208,1
130,502,13,0.227360895131123,1
130,503,13,0.274447268952573,5
130,504,13,0.26786960195405,5
130,505,13,0.23051403936102,1
130,506,13,0.1933302048396,1
130,507,13,0.173045813515896,1
130,508,13,0.201587206405899,1
130,509,13,0.23390251217333,1
130,510,13,0.21468777391609,1
130,511,13,0.212217169576942,1
130,512,13,0.231371385846876,1
130,513,13,0.23536590393347,1
130,514,13,0.217741111521878,1
130,515,13,0.197155537982689,1
130,516,13,0.189490259863969,1
130,517,13,0.168063189773306,1
130,518,13,0.12390003016953,1
130,519,13,0.104767519721066,1
130,520,13,0.103790501211287,1
130,521,13,0.104764128883591,1
130,522,13,0.104221182186931,1
130,523,13,0.117812294569904,1
130,524,13,0.115331138479929,1
131,499,13,0.191270851085037,1
131,500,13,0.222718615546044,1
131,501,13,0.197821659081452,1
131,502,13,0.170709704960554,1
131,503,13,0.174351642874142,1
131,504,13,0.18417482096155,1
131,505,13,0.187242469239973,1
131,506,13,0.165022110491153,1
131,507,13,0.143053632965579,1
131,508,13,0.159573837761455,1
131,509,13,0.188706173314091,1
131,510,13,0.17520623430455,1
131,511,13,0.155205323686222,1
131,512,13,0.157966558490028,1
131,513,13,0.174923534384118,1
131,514,13,0.177484174381491,1
131,515,13,0.148755002712224,1
131,516,13,0.112719546687861,1
131,523,13,0.111451875405283,1
131,524,13,0.107094972717589,1
132,499,13,0.178281322348091,1
132,500,13,0.215924314187505,1
132,501,13,0.18833440813958,1
132,502,13,0.14123777257314,1
132,503,13,0.116482930122603,1
132,504,13,0.113199004414424,1
132,505,13,0.11577740169226,1
132,506,13,0.107232468946398,1
132,508,13,0.116247400766918,1
132,509,13,0.135696017577388,1
132,510,13,0.125496757690129,1
132,511,13,0.105003818707625,1
133,499,13,0.159864122449923,1
133,500,13,0.204944938599518,1
133,501,13,0.191413690113683,1
133,502,13,0.131951082975488,1
134,498,13,0.103557459213356,1
134,499,13,0.15063209895249,1
134,500,13,0.231383476859453,1
134,501,13,0.223306033522355,1
134,502,13,0.130956452188165,1
134,518,13,0.114949368104052,1
134,521,13,0.104892344925625,1
135,499,13,0.14902338080595,1
135,500,13,0.239715322239762,1
135,501,13,0.215521116841924,1
135,502,13,0.113888649448172,1
135,518,13,0.110451377576802,1
135,521,13,0.12432404101093,1
135,522,13,0.121001488756117,1
136,499,13,0.12558775259843,1
136,500,13,0.172159198748674,1
136,501,13,0.137164785599577,1
136,521,13,0.135989626178907,1
136,522,13,0.143049416726876,1
137,499,13,0.105646248560344,1
137,500,13,0.124626784796306,1
137,521,13,0.142724810963042,1
137,522,13,0.154210737515182,1
137,523,13,0.105360046261731,1
138,520,13,0.109545533191793,1
138,521,13,0.124085667367232,1
138,522,13,0.121926105442018,1
139,518,13,0.114823148640662,1
139,519,13,0.149228046848167,1
139,520,13,0.133274256913583,1
139,521,13,0.103680198606705,1
140,518,13,0.103134296081325,1
140,519,13,0.116878776935631,1
124,524,14,0.231009614719661,1
124,525,14,0.276431154265169,1
124,526,14,0.220961626338455,1
124,527,14,0.184439997837003,1
125,508,14,0.146227758002354,1
125,509,14,0.1732478248893,1
125,510,14,0.181762407408944,1
125,511,14,0.165979776688367,1
125,512,14,0.165168831136383,1
125,513,14,0.157934200531094,1
125,514,14,0.131511668362532,1
125,515,14,0.114072412762006,1
125,516,14,0.131990646464057,1
125,517,14,0.168578373988136,1
125,523,14,0.19311542205531,1
125,524,14,0.257858399697823,1
125,525,14,0.291162023048593,1
125,526,14,0.249208618687923,1
125,527,14,0.24327860164718,1
125,528,14,0.251188020064121,1
126,505,14,0.21052279932194,1
126,506,14,0.248580778359604,1
126,507,14,0.216263041004773,1
126,508,14,0.193382785128608,1
126,509,14,0.251511532729033,1
126,510,14,0.267450900450276,6
126,511,14,0.233571994752054,1
126,512,14,0.255558408023221,4
126,513,14,0.281323552730334,4
126,514,14,0.245844439441472,4
126,515,14,0.185274188472206,1
126,516,14,0.170835032098292,1
126,517,14,0.209462961837641,1
126,518,14,0.211630956240261,1
126,519,14,0.191112976369164,1
126,523,14,0.242214436383472,1
126,524,14,0.247068687927039,1
126,525,14,0.206825046438858,1
126,526,14,0.181196940643658,1
126,527,14,0.195157420075953,1
127,504,14,0.199970111552307,1
127,505,14,0.207858024921049,1
127,506,14,0.219837719872387,1
127,507,14,0.21678806310991,1
127,508,14,0.224225887420091,1
127,509,14,0.296146509520981,6
127,510,14,0.307050706672838,6
127,511,14,0.260762964309383,4
127,512,14,0.296688151191375,4
127,513,14,0.352145320407818,4
127,514,14,0.338201795162899,4
127,515,14,0.267855793214595,4
127,516,14,0.222380044885765,1
127,517,14,0.229566902606492,1
127,518,14,0.232409852131824,1
127,519,14,0.214476025039015,1
127,520,14,0.16968935288633,1
127,521,14,0.144519768627097,1
127,523,14,0.26321514212383,1
127,524,14,0.224692997590453,1
128,503,14,0.294660385764872,5
128,504,14,0.291628062428173,5
128,505,14,0.228740162890478,1
128,506,14,0.198160586671992,1
128,507,14,0.204311788933574,1
128,508,14,0.225994053006464,1
128,509,14,0.271089982921779,1
128,510,14,0.273422544482657,6
128,511,14,0.265762754166692,4
128,512,14,0.304218041200638,4
128,513,14,0.316981465771593,4
128,514,14,0.298240061656133,4
128,515,14,0.280869827444743,4
128,516,14,0.288286949799811,1
128,517,14,0.277154451130046,1
128,518,14,0.204907572462866,1
128,519,14,0.160148707408293,1
128,520,14,0.131185880267209,1
128,521,14,0.131955209981626,1
128,522,14,0.163406242585332,1
129,502,14,0.29451571746864,5
129,503,14,0.392065716928783,5
129,504,14,0.37118056736028,5
129,505,14,0.264720718579139,5
129,506,14,0.201907172076346,1
129,507,14,0.192534406515548,1
129,508,14,0.218938411772774,1
129,509,14,0.25014672064523,1
129,510,14,0.251439365891976,1
129,511,14,0.270505353463129,4
129,512,14,0.294206392781585,4
129,513,14,0.270598423028569,4
129,514,14,0.241213202386329,4
129,515,14,0.242916116659443,1
129,516,14,0.289878903378175,1
129,517,14,0.290581788293776,1
129,518,14,0.176594514552984,1
129,519,14,0.115616983848281,1
129,520,14,0.105507759619248,1
129,521,14,0.116429334813166,1
129,522,14,0.129337338447787,1
129,523,14,0.135569898500634,1
130,501,14,0.225186475983814,1
130,502,14,0.265869364773892,5
130,503,14,0.325225573232229,5
130,504,14,0.313692688042685,5
130,505,14,0.263691264783271,5
130,506,14,0.219127294805032,1
130,507,14,0.190476614330875,1
130,508,14,0.214199761017344,1
130,509,14,0.260119195968187,1
130,510,14,0.26378605207559,4
130,511,14,0.25787571081546,4
130,512,14,0.264560568432856,1
130,513,14,0.28154418024764,4
130,514,14,0.285754507293022,4
130,515,14,0.237842866092883,1
130,516,14,0.204049623657195,1
130,517,14,0.187694119868425,1
130,518,14,0.131435720295528,1
130,519,14,0.104924178643238,1
130,522,14,0.108626493541213,1
130,523,14,0.12231127780944,1
131,500,14,0.203208472881911,1
131,501,14,0.207479835001848,1
131,502,14,0.194986227399734,1
131,503,14,0.193917823589182,5
131,504,14,0.201547609455118,5
131,505,14,0.215524619220106,1
131,506,14,0.196108973842455,1
131,507,14,0.171744802716168,1
131,508,14,0.2034739397632,1
131,509,14,0.263973574311229,4
131,510,14,0.257495580087967,4
131,511,14,0.20710342973395,1
131,512,14,0.189991345333507,1
131,513,14,0.230581075325581,1
131,514,14,0.264315870431103,1
131,515,14,0.204596753130345,1
131,516,14,0.125734718633214,1
131,522,14,0.104771814038263,1
131,523,14,0.122023882025269,1
132,500,14,0.215991260919501,1
132,501,14,0.210857086819092,1
132,502,14,0.165514562710014,1
132,503,14,0.1267919014487,1
132,504,14,0.122057020769147,1
132,505,14,0.13368345514917,1
132,506,14,0.12832596540043,1
132,507,14,0.126710052878326,1
132,508,14,0.153727810872649,1
132,509,14,0.190818776601901,1
132,510,14,0.179946625094999,1
132,511,14,0.136179200763545,1
132,512,14,0.112693100386368,1
132,513,14,0.119042488175124,1
132,514,14,0.130559367273296,1
132,515,14,0.107420303496016,1
133,499,14,0.205711557874769,1
133,500,14,0.258241095861563,1
133,501,14,0.24937162427629,1
133,502,14,0.167937461089025,1
133,503,14,0.104787641664505,1
133,509,14,0.108099820633621,1
134,499,14,0.197520833796227,1
134,500,14,0.27656156765912,1
134,501,14,0.261930237802109,1
134,502,14,0.151917438282966,1
134,517,14,0.10451407692793,1
134,518,14,0.124730640348057,1
135,499,14,0.158264628719804,1
135,500,14,0.225459103778455,1
135,501,14,0.20475761713715,1
135,502,14,0.115717303559639,1
135,517,14,0.105079499076934,1
135,518,14,0.116436328415459,1
135,521,14,0.121997524956341,1
135,522,14,0.109125783205378,1
136,500,14,0.141156459398157,1
136,501,14,0.11732865406685,1
136,521,14,0.146237618200802,1
136,522,14,0.145967143141795,1
137,521,14,0.162308001635811,1
137,522,14,0.17169431939244,1
137,523,14,0.105339500463608,1
138,519,14,0.104425848229149,1
138,520,14,0.107470797973814,1
138,521,14,0.126982346050848,1
138,522,14,0.125438589211729,1
139,518,14,0.13428492725449,1
139,519,14,0.149556701539645,1
139,520,14,0.125935837680967,1
139,521,14,0.104872713761295,1
140,518,14,0.113602915620526,1
140,519,14,0.114832674216991,1
124,525,15,0.273653054506552,1
124,526,15,0.221850360379099,1
125,524,15,0.231548445564254,1
125,525,15,0.277473680631831,1
125,526,15,0.241823173893478,1
125,527,15,0.220417419231813,1
126,508,15,0.208563207575202,1
126,509,15,0.29054955302962,1
126,510,15,0.279882759117315,1
126,511,15,0.212902408752787,1
126,512,15,0.222136886145761,1
126,513,15,0.2434633576733,4
126,514,15,0.211987685727546,1
126,515,15,0.163690559846006,1
126,516,15,0.160565825034036,1
126,517,15,0.206514472495891,1
126,524,15,0.195517585016996,1
126,525,15,0.182016162516059,1
126,526,15,0.164800044098734,1
127,503,15,0.198462750445694,5
127,504,15,0.20979111459594,5
127,505,15,0.230315251514031,1
127,506,15,0.236320402374621,1
127,507,15,0.222439786088126,1
127,508,15,0.234503404266976,1
127,509,15,0.30013297436857,1
127,510,15,0.294280567351357,6
127,511,15,0.251126471902316,1
127,512,15,0.285207980139686,4
127,513,15,0.319280185882141,4
127,514,15,0.285488795022179,4
127,515,15,0.219837697564245,1
127,516,15,0.192235655887462,1
127,517,15,0.21009878848054,1
127,518,15,0.201045564735504,1
127,519,15,0.16757726268577,1
128,502,15,0.239138344473573,5
128,503,15,0.310739870921525,5
128,504,15,0.31234085929711,5
128,505,15,0.252676820797184,5
128,506,15,0.227049205781092,1
128,507,15,0.237938701867843,1
128,508,15,0.238093810374196,1
128,509,15,0.259797780268556,1
128,510,15,0.268206254114179,1
128,511,15,0.280688439947956,4
128,512,15,0.321287182429109,4
128,513,15,0.317883718545855,4
128,514,15,0.277660265925537,4
128,515,15,0.248579016016442,1
128,516,15,0.253603121747752,1
128,517,15,0.249189969081809,1
128,518,15,0.177217993639681,1
128,519,15,0.133636128427434,1
129,501,15,0.223092076139292,5
129,502,15,0.306456105475034,5
129,503,15,0.418545926796637,5
129,504,15,0.417403571497727,5
129,505,15,0.304570665989927,5
129,506,15,0.231212641113494,5
129,507,15,0.217927406809748,1
129,508,15,0.213795381340275,1
129,509,15,0.229033135709971,1
129,510,15,0.256259329822389,4
129,511,15,0.294188256262721,4
129,512,15,0.311919168502404,4
129,513,15,0.281888863338631,4
129,514,15,0.250527007529712,4
129,515,15,0.236917011305141,1
129,516,15,0.27070452054852,1
129,517,15,0.284526198725741,1
129,518,15,0.174734372500094,1
130,502,15,0.293119116283507,5
130,503,15,0.35717781400025,5
130,504,15,0.351720216467495,5
130,505,15,0.291510320058472,5
130,506,15,0.236614267519766,1
130,507,15,0.206700567010489,1
130,508,15,0.216771198155099,1
130,509,15,0.265861311534888,4
130,510,15,0.301331077712552,4
130,511,15,0.296704525367078,4
130,512,15,0.282450448487334,4
130,513,15,0.302668763096552,4
130,514,15,0.330187996952886,4
130,515,15,0.261369522670916,4
130,516,15,0.200071680519576,1
130,517,15,0.195619555530808,1
131,502,15,0.228876041779044,1
131,503,15,0.216418595673952,5
131,504,15,0.215549738187192,5
131,505,15,0.228135746110509,1
131,506,15,0.215553552879352,1
131,507,15,0.202986105329584,1
131,508,15,0.240926185840559,4
131,509,15,0.318129554262814,4
131,510,15,0.338746381507943,4
131,511,15,0.268098505791773,4
131,512,15,0.216706236847678,1
131,513,15,0.262555780391875,4
131,514,15,0.329760149111186,4
131,515,15,0.249763533702381,1
132,499,15,0.173983948935415,1
132,500,15,0.222081517339092,1
132,501,15,0.239610250894311,1
132,502,15,0.194632107964979,1
132,509,15,0.244025121287133,4
132,510,15,0.244015038007273,4
133,498,15,0.175789212960745,1
133,499,15,0.242934944730688,1
133,500,15,0.300934505884932,7
133,501,15,0.290102654035262,1
133,502,15,0.19720938983575,1
134,498,15,0.175745990937005,1
134,499,15,0.248374249587589,1
134,500,15,0.29691674271512,1
134,501,15,0.260732937551214,1
134,502,15,0.158841227247592,1
135,499,15,0.169261795050466,1
135,500,15,0.197472514362204,1
135,501,15,0.169628741666459,1
137,522,15,0.16122709411207,1
125,525,16,0.227620472663113,1
125,526,16,0.207312055471246,1
127,504,16,0.209890854295624,5
127,511,16,0.249119542279772,4
127,512,16,0.281267425446861,4
127,513,16,0.289527907083201,4
128,503,16,0.294576574078065,5
128,504,16,0.309838599705479,5
128,505,16,0.274876142968773,5
128,510,16,0.260616265972295,4
128,511,16,0.301535085664601,4
128,512,16,0.340000924449375,4
128,513,16,0.30956878273664,4
128,514,16,0.240239675100661,4
129,502,16,0.282150560144043,5
129,503,16,0.397231211659555,5
129,504,16,0.429235408088629,5
129,505,16,0.339124437578296,5
129,506,16,0.261986922789114,5
129,510,16,0.267699747766308,4
129,511,16,0.320909951759983,4
129,512,16,0.33111699718855,4
129,513,16,0.290432725293711,4
129,514,16,0.252300192447873,4
130,502,16,0.295210526837096,5
130,503,16,0.364490489637824,5
130,504,16,0.372978135076866,5
130,505,16,0.304646469054013,5
130,506,16,0.241814027555552,5
130,509,16,0.256366007354013,4
130,510,16,0.326772575905905,4
130,511,16,0.324906633736281,4
130,512,16,0.291500839098426,4
130,513,16,0.299665975738915,4
130,514,16,0.337501319526557,4
130,515,16,0.257355864199101,4
131,503,16,0.240715842376385,5
131,504,16,0.226928050265775,5
131,505,16,0.221319538157228,5
131,508,16,0.269352290256402,4
131,509,16,0.33607321924593,4
131,510,16,0.392954027114743,4
131,511,16,0.316552167900708,4
131,512,16,0.232495939249042,4
131,513,16,0.258563515427552,4
131,514,16,0.340044135319043,4
132,499,16,0.166724924377632,1
132,500,16,0.226791100586427,7
132,501,16,0.25683686529211,1
132,509,16,0.289621155113771,4
132,510,16,0.29857095831581,4
132,511,16,0.218134180971316,4
133,498,16,0.183722266853377,1
133,499,16,0.266886281394359,7
133,500,16,0.324845442504737,7
133,501,16,0.299019954275449,7
133,502,16,0.203163521977222,1
134,498,16,0.21248627268526,1
134,499,16,0.305498260812689,1
134,500,16,0.313572380236736,7
134,501,16,0.239957276340137,1
134,502,16,0.151486188449719,1
135,499,16,0.197139989208214,1
135,500,16,0.188130846350357,1
135,501,16,0.141418223127992,1
127,505,17,0.240034261735711,5
127,511,17,0.248361333173786,4
127,512,17,0.272115421252217,4
128,503,17,0.257228819334484,5
128,504,17,0.284804492788269,5
128,505,17,0.29106317567456,5
128,506,17,0.286465043901084,5
128,510,17,0.248730822917885,4
128,511,17,0.315216735638978,4
128,512,17,0.344526577071817,4
128,513,17,0.290453003394139,4
129,502,17,0.245699101901002,5
129,503,17,0.34609818562533,5
129,504,17,0.400961177498652,5
129,505,17,0.359650314531407,5
129,506,17,0.295389772752319,5
129,507,17,0.26484140562349,5
129,510,17,0.271647597221334,4
129,511,17,0.33343572770183,4
129,512,17,0.33465828076866,4
129,513,17,0.289324969921933,4
129,514,17,0.247364650037464,4
130,502,17,0.276640806176964,5
130,503,17,0.356694418886751,5
130,504,17,0.374819159052675,5
130,505,17,0.305619394019865,5
130,506,17,0.243722466734323,5
130,509,17,0.236497261318727,4
130,510,17,0.324558782889227,4
130,511,17,0.335817701795654,4
130,512,17,0.291560535684504,4
130,513,17,0.282081114900223,4
130,514,17,0.309531996611661,4
131,501,17,0.236123153789381,1
131,503,17,0.26847906037395,5
131,504,17,0.241302234178196,5
131,505,17,0.209275439602001,5
131,508,17,0.276665835911485,4
131,509,17,0.315689177455107,4
131,510,17,0.388904385611035,4
131,511,17,0.339515410062453,4
131,512,17,0.24206595339508,4
132,499,17,0.168440297747654,1
132,500,17,0.236496324376793,7
132,501,17,0.269370739089244,1
132,502,17,0.229405882442699,1
132,508,17,0.291870284226243,4
132,509,17,0.312775288040489,4
132,510,17,0.316409685802323,4
132,511,17,0.24139032902813,4
133,498,17,0.175731156023051,1
133,499,17,0.263690439382043,7
133,500,17,0.32167650411081,7
133,501,17,0.293430984098668,7
133,502,17,0.198654421995613,1
133,509,17,0.192645902605689,4
133,510,17,0.168530366868091,4
134,498,17,0.221744909795246,1
134,499,17,0.321989777338873,1
134,500,17,0.306691724063283,7
134,501,17,0.221660027317657,1
135,499,17,0.220698323346871,1
135,500,17,0.18606274780441,1
127,511,18,0.242315871501894,4
127,512,18,0.256834143698874,4
128,503,18,0.206243205497868,1
128,504,18,0.24263893800398,5
128,505,18,0.282674042987431,5
128,506,18,0.299299207588052,5
128,510,18,0.235120804385174,4
128,511,18,0.328351389989052,4
128,512,18,0.346936235568975,4
128,513,18,0.264924347292787,4
129,502,18,0.205154523586889,1
129,503,18,0.285402261742136,5
129,504,18,0.351003790510135,5
129,505,18,0.348497537761214,5
129,506,18,0.312457218562051,5
129,507,18,0.267980964195344,5
129,510,18,0.256113769200506,4
129,511,18,0.33216592599176,4
129,512,18,0.331013085866445,4
129,513,18,0.281019202758785,4
130,502,18,0.241756784865015,5
130,503,18,0.328984539654997,5
130,504,18,0.355409983035997,5
130,505,18,0.28554592617201,5
130,506,18,0.232592131954262,5
130,509,18,0.206618473050561,4
130,510,18,0.29668145874899,4
130,511,18,0.334552696335959,4
130,512,18,0.295492836365054,4
130,513,18,0.26828058484094,4
131,500,18,0.167884858491875,1
131,501,18,0.224990833584746,1
131,502,18,0.267764865230718,1
131,503,18,0.282123812682642,5
131,504,18,0.252883215720351,5
131,509,18,0.275868542941967,4
131,510,18,0.342208917349318,4
131,511,18,0.334765114457273,4
131,512,18,0.249606908242421,4
132,499,18,0.173031000910083,1
132,500,18,0.240519798430774,1
132,501,18,0.290840071953571,1
132,502,18,0.250221185220839,1
132,503,18,0.197652853376351,1
132,509,18,0.303526221123115,4
132,510,18,0.295673621542026,4
132,511,18,0.241076431172112,4
133,498,18,0.175697994971031,1
133,499,18,0.248276562236903,1
133,500,18,0.296133102328069,7
133,501,18,0.295130864464568,1
133,502,18,0.205223254970187,1
134,498,18,0.214989759224662,1
134,499,18,0.294032433895846,1
134,500,18,0.267488266586928,1
134,501,18,0.206761155922218,1
135,499,18,0.220618504817354,1
135,500,18,0.174230096966352,1
127,511,19,0.241760978795576,4
127,512,19,0.242565945765696,4
128,504,19,0.213721876014742,1
128,505,19,0.260077992831234,5
128,510,19,0.227883976427969,4
128,511,19,0.339636788659183,4
128,512,19,0.342565892226157,4
128,513,19,0.244696618647946,4
129,503,19,0.239625933517634,1
129,504,19,0.302186751087812,5
129,505,19,0.311249210403339,5
129,506,19,0.297544003031766,5
129,510,19,0.233758334656206,4
129,511,19,0.328134911786025,4
129,512,19,0.331370261516556,4
129,513,19,0.282841197890078,4
130,501,19,0.159528005685185,1
130,502,19,0.222158078879981,1
130,503,19,0.293414743771812,5
130,504,19,0.322139509583176,5
130,505,19,0.261584283147065,5
130,510,19,0.261138901106314,4
130,511,19,0.328549218585965,4
130,512,19,0.315790590265387,4
130,513,19,0.281558725155758,4
131,500,19,0.166437060122493,1
131,501,19,0.231309190748974,1
131,502,19,0.272713145589801,1
131,503,19,0.282801154776472,1
131,504,19,0.260436975440789,5
131,510,19,0.285226718978366,4
131,511,19,0.314697892888977,4
131,512,19,0.268506923242415,4
132,499,19,0.169331474529769,1
132,500,19,0.228652648052218,1
132,501,19,0.310022284940818,1
132,502,19,0.283913394084648,1
132,503,19,0.220906770619036,1
132,511,19,0.230378048931748,4
133,498,19,0.188436400961534,1
133,499,19,0.222670987664401,1
133,500,19,0.248138452534209,1
133,501,19,0.287587277256555,1
133,502,19,0.228147167878846,1
134,498,19,0.211616589797273,1
134,499,19,0.244317067932127,1
134,500,19,0.212884383774629,1
134,501,19,0.190635916767789,1
135,499,19,0.200743757892063,1
135,500,19,0.158268276100905,1
128,504,20,0.18760149646581,1
128,511,20,0.314764415766288,4
128,512,20,0.311117860067454,4
129,502,20,0.162314638307844,1
129,503,20,0.201745616517162,1
129,504,20,0.250107547549134,1
129,505,20,0.254665123121755,5
129,511,20,0.295855611358627,4
129,512,20,0.316825955718696,4
129,513,20,0.280165782505795,4
130,501,20,0.174355636031432,1
130,502,20,0.21988621777154,1
130,503,20,0.254055865475126,1
130,504,20,0.271071377931948,5
130,505,20,0.228710559986993,1
130,511,20,0.296001908149173,4
130,512,20,0.326980086236136,4
130,513,20,0.299463507048614,4
131,500,20,0.16919379983583,1
131,501,20,0.248159176797463,1
131,502,20,0.280048285525648,1
131,503,20,0.26886869436963,1
131,504,20,0.246114903346409,1
131,511,20,0.27152650863044,4
131,512,20,0.27255928633936,4
132,499,20,0.161150833731087,1
132,500,20,0.211381105057871,1
132,501,20,0.305796609894232,1
132,502,20,0.294780983576657,1
132,503,20,0.234452564012988,1
133,499,20,0.200645579762268,1
133,500,20,0.203929003537268,1
133,501,20,0.255937512576215,1
133,502,20,0.232322872688955,1
133,503,20,0.191373111604686,1
134,497,20,0.176974701050829,1
134,498,20,0.215449596940965,1
134,499,20,0.206253578783566,1
134,500,20,0.169626522006401,1
134,501,20,0.165889239096963,1
134,502,20,0.153697215256877,1
129,501,21,0.137690198097187,1
129,502,21,0.164160570074735,1
129,503,21,0.176681705923195,1
129,504,21,0.198342955726995,1
129,512,21,0.29149325433039,4
130,500,21,0.148140335341334,1
130,501,21,0.219599825853726,1
130,502,21,0.249462574568308,1
130,503,21,0.232266544632211,1
130,504,21,0.219734946265488,1
130,511,21,0.251496630890654,4
130,512,21,0.322362590996024,4
130,513,21,0.300654895642069,4
131,500,21,0.196401165877003,1
131,501,21,0.28231216031951,1
131,502,21,0.294583690375135,1
131,503,21,0.255272618425222,1
131,504,21,0.219463969273302,1
131,512,21,0.262747853488337,4
132,499,21,0.172764842476414,1
132,500,21,0.219275420863163,1
132,501,21,0.290554103890442,1
132,502,21,0.283449563211055,1
132,503,21,0.241603304852976,1
132,504,21,0.195970127971099,1
133,497,21,0.180689318888723,1
133,498,21,0.199789370991617,1
133,499,21,0.194943328844043,1
133,500,21,0.193918938996246,1
133,501,21,0.225596053457802,1
133,502,21,0.222588737547484,1
133,503,21,0.214074969274997,1
134,496,21,0.161687567610399,1
134,497,21,0.22818578327141,1
134,498,21,0.227646149333732,1
134,499,21,0.194374292776151,1
134,500,21,0.160316855023227,1
134,501,21,0.154422486392257,1
134,502,21,0.154840730579135,1
135,497,21,0.197800354806525,1
135,498,21,0.20275630916621,1
129,501,22,0.146523095484823,1
129,502,22,0.168257783689733,1
129,503,22,0.161045148911751,1
130,500,22,0.176010922422903,1
130,501,22,0.257459128585108,1
130,502,22,0.275042383237627,1
130,503,22,0.232152639262811,1
130,504,22,0.189552254188599,1
130,512,22,0.287188541539231,4
131,499,22,0.166731059116485,1
131,500,22,0.23847465496221,1
131,501,22,0.300092083545595,1
131,502,22,0.294493230862225,1
131,503,22,0.25648890290435,1
131,504,22,0.204657386658357,1
132,499,22,0.201197014706687,1
132,500,22,0.24407299455833,1
132,501,22,0.26753344057303,1
132,502,22,0.259102926283818,1
132,503,22,0.250365474278669,1
132,504,22,0.202584335705046,1
133,497,22,0.189650320777687,1
133,498,22,0.193769206751943,1
133,499,22,0.203825136831446,1
133,500,22,0.209556923728733,1
133,501,22,0.208210939716174,1
133,502,22,0.206580861524355,1
133,503,22,0.226409252132056,1
134,496,22,0.188279864734139,1
134,497,22,0.280094619535097,1
134,498,22,0.247311757434478,1
134,499,22,0.199000956662331,1
134,500,22,0.171394241429948,1
134,501,22,0.154895329754929,1
135,496,22,0.172259540768173,1
135,497,22,0.254166023076791,1
135,498,22,0.233187759326565,1
135,499,22,0.187023224827426,1
136,497,22,0.161234098868433,1
136,498,22,0.166511892782433,1
129,500,23,0.114670527492063,1
129,501,23,0.149285456849764,1
129,502,23,0.163954119381215,1
129,503,23,0.150153076234682,1
130,499,23,0.139011520459555,1
130,500,23,0.204452910235341,1
130,501,23,0.256996792356981,1
130,502,23,0.269779825784124,1
130,503,23,0.236666468570372,1
130,504,23,0.180591430764765,1
131,498,23,0.130106233153449,1
131,499,23,0.210379670287456,1
131,500,23,0.272967703790002,1
131,501,23,0.282534550179978,1
131,502,23,0.28262141808214,1
131,503,23,0.27638446332546,1
131,504,23,0.21516840282007,1
132,498,23,0.156588863454633,1
132,499,23,0.23934630096663,1
132,500,23,0.271335751714314,1
132,501,23,0.243155773021266,1
132,502,23,0.247649993472638,1
132,503,23,0.276106213879215,1
132,504,23,0.226780303446046,1
133,496,23,0.143937548447706,1
133,497,23,0.189880630028311,1
133,498,23,0.197790583840643,1
133,499,23,0.234721867894578,1
133,500,23,0.250075401517543,1
133,501,23,0.209810946533542,1
133,502,23,0.201855305647859,1
133,503,23,0.234941803859505,1
134,495,23,0.15393982744742,1
134,496,23,0.213409048949505,1
134,497,23,0.327261057275617,1
134,498,23,0.272304884296148,1
134,499,23,0.218231109845198,1
134,500,23,0.204203594448342,1
135,496,23,0.214749433618601,1
135,497,23,0.327948214951612,8
135,498,23,0.268010299401133,1
135,499,23,0.187887219139386,1
136,497,23,0.194083037683537,1
136,498,23,0.179471283220503,1
129,500,24,0.12209300380104,1
129,501,24,0.1401489233511,1
129,502,24,0.145374672371483,1
130,499,24,0.164629074503927,1
130,500,24,0.209985195425118,1
130,501,24,0.220195497842312,1
130,502,24,0.228324629142767,1
130,503,24,0.217319063796912,1
131,498,24,0.148828586116252,1
131,499,24,0.239215530642418,1
131,500,24,0.271564053232222,1
131,501,24,0.240936581434397,1
131,502,24,0.255812453136172,1
131,503,24,0.285466709962307,1
131,504,24,0.221114102484136,1
132,498,24,0.166385751397538,1
132,499,24,0.267737827763481,1
132,500,24,0.283235583519852,1
132,501,24,0.219750048877138,1
132,502,24,0.238184136038258,1
132,503,24,0.301049169731136,1
132,504,24,0.250708417334639,1
133,496,24,0.137487762869098,1
133,497,24,0.176463844615408,1
133,498,24,0.203328802996001,1
133,499,24,0.279413128126988,1
133,500,24,0.298458926830278,1
133,501,24,0.215863323729232,1
133,502,24,0.196925585662326,1
133,503,24,0.234373950123101,1
134,495,24,0.160390817665656,1
134,496,24,0.217659597573624,1
134,497,24,0.328869318105261,8
134,498,24,0.26741485049396,1
134,499,24,0.234369689268115,1
134,500,24,0.233639409955017,1
135,495,24,0.131488389817101,1
135,496,24,0.232962045553046,8
135,497,24,0.353544487029199,8
135,498,24,0.263265491598709,8
135,499,24,0.174083632864746,1
136,496,24,0.150680585697572,1
136,497,24,0.208166791904572,8
136,498,24,0.175940796780775,1
130,500,25,0.185415387852468,1
130,501,25,0.175004602169547,1
130,502,25,0.185659148912286,1
131,499,25,0.229909689505474,1
131,500,25,0.230239916920913,1
131,501,25,0.202214890577229,1
131,502,25,0.232063473622095,1
131,503,25,0.268210983440131,1
132,498,25,0.167606921359608,1
132,499,25,0.259014697585037,1
132,500,25,0.262817633354276,1
132,501,25,0.207991851460617,1
132,502,25,0.241000784265015,1
132,503,25,0.309491797341066,1
133,497,25,0.159753540993574,1
133,498,25,0.198551269150312,1
133,499,25,0.292817978684303,1
133,500,25,0.311003820849207,1
133,501,25,0.222225650239933,1
134,496,25,0.205948916498039,1
134,497,25,0.28994393161002,1
134,498,25,0.239499267891419,1
134,499,25,0.236225012762488,1
134,500,25,0.244675314373019,1
135,496,25,0.22787913556131,1
135,497,25,0.327188845822279,8
135,498,25,0.236892829279989,1
136,497,25,0.212655078390362,1
