x,y,z,signal,mito.p
800,490,5,0.13003244897615,1
801,490,5,0.125534224213417,1
801,491,5,0.13864663734663,1
802,490,5,0.111051109647102,1
802,491,5,0.115366363035017,1
802,492,5,0.10914786826525,1
802,493,5,0.105536046342397,1
803,490,5,0.104584882968368,1
804,486,5,0.103491694812849,1
804,494,5,0.108705575902068,1
804,497,5,0.1285633240237,1
805,493,5,0.105924241462964,1
805,494,5,0.109676983914313,1
805,495,5,0.126089931166892,1
805,496,5,0.130102507693855,1
805,497,5,0.116805896238053,1
805,498,5,0.132900472852286,1
806,493,5,0.115659224313804,1
806,494,5,0.106767009578491,1
806,495,5,0.10916748827551,1
806,496,5,0.106488559358975,1
806,497,5,0.104717069859551,1
806,498,5,0.122997387002795,1
807,494,5,0.103271792310134,1
808,494,5,0.115697304310977,1
795,488,6,0.108320280839868,1
801,490,6,0.12010056331626,1
801,492,6,0.116723445347865,1
801,493,6,0.10299476981166,1
802,485,6,0.103566973635614,1
802,486,6,0.104386228970227,1
802,490,6,0.107386975132936,1
802,491,6,0.107611283493555,1
802,494,6,0.104815247989345,1
803,485,6,0.103859411059716,1
803,486,6,0.106751304647027,1
803,487,6,0.104766170078518,1
803,497,6,0.109751325795145,1
804,484,6,0.103997788460106,1
804,495,6,0.1144892069197,1
804,496,6,0.125425706260137,1
804,497,6,0.104312221711515,1
804,498,6,0.113835009522453,1
805,495,6,0.109968529012764,1
805,496,6,0.111273856437831,1
805,498,6,0.122341538803093,1
806,498,6,0.116400456924273,1
807,498,6,0.11134851063264,1
809,495,6,0.12564279793705,1
809,496,6,0.115027290441559,1
795,487,7,0.111481188302931,1
796,488,7,0.10961875966556,1
800,490,7,0.127646782884944,1
801,486,7,0.113474498805221,1
801,490,7,0.116249832354318,1
801,491,7,0.124350509620564,1
801,492,7,0.105743623597052,1
801,494,7,0.104536741999475,1
802,484,7,0.106300300954672,1
802,486,7,0.11917785397644,1
802,490,7,0.104053503042964,1
802,495,7,0.106203874013969,1
803,496,7,0.104941857845207,1
804,496,7,0.105368077192594,1
805,495,7,0.105785194818336,1
805,498,7,0.109436948314089,1
806,498,7,0.109460070702531,1
807,494,7,0.103036173721884,1
807,498,7,0.112304425640763,1
808,495,7,0.107281758784567,1
808,497,7,0.108327754067198,1
809,496,7,0.12337842121001,1
799,486,8,0.105072605861277,1
800,486,8,0.115905115801115,1
800,490,8,0.108121046830053,1
800,492,8,0.105424115243501,1
800,494,8,0.10853267665304,1
801,495,8,0.106032246328995,1
802,483,8,0.105259882707362,1
807,498,8,0.115033402872271,1
808,495,8,0.105423881008017,1
799,490,9,0.107371325971825,1
800,482,9,0.103548000561451,1
801,498,9,0.116062276656466,1
799,498,10,0.113918798901119,1
800,497,10,0.105049940789731,1
800,498,10,0.112982080048571,1
797,490,11,0.10506519955837,1
798,491,11,0.12130280482045,1
798,492,11,0.119688755028144,1
798,496,11,0.103772743930825,1
799,495,11,0.10469239705529,1
804,490,11,0.122818788023669,1
805,491,11,0.107784327745501,1
807,492,11,0.10404787023729,1
797,491,12,0.119665844567044,1
797,492,12,0.123634775215584,1
804,489,12,0.107481740117114,1
805,490,12,0.112342606024572,1
807,491,12,0.110445945544399,1
797,491,13,0.104884894006436,1
806,489,13,0.111958281366518,1
795,501,18,0.10649211750751,1
800,501,18,0.104029399096306,1
795,502,19,0.109352355842337,1
797,502,19,0.10344674390816,1
798,502,19,0.114843471357373,1
799,501,19,0.112661478596097,1
800,501,19,0.105637938777716,1
798,502,20,0.104121877496002,1
799,501,20,0.105807045642725,1
799,502,20,0.116670943137351,1
800,501,20,0.105899735969763,1
801,492,20,0.107178940561385,1
802,492,20,0.112728447636234,1
802,493,20,0.117074374718415,1
788,501,21,0.10327223847296,1
798,503,21,0.103299532483821,1
799,502,21,0.105145955029821,1
800,502,21,0.114843549435867,1
801,492,21,0.115372587006436,1
801,493,21,0.109425805397517,1
802,492,21,0.131853562935862,1
802,493,21,0.148394369300214,1
802,494,21,0.124266486006415,1
803,493,21,0.122864073550477,1
803,494,21,0.118815614378257,1
776,502,22,0.109861862635211,1
781,492,22,0.103240159365792,1
781,493,22,0.104219442151911,1
782,506,22,0.116249073877515,1
783,507,22,0.11223109878036,1
800,502,22,0.103901305749049,1
801,492,22,0.105662912741884,1
801,493,22,0.103902923089292,1
802,492,22,0.128951240292501,1
802,493,22,0.148713877653765,1
802,494,22,0.130073105563642,1
803,492,22,0.108018652461556,1
803,493,22,0.133622397766473,1
803,494,22,0.128819577642638,1
776,503,23,0.108245570874705,1
777,504,23,0.107050256048384,1
783,506,23,0.102956712122628,1
783,508,23,0.107383294289624,1
798,500,23,0.103517014553207,1
802,492,23,0.119045243230572,1
802,493,23,0.134400818048464,1
802,494,23,0.123237679146644,1
803,492,23,0.114385875609269,1
803,493,23,0.134161741698315,1
803,494,23,0.12544276083415,1
783,508,24,0.114882711377893,1
785,508,24,0.10442517898491,1
786,508,24,0.118071872101894,1
786,509,24,0.108963603018238,1
787,508,24,0.103879778392709,1
802,493,24,0.112489873219264,1
802,494,24,0.107989607261603,1
803,492,24,0.107914763447593,1
803,493,24,0.1186329999337,1
803,494,24,0.109433970177227,1
783,509,25,0.114094442051524,1
785,508,25,0.109311297708302,1
785,509,25,0.110356266816435,1
786,508,25,0.12550023776017,1
786,509,25,0.115823323001095,1
788,510,25,0.106150468323733,1
784,509,26,0.111040635974769,1
784,510,26,0.106992109878125,1
785,508,26,0.110023574351384,1
785,509,26,0.11686731055101,1
785,510,26,0.106177271555487,1
786,508,26,0.122044137817555,1
786,509,26,0.117944671080288,1
790,486,26,0.104876271909829,1
785,508,27,0.111809586450785,1
785,510,27,0.125064002057346,1
786,508,27,0.113178770930279,1
786,509,27,0.120337687704047,1
786,510,27,0.115131859853832,1
796,496,27,0.104830740993467,1
785,511,28,0.119372648666138,1
775,504,29,0.116039845820405,1
776,504,31,0.135861086668824,1
777,503,31,0.146158781229502,1
778,502,31,0.107661264884103,1
778,503,31,0.1215601180761,1
776,503,32,0.133543616565526,1
779,503,32,0.119392458295599,1
780,504,32,0.11432702673256,1
781,495,32,0.116113775000622,1
786,488,32,0.108582914587213,1
780,503,33,0.114512184305223,1
781,496,33,0.107682948397432,1
783,505,33,0.103184645556205,1
785,506,33,0.108932572393711,1
786,489,33,0.106718801685175,1
799,502,33,0.103248658767622,1
801,486,33,0.104773241759306,1
801,501,33,0.104232949731459,1
781,503,34,0.114382730161348,1
784,505,34,0.103999584265479,1
785,505,34,0.105417166257491,1
794,506,34,0.118127185138209,1
800,486,34,0.119692078941195,1
800,502,34,0.103592851079504,1
801,486,34,0.106593050692753,1
801,502,34,0.104918791227118,1
779,502,35,0.146444983528115,1
779,503,35,0.154344642133244,1
780,502,35,0.107579226694529,1
781,497,35,0.112584838976713,1
782,503,35,0.106069590157505,1
784,504,35,0.110003642027146,1
784,505,35,0.115722813670536,1
785,503,35,0.105609908598191,1
785,504,35,0.132417791599307,1
785,505,35,0.130922164575011,1
786,506,35,0.110266286928562,1
794,506,35,0.136161555023789,1
800,486,35,0.110755850243128,1
800,487,35,0.118357516696975,1
779,501,36,0.140992316094583,1
779,502,36,0.123975108219024,1
780,500,36,0.113412114088118,1
780,502,36,0.103282890610423,1
780,503,36,0.125206439539449,1
782,503,36,0.108687606694263,1
784,500,36,0.115924501575892,1
784,501,36,0.107113878867328,1
784,504,36,0.112839140633289,1
784,505,36,0.112521283082193,1
785,500,36,0.104829179423577,1
785,501,36,0.104806915898575,1
785,503,36,0.11962044749953,1
785,504,36,0.145992429419941,1
785,505,36,0.133917121775057,1
786,504,36,0.103944594697212,1
786,505,36,0.103998546936909,1
786,506,36,0.111961170270815,1
794,506,36,0.133003614543516,1
780,498,37,0.140046952837288,1
780,499,37,0.128949477949339,1
781,497,37,0.11956854760883,1
782,496,37,0.109423686124095,1
783,490,37,0.121811296592895,1
784,500,37,0.124409670811252,1
784,501,37,0.108832386531201,1
785,490,37,0.108010298062645,1
785,500,37,0.116417399957579,1
785,501,37,0.113612786973045,1
785,503,37,0.113780388038517,1
785,504,37,0.128998254700258,1
787,485,37,0.104399379619514,1
798,494,37,0.107222396820608,1
781,496,38,0.122285991531294,1
783,514,38,0.123137738673688,1
784,514,38,0.110400236162907,1
785,500,38,0.106763217194473,1
785,501,38,0.104057005421146,1
764,500,39,0.13131924948988,1
765,498,39,0.137387130843763,1
765,499,39,0.120282419284014,1
765,500,39,0.117801073574838,1
765,501,39,0.134612957318012,1
766,495,39,0.119111554180541,1
766,501,39,0.116616868202877,1
775,493,39,0.107089206063067,1
775,494,39,0.113026049395043,1
775,495,39,0.110142164430454,1
776,495,39,0.111792710341903,1
779,492,39,0.104778974951616,1
779,495,39,0.105824211757443,1
781,495,39,0.105498535202827,1
781,514,39,0.107996344320271,1
782,492,39,0.103593966486569,1
782,493,39,0.104223736469108,1
782,514,39,0.109861583783445,1
782,515,39,0.140790985119488,1
783,514,39,0.107660774104995,1
783,515,39,0.126267370122671,1
784,511,39,0.103934466801069,1
784,514,39,0.105371077637596,1
784,515,39,0.105107540410529,1
784,516,39,0.136653393768765,1
785,514,39,0.103912917136588,1
786,517,39,0.144174483216291,1
793,513,39,0.167039614172666,1
794,512,39,0.153834354555425,1
764,500,40,0.129883006737683,1
764,501,40,0.119340045317651,1
765,496,40,0.125119136628531,1
765,497,40,0.122377934535599,1
765,498,40,0.115116333387497,1
765,499,40,0.10905322597585,1
765,500,40,0.111008344940259,1
766,494,40,0.110659155604729,1
767,486,40,0.138963914886053,1
767,487,40,0.141696829504498,1
767,492,40,0.118606966332821,1
767,493,40,0.104134459287687,1
768,490,40,0.123867181431488,1
769,488,40,0.118286956046091,1
770,484,40,0.131579775117874,1
770,487,40,0.127597448430493,1
781,516,40,0.12505624997825,1
782,515,40,0.111939631760404,1
782,516,40,0.15751410476849,1
783,515,40,0.106159425042459,1
783,516,40,0.148416510130439,1
784,516,40,0.111838520110031,1
786,517,40,0.131837690693338,1
787,517,40,0.126754412617271,1
788,517,40,0.113968456823619,1
789,517,40,0.112378075969215,1
790,516,40,0.115267549123196,1
792,513,40,0.104579952869144,1
793,513,40,0.119681638731074,1
793,514,40,0.112209694118798,1
794,512,40,0.117234658713547,1
794,513,40,0.12926047574699,1
795,512,40,0.128344124227436,1
795,513,40,0.138831237215762,1
763,500,41,0.126181138002534,1
764,490,41,0.154206588200903,1
764,499,41,0.144346099747195,1
764,500,41,0.125857201482938,1
764,501,41,0.103147446730613,1
765,489,41,0.145047713098743,1
765,490,41,0.144055056581923,1
765,494,41,0.130865747285702,1
765,495,41,0.118619235810527,1
765,496,41,0.122184054479693,1
765,497,41,0.117924259131012,1
765,498,41,0.107941354752004,1
765,499,41,0.104313225577872,1
765,500,41,0.103968419792104,1
766,486,41,0.142288296408452,1
766,488,41,0.1421406722835,1
766,490,41,0.131616427394005,1
766,491,41,0.12898126705067,1
766,492,41,0.129861479381343,1
766,493,41,0.115735027377889,1
767,484,41,0.151674391083668,1
767,485,41,0.131056559972181,1
767,486,41,0.120009479175395,1
767,487,41,0.119556991991645,1
767,488,41,0.124477799874735,1
767,489,41,0.124844367252327,1
767,490,41,0.11863785195443,1
767,491,41,0.106621962043858,1
768,483,41,0.127294704645117,1
768,484,41,0.129945647998411,1
768,485,41,0.125786629677984,1
768,486,41,0.119307720820929,1
768,487,41,0.114036864738868,1
768,488,41,0.109410959329492,1
768,489,41,0.107314674447032,1
769,483,41,0.109327649575864,1
769,484,41,0.112799119827824,1
769,485,41,0.122131262263343,1
769,486,41,0.123986529987362,1
769,487,41,0.1107659669852,1
770,482,41,0.113541133223238,1
770,484,41,0.104040530858807,1
770,485,41,0.117436324310761,1
770,486,41,0.119608523798013,1
773,483,41,0.108767012523166,1
774,483,41,0.105384239440954,1
782,516,41,0.113882380860471,1
782,517,41,0.117884751412797,1
783,475,41,0.141553086996129,1
783,516,41,0.108378817402599,1
783,517,41,0.121407229229804,1
783,518,41,0.141834638047285,1
783,519,41,0.129182542255412,1
784,475,41,0.15375542835156,1
784,517,41,0.124960469973643,1
784,519,41,0.167693142325674,1
786,517,41,0.118134546824833,1
786,519,41,0.17982265875388,1
787,518,41,0.133438199443885,1
788,518,41,0.106254803500522,1
789,518,41,0.108430371517108,1
795,513,41,0.107708926227958,1
796,512,41,0.105816236596934,1
796,513,41,0.112241382833493,1
762,500,42,0.144516935493154,1
763,490,42,0.170058909554854,1
763,499,42,0.150056481982919,1
763,500,42,0.122507020595144,1
764,490,42,0.148336903528265,1
764,491,42,0.151051168540595,1
764,495,42,0.160212977163334,1
764,496,42,0.171845267430444,1
764,498,42,0.15218299439682,1
764,499,42,0.133678446971451,1
764,500,42,0.1150392810675,1
765,489,42,0.124969649773782,1
765,490,42,0.125004740480023,1
765,491,42,0.129908359940253,1
765,492,42,0.13581343647904,1
765,493,42,0.127174229528109,1
765,494,42,0.107420136184956,1
765,495,42,0.103570074467253,1
765,496,42,0.110330110520778,1
765,497,42,0.10814477153831,1
766,485,42,0.129900942483276,1
766,488,42,0.117710502521222,1
766,489,42,0.107160525190755,1
767,484,42,0.128445659732493,1
767,485,42,0.111938583277764,1
768,483,42,0.108079509070981,1
768,484,42,0.104491367240102,1
769,482,42,0.12778510451498,1
770,481,42,0.128495194960216,1
772,480,42,0.125562812096474,1
772,481,42,0.110703403802967,1
773,481,42,0.126390879146894,1
774,479,42,0.1430107678721,1
775,479,42,0.110472927241283,1
782,475,42,0.122956975804858,1
783,474,42,0.134576795820989,1
783,475,42,0.164988815590285,1
783,476,42,0.150694862907995,1
783,518,42,0.107256840590752,1
783,519,42,0.106989834447714,1
784,474,42,0.141121647543682,1
784,475,42,0.161417906798549,1
784,476,42,0.137703404516828,1
784,518,42,0.147096057785581,1
784,519,42,0.136419838683584,1
785,475,42,0.110054950752101,1
785,517,42,0.107428691357139,1
785,519,42,0.173816626721709,1
785,520,42,0.108447872253946,1
786,518,42,0.171393282179873,1
786,519,42,0.159345000848156,1
787,518,42,0.109698310497381,1
787,519,42,0.106495385650208,1
761,499,43,0.149646424883893,1
762,499,43,0.141954176222359,1
762,500,43,0.149880158434204,1
763,495,43,0.178473908531802,1
763,496,43,0.176907932783964,1
763,498,43,0.167011416682082,1
763,499,43,0.13780744968778,1
763,500,43,0.126794232649464,1
763,501,43,0.104097650854567,1
764,489,43,0.144086845683254,1
764,490,43,0.150778719211084,1
764,491,43,0.149540059666247,1
764,492,43,0.150612590482936,1
764,493,43,0.151800777858117,1
764,494,43,0.149156058476242,1
764,495,43,0.14868131892156,1
764,496,43,0.157337658524998,1
764,497,43,0.16099998607972,1
764,498,43,0.145945805404656,1
764,499,43,0.121376845541374,1
764,500,43,0.104647635769802,1
765,488,43,0.133868668492186,1
765,489,43,0.115465835037006,1
765,490,43,0.115170006775429,1
765,491,43,0.114883068308153,1
765,492,43,0.111029994991376,1
765,497,43,0.103248056447807,1
766,484,43,0.157771931111389,1
766,487,43,0.114168226228824,1
766,488,43,0.10291924559934,1
767,483,43,0.126195883683924,1
767,484,43,0.11576992846493,1
769,482,43,0.113613088132952,1
770,480,43,0.110750351286301,1
770,481,43,0.107320396485272,1
773,478,43,0.128159780901929,1
773,479,43,0.119705686907379,1
773,480,43,0.107554921974599,1
774,478,43,0.147164677628173,1
774,479,43,0.121932362875648,1
775,478,43,0.123895122378448,1
782,474,43,0.108152568233689,1
782,475,43,0.137380750715355,1
782,476,43,0.13248712530242,1
783,473,43,0.105154755591558,1
783,474,43,0.165548939555734,1
783,475,43,0.193951776580217,1
783,476,43,0.162866987886055,1
783,477,43,0.109075656811911,1
784,473,43,0.111463776798659,1
784,474,43,0.163821597867913,1
784,475,43,0.170525261248412,1
784,476,43,0.133308499910455,1
784,518,43,0.107708535835486,1
784,519,43,0.107438395398598,1
785,474,43,0.110334962541508,1
785,475,43,0.108421280949534,1
785,518,43,0.136257223487689,1
785,519,43,0.133526818535139,1
786,518,43,0.129702344255489,1
786,519,43,0.129522261784967,1
761,497,44,0.148349864558351,1
761,498,44,0.133683142835192,1
761,499,44,0.136388785750916,1
762,496,44,0.165784848149821,1
762,497,44,0.154187670897093,1
762,498,44,0.135882335173398,1
762,499,44,0.126641600346793,1
762,500,44,0.144989968475027,1
763,489,44,0.163416303557051,1
763,495,44,0.171083912876536,1
763,496,44,0.162894393437623,1
763,497,44,0.164458863385924,1
763,498,44,0.147290595931655,1
763,499,44,0.125822389628463,1
763,500,44,0.12562109211558,1
763,501,44,0.104357607624958,1
764,489,44,0.140278210183916,1
764,490,44,0.153262106115188,1
764,492,44,0.149044818929725,1
764,493,44,0.146368366216872,1
764,494,44,0.143663202926186,1
764,495,44,0.138067451074454,1
764,496,44,0.139907649649035,1
764,497,44,0.146812577080205,1
764,498,44,0.135104572981575,1
764,499,44,0.108009327658499,1
765,488,44,0.123212359406286,1
765,489,44,0.106731595404202,1
765,490,44,0.106688351072321,1
765,491,44,0.105197888382732,1
767,483,44,0.117709721736277,1
767,484,44,0.105412091155348,1
768,482,44,0.116962733625356,1
769,479,44,0.128666064168387,1
769,481,44,0.124244624027956,1
773,477,44,0.105892697751188,1
773,478,44,0.125439503845522,1
774,477,44,0.116031703348836,1
774,478,44,0.134809726278214,1
782,474,44,0.118070879389606,1
782,475,44,0.144410759894709,1
782,476,44,0.130598741142664,1
783,473,44,0.116805360842662,1
783,474,44,0.182867798117746,1
783,475,44,0.211280227642982,1
783,476,44,0.164359625619419,1
784,473,44,0.116829765949228,1
784,474,44,0.16928392472662,1
784,475,44,0.172522743373121,1
784,476,44,0.126738350755546,1
785,474,44,0.108468061121809,1
788,474,44,0.115875613284266,1
789,474,44,0.117392600353843,1
790,476,44,0.110794075243219,1
761,497,45,0.135575765541792,1
761,498,45,0.1175898043228,1
761,499,45,0.127125296620201,1
762,496,45,0.168714966737223,1
762,497,45,0.142093155942563,1
762,498,45,0.117306591315119,1
762,499,45,0.115773955084431,1
762,500,45,0.139020722567835,1
763,493,45,0.17896333799752,1
763,494,45,0.179822469134679,1
763,495,45,0.172724587435466,1
763,496,45,0.164786413824409,1
763,497,45,0.156988580730174,1
763,498,45,0.136455208241591,1
763,499,45,0.120842275551767,1
763,500,45,0.124239883547933,1
763,501,45,0.10519072746938,1
764,489,45,0.141140944085893,1
764,492,45,0.152502156974181,1
764,493,45,0.145655141477786,1
764,494,45,0.141241196872827,1
764,495,45,0.134212202713901,1
764,496,45,0.134458897294299,1
764,497,45,0.140618063562319,1
764,498,45,0.129389539498393,1
764,499,45,0.103877268726815,1
765,488,45,0.116419552693213,1
765,489,45,0.104536284682579,1
765,490,45,0.104753331743209,1
767,483,45,0.111217662229934,1
768,482,45,0.108122474551095,1
769,479,45,0.11801311245775,1
773,477,45,0.103333117390526,1
773,478,45,0.1173159830426,1
774,477,45,0.111085241103268,1
774,478,45,0.117745961311794,1
777,475,45,0.105749289864938,1
778,474,45,0.133143687362643,1
778,475,45,0.110022827028651,1
779,474,45,0.103117442280584,1
782,474,45,0.131660742516667,1
782,475,45,0.149674834301819,1
782,476,45,0.122100354333593,1
783,473,45,0.129013167692707,1
783,474,45,0.201134150364546,1
783,475,45,0.219213002683848,1
783,476,45,0.156550024980657,1
784,473,45,0.122499681216661,1
784,474,45,0.173184257840709,1
784,475,45,0.171438813096235,1
784,476,45,0.121930957462747,1
785,474,45,0.109142023532234,1
786,473,45,0.103027808168902,1
787,472,45,0.145049441979692,1
787,473,45,0.154061875288388,1
787,474,45,0.107796307217371,1
788,472,45,0.140524681682901,1
788,473,45,0.150442814373689,1
788,474,45,0.109040588413812,1
789,473,45,0.119855363381329,1
789,474,45,0.107740057239121,1
790,473,45,0.11641272640198,1
790,475,45,0.122176927028553,1
761,497,46,0.125192061942391,1
761,498,46,0.104154503152631,1
761,499,46,0.118751166158086,1
761,500,46,0.142225978615773,1
762,493,46,0.152780517961132,1
762,494,46,0.169862185210934,1
762,496,46,0.183701074119156,1
762,497,46,0.13522862855526,1
762,498,46,0.103086969359589,1
762,499,46,0.106361079485603,1
762,500,46,0.127714443477461,1
762,501,46,0.11782768718739,1
763,493,46,0.16384915957647,1
763,494,46,0.166267663251647,1
763,495,46,0.181756328440444,1
763,496,46,0.183390366327342,1
763,497,46,0.155729765779686,1
763,498,46,0.125650193085886,1
763,499,46,0.11370732887581,1
763,500,46,0.114406187171909,1
764,488,46,0.15200294538851,1
764,489,46,0.146623783280512,1
764,492,46,0.149053496796685,1
764,493,46,0.13663386299107,1
764,494,46,0.130375447802474,1
764,495,46,0.129359390045447,1
764,496,46,0.134324791902966,1
764,497,46,0.13360809824791,1
764,498,46,0.119048634068047,1
765,487,46,0.132250647850731,1
765,488,46,0.113833325257786,1
765,489,46,0.107251397404278,1
766,482,46,0.133531246701184,1
766,483,46,0.129814085735184,1
766,486,46,0.106969645579852,1
767,482,46,0.123563489550108,1
768,481,46,0.135879713966797,1
769,479,46,0.106479914954227,1
777,474,46,0.115537912641497,1
778,473,46,0.117345552483873,1
778,474,46,0.139865431491654,1
778,475,46,0.110926540986168,1
779,473,46,0.10578856334767,1
779,474,46,0.110225864576554,1
782,474,46,0.134543422841627,1
782,475,46,0.142311831497507,1
782,476,46,0.103158589647184,1
783,473,46,0.130796536277366,1
783,474,46,0.201062652771729,1
783,475,46,0.20126826690995,1
783,476,46,0.130895863276436,1
784,473,46,0.123416211201346,1
784,474,46,0.16676864833455,1
784,475,46,0.153432060689566,1
784,476,46,0.105099810639574,1
785,474,46,0.10533241762875,1
786,472,46,0.111455243934617,1
786,473,46,0.112129373656102,1
787,471,46,0.111531459699317,1
787,472,46,0.176718759745869,1
787,473,46,0.184755501879193,1
787,474,46,0.113508563336962,1
788,471,46,0.108578140644978,1
788,472,46,0.16070480475424,1
788,473,46,0.167618688904136,1
788,474,46,0.106105171642855,1
789,472,46,0.120822242840894,1
789,473,46,0.116699441787842,1
790,472,46,0.11662092828459,1
790,473,46,0.112915802560814,1
790,474,46,0.118408412721316,1
790,475,46,0.10899436594507,1
791,473,46,0.114870185356561,1
791,475,46,0.112500190734608,1
792,473,46,0.104612935456033,1
792,474,46,0.107382190036631,1
761,497,47,0.116445775913293,1
761,499,47,0.108133282845548,1
761,500,47,0.128768123914765,1
762,493,47,0.144687793547254,1
762,494,47,0.160045710719981,1
762,495,47,0.207794223636975,1
762,496,47,0.200943817303105,1
762,497,47,0.128707256151269,1
762,500,47,0.107588473419091,1
762,501,47,0.104178562483007,1
763,492,47,0.176558999992058,1
763,493,47,0.150331407516113,1
763,494,47,0.155883513489421,1
763,495,47,0.20018426970864,1
763,496,47,0.216236628165492,1
763,497,47,0.159035754239595,1
763,498,47,0.11567808584726,1
764,488,47,0.145796352012118,1
764,491,47,0.156276002927185,1
764,492,47,0.140821190342788,1
764,493,47,0.124638117332078,1
764,494,47,0.118729828420947,1
764,495,47,0.130939286073447,1
764,496,47,0.146285290698728,1
764,497,47,0.132538891344272,1
764,498,47,0.109926366625736,1
765,487,47,0.119768238935541,1
765,488,47,0.113059935461655,1
765,489,47,0.114819445489209,1
766,482,47,0.124155569927947,1
766,483,47,0.117407870276552,1
767,482,47,0.115394036284281,1
768,481,47,0.113896368065057,1
777,473,47,0.105155781766057,1
777,474,47,0.108208059735135,1
778,473,47,0.125124390195804,1
778,474,47,0.132962601025764,1
778,475,47,0.104024591691859,1
779,472,47,0.136630460999524,1
779,473,47,0.127307364515296,1
779,474,47,0.115523624277004,1
782,474,47,0.130348153791612,1
782,475,47,0.130507311225608,1
783,473,47,0.125342508047216,1
783,474,47,0.188871231251457,1
783,475,47,0.171870932946992,1
783,476,47,0.104005640925838,1
784,473,47,0.123226045450964,1
784,474,47,0.159678418327798,1
784,475,47,0.13245534735516,1
785,474,47,0.105684819336625,1
786,471,47,0.105778368527103,1
786,472,47,0.117718678455002,1
786,473,47,0.118384554164212,1
787,471,47,0.120763750894445,1
787,472,47,0.183478561563911,1
787,473,47,0.187646179672804,1
787,474,47,0.114058760179539,1
788,471,47,0.114039999032719,1
788,472,47,0.164947233214931,1
788,473,47,0.167057962618872,1
788,474,47,0.103421479938155,1
789,471,47,0.119356397185212,1
789,472,47,0.123337218073057,1
789,473,47,0.113092416115366,1
790,471,47,0.129352452213507,1
790,472,47,0.118795102042346,1
790,473,47,0.106368363093732,1
790,474,47,0.106365351494659,1
791,472,47,0.104251855881198,1
791,473,47,0.106398300619336,1
791,474,47,0.112876406383305,1
760,500,48,0.155390916267641,1
761,497,48,0.115014240178908,1
761,500,48,0.109859330661175,1
761,501,48,0.103528469783756,1
762,493,48,0.140223309848215,1
762,494,48,0.15071371328738,1
762,495,48,0.205155460528823,1
762,496,48,0.205558434792991,1
762,497,48,0.125768582391684,1
763,492,48,0.16393510169077,1
763,493,48,0.136191381008687,1
763,494,48,0.141692334414029,1
763,495,48,0.200512467083222,1
763,496,48,0.223327940117096,1
763,497,48,0.150859061981921,1
763,502,48,0.116007231317846,1
764,488,48,0.142614196044481,1
764,491,48,0.139604459700834,1
764,492,48,0.12559261577323,1
764,493,48,0.107970466876381,1
764,495,48,0.120150410857961,1
764,496,48,0.137750195843172,1
764,497,48,0.115912176327832,1
765,487,48,0.111542479921111,1
765,488,48,0.110785330451835,1
765,489,48,0.118274173481135,1
766,482,48,0.116441013125129,1
766,483,48,0.106982896615775,1
766,484,48,0.117526460355622,1
766,485,48,0.119298831026627,1
767,482,48,0.104553874651982,1
777,473,48,0.112779354814646,1
778,473,48,0.131566446003456,1
778,474,48,0.115841414903677,1
779,472,48,0.160048789243478,1
779,473,48,0.145601825020115,1
779,474,48,0.110443458186646,1
780,472,48,0.116394612191256,1
782,474,48,0.120016997019008,1
782,475,48,0.114747200573658,1
783,473,48,0.112189036779968,1
783,474,48,0.161677729720093,1
783,475,48,0.138630854336671,1
784,473,48,0.11690967371131,1
784,474,48,0.144321482713287,1
784,475,48,0.112025138865949,1
785,473,48,0.112401990296672,1
785,474,48,0.111069023084554,1
786,471,48,0.10786851867071,1
786,472,48,0.127060915324453,1
786,473,48,0.138996830548519,1
786,474,48,0.108163030751951,1
787,471,48,0.121404228784801,1
787,472,48,0.166401813259263,1
787,473,48,0.171922855145832,1
787,474,48,0.113431265627411,1
788,471,48,0.114257536872457,1
788,472,48,0.148804839099854,1
788,473,48,0.145638655761376,1
789,471,48,0.114937946335714,1
789,472,48,0.118423972649862,1
789,473,48,0.104173944697761,1
790,471,48,0.120937754396466,1
790,472,48,0.111463910647506,1
761,486,49,0.171657343648261,1
761,497,49,0.123427510274907,1
762,493,49,0.14351516610062,1
762,494,49,0.146518633856566,1
762,495,49,0.189586787191308,1
762,496,49,0.197760646315039,1
762,497,49,0.1320660479816,1
763,492,49,0.152459325342914,1
763,493,49,0.127013889762624,1
763,494,49,0.131559140087186,1
763,495,49,0.183115786570338,1
763,496,49,0.203362599830048,1
763,497,49,0.141021751687009,1
763,502,49,0.113783589256792,1
764,487,49,0.145460502945076,1
764,488,49,0.143863440802358,1
764,490,49,0.136349133029782,1
764,491,49,0.120942651033478,1
764,492,49,0.109298459372993,1
764,495,49,0.109128828266664,1
764,496,49,0.121588527494026,1
765,483,49,0.126665938528935,1
765,484,49,0.143614571178185,1
765,486,49,0.126478739761344,1
765,487,49,0.105216526834775,1
765,488,49,0.106469541668529,1
765,489,49,0.112678153931707,1
766,482,49,0.114921538697799,1
766,484,49,0.10343268977915,1
766,485,49,0.105193482524828,1
767,481,49,0.12214683334596,1
768,480,49,0.105638005702139,1
777,473,49,0.116152959250789,1
778,472,49,0.134321412219561,1
778,473,49,0.13473117931275,1
779,472,49,0.160881239843661,1
779,473,49,0.152050428267235,1
780,472,49,0.115179108497073,1
780,473,49,0.107768879357661,1
782,474,49,0.113118170864479,1
783,474,49,0.133944304245213,1
783,475,49,0.112334497015215,1
784,474,49,0.121283898670711,1
785,473,49,0.12716609821061,1
785,474,49,0.113593903131447,1
786,472,49,0.13146962867028,1
786,473,49,0.167158940420398,1
786,474,49,0.124169456745897,1
787,471,49,0.10980281298523,1
787,472,49,0.135361540461034,1
787,473,49,0.148057572137167,1
787,474,49,0.107236707493242,1
788,471,49,0.106594121483534,1
788,472,49,0.117266213579394,1
788,473,49,0.110009509068304,1
789,471,49,0.103318996337092,1
789,472,49,0.103150402559333,1
760,498,50,0.128676426300014,1
761,486,50,0.172526178826879,1
761,497,50,0.130053340550463,1
762,486,50,0.166967168483843,1
762,494,50,0.142015188988773,1
762,495,50,0.162194118574553,1
762,496,50,0.173851784352374,1
762,497,50,0.137937204991563,1
763,487,50,0.166769652200908,1
763,492,50,0.138008334500049,1
763,493,50,0.117454695065109,1
763,494,50,0.119266919230519,1
763,495,50,0.147564484136279,1
763,496,50,0.158881359593763,1
763,497,50,0.125953617269571,1
764,486,50,0.152040936153118,1
764,487,50,0.135599601790755,1
764,488,50,0.139264751325349,1
764,489,50,0.142293538821654,1
764,490,50,0.121668870264863,1
764,491,50,0.103518442274249,1
765,483,50,0.119216826299264,1
765,484,50,0.126029922266836,1
765,485,50,0.131222833703247,1
765,486,50,0.114761065083467,1
766,482,50,0.114802535918115,1
767,481,50,0.114984793432412,1
777,473,50,0.11005474997883,1
778,472,50,0.131776109069321,1
778,473,50,0.125391909426091,1
779,472,50,0.139279664317798,1
779,473,50,0.139384523735907,1
780,473,50,0.106430245877656,1
785,473,50,0.132580507181838,1
785,474,50,0.110872510667976,1
786,472,50,0.12555388883996,1
786,473,50,0.18527477963795,1
786,474,50,0.134972508785169,1
787,472,50,0.104527495274913,1
787,473,50,0.125540950118015,1
760,498,51,0.133886849627334,1
760,499,51,0.110505653284548,1
761,486,51,0.171191159265762,1
761,497,51,0.138572998172249,1
761,498,51,0.109060844206098,1
762,486,51,0.160735400370012,1
762,494,51,0.145751122255664,1
762,495,51,0.14504923005235,1
762,496,51,0.151795468520491,1
762,497,51,0.141405273251976,1
762,498,51,0.105179171852194,1
763,487,51,0.1534996766658,1
763,492,51,0.131064847446668,1
763,493,51,0.115300029776907,1
763,494,51,0.113890378329122,1
763,495,51,0.120812159561033,1
763,496,51,0.125030673694267,1
763,497,51,0.117560000646044,1
764,486,51,0.14492473946991,1
764,487,51,0.129333646450404,1
764,488,51,0.135480911325049,1
764,489,51,0.13515466591283,1
764,490,51,0.116015775335958,1
765,483,51,0.123464619867934,1
765,484,51,0.12115520300364,1
765,485,51,0.120628742023389,1
765,486,51,0.109867205435048,1
776,473,51,0.103067561276672,1
777,472,51,0.11173519995367,1
778,472,51,0.121725555251867,1
778,473,51,0.112050837844709,1
779,472,51,0.114635882948647,1
779,473,51,0.119014000678703,1
785,473,51,0.133576733001263,1
785,474,51,0.113871382946818,1
786,472,51,0.117311209100365,1
786,473,51,0.184363458604255,1
786,474,51,0.139019707547406,1
787,473,51,0.114643456562613,1
759,498,52,0.155888633207846,1
760,498,52,0.132647632378964,1
761,486,52,0.163826851435185,1
761,487,52,0.168327351628329,1
761,497,52,0.141817326929648,1
761,498,52,0.119190234994853,1
762,486,52,0.153139935579442,1
762,487,52,0.155565589013901,1
762,494,52,0.14289581402006,1
762,495,52,0.131614709667126,1
762,496,52,0.129232624032596,1
762,497,52,0.133397040923214,1
762,498,52,0.114852785006359,1
763,487,52,0.140854150621536,1
763,488,52,0.159421216612855,1
763,492,52,0.120972421248023,1
763,493,52,0.105825293702296,1
764,483,52,0.159808017474592,1
764,486,52,0.134986339832766,1
764,487,52,0.122093238036523,1
764,488,52,0.127922734592637,1
764,489,52,0.129222641139371,1
764,490,52,0.11245265208553,1
765,483,52,0.133292839595273,1
765,484,52,0.116108677590339,1
765,485,52,0.11021450973264,1
765,486,52,0.104276506377318,1
766,482,52,0.132230425520656,1
766,483,52,0.102935530542478,1
767,481,52,0.103935403743003,1
775,473,52,0.116694054371722,1
785,473,52,0.120819777791282,1
785,474,52,0.109627827924992,1
786,473,52,0.154248795204214,1
786,474,52,0.126811398764183,1
759,498,53,0.134110265662301,1
760,487,53,0.17500135633499,1
760,488,53,0.189949361411609,1
760,498,53,0.127118760334804,1
761,486,53,0.152796602130999,1
761,487,53,0.160175321020846,1
761,497,53,0.148913836678171,1
761,498,53,0.131655310484264,1
762,487,53,0.142794691215616,1
762,488,53,0.163444869131966,1
762,494,53,0.142495851354965,1
762,495,53,0.129962245255527,1
762,496,53,0.118767897264049,1
762,497,53,0.128501530472341,1
762,498,53,0.129453340782468,1
763,487,53,0.130822067945066,1
763,488,53,0.148545674268478,1
763,489,53,0.167731055011787,1
763,490,53,0.160909660415658,1
763,491,53,0.142091125901706,1
763,492,53,0.116158413591333,1
764,483,53,0.160212352535378,1
764,486,53,0.128442280049089,1
764,487,53,0.117098556743568,1
764,488,53,0.122183318311031,1
764,489,53,0.127547500502156,1
764,490,53,0.115592299889949,1
765,484,53,0.115077851843781,1
765,485,53,0.103510400189316,1
766,483,53,0.116843786616025,1
767,480,53,0.111632850201456,1
774,473,53,0.127815086656867,1
775,472,53,0.115162845862076,1
775,473,53,0.124008849282717,1
781,473,53,0.110518246230303,1
782,473,53,0.104275368662112,1
785,473,53,0.103003436524549,1
786,473,53,0.114705272422114,1
759,490,54,0.162805640497522,1
759,497,54,0.147744455066094,1
759,498,54,0.118406706148507,1
760,487,54,0.17248156254431,1
760,488,54,0.188157705352464,1
760,489,54,0.181448163776736,1
760,498,54,0.121963248497257,1
761,487,54,0.154889250786429,1
761,488,54,0.181022780984647,1
761,497,54,0.157115168277894,1
761,498,54,0.13848237134828,1
762,487,54,0.135779461179863,1
762,488,54,0.155389555471023,1
762,489,54,0.172246702432863,1
762,493,54,0.149402228815319,1
762,494,54,0.139944123460036,1
762,495,54,0.13150017966977,1
762,496,54,0.116490972207536,1
762,497,54,0.123580912208452,1
762,498,54,0.133266292907144,1
763,482,54,0.137377281799385,1
763,487,54,0.12645662123926,1
763,488,54,0.138818722348501,1
763,489,54,0.156186792670187,1
763,490,54,0.149226016807311,1
763,491,54,0.130824276451053,1
763,492,54,0.111035951265099,1
764,483,54,0.154930498539664,1
764,486,54,0.127357858993094,1
764,487,54,0.116278777167635,1
764,488,54,0.117961859503148,1
764,489,54,0.125091608382186,1
764,490,54,0.116784156954371,1
765,484,54,0.114312537594795,1
766,478,54,0.152175933870103,1
766,480,54,0.146531494500017,1
766,483,54,0.125592381537747,1
767,477,54,0.125979148937271,1
767,479,54,0.125807264708672,1
767,480,54,0.105153216329809,1
768,476,54,0.110935174236845,1
768,477,54,0.110875399572273,1
768,478,54,0.109180694695151,1
774,472,54,0.117316652286839,1
774,473,54,0.129603853811716,1
774,474,54,0.106561105434433,1
775,472,54,0.109849146994678,1
775,473,54,0.117346634428726,1
781,473,54,0.111380043190346,1
759,490,55,0.154800776698093,1
759,497,55,0.140386828523832,1
759,498,55,0.113300718384612,1
760,487,55,0.168781400381969,1
760,488,55,0.186564491364117,1
760,489,55,0.177734694808119,1
760,490,55,0.178778358889986,1
760,497,55,0.157576969110631,1
760,498,55,0.118167005170403,1
761,487,55,0.157304218621212,1
761,488,55,0.184430148792625,1
761,489,55,0.186711691634385,1
761,497,55,0.163205926630665,1
761,498,55,0.137344801145675,1
762,488,55,0.15404506610393,1
762,489,55,0.163918035962687,1
762,490,55,0.160263482795203,1
762,493,55,0.146591693019274,1
762,494,55,0.141852083013769,1
762,496,55,0.129620629533962,1
762,497,55,0.126574073603124,1
762,498,55,0.128732732048616,1
763,482,55,0.129690275551053,1
763,487,55,0.128215004705679,1
763,488,55,0.135774954935324,1
763,489,55,0.145992987123473,1
763,490,55,0.138253411740204,1
763,491,55,0.120500670984274,1
763,492,55,0.106897936059692,1
764,480,55,0.148380326325275,1
764,481,55,0.13919931039289,1
764,482,55,0.136566782410227,1
764,483,55,0.141931198836836,1
764,486,55,0.12591678652831,1
764,487,55,0.117847619511628,1
764,488,55,0.117238830335967,1
764,489,55,0.122737575235322,1
764,490,55,0.115895010213113,1
765,479,55,0.142936314450563,1
765,480,55,0.147370994472846,1
765,483,55,0.162252878218697,1
765,484,55,0.112439769133938,1
766,478,55,0.142902249918821,1
766,479,55,0.143489667895131,1
766,480,55,0.132970933116534,1
766,481,55,0.134963987075198,1
766,482,55,0.144280313038546,1
766,483,55,0.130156549166117,1
767,477,55,0.124118404564567,1
767,478,55,0.128581304385575,1
767,479,55,0.11981752877371,1
768,476,55,0.113407964773839,1
768,477,55,0.106508290909941,1
768,478,55,0.106105751654528,1
774,472,55,0.11802093146127,1
774,473,55,0.12382084742204,1
774,474,55,0.106811235468588,1
775,472,55,0.111679708452225,1
775,473,55,0.108270946385416,1
781,473,55,0.103990237154281,1
759,490,56,0.147608263863551,1
759,496,56,0.154991232454312,1
759,497,56,0.133120074195093,1
759,498,56,0.107645805342193,1
760,487,56,0.166305129774935,1
760,488,56,0.179938438007148,1
760,489,56,0.173501223066154,1
760,490,56,0.16919379983583,1
760,491,56,0.172563901893792,1
760,497,56,0.147710234377363,1
760,498,56,0.111052760449557,1
761,487,56,0.169034954715812,1
761,488,56,0.184416875448561,1
761,489,56,0.18128709899666,1
761,490,56,0.179467133906224,1
761,497,56,0.159936255824767,1
761,498,56,0.126535558597196,1
761,499,56,0.103405853085185,1
762,488,56,0.154990953602546,1
762,489,56,0.155492730624465,1
762,490,56,0.152646635651212,1
762,491,56,0.151531195124761,1
762,492,56,0.148514442870679,1
762,493,56,0.142906153843546,1
762,494,56,0.143319021768373,1
762,496,56,0.140504816283087,1
762,497,56,0.123947936902939,1
762,498,56,0.112995286468212,1
763,481,56,0.142966240822096,1
763,482,56,0.132996375551669,1
763,483,56,0.131876384164396,1
763,487,56,0.139000611778467,1
763,488,56,0.134725914591407,1
763,489,56,0.134813105961619,1
763,490,56,0.127293990784596,1
763,491,56,0.111775376916124,1
764,480,56,0.135633186697459,1
764,481,56,0.131630213825319,1
764,482,56,0.132430641088687,1
764,483,56,0.135148698485036,1
764,484,56,0.127348612268532,1
764,486,56,0.12675700036166,1
764,487,56,0.121069193964916,1
764,488,56,0.115923798869441,1
764,489,56,0.116611224243132,1
764,490,56,0.109308955353468,1
765,479,56,0.133892315121948,1
765,480,56,0.135652048230915,1
765,481,56,0.138995681679243,1
765,482,56,0.152586303283107,1
765,483,56,0.151138571838149,1
765,484,56,0.113660080232569,1
766,478,56,0.131996145420884,1
766,479,56,0.133547085481496,1
766,480,56,0.128436178772447,1
766,481,56,0.128967659084486,1
766,482,56,0.135953196984189,1
766,483,56,0.1286747978057,1
767,477,56,0.122795041007271,1
767,478,56,0.12105798412392,1
767,479,56,0.115339782884676,1
767,480,56,0.104031886454059,1
768,476,56,0.113211206967707,1
774,472,56,0.117399761267195,1
774,473,56,0.11140423636957,1
775,471,56,0.116335886009324,1
775,472,56,0.114836633912069,1
759,491,57,0.14688246848685,1
759,496,57,0.150974941621825,1
759,497,57,0.130773190807511,1
759,498,57,0.107257654837909,1
760,488,57,0.170374703602881,1
760,489,57,0.165534539650535,1
760,490,57,0.156940752075259,1
760,491,57,0.154874895497512,1
760,496,57,0.172068047683384,1
760,497,57,0.13556895040463,1
760,498,57,0.105076074777247,1
761,488,57,0.178536315557046,1
761,489,57,0.17032555876763,1
761,490,57,0.16848051932639,1
761,491,57,0.166403296750659,1
761,492,57,0.173594080704252,1
761,497,57,0.147979460180459,1
761,498,57,0.114744367439715,1
761,499,57,0.105586351200994,1
762,483,57,0.145110610903095,1
762,489,57,0.146460376145601,1
762,490,57,0.150249224323619,1
762,491,57,0.148641677354497,1
762,492,57,0.146946504006408,1
762,493,57,0.145725322890268,1
762,494,57,0.150389074061334,1
762,496,57,0.144081023258379,1
762,497,57,0.118079434561789,1
763,482,57,0.13888884799063,1
763,483,57,0.140150931083816,1
763,488,57,0.137526601343075,1
763,489,57,0.12830305493933,1
763,490,57,0.124181157366001,1
763,491,57,0.112391338159209,1
763,492,57,0.104809559413317,1
764,480,57,0.127627809810781,1
764,481,57,0.126274988352919,1
764,482,57,0.129292833705924,1
764,483,57,0.134698486731698,1
764,484,57,0.131120004325995,1
764,486,57,0.128201709053474,1
764,487,57,0.12369374678707,1
764,488,57,0.115967098971675,1
764,489,57,0.112424900757772,1
764,490,57,0.104109875715991,1
765,479,57,0.124997468025964,1
765,480,57,0.126031874229198,1
765,481,57,0.125230788875662,1
765,482,57,0.131357507952183,1
765,483,57,0.133994307943902,1
765,484,57,0.114443620232984,1
766,478,57,0.128471447943818,1
766,479,57,0.126089161536017,1
766,480,57,0.124346505309204,1
766,481,57,0.11946922060976,1
766,482,57,0.118860609899229,1
766,483,57,0.115460046074343,1
767,477,57,0.127123813128805,1
767,478,57,0.119160230544825,1
767,479,57,0.110870926789945,1
768,476,57,0.114418255876344,1
769,475,57,0.10397877076966,1
774,472,57,0.116778379145778,1
775,471,57,0.117575203644329,1
775,472,57,0.118044968483504,1
776,471,57,0.106813087044315,1
777,470,57,0.111771718380954,1
759,491,58,0.139789940741546,1
759,495,58,0.165853646457543,1
759,496,58,0.148346484874946,1
759,497,58,0.128499377736707,1
759,498,58,0.108256223012168,1
760,488,58,0.155869492822623,1
760,489,58,0.152406745053906,1
760,490,58,0.142118085290449,1
760,491,58,0.142242899340937,1
760,492,58,0.168365018924889,1
760,496,58,0.159813527585489,1
760,497,58,0.127613421059653,1
760,498,58,0.105301208539092,1
761,489,58,0.159999945568135,1
761,490,58,0.158641792464506,1
761,491,58,0.155335737080173,1
761,492,58,0.166556542527214,1
761,497,58,0.13656283386922,1
761,498,58,0.109468358177018,1
761,499,58,0.109416212896765,1
761,500,58,0.103835407499694,1
762,483,58,0.152435210242185,1
762,484,58,0.143766668085464,1
762,489,58,0.141298261098233,1
762,490,58,0.149222692894259,1
762,491,58,0.148998417995853,1
762,492,58,0.150679526060861,1
762,493,58,0.156228966211286,1
762,496,58,0.141133526628916,1
762,497,58,0.112066498159891,1
763,482,58,0.146053029485741,1
763,483,58,0.148710051807535,1
763,484,58,0.141109679225883,1
763,488,58,0.141299019575037,1
763,489,58,0.124409525808333,1
763,490,58,0.12336591749682,1
763,491,58,0.11644208391591,1
763,492,58,0.111697421116405,1
763,493,58,0.106585220535162,1
764,480,58,0.123536530161365,1
764,481,58,0.123927959962419,1
764,482,58,0.127417711736161,1
764,483,58,0.132590378534357,1
764,484,58,0.12734892458251,1
764,485,58,0.122038047694985,1
764,487,58,0.122819602270826,1
764,488,58,0.113731990526,1
764,489,58,0.107713912097535,1
765,479,58,0.118342804477797,1
765,480,58,0.118785286460181,1
765,481,58,0.113556737768067,1
765,482,58,0.111502760275554,1
765,483,58,0.114154830189982,1
765,484,58,0.107301758033229,1
766,478,58,0.129326764388818,1
766,479,58,0.121047198137609,1
766,480,58,0.1188219052741,1
766,481,58,0.109401913378201,1
767,477,58,0.132232801337703,1
767,478,58,0.119111833032307,1
767,479,58,0.108660334991542,1
768,476,58,0.113108701058503,1
769,475,58,0.103376462109042,1
774,472,58,0.109906110833449,1
775,471,58,0.111720543504846,1
775,472,58,0.113953086514274,1
776,471,58,0.105487581905456,1
777,470,58,0.113728041984993,1
759,492,59,0.167055397182625,1
759,495,59,0.178237174536488,1
759,496,59,0.152934299133079,1
759,497,59,0.130414810517771,1
759,498,59,0.114871992316005,1
760,488,59,0.145413109298917,1
760,489,59,0.140947376343965,1
760,490,59,0.133184399720488,1
760,491,59,0.140069484059985,1
760,492,59,0.163475275128537,1
760,496,59,0.153999825193405,1
760,497,59,0.126279963068426,1
760,498,59,0.113781313826381,1
760,499,59,0.117010774207613,1
760,500,59,0.109354921278585,1
761,489,59,0.153358555364033,1
761,490,59,0.149820974935376,1
761,491,59,0.14988321464956,1
761,492,59,0.162499438950247,1
761,496,59,0.165146567611381,1
761,497,59,0.127234751515414,1
761,498,59,0.109344269141121,1
761,499,59,0.113613445063213,1
761,500,59,0.108874258912392,1
762,483,59,0.166408159925459,1
762,484,59,0.143521133528414,1
762,490,59,0.146880828838466,1
762,491,59,0.148370064580284,1
762,492,59,0.156748065504912,1
762,493,59,0.171271847812789,1
762,495,59,0.155532305267104,1
762,496,59,0.130769889202601,1
762,497,59,0.105857450887958,1
763,482,59,0.165754921778287,1
763,483,59,0.168951366110418,1
763,484,59,0.143828785104872,1
763,489,59,0.129195291358156,1
763,490,59,0.126104241839526,1
763,491,59,0.120772116447427,1
763,492,59,0.119875652635827,1
763,493,59,0.119114220003425,1
763,494,59,0.105216192212656,1
764,480,59,0.12795925301992,1
764,481,59,0.136766763742774,1
764,482,59,0.142586545103359,1
764,483,59,0.142605897415923,1
764,484,59,0.129060048251617,1
764,485,59,0.117128293495901,1
764,488,59,0.114975368242719,1
764,489,59,0.108671310597054,1
765,479,59,0.11471649341718,1
765,480,59,0.118035777529295,1
765,481,59,0.116290723177293,1
765,482,59,0.111008222245482,1
765,483,59,0.10903414136098,1
765,484,59,0.104975966993231,1
766,478,59,0.132523431802361,1
766,479,59,0.115622538575461,1
766,480,59,0.112313583132761,1
766,481,59,0.104649085798985,1
767,477,59,0.135924642563345,1
767,478,59,0.119007364006671,1
767,479,59,0.104982603665263,1
768,476,59,0.112501718842286,1
769,475,59,0.106617288488258,1
774,472,59,0.105976844060114,1
775,471,59,0.106174014566859,1
775,472,59,0.106958580741774,1
779,470,59,0.103997766151964,1
780,469,59,0.118200690463743,1
783,469,59,0.108671009437147,1
759,493,60,0.163227989382396,1
759,496,60,0.161181830893403,1
760,488,60,0.135102699097707,1
760,489,60,0.127863874561857,1
760,490,60,0.124441705302137,1
760,491,60,0.136938090267841,1
760,492,60,0.155204732520478,1
760,496,60,0.151726491747639,1
760,497,60,0.127523552712487,1
760,498,60,0.12349007345714,1
760,499,60,0.132750985997537,1
760,500,60,0.120256062215086,1
761,489,60,0.149445171987292,1
761,490,60,0.141199480648624,1
761,491,60,0.145540020314686,1
761,496,60,0.147945306416152,1
761,497,60,0.121292966930144,1
761,498,60,0.111699640776463,1
761,499,60,0.115428067353811,1
761,500,60,0.108009305350358,1
762,484,60,0.14961043069793,1
762,490,60,0.148957672175796,1
762,491,60,0.150611664695073,1
762,492,60,0.162301498812627,1
762,495,60,0.149712412365813,1
762,496,60,0.119469376766749,1
763,482,60,0.186035253020277,1
763,483,60,0.18669651094424,1
763,484,60,0.150074785812843,1
763,489,60,0.138229419334252,1
763,490,60,0.133845300714191,1
763,491,60,0.128630583069673,1
763,492,60,0.125257313255649,1
763,493,60,0.127437052894655,1
763,494,60,0.112078087239288,1
764,481,60,0.156373389117964,1
764,482,60,0.162163489496569,1
764,483,60,0.151673532220228,1
764,484,60,0.131162713262484,1
764,485,60,0.117826192541924,1
764,488,60,0.114319029263909,1
764,489,60,0.10955121061375,1
765,479,60,0.111807154863384,1
765,480,60,0.118074471000353,1
765,481,60,0.123526413419293,1
765,482,60,0.11497851369064,1
765,483,60,0.107325114657154,1
765,484,60,0.104483425541805,1
766,478,60,0.131795695617369,1
766,479,60,0.108607185844931,1
766,480,60,0.104349665926661,1
767,477,60,0.135390228730727,1
767,478,60,0.115611964516492,1
768,476,60,0.11342361393495,1
769,475,60,0.108617704133547,1
780,469,60,0.111795755403188,1
780,470,60,0.104307023914595,1
783,469,60,0.115275323510434,1
760,489,61,0.117225278140136,1
760,490,61,0.118128947481371,1
760,491,61,0.133365084510824,1
760,492,61,0.151313110735561,1
760,497,61,0.128974228832095,1
760,498,61,0.128143797118698,1
760,499,61,0.138892439601377,1
761,490,61,0.133664548999431,1
761,491,61,0.143070932929145,1
761,496,61,0.140999811630055,1
761,497,61,0.121314226588788,1
761,498,61,0.113478536578793,1
761,499,61,0.113104362125024,1
762,482,61,0.165388555173967,1
762,483,61,0.178565951922743,1
762,484,61,0.156334305254433,1
762,490,61,0.153505499090676,1
762,491,61,0.155981323534884,1
762,492,61,0.170397480215133,1
762,495,61,0.146546697498303,1
762,496,61,0.116436373031742,1
763,481,61,0.173123401231284,1
763,482,61,0.196928307255562,1
763,483,61,0.191949843981321,1
763,484,61,0.153592578920181,1
763,485,61,0.134430242486819,1
763,489,61,0.145138418001207,1
763,490,61,0.143756027102072,1
763,491,61,0.139245030928453,1
763,492,61,0.132738437668064,1
763,493,61,0.133570642878693,1
763,494,61,0.118646741748732,1
764,481,61,0.176790346571252,1
764,482,61,0.18051668733739,1
764,483,61,0.154192411377116,1
764,484,61,0.127740488232411,1
764,485,61,0.115632231462849,1
764,486,61,0.112640765486914,1
764,488,61,0.110920417401385,1
764,489,61,0.107562595975201,1
765,480,61,0.119834482961086,1
765,481,61,0.134023665457833,1
765,482,61,0.125548813737817,1
765,483,61,0.108749534094469,1
766,478,61,0.127508238173495,1
766,479,61,0.103369803128869,1
767,477,61,0.130197863843777,1
767,478,61,0.108714276077169,1
768,476,61,0.115410109300077,1
769,475,61,0.112430332790175,1
769,476,61,0.10304200730083,1
773,472,61,0.108958271372471,1
773,473,61,0.108611480162128,1
774,472,61,0.103523506222321,1
780,470,61,0.104393021799248,1
760,490,62,0.115464195388622,1
760,491,62,0.12762518860418,1
760,497,62,0.131638200139899,1
760,498,62,0.13320196738175,1
760,499,62,0.133868200021219,1
761,490,62,0.132318196902541,1
761,491,62,0.140842695390986,1
761,496,62,0.133266382139709,1
761,497,62,0.12146115916136,1
761,498,62,0.119411475986044,1
761,499,62,0.109979281536863,1
762,482,62,0.159932931911716,1
762,491,62,0.157482137202029,1
762,495,62,0.139836073977723,1
762,496,62,0.109266893353075,1
763,481,62,0.174334164445445,1
763,482,62,0.192944006297678,1
763,483,62,0.185917521804647,1
763,484,62,0.156951894991831,1
763,490,62,0.14621883474584,1
763,491,62,0.143083525874901,1
763,492,62,0.135383257436575,1
763,494,62,0.123507250725929,1
764,482,62,0.185715610817878,1
764,483,62,0.151784782920816,1
764,484,62,0.124263307096282,1
764,485,62,0.112787720367627,1
764,486,62,0.107179130180586,1
764,487,62,0.105700613500655,1
764,488,62,0.104909823354322,1
765,481,62,0.136250921437776,1
765,482,62,0.131534868829468,1
765,483,62,0.10887769436615,1
769,476,62,0.109791223905833,1
773,473,62,0.108396485450496,1
760,499,63,0.123054875082886,1
761,491,63,0.141721323843628,1
761,496,63,0.130476682147624,1
761,497,63,0.122662999119007,1
761,499,63,0.107245987680017,1
762,495,63,0.132512634661979,1
762,496,63,0.106544095476703,1
763,482,63,0.17062907218388,1
763,483,63,0.169648562449991,1
763,491,63,0.145043374165263,1
763,492,63,0.137463937774206,1
763,494,63,0.128926969034783,1
763,495,63,0.104044512862027,1
764,482,63,0.173977066873829,1
764,483,63,0.149052147154137,1
764,484,63,0.123399290476182,1
764,485,63,0.108949348115957,1
764,491,63,0.104478495442581,1
764,492,63,0.104108559535655,1
764,493,63,0.106867797760816,1
765,481,63,0.132522316395297,1
765,482,63,0.13525485177534,1
765,483,63,0.115618980426926,1
768,477,63,0.104166081077958,1
769,476,63,0.111305656693232,1
763,486,64,0.118242585153075,1
763,487,64,0.111048923449256,1
763,492,64,0.139713579973928,1
763,495,64,0.104816764942952,1
764,482,64,0.151611961750282,1
764,483,64,0.14725560561205,1
764,484,64,0.123133176658795,1
764,491,64,0.110180958288148,1
764,492,64,0.11714251493597,1
764,493,64,0.125823438111104,1
764,494,64,0.115524003515406,1
765,481,64,0.122068498307838,1
765,482,64,0.129901901733352,1
765,483,64,0.120553953979732,1
767,478,64,0.105338797757157,1
768,477,64,0.108972727048023,1
769,476,64,0.106699638991811,1
769,481,64,0.105777933518348,1
769,482,64,0.111863984853307,1
772,477,64,0.103692735782107,1
784,470,64,0.106511793288123,1
762,496,65,0.10473181554094,1
762,503,65,0.116005547053179,1
762,504,65,0.108502047575056,1
763,486,65,0.116794061769102,1
763,495,65,0.108255966468544,1
763,503,65,0.112833452057261,1
763,504,65,0.11388132122376,1
763,505,65,0.117442269430413,1
764,483,65,0.142574911407679,1
764,484,65,0.125095133068509,1
764,492,65,0.133927115822353,1
764,493,65,0.143421259979882,1
764,494,65,0.126535837448962,1
765,482,65,0.116720255283661,1
765,483,65,0.118038030651565,1
765,492,65,0.103704971797602,1
765,493,65,0.110463691670791,1
768,482,65,0.105061251017363,1
769,481,65,0.105784637114804,1
769,482,65,0.10971998285664,1
772,477,65,0.104659191386987,1
784,470,65,0.11104828766723,1
784,471,65,0.105672672553696,1
762,496,66,0.110004768588281,1
762,503,66,0.124494017893449,1
762,504,66,0.130025912690754,1
762,505,66,0.127020013347407,1
763,495,66,0.10835036336839,1
763,503,66,0.114010418437375,1
763,504,66,0.131168401838512,1
763,505,66,0.139845387626709,1
764,484,66,0.121882136095545,1
764,493,66,0.14541873095052,1
764,494,66,0.123485622982954,1
764,495,66,0.104631919684267,1
765,483,66,0.112074361779694,1
765,491,66,0.105622278462534,1
765,492,66,0.125428215926032,1
765,493,66,0.126311016001094,1
765,494,66,0.105277740374461,1
768,478,66,0.103555864181254,1
781,538,66,0.108063268744126,1
784,471,66,0.109352088144642,1
786,545,66,0.104383830845039,1
762,503,67,0.121927165078729,1
762,504,67,0.14637474634528,1
763,494,67,0.124218043877615,1
763,495,67,0.110814186032587,1
763,503,67,0.110966651024198,1
763,504,67,0.141350094064509,1
763,505,67,0.145063250719148,1
764,484,67,0.113717334077176,1
764,493,67,0.141140419844573,1
764,494,67,0.119902467021652,1
764,495,67,0.113345178510193,1
765,483,67,0.103779391756928,1
765,491,67,0.119575262359357,1
765,492,67,0.147912346137403,1
765,493,67,0.137852144048844,1
765,494,67,0.11513651110129,1
765,495,67,0.117433234633193,1
765,496,67,0.110846622070015,1
765,497,67,0.103600525080106,1
772,475,67,0.10355353298049,1
780,537,67,0.11763512331182,1
781,538,67,0.118929274358103,1
781,539,67,0.123897353192576,1
782,541,67,0.10528345125863,1
782,542,67,0.106835685191436,1
763,494,68,0.121133006403061,1
763,495,68,0.112628964480174,1
763,496,68,0.108213848697798,1
763,497,68,0.108239480752134,1
763,498,68,0.10659509188768,1
763,503,68,0.109911063240814,1
763,504,68,0.140725231873051,1
764,489,68,0.104413043356051,1
764,493,68,0.138778277688352,1
764,494,68,0.120603556131879,1
764,495,68,0.120160750681447,1
764,496,68,0.107180301358004,1
765,490,68,0.108575407897671,1
765,491,68,0.134741552598448,1
765,492,68,0.167516428384486,1
765,493,68,0.144363622792174,1
765,494,68,0.124489835116958,1
765,495,68,0.134273661643141,1
765,496,68,0.123715039907926,1
765,497,68,0.110060728560694,1
766,491,68,0.109865643865159,1
766,492,68,0.127102865784139,1
766,493,68,0.110955686572757,1
766,494,68,0.103849048928089,1
766,495,68,0.116369359375322,1
766,496,68,0.114523884925327,1
766,497,68,0.10371901477254,1
780,537,68,0.110417893056734,1
781,538,68,0.115747029157901,1
781,539,68,0.116178524380701,1
782,541,68,0.105386447946942,1
782,542,68,0.105938306746044,1
786,537,68,0.123259964979787,1
786,538,68,0.104831767167966,1
787,537,68,0.11840571343622,1
788,530,68,0.130460876829524,1
788,531,68,0.104436132282281,1
789,530,68,0.120832894978357,1
763,494,69,0.121349651917148,1
763,495,69,0.116215879363283,1
763,496,69,0.117058714403234,1
763,497,69,0.116498668516279,1
763,498,69,0.109383018382533,1
763,499,69,0.106986343223603,1
764,489,69,0.107206948432768,1
764,490,69,0.118198281184484,1
764,493,69,0.13619473838395,1
764,494,69,0.123205298879569,1
764,495,69,0.125066143638909,1
764,496,69,0.116471831822314,1
764,497,69,0.108938004426114,1
765,489,69,0.103618739677465,1
765,490,69,0.114453034268607,1
765,491,69,0.143667988022491,1
765,492,69,0.171491638774798,1
765,493,69,0.146110885650163,1
765,494,69,0.131599752058394,1
765,495,69,0.143973788023223,1
765,496,69,0.132386905977698,1
765,497,69,0.112314586999119,1
766,491,69,0.124815924372189,1
766,492,69,0.14865336682053,1
766,493,69,0.129254341008137,1
766,494,69,0.11848922396312,1
766,495,69,0.134745947302281,1
766,496,69,0.131197647811736,1
766,497,69,0.107873883778689,1
781,538,69,0.107748790876434,1
781,539,69,0.108536312880069,1
781,540,69,0.122270955844068,1
782,541,69,0.107125088708324,1
786,537,69,0.145547270460603,1
787,537,69,0.117890919613862,1
788,530,69,0.159267881603734,1
