x,y,z,signal,mito.p
469,322,1,0.220902755153604,1
469,323,1,0.218274432255573,1
470,321,1,0.216926485126582,1
470,322,1,0.259827628561595,1
470,323,1,0.239521776805976,1
471,321,1,0.236671376361455,1
471,322,1,0.272335044903165,3
471,323,1,0.233464380278497,1
471,325,1,0.169859229382214,1
471,326,1,0.17932015671737,1
472,321,1,0.226667714256981,1
472,322,1,0.271088979055422,1
472,323,1,0.23703939376823,1
472,324,1,0.211054446945038,1
472,325,1,0.242694529892062,1
472,326,1,0.273306542147976,1
472,327,1,0.212610685189206,1
472,331,1,0.248273572945971,1
472,332,1,0.25572786066442,1
473,321,1,0.22182414831309,1
473,322,1,0.26805000789262,1
473,323,1,0.242309781379323,1
473,324,1,0.238827725914324,1
473,325,1,0.311359144923591,2
473,326,1,0.353277324729172,2
473,327,1,0.250427379370734,1
473,328,1,0.150718598770322,1
473,330,1,0.197072618621534,1
473,331,1,0.299457260769054,1
473,332,1,0.328070463565853,4
473,333,1,0.270648772503449,1
474,321,1,0.241180877889607,1
474,322,1,0.269715979883767,1
474,323,1,0.238618074002529,1
474,324,1,0.249715950437021,1
474,325,1,0.330345291657085,2
474,326,1,0.364784243242262,2
474,327,1,0.254439587813366,2
474,328,1,0.157851147321091,1
474,331,1,0.270150096313169,1
474,332,1,0.31713664120237,1
474,333,1,0.275375934566117,1
475,321,1,0.237088694760469,1
475,322,1,0.256270238503477,1
475,323,1,0.248367066366096,1
475,324,1,0.279427561494399,2
475,325,1,0.311888383267431,2
475,326,1,0.291569949720127,2
475,327,1,0.212501620686464,1
475,332,1,0.222379866420635,1
476,321,1,0.220989556131344,1
476,322,1,0.245706552820191,1
476,323,1,0.266201644538329,1
476,324,1,0.302932556867245,2
476,325,1,0.291524798042166,2
476,326,1,0.232336123724878,1
477,320,1,0.198628232237745,1
477,321,1,0.229242497615929,1
477,322,1,0.256208846498661,1
477,323,1,0.266136237068082,2
477,324,1,0.275121130976362,2
477,325,1,0.259960272769674,1
477,326,1,0.215527028499364,1
477,330,1,0.222489087080365,1
477,331,1,0.254662133830823,1
478,321,1,0.21589140967911,1
478,322,1,0.254693989856577,1
478,323,1,0.266724926608446,2
478,324,1,0.271711666203103,2
478,325,1,0.272225779627152,2
478,326,1,0.244447615174926,1
478,327,1,0.200195691476978,1
478,328,1,0.187457787419654,1
478,329,1,0.229244193034667,1
478,330,1,0.290970886894065,2
478,331,1,0.313783326020725,2
478,332,1,0.256197915509432,1
479,321,1,0.205907044116848,1
479,322,1,0.276018453651401,1
479,323,1,0.303565282678505,2
479,324,1,0.301537093397317,2
479,325,1,0.293952570750047,2
479,326,1,0.261290373385638,2
479,327,1,0.216635542347946,1
479,328,1,0.212487901179574,1
479,329,1,0.269475654277707,1
479,330,1,0.324049800337674,2
479,331,1,0.32022908497983,2
479,332,1,0.246102522327996,2
480,321,1,0.180484797849424,1
480,322,1,0.245849592622109,1
480,323,1,0.285212062529542,2
480,324,1,0.288836176238242,2
480,325,1,0.275032612271744,2
480,326,1,0.24412611024273,1
480,327,1,0.213568262153855,1
480,328,1,0.208689962433982,1
480,329,1,0.248402402461891,1
480,330,1,0.27330921912493,2
480,331,1,0.247537114277737,2
481,322,1,0.184824512114258,1
481,323,1,0.212563793476225,1
481,324,1,0.23323264330683,1
481,325,1,0.254779407729557,1
481,326,1,0.268480398862428,2
481,327,1,0.252555509124878,2
481,328,1,0.216724774913085,1
481,329,1,0.210736399774741,1
482,324,1,0.199194301322846,1
482,325,1,0.292592978771305,2
482,326,1,0.385419586244657,2
482,327,1,0.352353433057863,2
482,328,1,0.253553463825252,2
482,329,1,0.204099772358803,1
482,330,1,0.192011012904724,1
482,331,1,0.175701664660272,1
483,324,1,0.196474247347852,1
483,325,1,0.334306102142197,2
483,326,1,0.462453925880397,2
483,327,1,0.402443910417286,2
483,328,1,0.280604070557617,2
483,329,1,0.238575755458512,1
483,330,1,0.256749216605002,1
483,331,1,0.263440231269393,1
483,332,1,0.209889292725735,1
484,324,1,0.185192016433783,1
484,325,1,0.274198689334237,2
484,326,1,0.358249920962255,2
484,327,1,0.32548361150247,2
484,328,1,0.279291147210443,1
484,329,1,0.299868845975759,1
484,330,1,0.350910074008597,5
484,331,1,0.348306000060143,5
484,332,1,0.262034929909159,1
485,325,1,0.21051117678033,1
485,326,1,0.265424696593663,2
485,327,1,0.276643907008602,1
485,328,1,0.282875373962526,1
485,329,1,0.306528049230677,1
485,330,1,0.330211911280344,5
485,331,1,0.294684567790024,5
485,332,1,0.212520961844958,1
486,326,1,0.206899644863314,1
486,327,1,0.238982499798557,1
486,328,1,0.238391534827782,1
486,329,1,0.214508528000867,1
486,330,1,0.204126185198084,1
486,331,1,0.17578670329485,1
468,322,2,0.160002745239867,1
468,323,2,0.159249510849386,1
469,321,2,0.16601507932195,1
469,322,2,0.223240603743966,1
469,323,2,0.219551417187138,1
469,324,2,0.146214339655371,1
470,320,2,0.170271305368026,1
470,321,2,0.242825545605827,1
470,322,2,0.294850183430923,3
470,323,2,0.257955328571705,1
470,324,2,0.160974264792818,1
471,320,2,0.175072285070205,1
471,321,2,0.264563044636538,3
471,322,2,0.308277386745805,3
471,323,2,0.243721172862128,3
471,324,2,0.16609963833149,1
471,325,2,0.138891034188476,1
471,326,2,0.147742837725851,1
471,331,2,0.182687057557057,1
471,332,2,0.199688895123271,1
472,320,2,0.144165046872528,1
472,321,2,0.231506640107486,1
472,322,2,0.294818728951711,3
472,323,2,0.238508474104397,1
472,324,2,0.195632181938776,1
472,325,2,0.214211048936834,2
472,326,2,0.245104589935762,2
472,327,2,0.188337040500252,1
472,330,2,0.15493771522337,1
472,331,2,0.231744355661017,1
472,332,2,0.238813805634162,4
472,333,2,0.193787811741774,1
473,320,2,0.133653539931707,1
473,321,2,0.216510728297458,1
473,322,2,0.287386169362873,1
473,323,2,0.24326836221033,1
473,324,2,0.230935462458031,2
473,325,2,0.311977504291863,2
473,326,2,0.37450514965595,2
473,327,2,0.249864411117271,2
473,328,2,0.143294025496064,1
473,330,2,0.176298976297243,1
473,331,2,0.2808270627379,4
473,332,2,0.311531854553417,4
473,333,2,0.237730343828243,4
473,334,2,0.166793243060316,1
474,320,2,0.149840963029967,1
474,321,2,0.232193909324187,1
474,322,2,0.272821987011129,1
474,323,2,0.227382221714191,1
474,324,2,0.241008056719074,2
474,325,2,0.359631285686891,2
474,326,2,0.442692392772127,2
474,327,2,0.289155517280734,2
474,328,2,0.160278585406853,1
474,330,2,0.165695481735834,1
474,331,2,0.252701560525869,1
474,332,2,0.305552648061141,4
474,333,2,0.248093367780673,1
475,320,2,0.159347555130333,1
475,321,2,0.222118883475744,1
475,322,2,0.249625111685709,1
475,323,2,0.242346679045008,2
475,324,2,0.286810195463042,2
475,325,2,0.338472571381814,2
475,326,2,0.342996930132062,2
475,327,2,0.239346367891053,2
475,328,2,0.159815044539096,1
475,331,2,0.179756225109134,1
475,332,2,0.203428921934087,1
476,320,2,0.179480117244452,1
476,321,2,0.204577434279993,1
476,322,2,0.237784864925543,1
476,323,2,0.278534678139476,2
476,324,2,0.337150814010691,2
476,325,2,0.316144955089696,2
476,326,2,0.242859610137569,2
476,327,2,0.186570570332617,1
476,330,2,0.153254789044847,1
476,331,2,0.163742805512895,1
477,319,2,0.178280664257923,1
477,320,2,0.215768023349664,1
477,321,2,0.231891500160931,1
477,322,2,0.26612108984015,2
477,323,2,0.292798525985103,2
477,324,2,0.30942953531874,2
477,325,2,0.280748716545707,2
477,326,2,0.219488709001986,1
477,327,2,0.178127563484285,1
477,328,2,0.16668582936003,1
477,329,2,0.185081568826282,1
477,330,2,0.224895466280754,2
477,331,2,0.23861791784554,2
477,332,2,0.209162783488513,1
478,320,2,0.181581164915076,1
478,321,2,0.213137201939809,1
478,322,2,0.261760539771356,2
478,323,2,0.280846203123122,2
478,324,2,0.290388822871663,2
478,325,2,0.300365536741464,2
478,326,2,0.266327350914469,2
478,327,2,0.210788779290478,1
478,328,2,0.197603150837568,1
478,329,2,0.250197984753902,2
478,330,2,0.334321048596858,2
478,331,2,0.354640865248922,2
478,332,2,0.277668519937812,2
478,333,2,0.175079992533019,1
479,320,2,0.148051292395396,1
479,321,2,0.205225842714576,1
479,322,2,0.300200813426217,2
479,323,2,0.3281080974002,2
479,324,2,0.316103595795754,2
479,325,2,0.325159340360755,2
479,326,2,0.299542165554784,2
479,327,2,0.240439288348877,2
479,328,2,0.220905655211972,1
479,329,2,0.286051874816348,2
479,330,2,0.391969033444455,2
479,331,2,0.43021143388612,2
479,332,2,0.328165830869845,2
479,333,2,0.182775542799463,2
480,321,2,0.173799516377343,1
480,322,2,0.26830124217977,2
480,323,2,0.320565960221372,2
480,324,2,0.309289640964743,2
480,325,2,0.29511232639916,2
480,326,2,0.271162707462368,2
480,327,2,0.237107701296844,1
480,328,2,0.215498563311085,1
480,329,2,0.255142851967368,2
480,330,2,0.318364704380096,2
480,331,2,0.334956696774626,2
480,332,2,0.252356632045324,2
481,321,2,0.146900984244117,1
481,322,2,0.181163389199165,1
481,323,2,0.224512770117013,2
481,324,2,0.243785018762485,2
481,325,2,0.251568485413733,2
481,326,2,0.263902701346368,2
481,327,2,0.258959239545803,2
481,328,2,0.221382023260967,1
481,329,2,0.221912399320012,1
481,330,2,0.22786820457208,2
481,331,2,0.204343288029068,2
482,322,2,0.151103090739435,1
482,323,2,0.161885898140492,1
482,324,2,0.188143539682748,1
482,325,2,0.266385463622516,2
482,326,2,0.379667655095791,2
482,327,2,0.371149001340362,2
482,328,2,0.25870307515943,2
482,329,2,0.20361354411136,1
482,330,2,0.181986046525324,1
482,331,2,0.159277741802182,1
483,324,2,0.17238312787089,2
483,325,2,0.306110240052554,2
483,326,2,0.477749815266282,2
483,327,2,0.440188348529193,2
483,328,2,0.281364845099852,2
483,329,2,0.214598273653255,2
483,330,2,0.225391264720808,5
483,331,2,0.245640476105705,5
483,332,2,0.205814688411929,1
484,324,2,0.16060236576946,1
484,325,2,0.245077440927819,2
484,326,2,0.349169458976711,2
484,327,2,0.32429942843865,2
484,328,2,0.26088376289444,2
484,329,2,0.28084477540208,5
484,330,2,0.349389328017214,5
484,331,2,0.374493281724787,5
484,332,2,0.293672692809488,5
484,333,2,0.158459345331009,1
485,325,2,0.193622508414854,1
485,326,2,0.263978638259301,2
485,327,2,0.270936212903903,2
485,328,2,0.264043242636462,1
485,329,2,0.300198225681828,5
485,330,2,0.341363505719049,5
485,331,2,0.31688522845009,5
485,332,2,0.233841521715057,5
485,333,2,0.132087051096619,1
486,326,2,0.200378841316926,1
486,327,2,0.225580705456598,1
486,328,2,0.209614478733247,1
486,329,2,0.193605264221641,1
486,330,2,0.194863844936645,5
486,331,2,0.17100410550109,5
486,332,2,0.132921297502175,1
468,322,3,0.141226350804802,1
469,321,3,0.16827006432151,1
469,322,3,0.227001867905286,3
469,323,3,0.219897394150323,1
470,320,3,0.179528960919795,1
470,321,3,0.272668551615373,3
470,322,3,0.332297387868351,3
470,323,3,0.271111287196706,3
470,324,3,0.147167510762117,1
471,320,3,0.178811252244311,1
471,321,3,0.283802455698039,3
471,322,3,0.330540220195632,3
471,323,3,0.245621335720483,3
471,324,3,0.150437605422699,1
471,325,3,0.116786700082478,1
471,326,3,0.12222497876488,1
471,331,3,0.174167779173673,1
471,332,3,0.197503054207623,1
472,320,3,0.137788075067074,1
472,321,3,0.231376962882198,1
472,322,3,0.301390149670674,3
472,323,3,0.230251227148544,1
472,324,3,0.181180343386542,1
472,325,3,0.192447047834277,2
472,326,3,0.214331780597467,2
472,327,3,0.168870008319152,1
472,330,3,0.140587010629651,1
472,331,3,0.227593390579593,1
472,332,3,0.256837422995642,1
472,333,3,0.199108348054476,1
473,320,3,0.127849820432848,1
473,321,3,0.223175129349296,1
473,322,3,0.305070145273293,1
473,323,3,0.239593274398793,1
473,324,3,0.221748992185101,2
473,325,3,0.300345660187579,2
473,326,3,0.366124761760205,2
473,327,3,0.24491476996157,2
473,328,3,0.141022309390541,1
473,330,3,0.162602881801384,1
473,331,3,0.257317940358917,1
473,332,3,0.302033583389751,4
473,333,3,0.221518080614662,1
474,320,3,0.134787808529402,1
474,321,3,0.218888753850274,1
474,322,3,0.27272528121866,1
474,323,3,0.224517521751107,1
474,324,3,0.239264452396256,2
474,325,3,0.356784744550813,2
474,326,3,0.457522666633115,2
474,327,3,0.295870379348158,2
474,328,3,0.161636894667471,1
474,330,3,0.16812769376383,1
474,331,3,0.231797426729133,1
474,332,3,0.282476013617246,1
474,333,3,0.21950787169535,1
475,320,3,0.13639094964062,1
475,321,3,0.194745611787836,1
475,322,3,0.240542775816297,1
475,323,3,0.246111757898487,2
475,324,3,0.290504312119094,2
475,325,3,0.336392426439573,2
475,326,3,0.354226290751286,2
475,327,3,0.244643436039123,2
475,328,3,0.166854657373273,1
475,331,3,0.167627411387378,1
475,332,3,0.192016054544655,1
476,320,3,0.164088983249352,1
476,321,3,0.182475866383514,1
476,322,3,0.23328350586896,2
476,323,3,0.295470751305182,2
476,324,3,0.357890313724745,2
476,325,3,0.326032012539674,2
476,326,3,0.252067563150556,2
476,327,3,0.199096658588443,1
476,328,3,0.189752514372912,1
476,329,3,0.173789455405624,1
476,330,3,0.155765548038307,1
476,331,3,0.145435317053566,1
477,320,3,0.210832414014831,1
477,321,3,0.213366038853108,1
477,322,3,0.260895608517463,2
477,323,3,0.320742707624771,2
477,324,3,0.347872664415686,2
477,325,3,0.307172018345145,2
477,326,3,0.235928515256672,2
477,327,3,0.205213818626423,1
477,328,3,0.230598988763032,2
477,329,3,0.253214246228876,2
477,330,3,0.257442107473308,2
477,331,3,0.225108196716045,2
477,332,3,0.193023490205075,2
478,320,3,0.174551791517749,1
478,321,3,0.200532120555694,1
478,322,3,0.257259783034587,2
478,323,3,0.297778729294364,2
478,324,3,0.315469888426278,2
478,325,3,0.328313220759314,2
478,326,3,0.293010810257569,2
478,327,3,0.242444879482944,2
478,328,3,0.255466052318302,2
478,329,3,0.329316350948466,2
478,330,3,0.417396209811103,2
478,331,3,0.408921168471886,2
478,332,3,0.313504072708122,2
478,333,3,0.213681475970875,2
479,320,3,0.14113047041356,1
479,321,3,0.190896832788256,1
479,322,3,0.28983990874721,2
479,323,3,0.3281212815117,2
479,324,3,0.318370616037537,2
479,325,3,0.348433000308477,2
479,326,3,0.344710016917602,2
479,327,3,0.288182146152055,2
479,328,3,0.262123270148646,2
479,329,3,0.323908232873081,2
479,330,3,0.478881462657376,2
479,331,3,0.565805581336331,2
479,332,3,0.427826604350212,2
479,333,3,0.228066813953939,2
480,321,3,0.160346245999369,1
480,322,3,0.260607610413476,2
480,323,3,0.331134799085295,2
480,324,3,0.316602428143023,2
480,325,3,0.311592220383734,2
480,326,3,0.311570046091297,2
480,327,3,0.286912946761799,2
480,328,3,0.253004371235668,2
480,329,3,0.270450988522818,2
480,330,3,0.368335743951081,2
480,331,3,0.44401919178318,2
480,332,3,0.327686272756646,2
480,333,3,0.164787674234391,2
481,322,3,0.17197959590319,1
481,323,3,0.233854103506742,2
481,324,3,0.258452510116519,2
481,325,3,0.25379008627986,2
481,326,3,0.265115639604304,2
481,327,3,0.27383011422393,2
481,328,3,0.244821432698435,1
481,329,3,0.242005832954318,1
481,330,3,0.249303450596524,2
481,331,3,0.232084175577208,2
481,332,3,0.16428636568344,2
482,323,3,0.15853316297052,1
482,324,3,0.191007815791148,1
482,325,3,0.240299773233282,2
482,326,3,0.348770388637268,2
482,327,3,0.377201356227911,2
482,328,3,0.264336572386215,2
482,329,3,0.201523048191564,1
482,330,3,0.17374060057621,1
482,331,3,0.145197913814013,1
483,324,3,0.16269917489324,1
483,325,3,0.266952224259997,2
483,326,3,0.445572596893404,2
483,327,3,0.456145942001867,2
483,328,3,0.275574030860726,2
483,329,3,0.18807099360729,1
483,330,3,0.197547915879747,5
483,331,3,0.225550054070473,5
483,332,3,0.198230857317039,1
484,324,3,0.149339018696989,1
484,325,3,0.226557132800633,2
484,326,3,0.330676433706317,2
484,327,3,0.321262420392282,2
484,328,3,0.237954875270274,2
484,329,3,0.252413562421882,5
484,330,3,0.330160134084422,5
484,331,3,0.386258863136073,5
484,332,3,0.318343801651713,5
484,333,3,0.156383996639145,1
485,325,3,0.191697271205695,1
485,326,3,0.263278430320655,2
485,327,3,0.256989876833183,2
485,328,3,0.232240957194157,1
485,329,3,0.284977090877389,5
485,330,3,0.339990350390406,5
485,331,3,0.342848848690213,5
485,332,3,0.265486913999706,5
485,333,3,0.134836551818109,1
486,326,3,0.19339289071661,1
486,327,3,0.202334863761058,1
486,328,3,0.174564261768727,1
486,329,3,0.180099870871555,1
486,330,3,0.188437404827892,5
486,331,3,0.175043998347056,5
486,332,3,0.13856796768639,1
468,322,4,0.12535126399267,1
469,321,4,0.173964975861253,1
469,322,4,0.22840924392266,3
469,323,4,0.210021423846564,1
470,320,4,0.185084703120133,1
470,321,4,0.295919323410137,3
470,322,4,0.360770897084424,3
470,323,4,0.274558430420595,3
470,324,4,0.138440833589208,1
471,320,4,0.17626523523355,1
471,321,4,0.287425632464806,3
471,322,4,0.334734775385126,3
471,323,4,0.243205319403059,3
471,324,4,0.143724829166485,1
471,332,4,0.225625968675265,1
472,320,4,0.132748164017664,1
472,321,4,0.221785979083351,1
472,322,4,0.281304055414851,3
472,323,4,0.214089804188951,1
472,324,4,0.173557941515371,1
472,325,4,0.180778651840498,1
472,326,4,0.195373965203404,2
472,327,4,0.15510475858531,1
472,331,4,0.241214875496925,1
472,332,4,0.311965569436276,6
472,333,4,0.248160582210364,6
473,320,4,0.124716552756836,1
473,321,4,0.222525940129767,1
473,322,4,0.296277034455638,1
473,323,4,0.227990341645614,1
473,324,4,0.220653773988725,2
473,325,4,0.290893968422915,2
473,326,4,0.346418352069049,2
473,327,4,0.231993247593331,2
473,328,4,0.139454392834411,1
473,330,4,0.158486416260458,1
473,331,4,0.247983812498823,1
473,332,4,0.316293460386229,1
473,333,4,0.238781458829299,1
474,320,4,0.12067841109996,1
474,321,4,0.195794473666622,1
474,322,4,0.258786507607835,1
474,323,4,0.235193952780447,2
474,324,4,0.266021907843998,2
474,325,4,0.35442396319121,2
474,326,4,0.426720879019291,2
474,327,4,0.275684523084509,2
474,328,4,0.165381360798403,1
474,331,4,0.216910334032292,1
474,332,4,0.257453551549787,1
475,321,4,0.170340181754243,1
475,322,4,0.23951247431106,2
475,323,4,0.283950247134051,2
475,324,4,0.340494112836899,2
475,325,4,0.363253614744289,2
475,326,4,0.360666740372765,2
475,327,4,0.248420672829603,2
475,328,4,0.182570843295034,1
476,321,4,0.168347897426453,1
476,322,4,0.239135065176804,2
476,323,4,0.32620142056459,2
476,324,4,0.391377332305017,2
476,325,4,0.363299859521173,2
476,326,4,0.298400925662938,2
476,327,4,0.235022871644934,2
476,328,4,0.233684873946955,2
476,329,4,0.211275676782159,2
476,330,4,0.169444543343871,2
477,320,4,0.20015665222973,1
477,321,4,0.196582486449366,1
477,322,4,0.251269310930962,2
477,323,4,0.337385629505854,2
477,324,4,0.380096997582958,2
477,325,4,0.348135766633999,2
477,326,4,0.285626391637624,2
477,327,4,0.252901909942747,2
477,328,4,0.313559419206649,2
477,329,4,0.348389343275983,2
477,330,4,0.304857013291458,2
477,331,4,0.234428716609955,2
477,332,4,0.206215476478251,2
478,320,4,0.170326696482836,1
478,321,4,0.193418165840685,1
478,322,4,0.24553116621341,2
478,323,4,0.302558962425148,2
478,324,4,0.332804451919754,2
478,325,4,0.347857383338906,2
478,326,4,0.324601391439081,2
478,327,4,0.280416972176662,2
478,328,4,0.326743173775691,2
478,329,4,0.43291004973734,2
478,330,4,0.502285469074625,2
478,331,4,0.470490790708499,2
478,332,4,0.381238192858522,2
478,333,4,0.286793442048937,2
479,321,4,0.177046957120451,1
479,322,4,0.259986730225238,2
479,323,4,0.308483246273581,2
479,324,4,0.308911674126955,2
479,325,4,0.352314215345485,2
479,326,4,0.380474808263756,2
479,327,4,0.338395050590849,2
479,328,4,0.310648920629507,2
479,329,4,0.372758600658483,2
479,330,4,0.551295384686496,2
479,331,4,0.67758712645352,2
479,332,4,0.522919161274566,2
479,333,4,0.289322359869403,2
480,321,4,0.147409855254964,1
480,322,4,0.230079365228086,2
480,323,4,0.312831192242549,2
480,324,4,0.312686836260295,2
480,325,4,0.322151132124785,2
480,326,4,0.348215429006527,2
480,327,4,0.336373107589221,2
480,328,4,0.291216700302882,2
480,329,4,0.2818716637617,2
480,330,4,0.392884381097652,2
480,331,4,0.514709586816638,2
480,332,4,0.376100761769485,2
480,333,4,0.182046155812016,2
481,322,4,0.160043580292488,1
481,323,4,0.235139476299429,2
481,324,4,0.272197559828427,2
481,325,4,0.261430312355917,2
481,326,4,0.265205296024127,2
481,327,4,0.277882945791841,2
481,328,4,0.252772522723296,2
481,329,4,0.238837251490652,2
481,330,4,0.242044202957328,2
481,331,4,0.237484753500839,2
481,332,4,0.166799009714839,2
482,323,4,0.162245906924545,1
482,324,4,0.206288803338654,1
482,325,4,0.226058077371951,2
482,326,4,0.302539242028253,2
482,327,4,0.351381868888629,2
482,328,4,0.249243776318587,2
482,329,4,0.184850623793631,1
483,324,4,0.1651700023138,1
483,325,4,0.226112821550664,2
483,326,4,0.364326658648228,2
483,327,4,0.410998904134868,2
483,328,4,0.246112382526443,2
483,329,4,0.162212032012004,1
483,330,4,0.167129014048864,1
483,331,4,0.195683535280013,5
483,332,4,0.1761143429659,1
484,324,4,0.143314113977291,1
484,325,4,0.203415670898164,1
484,326,4,0.282845302588075,2
484,327,4,0.284993509669375,2
484,328,4,0.202518102833571,1
484,329,4,0.212128695488607,1
484,330,4,0.274666580289544,5
484,331,4,0.347907710505644,5
484,332,4,0.298622534738461,5
484,333,4,0.143521323147614,1
485,325,4,0.18069829791559,1
485,326,4,0.234927548957224,1
485,327,4,0.216737111315216,1
485,328,4,0.19019836488463,1
485,329,4,0.246440356819612,1
485,330,4,0.295176239223941,5
485,331,4,0.3280073761423,5
485,332,4,0.267796743564614,5
485,333,4,0.131088929085185,1
486,326,4,0.171081793603114,1
486,327,4,0.166719180031251,1
486,329,4,0.159016446543313,1
486,330,4,0.166702649698559,1
486,331,4,0.166258539221862,5
486,332,4,0.136527051610599,1
469,321,5,0.168947718729318,1
469,322,5,0.210926353597781,3
469,323,5,0.176376597474843,1
470,320,5,0.178794543446488,1
470,321,5,0.287411355254384,3
470,322,5,0.351864081670641,3
470,323,5,0.248277075324153,3
470,324,5,0.125306848483372,1
471,320,5,0.167059223028855,1
471,321,5,0.269283893495223,3
471,322,5,0.31272667860063,3
471,323,5,0.224396968555604,3
471,324,5,0.140929730604209,1
471,332,5,0.250893039511912,6
471,333,5,0.258597490726729,6
472,320,5,0.130983846585663,1
472,321,5,0.207200269375268,1
472,322,5,0.242399348566581,3
472,323,5,0.192921408150556,1
472,324,5,0.175068113447785,1
472,325,5,0.175007736463398,1
472,326,5,0.17654652974108,1
472,331,5,0.229130845368799,6
472,332,5,0.348717317569151,6
472,333,5,0.321421209741947,6
472,334,5,0.236358995459044,6
473,321,5,0.203940469921888,1
473,322,5,0.252629460613237,1
473,323,5,0.217166498418665,1
473,324,5,0.243853125517828,2
473,325,5,0.288635157577125,2
473,326,5,0.301766978793256,2
473,327,5,0.205858166979293,1
473,331,5,0.214537283194983,1
473,332,5,0.299095958112806,6
473,333,5,0.253783728459593,6
474,321,5,0.163300769693337,1
474,322,5,0.227699956570511,1
474,323,5,0.267119200697513,2
474,324,5,0.348642919917967,2
474,325,5,0.385028792225631,2
474,326,5,0.365943463495984,2
474,327,5,0.237935757193193,2
474,328,5,0.173611570287019,1
474,332,5,0.210756231712343,1
475,321,5,0.144275706407371,1
475,322,5,0.231875081368945,2
475,323,5,0.335577376189593,2
475,324,5,0.427236866327208,2
475,325,5,0.421672502030264,2
475,326,5,0.368135684540039,2
475,327,5,0.256096391158445,2
475,328,5,0.204592916130044,1
475,329,5,0.186989372223027,1
476,321,5,0.152463530427546,1
476,322,5,0.241788083187237,2
476,323,5,0.35387458059579,2
476,324,5,0.421570286126897,2
476,325,5,0.412680581057479,2
476,326,5,0.386220403900498,2
476,327,5,0.306407852965435,2
476,328,5,0.281408100585803,2
476,329,5,0.251865139076538,2
476,330,5,0.196465413323903,2
477,321,5,0.177697306363326,1
477,322,5,0.245497413995646,2
477,323,5,0.348067325256537,2
477,324,5,0.400614687448217,2
477,325,5,0.38803856203149,2
477,326,5,0.369795789490028,2
477,327,5,0.326811458996164,2
477,328,5,0.384861838096255,2
477,329,5,0.425816640820454,2
477,330,5,0.334621226945986,2
477,331,5,0.23670341085234,2
477,332,5,0.211839448128708,2
477,333,5,0.199735050667589,2
478,321,5,0.184229431291416,1
478,322,5,0.237289891886716,2
478,323,5,0.308071861840149,2
478,324,5,0.349991647831903,2
478,325,5,0.358001274419495,2
478,326,5,0.360081597826866,2
478,327,5,0.323534326117007,2
478,328,5,0.380782125218096,2
478,329,5,0.500801263818667,2
478,330,5,0.519823549741043,2
478,331,5,0.469604042092429,2
478,332,5,0.403023520544147,2
478,333,5,0.31996254730776,2
478,334,5,0.187621685333673,2
479,321,5,0.162576480116174,1
479,322,5,0.224796128127613,1
479,323,5,0.278679167970578,2
479,324,5,0.299191726963342,2
479,325,5,0.344033143294739,2
479,326,5,0.407443209495487,2
479,327,5,0.383162671590877,2
479,328,5,0.34468913649736,2
479,329,5,0.405431282849296,2
479,330,5,0.562099708289821,2
479,331,5,0.677509494121849,2
479,332,5,0.530120318513857,2
479,333,5,0.305472628758353,2
479,334,5,0.147421723186127,2
480,321,5,0.13398141383824,1
480,322,5,0.191397427478687,1
480,323,5,0.27542824715743,2
480,324,5,0.305654060871422,2
480,325,5,0.326290764670436,2
480,326,5,0.373939236727838,2
480,327,5,0.369357858368466,2
480,328,5,0.314358251437916,2
480,329,5,0.299644470690716,2
480,330,5,0.396600649738,2
480,331,5,0.502668232162789,2
480,332,5,0.361006894911076,2
480,333,5,0.17788924561094,2
481,322,5,0.151413586603908,1
481,323,5,0.232941031283956,1
481,324,5,0.289377661751648,2
481,325,5,0.27737503403107,2
481,326,5,0.274235631616204,2
481,327,5,0.278578781334796,2
481,328,5,0.253119659709828,2
481,329,5,0.231847530814459,2
481,330,5,0.227257117657866,2
481,331,5,0.223890484515875,2
481,332,5,0.1588137547716,2
482,323,5,0.172685893964407,1
482,324,5,0.22748532994321,1
482,325,5,0.225580526991468,1
482,326,5,0.258757172402045,2
482,327,5,0.296987281057863,2
482,328,5,0.220898048135793,1
482,329,5,0.16270021222181,1
483,324,5,0.172363875944962,1
483,325,5,0.196916662405812,1
483,326,5,0.273327556417066,2
483,327,5,0.319536952588329,2
483,328,5,0.201944181282738,1
483,329,5,0.13502270210306,1
483,330,5,0.134474356836209,1
483,331,5,0.153740649207958,1
483,332,5,0.136559844578287,1
484,325,5,0.180367836264668,1
484,326,5,0.228932503684636,1
484,327,5,0.23338822028415,1
484,328,5,0.166164800412183,1
484,329,5,0.163459146342388,1
484,330,5,0.20391028700673,1
484,331,5,0.265324756120707,5
484,332,5,0.227078139440339,1
484,333,5,0.112188066375822,1
485,326,5,0.198059062321005,1
485,327,5,0.174565321405438,1
485,329,5,0.186462119303761,1
485,330,5,0.223534134266992,1
485,331,5,0.268364775766149,5
485,332,5,0.224144217314848,1
486,330,5,0.135382532421983,1
486,331,5,0.142546345832763,1
469,321,6,0.15371792836606,1
469,322,6,0.182996025313851,1
470,320,6,0.156304646580595,1
470,321,6,0.251186748500068,1
470,322,6,0.310518529543698,3
470,323,6,0.210130778355142,1
470,333,6,0.182869303917283,1
471,320,6,0.147018960849301,1
471,321,6,0.239564496896536,1
471,322,6,0.279708755615294,3
471,323,6,0.198597335462065,1
471,332,6,0.261379115171669,6
471,333,6,0.313245878280892,6
471,334,6,0.237920989203663,1
472,321,6,0.194290570321909,1
472,322,6,0.213328985030434,1
472,323,6,0.178171242824921,1
472,324,6,0.175699456154285,1
472,325,6,0.171410883303347,2
472,326,6,0.16098437038082,1
472,331,6,0.208085947200556,6
472,332,6,0.355955015543867,6
472,333,6,0.391741178089372,6
472,334,6,0.268622568646835,6
473,321,6,0.173383871088926,1
473,322,6,0.201843303867848,1
473,323,6,0.209775811211019,2
473,324,6,0.273212580256884,2
473,325,6,0.294246792825452,2
473,326,6,0.256033370659315,2
473,327,6,0.183082670134601,1
473,332,6,0.277226015647287,6
473,333,6,0.270590994417521,6
474,321,6,0.132689950922981,1
474,322,6,0.189736229429774,2
474,323,6,0.290396608412971,2
474,324,6,0.43867924738756,2
474,325,6,0.440826941381611,2
474,326,6,0.325525149261543,2
474,327,6,0.214043090941101,2
474,328,6,0.187576712120843,1
474,329,6,0.188635367273653,1
475,321,6,0.124266117922084,1
475,322,6,0.213306096877476,2
475,323,6,0.359759512882996,2
475,324,6,0.49777712756982,2
475,325,6,0.482733007866475,2
475,326,6,0.385727572443235,2
475,327,6,0.272241395326052,2
475,328,6,0.226277143319368,2
475,329,6,0.217926358327107,2
475,330,6,0.208423000907227,1
476,321,6,0.139684479003622,1
476,322,6,0.238839437688498,2
476,323,6,0.36643531339503,2
476,324,6,0.433657283237814,2
476,325,6,0.441373892389631,2
476,326,6,0.464808416344158,2
476,327,6,0.382361675469905,2
476,328,6,0.321141242568824,2
476,329,6,0.302204151438014,2
476,330,6,0.243191131425202,2
476,331,6,0.188270584547365,1
477,321,6,0.164056681060772,1
477,322,6,0.254101909478738,2
477,323,6,0.370327994816659,2
477,324,6,0.414450375138165,2
477,325,6,0.404387261837168,2
477,326,6,0.436630289226836,2
477,327,6,0.394588589242961,2
477,328,6,0.420620807017534,2
477,329,6,0.468220000390839,2
477,330,6,0.34948875540292,2
477,331,6,0.237505232374538,2
477,332,6,0.208622658771726,2
477,333,6,0.208146134565742,2
478,321,6,0.173497296833288,1
478,322,6,0.24276031660071,2
478,323,6,0.325627833635876,2
478,324,6,0.360998306276681,2
478,325,6,0.352364676361071,2
478,326,6,0.3772983966425,2
478,327,6,0.356275405068999,2
478,328,6,0.402075379923262,2
478,329,6,0.512798225271358,2
478,330,6,0.487771881587315,2
478,331,6,0.437754173384763,2
478,332,6,0.385847367161934,2
478,333,6,0.319059357591563,2
478,334,6,0.196955947042614,2
479,321,6,0.149317078640035,1
479,322,6,0.204252583126604,1
479,323,6,0.256897476511981,2
479,324,6,0.284315520639448,2
479,325,6,0.329338614473469,2
479,326,6,0.422956870956594,2
479,327,6,0.411818059082844,2
479,328,6,0.352552622451395,2
479,329,6,0.4122051945667,2
479,330,6,0.541865867214269,2
479,331,6,0.624270267236363,2
479,332,6,0.487939995740037,2
479,333,6,0.298139764252917,2
479,334,6,0.155356416727144,2
480,322,6,0.166503694540511,1
480,323,6,0.240298880907631,2
480,324,6,0.290060313183103,2
480,325,6,0.320504590524697,2
480,326,6,0.385121237163115,2
480,327,6,0.377020392585809,2
480,328,6,0.30509405960075,2
480,329,6,0.308960818962206,2
480,330,6,0.395116266016911,2
480,331,6,0.448297447118774,2
480,332,6,0.314926506720863,2
480,333,6,0.165966882582705,2
481,322,6,0.140944175125691,1
481,323,6,0.22106397609067,1
481,324,6,0.295150986408006,2
481,325,6,0.288042162565493,2
481,326,6,0.277573353407091,2
481,327,6,0.265849867458409,2
481,328,6,0.231597724248352,2
481,329,6,0.214145931472424,2
481,330,6,0.208343293918417,2
481,331,6,0.193619697589052,2
481,332,6,0.137371314371592,2
482,323,6,0.168352492903557,1
482,324,6,0.234309189588951,1
482,325,6,0.233166120429519,1
482,326,6,0.233301486230835,2
482,327,6,0.240359202121665,1
482,328,6,0.185177783839643,1
483,324,6,0.166585554264955,1
483,325,6,0.177539766269573,1
483,326,6,0.206707460226146,1
483,327,6,0.227909831563718,1
483,328,6,0.158100831192421,1
484,326,6,0.181374758837839,1
484,327,6,0.186193518128622,1
484,330,6,0.151985835044145,1
484,331,6,0.189803109237346,1
484,332,6,0.155599530850866,1
485,330,6,0.164638834315739,1
485,331,6,0.200768497620747,1
469,322,7,0.148269912179986,1
470,321,7,0.202116556290445,1
470,322,7,0.254882159028314,1
470,323,7,0.187066781473285,1
470,332,7,0.186078898898701,1
470,333,7,0.181788006001068,6
471,321,7,0.206866472657224,1
471,322,7,0.253287260775301,1
471,323,7,0.19269558283633,1
471,331,7,0.15181055997807,1
471,332,7,0.252451910116751,6
471,333,7,0.337209685195541,6
471,334,7,0.232683104554421,6
472,322,7,0.208720747668955,1
472,323,7,0.188846937685598,1
472,324,7,0.187644685027338,2
472,325,7,0.170825651524882,2
472,331,7,0.180724275746116,6
472,332,7,0.336627487324291,6
472,333,7,0.431902212530376,6
472,334,7,0.280404479617542,6
472,335,7,0.158955378006546,1
473,322,7,0.170508875918638,1
473,323,7,0.217340702693958,2
473,324,7,0.304162493928839,2
473,325,7,0.291805702157224,2
473,326,7,0.207937642677295,2
473,327,7,0.161648104508466,1
473,332,7,0.246965178151478,6
473,333,7,0.273969986269785,6
473,334,7,0.189082154727305,1
474,322,7,0.157747570621106,2
474,323,7,0.296795319502107,2
474,324,7,0.495263803140112,2
474,325,7,0.47025137973623,2
474,326,7,0.294156957940498,2
474,327,7,0.20123005306393,2
474,328,7,0.201806606975435,1
474,329,7,0.213493529880551,2
474,330,7,0.203975159081586,1
474,333,7,0.173927308564693,1
475,322,7,0.187087026111501,2
475,323,7,0.342386557078369,2
475,324,7,0.515740847571951,2
475,325,7,0.514525500034756,2
475,326,7,0.401327387945983,2
475,327,7,0.288154082510319,2
475,328,7,0.25266789754067,2
475,329,7,0.283844952707187,2
475,330,7,0.276416720897758,2
475,331,7,0.210646453349081,1
476,321,7,0.128908207887962,1
476,322,7,0.224116175981253,2
476,323,7,0.3519404647464,2
476,324,7,0.426595239567575,2
476,325,7,0.456426801500642,2
476,326,7,0.508685496344097,2
476,327,7,0.429636508468929,2
476,328,7,0.368776775904281,2
476,329,7,0.405246705288306,2
476,330,7,0.336519605153038,2
476,331,7,0.223804932794047,2
477,321,7,0.151263720510756,1
477,322,7,0.263189309296222,2
477,323,7,0.398974905214939,2
477,324,7,0.431260273456765,2
477,325,7,0.407855597795277,2
477,326,7,0.458175224381977,2
477,327,7,0.429889438174816,2
477,328,7,0.439424026992494,2
477,329,7,0.50096384555235,2
477,330,7,0.367401612842922,2
477,331,7,0.240130320592083,2
477,332,7,0.212317199282463,2
478,321,7,0.16216246332207,1
478,322,7,0.256009902494684,2
478,323,7,0.358741101617064,2
478,324,7,0.372566527562021,2
478,325,7,0.334806719140769,2
478,326,7,0.362373960117148,2
478,327,7,0.365909510504948,2
478,328,7,0.394570742729933,2
478,329,7,0.468531198961761,2
478,330,7,0.42288909882337,2
478,331,7,0.393137355419821,2
478,332,7,0.358301497384906,2
478,333,7,0.306596780613975,2
479,321,7,0.145161875011768,1
479,322,7,0.200762853661002,1
479,323,7,0.245510062711754,2
479,324,7,0.262014094105199,2
479,325,7,0.302906790964061,2
479,326,7,0.405604037095405,2
479,327,7,0.4044944301479,2
479,328,7,0.329317466355531,2
479,329,7,0.370213531743727,2
479,330,7,0.479067691020821,2
479,331,7,0.543051411074707,2
479,332,7,0.432358503252215,2
479,333,7,0.283601615502052,2
480,322,7,0.162737266044484,1
480,323,7,0.213344623037475,1
480,324,7,0.265226287985076,2
480,325,7,0.309402341694514,2
480,326,7,0.378267819230171,2
480,327,7,0.357718875658971,2
480,328,7,0.270520746080616,2
480,329,7,0.284481292437335,2
480,330,7,0.360086751007503,2
480,331,7,0.369861821588231,2
480,332,7,0.259120081244466,2
481,322,7,0.139518885670865,1
481,323,7,0.215589714376375,1
481,324,7,0.303178704898181,2
481,325,7,0.306641753826805,2
481,326,7,0.280542723169084,2
481,327,7,0.24762121597038,2
481,328,7,0.20081594703726,1
481,329,7,0.184321575068992,2
481,330,7,0.178376566957306,2
481,331,7,0.155193723452754,2
482,323,7,0.168557504721964,1
482,324,7,0.24507242159603,1
482,325,7,0.248885217563717,2
482,326,7,0.214794652220985,1
482,327,7,0.18999817162474,1
483,324,7,0.158647503348675,1
483,325,7,0.1641825435939,1
483,326,7,0.160080701039586,1
483,327,7,0.156857643094903,1
470,322,8,0.205433977672763,1
470,332,8,0.173112302930995,1
470,333,8,0.174877367685729,6
471,322,8,0.237621279325502,1
471,331,8,0.151031202754145,1
471,332,8,0.242369701046814,6
471,333,8,0.33767083909218,6
471,334,8,0.224461171386222,6
472,323,8,0.223667648492581,1
472,324,8,0.209056864433693,2
472,325,8,0.174196578984071,2
472,331,8,0.165329617064693,6
472,332,8,0.318523002950653,6
472,333,8,0.453973441354707,6
472,334,8,0.290427349031662,6
472,335,8,0.166064503008967,1
473,322,8,0.16431727361319,1
473,323,8,0.236998212939418,2
473,324,8,0.330943239076082,2
473,325,8,0.293237483281164,2
473,326,8,0.183733844778704,2
473,332,8,0.225295272788859,6
473,333,8,0.28029974289421,6
473,334,8,0.196858438157058,1
474,322,8,0.139783716770127,2
474,323,8,0.285960344512657,2
474,324,8,0.49817528327547,2
474,325,8,0.464292339803676,2
474,326,8,0.277080455025404,2
474,327,8,0.19694858535599,2
474,328,8,0.205827604825733,2
474,329,8,0.23062656162566,2
474,330,8,0.219669494178958,2
474,333,8,0.181049974608874,1
475,322,8,0.164488365902773,2
475,323,8,0.301783687591079,2
475,324,8,0.483566083094614,2
475,325,8,0.505851514691562,2
475,326,8,0.400040252810134,2
475,327,8,0.295014973670593,2
475,328,8,0.279789689551875,2
475,329,8,0.378027337467121,2
475,330,8,0.371493996745331,2
475,331,8,0.242681055774726,2
476,322,8,0.207779433339303,2
476,323,8,0.324228979328473,2
476,324,8,0.405607651014293,2
476,325,8,0.447379690186319,2
476,326,8,0.488096063496466,2
476,327,8,0.424904416307037,2
476,328,8,0.412191541984234,2
476,329,8,0.544201886537046,2
476,330,8,0.456868993477189,2
476,331,8,0.256581080144139,2
476,332,8,0.197176998414605,1
477,321,8,0.146574314977213,1
477,322,8,0.276785340624348,2
477,323,8,0.43312398481226,2
477,324,8,0.448926938249548,2
477,325,8,0.393972839927218,2
477,326,8,0.421718233719898,2
477,327,8,0.427816074907526,2
477,328,8,0.453967016610017,2
477,329,8,0.527574424197873,2
477,330,8,0.376751936413588,2
477,331,8,0.231045620059695,2
477,332,8,0.201106332112364,2
478,321,8,0.160261854300889,1
478,322,8,0.286941300409372,2
478,323,8,0.416574288653606,2
478,324,8,0.3923090987502,2
478,325,8,0.310731839990663,2
478,326,8,0.324400149696551,2
478,327,8,0.362519788436727,2
478,328,8,0.378029389816119,2
478,329,8,0.399375380967283,2
478,330,8,0.336220943757517,2
478,331,8,0.320014079114128,2
478,332,8,0.297131882429671,2
478,333,8,0.262791376671984,2
479,321,8,0.14815295059523,1
479,322,8,0.213276717055404,1
479,323,8,0.250936317306005,2
479,324,8,0.242702560822924,2
479,325,8,0.26595389032122,2
479,326,8,0.357427352868662,2
479,327,8,0.36969529131354,2
479,328,8,0.294705024355582,2
479,329,8,0.302011431405455,2
479,330,8,0.376869589550724,2
479,331,8,0.424321995354374,2
479,332,8,0.344010612072042,2
479,333,8,0.238325391188873,2
480,322,8,0.159516316219152,1
480,323,8,0.184555353235586,1
480,324,8,0.234943008499134,2
480,325,8,0.291392510764347,2
480,326,8,0.345735232166626,2
480,327,8,0.313523815413159,2
480,328,8,0.226963051739451,2
480,329,8,0.2319940953027,2
480,330,8,0.285689992148427,2
480,331,8,0.27562480419029,2
480,332,8,0.194464060736681,2
481,323,8,0.202775984946823,1
481,324,8,0.30797308139054,2
481,325,8,0.3275083653299,2
481,326,8,0.271891291356729,2
481,327,8,0.215921302588431,2
482,323,8,0.172739199268007,1
482,324,8,0.260034001176621,1
482,325,8,0.268975416517537,2
482,326,8,0.200314794643298,1
483,324,8,0.158932501007659,1
483,325,8,0.160080857196575,1
470,332,9,0.179431853580782,1
470,333,9,0.166869447670945,6
471,324,9,0.215530173947285,1
471,331,9,0.185301103244666,1
471,332,9,0.256266758433437,6
471,333,9,0.329347872352102,6
471,334,9,0.213886844719543,6
472,323,9,0.272297344144394,1
472,324,9,0.253023578545315,2
472,325,9,0.197644019352402,2
472,326,9,0.153747843583523,1
472,331,9,0.174309335484195,6
472,332,9,0.31796904718627,6
472,333,9,0.469352629340149,6
472,334,9,0.304944438897153,6
472,335,9,0.169514434750516,1
473,322,9,0.162610600418269,1
473,323,9,0.253496064977726,2
473,324,9,0.335210541114306,2
473,325,9,0.304150112910426,2
473,326,9,0.217991587332224,2
473,327,9,0.185825969192814,1
473,332,9,0.22254231430547,6
473,333,9,0.302591933857967,6
473,334,9,0.221742589748552,1
474,322,9,0.131531689919335,1
474,323,9,0.257656488711054,2
474,324,9,0.430949654897516,2
474,325,9,0.427058044266669,2
474,326,9,0.296792330211175,2
474,327,9,0.233982665324966,2
474,328,9,0.223134818537994,2
474,329,9,0.250464343960843,2
474,330,9,0.239128707356538,2
474,331,9,0.187372258005968,1
474,333,9,0.204056271483298,1
475,322,9,0.147621648748321,1
475,323,9,0.260950754242718,2
475,324,9,0.412623204518095,2
475,325,9,0.459286035969112,2
475,326,9,0.384763905356015,2
475,327,9,0.309328211741025,2
475,328,9,0.314449424811347,2
475,329,9,0.468560199545431,2
475,330,9,0.463266299153424,2
475,331,9,0.267627759394382,2
475,332,9,0.196167287323774,1
475,334,9,0.254126716131847,7
475,335,9,0.217115122769286,7
476,322,9,0.186524247477239,2
476,323,9,0.293140955953824,2
476,324,9,0.377214339566139,2
476,325,9,0.422874063136145,2
476,326,9,0.427275860958174,2
476,327,9,0.389000801397668,2
476,328,9,0.429503284249176,2
476,329,9,0.635853323435657,2
476,330,9,0.558150319573047,2
476,331,9,0.281403973579665,2
476,332,9,0.198986300213507,2
477,321,9,0.141854079592414,1
477,322,9,0.267407890353879,2
477,323,9,0.426215198072648,2
477,324,9,0.432240493184818,2
477,325,9,0.364658380709133,2
477,326,9,0.362813408192317,2
477,327,9,0.400804574346833,2
477,328,9,0.440225290811161,2
477,329,9,0.504647365841292,2
477,330,9,0.374289162232031,2
477,331,9,0.222241734409799,2
478,321,9,0.158217201611433,1
478,322,9,0.298142530462436,2
478,323,9,0.433747095814627,2
478,324,9,0.373875703141459,2
478,325,9,0.274562981281417,2
478,326,9,0.288463050267113,2
478,327,9,0.356711306149703,2
478,328,9,0.354879718517658,2
478,329,9,0.323619833222551,2
478,330,9,0.262617306245539,2
478,331,9,0.24966453017136,2
478,332,9,0.241139340130535,2
479,322,9,0.214353865657339,1
479,323,9,0.240769337299185,2
479,324,9,0.20839872964951,2
479,325,9,0.21885257004511,2
479,326,9,0.292393231674241,2
479,327,9,0.320617202021903,2
479,328,9,0.260616734443261,2
479,329,9,0.237252347284934,2
479,330,9,0.27122403254276,2
479,331,9,0.296008377510146,2
479,332,9,0.251964566462244,2
480,323,9,0.149044640464595,1
480,324,9,0.192534696521384,1
480,325,9,0.260098516321216,2
480,326,9,0.290229966597574,2
480,327,9,0.256239810198765,2
481,323,9,0.172560946065071,1
481,324,9,0.280424088473731,2
481,325,9,0.326798787971914,2
481,326,9,0.253744800753051,2
482,324,9,0.252788361503608,1
482,325,9,0.26858270399836,2
470,324,10,0.233745953637793,1
470,332,10,0.198880693472665,1
470,333,10,0.156483457487063,1
471,323,10,0.271415837941526,1
471,324,10,0.297270661376603,2
471,325,10,0.21007500800193,1
471,331,10,0.245130868926196,1
471,332,10,0.273867413436158,6
471,333,10,0.291506884604714,6
471,334,10,0.186566131012501,1
472,322,10,0.20981732666195,1
472,323,10,0.315765493606442,2
472,324,10,0.321186728868903,2
472,325,10,0.237840412197342,2
472,326,10,0.194884725356888,1
472,331,10,0.193513510836537,6
472,332,10,0.298314481615459,6
472,333,10,0.426918350685944,6
472,334,10,0.290686279627554,6
472,335,10,0.16159781080394,1
473,322,10,0.157718960429908,1
473,323,10,0.251234911777101,2
473,324,10,0.309678070320794,2
473,325,10,0.310567451297535,2
473,326,10,0.299270050847393,2
473,327,10,0.259833674067883,2
473,329,10,0.189024978961192,2
473,332,10,0.208798067686648,6
473,333,10,0.299353505603939,6
473,334,10,0.241021843150388,1
474,322,10,0.131714984762201,1
474,323,10,0.223776958384876,2
474,324,10,0.331713896124906,2
474,325,10,0.376545229176443,2
474,326,10,0.346859607103662,2
474,327,10,0.287071267640497,2
474,328,10,0.246960471133667,2
474,329,10,0.273395462399137,2
474,330,10,0.258310384948394,2
474,331,10,0.186500902007385,1
474,333,10,0.213766135367051,1
474,334,10,0.239009024178545,7
474,335,10,0.262219083615464,7
474,336,10,0.272063532515588,7
475,322,10,0.138718547640062,1
475,323,10,0.230630599399233,2
475,324,10,0.332594398461416,2
475,325,10,0.385160321026646,2
475,326,10,0.34902757919814,2
475,327,10,0.314814854473733,2
475,328,10,0.350802236453627,2
475,329,10,0.532140856102584,2
475,330,10,0.521790503174404,2
475,331,10,0.273435706286015,2
475,332,10,0.18685417373277,1
475,333,10,0.25191258849305,7
475,334,10,0.318583904176361,7
475,335,10,0.312477987441587,7
475,336,10,0.242636037945613,7
476,322,10,0.166312324150499,1
476,323,10,0.268251472716563,2
476,324,10,0.346733610721685,2
476,325,10,0.376479286310805,2
476,326,10,0.3444200110809,2
476,327,10,0.339585903788913,2
476,328,10,0.42527049290552,2
476,329,10,0.6578421013698,2
476,330,10,0.606697385869541,2
476,331,10,0.289563243178996,2
476,332,10,0.187437531627367,2
476,333,10,0.260761759669754,1
476,334,10,0.310559464982955,7
476,335,10,0.267114382138996,7
476,336,10,0.175438629366384,1
477,322,10,0.232097091991011,2
477,323,10,0.373335489192107,2
477,324,10,0.380091063617376,2
477,325,10,0.319161283489093,2
477,326,10,0.297188255102697,2
477,327,10,0.354118230114902,2
477,328,10,0.39751501583298,2
477,329,10,0.446388717934166,2
477,330,10,0.358255096451033,2
477,331,10,0.211979275558281,2
477,332,10,0.177468134827907,1
477,333,10,0.206996752202327,1
477,334,10,0.205591428533951,1
477,335,10,0.162450227190572,1
478,322,10,0.265517253071853,2
478,323,10,0.378654330086071,2
478,324,10,0.313017398297853,2
478,325,10,0.230505919197592,2
478,326,10,0.253327326197048,2
478,327,10,0.337173211384541,2
478,328,10,0.32106305253362,2
478,329,10,0.262021790413942,2
478,330,10,0.207927559397434,2
478,331,10,0.190371520677282,1
479,322,10,0.190759080015823,1
479,323,10,0.206654366849888,2
479,324,10,0.169720026580597,2
479,325,10,0.17669446618001,1
479,326,10,0.230554550945593,1
479,327,10,0.269200884901502,2
479,328,10,0.225800775270372,2
479,329,10,0.186594730049628,1
480,325,10,0.224044990702413,1
480,326,10,0.230176829497359,1
480,327,10,0.196864617512194,1
481,324,10,0.229904960179522,1
481,325,10,0.303071938133992,2
481,326,10,0.230301933553684,1
482,324,10,0.214873243802731,1
482,325,10,0.241974891562356,1
489,321,10,0.110064799796478,1
490,321,10,0.111678269577112,1
470,323,11,0.175777077331886,1
470,324,11,0.256660318661983,2
470,325,11,0.213666061045247,1
470,332,11,0.20607134357741,1
470,333,11,0.146236926648422,1
471,322,11,0.156201806049272,1
471,323,11,0.293857426527467,2
471,324,11,0.394325710106061,2
471,325,11,0.267562173459005,2
471,326,11,0.15244241577182,1
471,331,11,0.309560350259234,8
471,332,11,0.294218082247618,1
471,333,11,0.253511100664952,6
471,334,11,0.166242968139245,1
472,322,11,0.176748898044745,2
472,323,11,0.323439984987513,2
472,324,11,0.395023642614296,2
472,325,11,0.28222344084162,2
472,326,11,0.225840037599034,2
472,327,11,0.228231068798219,2
472,331,11,0.238368780523672,1
472,332,11,0.292090755586561,6
472,333,11,0.363900461608983,6
472,334,11,0.268083916267373,6
472,335,11,0.15453817641296,1
473,323,11,0.225410895885138,2
473,324,11,0.273547871620395,2
473,325,11,0.29745378890841,2
473,326,11,0.361275105693743,2
473,327,11,0.309038362061312,2
473,328,11,0.236572439754857,2
473,329,11,0.20335934284142,2
473,330,11,0.176771418113372,1
473,332,11,0.207242922541404,1
473,333,11,0.289329364625766,6
473,334,11,0.263745049711908,7
473,335,11,0.23267058968716,7
473,336,11,0.228432399773314,7
474,323,11,0.19634017541873,1
474,324,11,0.244402307339976,2
474,325,11,0.316805677618269,2
474,326,11,0.3847618976233,2
474,327,11,0.318741756584092,2
474,328,11,0.266805414382201,2
474,329,11,0.293657567889697,2
474,330,11,0.2768893857953,2
474,331,11,0.18728112924882,1
474,333,11,0.220542121741595,7
474,334,11,0.287771944050111,7
474,335,11,0.352918743666161,7
474,336,11,0.32256724588417,7
474,337,11,0.195894815686121,7
475,323,11,0.215394941994817,1
475,324,11,0.270055866724382,2
475,325,11,0.306918151697324,2
475,326,11,0.310418299064905,2
475,327,11,0.305688303868294,2
475,328,11,0.375548546040122,2
475,329,11,0.543601485222507,2
475,330,11,0.518400513408487,2
475,331,11,0.269001249345145,2
475,332,11,0.182480439552477,1
475,333,11,0.244772243246902,7
475,334,11,0.357654315898093,7
475,335,11,0.39359868778159,7
475,336,11,0.292054661013962,7
476,322,11,0.155345630740833,1
476,323,11,0.255010073910441,2
476,324,11,0.318318548835778,2
476,325,11,0.321186818101468,2
476,326,11,0.277261507900071,2
476,327,11,0.297513597035194,2
476,328,11,0.408964089335718,2
476,329,11,0.605771954936484,2
476,330,11,0.565689980548193,2
476,331,11,0.280436647957275,2
476,332,11,0.180820981538585,2
476,333,11,0.236511070058182,1
476,334,11,0.306851829593284,7
476,335,11,0.275114706231672,7
476,336,11,0.1805017520368,1
476,337,11,0.114092579321727,1
477,322,11,0.196345908611041,1
477,323,11,0.304932972512533,2
477,324,11,0.31427845521654,2
477,325,11,0.270026018431343,2
477,326,11,0.249518010299401,2
477,327,11,0.305180191334251,2
477,328,11,0.344834607886678,2
477,329,11,0.376125166876051,2
477,330,11,0.321830095663556,2
477,331,11,0.198246874562482,2
477,332,11,0.161962370448816,1
477,333,11,0.18171058559674,1
477,334,11,0.18915934089615,1
477,335,11,0.150578012863945,1
477,336,11,0.106861886103375,1
478,321,11,0.128884661644836,1
478,322,11,0.21278161016773,1
478,323,11,0.286273327734882,2
478,324,11,0.238460377751787,2
478,325,11,0.191613191821193,1
478,326,11,0.226276362534423,1
478,327,11,0.3044826826807,2
478,328,11,0.281485822150039,2
478,329,11,0.216698384381945,2
478,330,11,0.170266018338541,2
478,331,11,0.146007242025754,1
478,332,11,0.139895357863187,1
478,333,11,0.133030997786943,1
478,334,11,0.113346427766105,1
479,321,11,0.119544622127303,1
479,322,11,0.156223076861987,1
479,323,11,0.166424043322053,1
479,324,11,0.139994707170399,1
479,325,11,0.146139328530301,1
479,326,11,0.184640759954495,1
479,327,11,0.222732401977358,1
479,328,11,0.195091432594033,1
479,329,11,0.15050360405869,1
479,330,11,0.124580395016504,1
479,331,11,0.114108462718322,1
479,332,11,0.105458369394444,1
480,321,11,0.104639560222657,1
480,322,11,0.105710964478211,1
480,324,11,0.127916778318914,1
480,325,11,0.184278386507465,1
480,326,11,0.17980061831029,1
480,327,11,0.149941829290786,1
480,328,11,0.121061888048645,1
481,323,11,0.11147491971523,1
481,324,11,0.178373555358233,1
481,325,11,0.256575413876253,1
481,326,11,0.201737206347898,1
481,327,11,0.119257259805343,1
482,319,11,0.126137514432252,1
482,323,11,0.132607979657831,1
482,324,11,0.170912062110149,1
482,325,11,0.203663179725719,1
482,326,11,0.151848595358961,1
483,319,11,0.107805442401227,1
483,323,11,0.134671326569683,1
483,324,11,0.124840652946803,1
483,325,11,0.112061534598455,1
488,321,11,0.118661933592947,1
489,320,11,0.143703134499085,1
489,321,11,0.170591271038473,1
489,322,11,0.114090593897153,1
490,320,11,0.133926602735103,1
490,321,11,0.152672669252091,1
490,322,11,0.111436783947704,1
491,321,11,0.15695968053314,1
491,322,11,0.12169451347327,1
469,324,12,0.16766598216366,1
470,323,12,0.16199266490468,1
470,324,12,0.261534870614119,2
470,325,12,0.239079740986418,2
470,331,12,0.232039113131812,8
470,332,12,0.19746098105316,1
471,322,12,0.130163096605584,1
471,323,12,0.287436630378459,2
471,324,12,0.45066313626946,2
471,325,12,0.307171126019493,2
471,326,12,0.16762849333223,2
471,330,12,0.272089856122304,8
471,331,12,0.348020188154002,8
471,332,12,0.297958822918956,8
471,333,12,0.21513801913164,1
472,322,12,0.142432752777341,1
472,323,12,0.291976448670618,2
472,324,12,0.430775829860625,2
472,325,12,0.314548428342369,2
472,326,12,0.238536046967025,2
472,327,12,0.229269222769188,2
472,330,12,0.264154047174223,1
472,331,12,0.300212815206229,8
472,332,12,0.294065494561231,1
472,333,12,0.292977504202631,6
472,334,12,0.230053309319065,1
473,323,12,0.192012418317625,1
473,324,12,0.245837412376967,2
473,325,12,0.276720468549492,2
473,326,12,0.36705831285669,2
473,327,12,0.311966952541036,2
473,328,12,0.238025681310712,2
473,329,12,0.203457721744486,2
473,330,12,0.200075829833855,1
473,331,12,0.194571831367228,1
473,332,12,0.213420046863159,1
473,333,12,0.270987655477706,1
473,334,12,0.280684357558101,7
473,335,12,0.264014242052792,7
473,336,12,0.222778691370524,7
474,324,12,0.194232056067319,1
474,325,12,0.266544899908278,2
474,326,12,0.382035307362909,2
474,327,12,0.323052782579233,2
474,328,12,0.273952117448616,2
474,329,12,0.29213483647374,2
474,330,12,0.274032203675828,2
474,331,12,0.187578898318689,1
474,332,12,0.168494941539731,1
474,333,12,0.236082374507113,7
474,334,12,0.356094909897864,7
474,335,12,0.457181798234284,7
474,336,12,0.372100064327756,7
474,337,12,0.18085717649782,7
475,323,12,0.198675101642584,1
475,324,12,0.225981805836898,1
475,325,12,0.245436646618786,2
475,326,12,0.275433757268327,2
475,327,12,0.285042788353473,2
475,328,12,0.370412163433726,2
475,329,12,0.49498057897836,2
475,330,12,0.447206935940209,2
475,331,12,0.248313549135154,2
475,332,12,0.176454363655362,1
475,333,12,0.245108650017476,7
475,334,12,0.390513427225623,7
475,335,12,0.461871817241713,7
475,336,12,0.332373927101099,7
475,337,12,0.160003447946317,7
476,322,12,0.14411473085986,1
476,323,12,0.229041545879236,1
476,324,12,0.274786798862927,2
476,325,12,0.262114793054958,2
476,326,12,0.231007830068358,2
476,327,12,0.259570081070462,2
476,328,12,0.37334751328026,2
476,329,12,0.506882730830592,2
476,330,12,0.447312542681051,2
476,331,12,0.24592758188404,2
476,332,12,0.173119921161244,1
476,333,12,0.219433964823274,1
476,334,12,0.287820107327145,7
476,335,12,0.272026144070795,7
476,336,12,0.186821369611011,7
476,337,12,0.117873028484552,1
477,321,12,0.111772164543779,1
477,322,12,0.161718888240763,1
477,323,12,0.233162684975761,1
477,324,12,0.246704172898446,2
477,325,12,0.222138737721487,1
477,326,12,0.21405678813985,1
477,327,12,0.253361256879942,2
477,328,12,0.288252996808776,2
477,329,12,0.307809607331205,2
477,330,12,0.259950077949107,2
477,331,12,0.175307769809607,1
477,332,12,0.146724303765141,1
477,333,12,0.162022925898333,1
477,334,12,0.166488380001519,1
477,335,12,0.135384294765145,1
477,336,12,0.104586154532421,1
478,321,12,0.111133694386138,1
478,322,12,0.155943990860444,1
478,323,12,0.193229996668948,1
478,324,12,0.173695571593027,1
478,325,12,0.159294762913982,1
478,326,12,0.19389348540704,1
478,327,12,0.248665549296486,1
478,328,12,0.22819011105082,2
478,329,12,0.175825452536262,2
478,330,12,0.136690213355956,1
478,331,12,0.115256138508929,1
478,332,12,0.108505561107308,1
478,333,12,0.107400036549659,1
479,322,12,0.118247805258136,1
479,323,12,0.124055651763133,1
479,324,12,0.113199852123793,1
479,325,12,0.120270172114449,1
479,326,12,0.148012052374876,1
479,327,12,0.176939264568399,1
479,328,12,0.158335903231209,1
479,329,12,0.118600430047424,1
480,324,12,0.103913898694804,1
480,325,12,0.141055604291408,1
480,326,12,0.136992912525049,1
480,327,12,0.113396743778772,1
481,324,12,0.131326466173585,1
481,325,12,0.191230495657453,1
481,326,12,0.158734850875876,1
482,318,12,0.11352571829761,1
482,319,12,0.105725197072351,1
482,323,12,0.103558753085551,1
482,324,12,0.126396433874074,1
482,325,12,0.153675342124347,1
482,326,12,0.122641326759749,1
483,323,12,0.107009766771952,1
488,320,12,0.117421110158405,1
488,321,12,0.143189266464591,1
489,320,12,0.176591112561438,1
489,321,12,0.219716608973352,1
489,322,12,0.128268265392997,1
490,320,12,0.143878855727986,1
490,321,12,0.180140839773024,1
490,322,12,0.119049682550688,1
491,320,12,0.138751474456598,1
491,321,12,0.179486318907729,1
491,322,12,0.13449867271021,1
492,321,12,0.163085942292765,1
492,322,12,0.127717934701572,1
469,325,13,0.263849697202675,1
470,323,13,0.144097575899212,1
470,324,13,0.243865796542077,2
470,325,13,0.265908091707163,2
470,326,13,0.229754447150273,1
470,331,13,0.202623285719729,8
471,322,13,0.113231998155384,1
471,323,13,0.258821442157087,2
471,324,13,0.440872673071245,2
471,325,13,0.336488106057544,2
471,326,13,0.19290793403322,2
471,330,13,0.268252588123627,8
471,331,13,0.3398777388932,8
471,332,13,0.278920341286007,8
472,322,13,0.117254602191855,1
472,323,13,0.253991573411944,2
472,324,13,0.432021070307141,2
472,325,13,0.353135712648297,2
472,326,13,0.24521671065386,2
472,327,13,0.220298695303895,2
472,330,13,0.297143772668975,8
472,331,13,0.356274579667771,8
472,332,13,0.297182655759235,8
472,333,13,0.23664819820266,1
473,323,13,0.171044416312391,1
473,324,13,0.243953891392011,2
473,325,13,0.275099358230468,2
473,326,13,0.332273629697883,2
473,327,13,0.303542149135992,2
473,328,13,0.254576381335724,2
473,329,13,0.213540376977249,2
473,331,13,0.241704182267865,8
473,332,13,0.221901624487772,1
473,333,13,0.245494647786127,1
473,334,13,0.28124344419498,7
473,335,13,0.285950640471198,7
473,336,13,0.217944584078537,7
474,324,13,0.172344211318419,1
474,325,13,0.229110968814914,2
474,326,13,0.340975120979281,2
474,327,13,0.325344163311299,2
474,328,13,0.293537795479139,2
474,329,13,0.288751873772327,2
474,330,13,0.265979812381393,2
474,331,13,0.200526431979666,1
474,332,13,0.174276375205447,1
474,333,13,0.250625475665343,7
474,334,13,0.409007634827506,7
474,335,13,0.513502448675436,7
474,336,13,0.383321728638237,7
474,337,13,0.16760123278358,7
475,323,13,0.178183177680508,1
475,324,13,0.191170062902712,1
475,325,13,0.201773033222801,1
475,326,13,0.246734467354311,2
475,327,13,0.274609694529267,2
475,328,13,0.35639575749123,2
475,329,13,0.42664793139729,2
475,330,13,0.362059839179717,2
475,331,13,0.23002247946781,2
475,332,13,0.178368391023525,1
475,333,13,0.249219594293435,7
475,334,13,0.399967572885828,7
475,335,13,0.476885151710084,7
475,336,13,0.343378131650336,7
475,337,13,0.159413330684911,7
476,322,13,0.131495718041513,1
476,323,13,0.192311525875972,1
476,324,13,0.220140441349621,1
476,325,13,0.207713535089948,1
476,326,13,0.202957684757588,1
476,327,13,0.238513515744328,2
476,328,13,0.339005579801531,2
476,329,13,0.405468492828959,2
476,330,13,0.325793226195362,2
476,331,13,0.210481930807106,2
476,332,13,0.175916603601551,1
476,333,13,0.214209286593673,1
476,334,13,0.263904642154659,7
476,335,13,0.259946887884904,7
476,336,13,0.197274395759454,7
476,337,13,0.128191770776531,1
477,322,13,0.134233941997583,1
477,323,13,0.175056591292811,1
477,324,13,0.188014509393557,1
477,325,13,0.180378265320718,1
477,326,13,0.188492773634561,1
477,327,13,0.217119941327804,1
477,328,13,0.249018107161351,2
477,329,13,0.252303293279512,2
477,330,13,0.201824118866343,2
477,331,13,0.153772728315126,1
477,332,13,0.143186701028343,1
477,333,13,0.154329227207616,1
477,334,13,0.149145339414354,1
477,335,13,0.125117597366783,1
477,336,13,0.108033420451087,1
478,322,13,0.115461440333173,1
478,323,13,0.13102806132169,1
478,324,13,0.130609482512693,1
478,325,13,0.135868225274035,1
478,326,13,0.164672474992797,1
478,327,13,0.195298429837014,1
478,328,13,0.183257209032013,1
478,329,13,0.14730005458356,1
478,330,13,0.116541098601003,1
479,325,13,0.105654480264478,1
479,326,13,0.125310473556331,1
479,327,13,0.140360939925871,1
479,328,13,0.12582771012016,1
480,325,13,0.110253805523514,1
480,326,13,0.110577028182589,1
481,325,13,0.134059793492644,1
481,326,13,0.118443849203747,1
482,325,13,0.111005846428435,1
488,320,13,0.112887671994654,1
488,321,13,0.139269436035019,1
489,320,13,0.170380436795191,1
489,321,13,0.215580545730307,1
489,322,13,0.119577258938002,1
490,320,13,0.133322810583089,1
490,321,13,0.173848203895697,1
490,322,13,0.1132958217476,1
491,320,13,0.125215563569235,1
491,321,13,0.17052992364994,1
491,322,13,0.13038700341966,1
492,320,13,0.114585087310942,1
492,321,13,0.151967207746172,1
492,322,13,0.119312338606175,1
470,324,14,0.213392183994694,2
470,325,14,0.279801892105158,2
471,323,14,0.220066289087991,2
471,324,14,0.384995330013703,2
471,325,14,0.350445283884929,2
471,326,14,0.214224076891344,2
471,331,14,0.287470449520647,8
472,323,14,0.241738001410053,2
472,324,14,0.43476934408086,2
472,325,14,0.391377510770148,2
472,326,14,0.243491733629014,2
472,330,14,0.294968171190178,8
472,331,14,0.371371346584548,8
472,332,14,0.285352380738223,8
473,323,14,0.193529305000566,2
473,324,14,0.294466594941531,2
473,325,14,0.295061553069596,2
473,326,14,0.286061690398514,2
473,327,14,0.29712179914981,2
473,328,14,0.278489392612668,2
473,329,14,0.228166620578047,1
473,330,14,0.253447254764595,1
473,331,14,0.288637723013373,8
473,332,14,0.229502632851451,1
473,333,14,0.211715771793426,1
473,334,14,0.256887594005392,7
473,335,14,0.28306416776222,7
473,336,14,0.204928207493555,7
474,323,14,0.163291311041432,1
474,324,14,0.183133421156024,2
474,325,14,0.206695168440298,2
474,326,14,0.286024948889817,2
474,327,14,0.325115170241011,2
474,328,14,0.311024612036884,2
474,329,14,0.279389793811204,2
474,330,14,0.252483096898267,1
474,331,14,0.218998487597253,1
474,332,14,0.179554102195023,1
474,333,14,0.243925113889754,7
474,334,14,0.410330686070823,7
474,335,14,0.496638073875819,7
474,336,14,0.345372122550934,7
474,337,14,0.151091568584462,7
475,322,14,0.131133333440412,1
475,323,14,0.160287296736024,1
475,324,14,0.162401818523984,1
475,325,14,0.169965549983577,1
475,326,14,0.21952333123726,1
475,327,14,0.26686234475876,2
475,328,14,0.329743284156374,2
475,329,14,0.357409684820764,2
475,330,14,0.290179996361096,2
475,331,14,0.208491241511418,1
475,332,14,0.171818586893467,1
475,333,14,0.236694264514413,7
475,334,14,0.370837021984495,7
475,335,14,0.432616876144575,7
475,336,14,0.312718469204637,7
475,337,14,0.155718645171256,7
476,322,14,0.129520588674371,1
476,323,14,0.158856251780747,1
476,324,14,0.169615055621781,1
476,325,14,0.164368225407884,1
476,326,14,0.179885500787879,1
476,327,14,0.221710622182091,1
476,328,14,0.299063365918389,2
476,329,14,0.320111476458977,2
476,330,14,0.241468898301735,2
476,331,14,0.178798056978741,1
476,332,14,0.170226153690065,1
476,333,14,0.203067574661557,1
476,334,14,0.230355584633474,7
476,335,14,0.230495791301449,7
476,336,14,0.190769765615498,7
476,337,14,0.131911787184615,1
477,322,14,0.121981396170192,1
477,323,14,0.139776076231737,1
477,324,14,0.146474720280447,1
477,325,14,0.145238726558494,1
477,326,14,0.160444847983848,1
477,327,14,0.186988747595071,1
477,328,14,0.215727734846503,1
477,329,14,0.204603311723883,2
477,330,14,0.158071897533175,1
477,331,14,0.134635812008758,1
477,332,14,0.136866916143072,1
477,333,14,0.143836157945567,1
477,334,14,0.127982397716503,1
477,335,14,0.109680720527978,1
478,323,14,0.10579150802232,1
478,324,14,0.108719585414794,1
478,325,14,0.11454321492975,1
478,326,14,0.131668673060894,1
478,327,14,0.146464570076163,1
478,328,14,0.142292746882638,1
478,329,14,0.118919023767183,1
488,321,14,0.120319975039867,1
489,320,14,0.140782485717659,1
489,321,14,0.177598347448587,1
490,320,14,0.117481721378275,1
490,321,14,0.152832763628021,1
490,322,14,0.10457398544135,1
491,320,14,0.107042883207689,1
491,321,14,0.140965289781417,1
491,322,14,0.11212396393184,1
492,320,14,0.103366679989089,1
492,321,14,0.1260831271838,1
470,324,15,0.175397470845713,2
470,325,15,0.265592632281255,2
471,323,15,0.171152086556302,2
471,324,15,0.305865675899649,2
471,325,15,0.332229102647878,2
471,326,15,0.217679384894943,2
471,331,15,0.222093519119103,8
472,323,15,0.237814891683712,2
472,324,15,0.422910336173874,2
472,325,15,0.388033609624125,2
472,326,15,0.223979806313579,2
472,330,15,0.262813506348139,8
472,331,15,0.340613929863739,8
472,332,15,0.267617386108685,8
473,323,15,0.243641733571013,2
473,324,15,0.359444231922218,2
473,325,15,0.300019849784115,2
473,326,15,0.237102748889478,2
473,327,15,0.280429464735781,2
473,328,15,0.290139395543958,2
473,329,15,0.240729026487884,1
473,330,15,0.262896091087175,1
473,331,15,0.315913998902975,8
473,332,15,0.245470175755137,1
473,333,15,0.193856654665779,1
473,334,15,0.234644503260603,7
473,335,15,0.267759265887256,7
473,336,15,0.188014442469133,1
474,323,15,0.180968237579206,1
474,324,15,0.20625625576052,2
474,325,15,0.190037367028978,2
474,326,15,0.235621399075604,2
474,327,15,0.312846517935612,2
474,328,15,0.307857547526826,2
474,329,15,0.257948859210733,2
474,330,15,0.237716535088788,1
474,331,15,0.234216030790946,1
474,332,15,0.192514775351217,1
474,333,15,0.227340929344673,7
474,334,15,0.361767267906767,7
474,335,15,0.417461840362763,7
474,336,15,0.281723002308179,7
474,337,15,0.135452122668721,1
475,322,15,0.138340714651122,1
475,323,15,0.148536349465421,1
475,324,15,0.143135381149317,1
475,325,15,0.150141520617496,1
475,326,15,0.198103477830303,1
475,327,15,0.255441379514041,2
475,328,15,0.287712738243141,2
475,329,15,0.283377128676304,2
475,330,15,0.232428590970503,1
475,331,15,0.18761711216471,1
475,332,15,0.167949808645226,1
475,333,15,0.219683905238228,7
475,334,15,0.320525180939103,7
475,335,15,0.356832127042902,7
475,336,15,0.26699030425717,7
475,337,15,0.156198839066481,1
476,321,15,0.10881918011156,1
476,322,15,0.13306722620839,1
476,323,15,0.136887807717385,1
476,324,15,0.137278646352695,1
476,325,15,0.140337159447261,1
476,326,15,0.164466291996972,1
476,327,15,0.204703006807285,1
476,328,15,0.251941856774416,1
476,329,15,0.245859207431002,2
476,330,15,0.188556842616331,1
476,331,15,0.156373221806904,1
476,332,15,0.165578520151078,1
476,333,15,0.198408006266982,1
476,334,15,0.215433557387381,7
476,335,15,0.211315429889929,7
476,336,15,0.182187600581832,1
476,337,15,0.137498894631599,1
477,322,15,0.115789080004222,1
477,323,15,0.119832084835898,1
477,324,15,0.12259568430268,1
477,325,15,0.124021464536614,1
477,326,15,0.138731731751561,1
477,327,15,0.16421327305852,1
477,328,15,0.185844741493705,1
477,329,15,0.166425805665215,1
477,330,15,0.133143598130078,1
477,331,15,0.125082573584966,1
477,332,15,0.135258867240771,1
477,333,15,0.139769294556787,1
477,334,15,0.121644810934487,1
477,335,15,0.10477904187604,1
478,326,15,0.107851363710062,1
478,327,15,0.116368868596214,1
478,328,15,0.115483324619773,1
489,320,15,0.104912991110384,1
489,321,15,0.12543391565613,1
490,321,15,0.118893536715765,1
491,321,15,0.10647979225945,1
471,324,16,0.239238173405822,2
471,325,16,0.284834653395286,2
472,323,16,0.242378178140502,2
472,324,16,0.396936431880618,2
472,325,16,0.344725409535089,2
472,326,16,0.199702614630161,2
472,331,16,0.284565817984663,8
473,323,16,0.294168178935564,2
473,324,16,0.399141056251228,2
473,325,16,0.282327084466029,2
473,328,16,0.292366394980276,2
473,329,16,0.268901442721036,1
473,330,16,0.274298674423475,1
473,331,16,0.310107479732384,1
473,332,16,0.246204604382515,1
473,333,16,0.176439863363527,1
473,334,16,0.205071425760603,1
473,335,16,0.235724395763916,1
474,324,16,0.21648975864465,2
474,325,16,0.173163511269315,1
474,326,16,0.209263036275447,1
474,327,16,0.309243083873882,2
474,328,16,0.304687471417694,2
474,329,16,0.251098118254743,2
474,330,16,0.227798380089859,1
474,331,16,0.228863839225761,1
474,332,16,0.191943173847077,1
474,333,16,0.196618023318432,1
474,334,16,0.282468205767797,7
474,335,16,0.31752645366318,7
474,336,16,0.220352904087217,1
475,323,16,0.135449546078403,1
475,324,16,0.122750848579386,1
475,325,16,0.134603799826014,1
475,326,16,0.192620716714179,1
475,327,16,0.263522347537462,1
475,328,16,0.261390291550452,2
475,329,16,0.229280354531689,1
475,330,16,0.189474554932504,1
475,331,16,0.164546210913125,1
475,332,16,0.156593626242798,1
475,333,16,0.19043641506028,1
475,334,16,0.253742391473793,7
475,335,16,0.272382628168526,7
475,336,16,0.216020462276442,1
475,337,16,0.148762654404685,1
476,322,16,0.137816919493755,1
476,323,16,0.121620416981992,1
476,324,16,0.113151610768265,1
476,325,16,0.126521125229785,1
476,326,16,0.159341297696702,1
476,327,16,0.198815553700113,1
476,328,16,0.215105761559343,1
476,329,16,0.194757278945728,1
476,330,16,0.15330918744737,1
476,331,16,0.134962537046015,1
476,332,16,0.147534725075805,1
476,333,16,0.17473846604402,1
476,334,16,0.188917476028341,1
476,335,16,0.181052997362018,1
476,336,16,0.155232840778497,1
476,337,16,0.127345065274068,1
477,322,16,0.110143123680529,1
477,323,16,0.105641998859429,1
477,324,16,0.105863585626811,1
477,325,16,0.11275512817321,1
477,326,16,0.127612138341529,1
477,327,16,0.14983459405563,1
477,328,16,0.161788199635735,1
477,329,16,0.141767434771664,1
477,330,16,0.116510402598595,1
477,331,16,0.113125588321456,1
477,332,16,0.12272642116468,1
477,333,16,0.123422948260014,1
477,334,16,0.10930517412352,1
471,324,17,0.20099235981854,2
472,323,17,0.25114563459568,2
472,324,17,0.355056198223362,2
472,325,17,0.29451484745113,2
473,323,17,0.321011498419111,2
473,324,17,0.391458087776468,2
473,325,17,0.257432314199284,2
473,328,17,0.269564641453292,1
473,329,17,0.294560266826786,1
473,330,17,0.286039069943251,1
473,331,17,0.278492828066426,1
473,332,17,0.222297326297881,1
473,333,17,0.151917438282966,1
473,334,17,0.161838214488495,1
473,335,17,0.184064786054663,1
474,324,17,0.213914261425181,2
474,326,17,0.190851190331188,1
474,327,17,0.29513108754598,1
474,328,17,0.298851148570347,2
474,329,17,0.256849982479186,1
474,330,17,0.221503825712382,1
474,331,17,0.208201726453824,1
474,332,17,0.177934776527302,1
474,333,17,0.157304932481733,1
474,334,17,0.193105762630133,1
474,335,17,0.216548116742251,1
474,336,17,0.169097618284681,1
475,325,17,0.126391615315556,1
475,326,17,0.195115815392457,1
475,327,17,0.28351198139037,1
475,328,17,0.258312771919511,1
475,329,17,0.199939683247594,1
475,330,17,0.161345650728927,1
475,331,17,0.144874066526982,1
475,332,17,0.141793691453956,1
475,333,17,0.153329588242574,1
475,334,17,0.183283945339343,1
475,335,17,0.193572225864398,1
475,336,17,0.170598543492532,1
475,337,17,0.130117342607809,1
476,322,17,0.142788645709328,1
476,323,17,0.115337195140287,1
476,325,17,0.124222137421541,1
476,326,17,0.165654468218082,1
476,327,17,0.206116941418196,1
476,328,17,0.194551999429625,1
476,329,17,0.162128365328116,1
476,330,17,0.131190007273346,1
476,331,17,0.120199711850201,1
476,332,17,0.130377265915989,1
476,333,17,0.14521054022198,1
476,334,17,0.156875099215458,1
476,335,17,0.146593310359517,1
476,336,17,0.125925018232444,1
476,337,17,0.108266652068219,1
477,319,17,0.116274382463802,1
477,320,17,0.108364651732883,1
477,321,17,0.109600344294929,1
477,322,17,0.110881556619267,1
477,325,17,0.1166967982731,1
477,326,17,0.133495453288492,1
477,327,17,0.145609967491684,1
477,328,17,0.143386314276559,1
477,329,17,0.125410893654324,1
477,330,17,0.105685165112815,1
477,332,17,0.109123117382495,1
477,333,17,0.105042378329836,1
478,319,17,0.115713243477925,1
480,320,17,0.103776380157854,1
472,324,18,0.287536860857252,2
473,324,18,0.326311087387146,2
473,328,18,0.236176291781922,9
473,329,18,0.296735578299747,1
473,330,18,0.290316700650889,1
473,331,18,0.237121643885147,1
473,332,18,0.176853121680827,1
474,326,18,0.167104341244603,1
474,327,18,0.271750058514255,9
474,328,18,0.311253872804868,9
474,329,18,0.279255342643681,9
474,330,18,0.220735957181218,1
474,331,18,0.181307466329653,1
474,332,18,0.150814278388292,1
474,333,18,0.121943059629394,1
474,334,18,0.127005368052654,1
474,335,18,0.14221620764989,1
475,325,18,0.118418707928519,1
475,326,18,0.196788435209707,1
475,327,18,0.308333112482735,9
475,328,18,0.292473808680562,9
475,329,18,0.206650864471706,1
475,330,18,0.147698299521776,1
475,331,18,0.127039555279173,1
475,332,18,0.122653752394444,1
475,333,18,0.119792231341493,1
475,334,18,0.128403854275726,1
475,335,18,0.136348898794299,1
475,336,18,0.129418261230298,1
476,322,18,0.138461468619896,1
476,323,18,0.104802811200579,1
476,325,18,0.1289352453552,1
476,326,18,0.186093399190536,1
476,327,18,0.230857383963534,1
476,328,18,0.200154176026047,1
476,329,18,0.149156236941372,1
476,330,18,0.116923259369352,1
476,331,18,0.106155409577028,1
476,332,18,0.109940342676251,1
476,333,18,0.113981797092107,1
476,334,18,0.118822172971795,1
476,335,18,0.111319532357111,1
477,319,18,0.147578973274044,1
477,320,18,0.127248303711245,1
477,321,18,0.117620321860078,1
477,322,18,0.110750529751431,1
477,325,18,0.128988751432071,1
477,326,18,0.155762045660125,1
477,327,18,0.153281993823143,1
477,328,18,0.13287380346938,1
477,329,18,0.112513709468227,1
478,319,18,0.158768837329123,1
478,320,18,0.128743161104667,1
478,321,18,0.111783709006894,1
478,325,18,0.103435645607871,1
478,326,18,0.107843879328661,1
479,320,18,0.144714407159807,1
479,321,18,0.128107457156545,1
479,322,18,0.104931640716498,1
480,321,18,0.133210266010308,1
481,320,18,0.115429327763794,1
481,321,18,0.103901751911875,1
473,328,19,0.209725840974541,9
473,329,19,0.272606311901188,9
473,330,19,0.278865017095621,1
473,331,19,0.199295223354018,1
474,326,19,0.147093124265003,1
474,327,19,0.251755204556286,9
474,328,19,0.345498498171312,9
474,329,19,0.31331391811181,9
474,330,19,0.23434129100426,9
474,331,19,0.162938017007905,1
474,332,19,0.126184417299303,1
475,325,19,0.113179562869295,1
475,326,19,0.200782663290463,9
475,327,19,0.335433265596893,9
475,328,19,0.356087503594957,9
475,329,19,0.240560310015347,9
475,330,19,0.152002320760554,1
475,331,19,0.116132179217182,1
475,332,19,0.107551542291194,1
475,335,19,0.105987986976686,1
476,325,19,0.137933122601708,1
476,326,19,0.226255169800202,1
476,327,19,0.280891265568517,9
476,328,19,0.231200103938092,9
476,329,19,0.149207378355267,1
476,330,19,0.109209840281739,1
477,320,19,0.139256396926438,1
477,321,19,0.122745561549902,1
477,322,19,0.109263212509763,1
477,325,19,0.141255284464048,1
477,326,19,0.191177603054466,1
477,327,19,0.179836222103781,1
477,328,19,0.13314710050826,1
478,320,19,0.161486805492907,1
478,321,19,0.144081837505536,1
478,322,19,0.112700038218308,1
478,325,19,0.112894074431203,1
478,326,19,0.118801972949862,1
479,322,19,0.141719327264984,1
479,323,19,0.110625481465459,1
480,322,19,0.126430386865109,1
481,321,19,0.123531644678424,1
473,328,20,0.18380131575202,9
473,329,20,0.229676301731353,9
474,326,20,0.129739554235152,1
474,327,20,0.230928390777243,9
474,328,20,0.358266763608925,9
474,329,20,0.320728051175947,9
474,330,20,0.23651276547692,9
474,331,20,0.143804045376187,1
475,325,20,0.106382696074508,1
475,326,20,0.206371231920702,9
475,327,20,0.35284961073632,9
475,328,20,0.407256668818064,9
475,329,20,0.264786527595929,9
475,330,20,0.154059979096379,1
475,331,20,0.104108336454242,1
476,325,20,0.143715091662814,1
476,326,20,0.277447178559985,9
476,327,20,0.340323901718896,9
476,328,20,0.270325772925787,9
476,329,20,0.151780466295477,1
477,321,20,0.123249558231878,1
477,322,20,0.103718167063172,1
477,325,20,0.147166239198063,1
477,326,20,0.228409400079649,1
477,327,20,0.213595143464103,9
477,328,20,0.140626663350785,1
478,322,20,0.128874846062671,1
478,323,20,0.10304495197548,1
478,324,20,0.105791530330461,1
478,325,20,0.119833244859245,1
478,326,20,0.126926453002859,1
479,323,20,0.127336052784989,1
479,324,20,0.116817596858157,1
480,322,20,0.160915850924864,1
480,323,20,0.113624286819877,1
481,320,20,0.16006878849214,1
481,321,20,0.14430485199396,1
481,322,20,0.103593576094096,1
473,328,21,0.15318452955387,9
473,329,21,0.18085196754683,1
474,327,21,0.203405632234586,9
474,328,21,0.323349012387354,9
474,329,21,0.288316954249839,9
474,330,21,0.217606994976474,1
475,325,21,0.104244014569536,1
475,326,21,0.207357028684076,9
475,327,21,0.355255008378492,9
475,328,21,0.422550104308407,9
475,329,21,0.270101576105875,9
475,330,21,0.153892634574532,1
476,325,21,0.14861480719832,1
476,326,21,0.316421754506758,9
476,327,21,0.394828803308315,9
476,328,21,0.311989907618418,9
476,329,21,0.162392761418623,9
477,325,21,0.15381515839985,1
477,326,21,0.259519910060713,1
477,327,21,0.252352973510153,9
477,328,21,0.158650124555276,9
478,322,21,0.14461844869007,1
478,323,21,0.110452069129182,1
478,324,21,0.114111775477303,1
478,325,21,0.1278849446013,1
478,326,21,0.135903840221597,1
478,327,21,0.110430095610017,1
479,323,21,0.135229364723922,1
479,324,21,0.120526972282848,1
480,323,21,0.118033914799498,1
481,322,21,0.1071673849442,1
482,320,21,0.121169078667519,1
473,328,22,0.118974571038982,1
474,327,22,0.168762761929925,9
474,328,22,0.252799627114957,9
474,329,22,0.223623812994956,1
475,326,22,0.189967118692072,9
475,327,22,0.331372291557413,9
475,328,22,0.389652422204596,9
475,329,22,0.244627708799518,9
475,330,22,0.134438161876975,1
476,325,22,0.138758389980396,1
476,326,22,0.306863362902328,9
476,327,22,0.412195602065948,9
476,328,22,0.331128262799898,9
476,329,22,0.162805417416109,9
477,325,22,0.148550280899653,1
477,326,22,0.255134687187658,1
477,327,22,0.269086801066972,9
477,328,22,0.169843312523407,9
478,322,22,0.158815349803702,1
478,323,22,0.116025144755298,1
478,324,22,0.115430432016787,1
478,325,22,0.128321659929162,1
478,326,22,0.135087105706949,1
478,327,22,0.114810856854814,1
479,323,22,0.13731501977706,1
479,324,22,0.112677875079941,1
480,323,22,0.115574453376922,1
481,322,22,0.109717272417473,1
482,319,22,0.120109531189057,1
482,320,22,0.134629008025666,1
482,321,22,0.10293904407473,1
490,317,22,0.125308967756794,1
474,327,23,0.138165952672297,1
474,328,23,0.185390090420251,1
474,329,23,0.162334693326859,1
475,326,23,0.164100427325831,1
475,327,23,0.289095843002797,9
475,328,23,0.323923357792872,9
475,329,23,0.204633494639041,1
475,330,23,0.113113073454195,1
476,325,23,0.122628454962227,1
476,326,23,0.261630795621644,9
476,327,23,0.389078879892164,9
476,328,23,0.318770177156089,9
476,329,23,0.158423150371774,1
477,322,23,0.113488262928393,1
477,325,23,0.137469838277576,1
477,326,23,0.225776749402209,1
477,327,23,0.262598879720838,9
477,328,23,0.173079141878975,1
478,322,23,0.169768970642575,1
478,323,23,0.117455096611652,1
478,324,23,0.110070756070201,1
478,325,23,0.122167602225496,1
478,326,23,0.127682018594103,1
478,327,23,0.114949602339535,1
479,323,23,0.13419638624173,1
480,322,23,0.183129784928995,1
480,323,23,0.11120838204316,1
481,321,23,0.140291371987274,1
481,322,23,0.111123499565571,1
482,319,23,0.111325611325611,1
482,320,23,0.134670367319608,1
482,321,23,0.106288232250237,1
483,320,23,0.122966144450926,1
490,317,23,0.118915744470414,1
490,318,23,0.110357326453146,1
474,327,24,0.111263483152133,1
474,328,24,0.131442000037299,1
474,329,24,0.112943977743257,1
475,326,24,0.133861306805563,1
475,327,24,0.229380808091895,1
475,328,24,0.237609634475751,1
475,329,24,0.154711756060297,1
476,325,24,0.103326703799906,1
476,326,24,0.201534626116891,1
476,327,24,0.320639153232927,9
476,328,24,0.267066865798059,1
476,329,24,0.141514917766391,1
477,322,24,0.123370524127995,1
477,325,24,0.118637651181158,1
477,326,24,0.179824019550498,1
477,327,24,0.225110918309282,1
477,328,24,0.159853916475285,1
478,322,24,0.17369875050316,1
478,323,24,0.112272435766161,1
478,325,24,0.109166506717294,1
478,326,24,0.114260225003482,1
478,327,24,0.107596047033057,1
479,323,24,0.128028084789854,1
480,322,24,0.169472551215254,1
480,323,24,0.113436273805129,1
481,318,24,0.13130432534336,1
481,319,24,0.131514144566214,1
481,320,24,0.13297313046845,1
481,321,24,0.129050634215995,1
481,322,24,0.115177513464971,1
482,320,24,0.118830605449201,1
482,321,24,0.103263694454847,1
483,320,24,0.130485125779101,1
484,320,24,0.108740298523977,1
490,318,24,0.113848204788023,1
491,318,24,0.103871022447255,1
475,326,25,0.105615251398029,1
475,327,25,0.161732819674995,1
475,328,25,0.155318626735808,1
475,329,25,0.106894757149559,1
476,326,25,0.145015689761928,1
476,327,25,0.224511030081993,1
476,328,25,0.193246236995804,1
476,329,25,0.113923539381142,1
477,322,25,0.123992698188427,1
477,326,25,0.135642165724326,1
477,327,25,0.170677558928963,1
477,328,25,0.135635384049376,1
479,322,25,0.162738057983499,1
479,323,25,0.116456573053675,1
480,319,25,0.191770598066098,1
480,321,25,0.155961569675776,1
480,322,25,0.14779613187538,1
480,323,25,0.113758782603683,1
481,318,25,0.120178474499698,1
481,319,25,0.120018380123767,1
481,320,25,0.119401470784678,1
481,321,25,0.119255542078464,1
481,322,25,0.115200680469695,1
483,320,25,0.125434517975945,1
484,320,25,0.120633326346423,1
490,318,25,0.120463516774964,1
490,319,25,0.112028920095896,1
491,318,25,0.114486463018322,1
491,319,25,0.109194815748584,1
476,327,26,0.129670488229734,1
476,328,26,0.117553263587376,1
477,327,26,0.113849041343321,1
479,322,26,0.132965389543425,1
480,321,26,0.128879385769423,1
480,322,26,0.121681853603091,1
480,323,26,0.103352904711845,1
481,319,26,0.106015872153292,1
481,320,26,0.105872642732173,1
481,321,26,0.106034889843737,1
481,322,26,0.103453592507534,1
483,320,26,0.108523351849983,1
484,320,26,0.11404487336159,1
488,318,26,0.104348940912069,1
489,318,26,0.1075394958949,1
490,318,26,0.114108875418936,1
490,319,26,0.112845163831436,1
491,318,26,0.110608928824626,1
491,319,26,0.11039508298227,1
480,321,27,0.107718619115347,1
