x,y,z,signal,mito.p
923,608,1,0.103814114378837,1
924,606,1,0.108985699232181,1
924,607,1,0.10742644938894,1
925,605,1,0.109333215457115,1
925,606,1,0.104566222208183,1
926,605,1,0.112161675844682,1
927,603,1,0.105802985561011,1
922,608,2,0.113500933952643,1
923,606,2,0.135873668460509,1
923,607,2,0.139507809678717,1
923,608,2,0.13524356385585,1
923,609,2,0.12288061503724,1
924,605,2,0.138399095056864,1
924,606,2,0.14623863322123,1
924,607,2,0.146184714443745,1
924,608,2,0.141547666117797,1
924,609,2,0.130052325530035,1
924,610,2,0.103683087511001,1
924,613,2,0.110514398075932,1
924,614,2,0.114945676106669,1
924,615,2,0.106861127626572,1
925,607,2,0.154450393877004,1
925,608,2,0.124881119915093,1
925,613,2,0.102986047328417,1
925,614,2,0.115638868134881,1
925,615,2,0.117897455899259,1
925,616,2,0.114728227499496,1
925,617,2,0.107049854501841,1
926,607,2,0.168321886133714,1
926,608,2,0.108613733284398,1
926,615,2,0.107349631304426,1
926,616,2,0.116035863817185,1
926,617,2,0.121417825596915,1
926,618,2,0.118395027836545,1
927,602,2,0.153736354890761,1
927,607,2,0.148809211495546,1
927,617,2,0.122626692619066,1
927,618,2,0.127104315813322,1
927,619,2,0.1068645742344,1
927,622,2,0.104000443128918,1
927,623,2,0.131067814429459,1
927,624,2,0.140293792420604,1
928,601,2,0.136971619404192,1
928,602,2,0.144126654561377,1
928,606,2,0.170253124232879,1
928,607,2,0.110985055240758,1
928,618,2,0.113034002247411,1
928,619,2,0.104359247273343,1
928,622,2,0.107808889009055,1
928,623,2,0.137899883471193,1
928,624,2,0.144478911266334,1
928,625,2,0.126070445005479,1
929,601,2,0.122189743055721,1
929,602,2,0.119874001833372,1
929,603,2,0.12622481734317,1
929,604,2,0.141317814184069,1
929,605,2,0.141898729337196,1
929,606,2,0.114866147582989,1
929,619,2,0.103776792858468,1
929,623,2,0.129140714490503,1
929,624,2,0.138244075783076,1
929,625,2,0.121295699677451,1
930,600,2,0.118560498474525,1
930,601,2,0.104492571879731,1
930,619,2,0.104014776109694,1
930,623,2,0.115315299699616,1
930,624,2,0.133392991995571,1
930,625,2,0.124097379141406,1
931,619,2,0.105231651754567,1
931,623,2,0.10450868951181,1
931,624,2,0.129297529569664,1
931,625,2,0.125533666509885,1
932,619,2,0.107363105421762,1
932,624,2,0.110767595479514,1
932,625,2,0.111175689462107,1
935,624,2,0.12785247510166,1
935,625,2,0.121106727412628,1
936,623,2,0.127975827968895,1
936,625,2,0.145320184736395,1
936,626,2,0.104458953510815,1
937,623,2,0.153598858661952,1
937,626,2,0.109611230667876,1
938,626,2,0.119531973411194,1
939,623,2,0.147017254276493,1
939,626,2,0.129536829001226,1
940,623,2,0.125935748448402,1
941,627,2,0.105477019000558,1
942,624,2,0.115402334912839,1
942,627,2,0.10842016554247,1
943,625,2,0.120430991504971,1
943,626,2,0.122839032661885,1
947,625,2,0.106597791172776,1
948,625,2,0.106788938481374,1
948,626,2,0.104548899936475,1
922,607,3,0.142634016828013,1
922,608,3,0.126533974719165,1
922,609,3,0.105019166708829,1
923,606,3,0.154904264165514,1
923,607,3,0.158665048701796,1
923,608,3,0.154763767491702,1
923,609,3,0.139839620972187,1
923,610,3,0.11051332728515,1
923,611,3,0.104451647594544,1
923,612,3,0.121024823071901,1
923,613,3,0.133898505631155,1
923,614,3,0.129966171488393,1
923,615,3,0.112868219295454,1
924,609,3,0.149904083915732,1
924,610,3,0.11479966932196,1
924,611,3,0.107892332611531,1
924,612,3,0.131970201052569,1
924,613,3,0.15726719826075,1
924,614,3,0.163631978666992,1
924,615,3,0.147370514847808,1
924,616,3,0.131367925854163,1
924,617,3,0.121687832184955,1
924,618,3,0.115348271132435,1
924,619,3,0.111294971093557,1
924,620,3,0.113836526476061,1
925,608,3,0.148664587815597,1
925,609,3,0.114485514922317,1
925,612,3,0.111999027186575,1
925,613,3,0.14507128165001,1
925,614,3,0.170065646613522,1
925,617,3,0.155863826554737,1
925,618,3,0.141603759939058,1
925,619,3,0.120868967242815,1
925,620,3,0.109011465135364,1
925,621,3,0.114571378958122,1
926,608,3,0.137757880997845,1
926,613,3,0.109868175839194,1
926,614,3,0.142307961034994,1
926,615,3,0.161860712248981,1
926,618,3,0.175137079066567,1
926,619,3,0.13752790636934,1
926,620,3,0.109322184081249,1
926,621,3,0.105915597058216,1
926,622,3,0.129687509341534,1
926,623,3,0.164317028223636,1
927,608,3,0.116031469113352,1
927,615,3,0.121501693054075,1
927,616,3,0.148510126245341,1
927,617,3,0.177183639102103,1
927,618,3,0.181428387609487,1
927,619,3,0.14468477079411,1
927,620,3,0.110441584302778,1
927,621,3,0.106536410322031,1
927,622,3,0.139730668010152,1
928,601,3,0.156815770713711,1
928,607,3,0.146698515553816,1
928,617,3,0.131902350840852,1
928,618,3,0.154990262050166,1
928,619,3,0.143186176787023,1
928,620,3,0.11347935082595,1
928,621,3,0.108845682183407,1
928,622,3,0.153516842780519,1
928,625,3,0.16658772930873,1
929,600,3,0.139498897576274,1
929,601,3,0.138619901039301,1
929,602,3,0.146847277393974,1
929,606,3,0.152822791888867,1
929,618,3,0.140359110658286,1
929,619,3,0.149462873497402,1
929,620,3,0.11840936081732,1
929,622,3,0.138473604248755,1
929,626,3,0.128241841399645,1
930,600,3,0.120409464148631,1
930,601,3,0.110891762593905,1
930,602,3,0.111435512383651,1
930,603,3,0.11455207126184,1
930,604,3,0.124992827932577,1
930,605,3,0.131113635351658,1
930,606,3,0.112572056411757,1
930,618,3,0.121623038188593,1
930,619,3,0.136629702522721,1
930,620,3,0.110321744967796,1
930,622,3,0.111303392416892,1
930,623,3,0.161028150108092,1
930,626,3,0.13359125560124,1
931,600,3,0.105802372087126,1
931,619,3,0.123313772216566,1
931,620,3,0.106463897708784,1
931,623,3,0.136967492398055,1
931,626,3,0.135552509304503,1
932,599,3,0.110303151132036,1
932,620,3,0.117986643848115,1
932,623,3,0.111069580788086,1
932,624,3,0.14773743915566,1
932,625,3,0.154355205038142,1
932,626,3,0.118804516077968,1
933,619,3,0.114568010428788,1
933,620,3,0.103489341303943,1
933,624,3,0.111550365849055,1
933,625,3,0.116784993509669,1
934,624,3,0.118513774072604,1
934,625,3,0.119296120587461,1
935,623,3,0.125654799717061,1
935,625,3,0.15344306975729,1
935,626,3,0.120225065052771,1
936,626,3,0.13288039552513,1
937,622,3,0.119311825518925,1
938,627,3,0.103149554849964,1
939,622,3,0.109984334330864,1
939,627,3,0.112689263386067,1
942,615,3,0.111508828089983,1
942,623,3,0.108669057474784,1
943,612,3,0.115029722028959,1
943,613,3,0.12834107916615,1
943,614,3,0.107593291977609,1
943,624,3,0.126633535953719,1
944,612,3,0.111724235502229,1
944,613,3,0.119791751716455,1
944,625,3,0.120963442221156,1
945,625,3,0.103045219673175,1
945,626,3,0.108566473487086,1
946,625,3,0.119525035579255,1
947,624,3,0.106341426013131,1
947,627,3,0.107728066613181,1
948,627,3,0.107975742751795,1
949,625,3,0.1133381849079,1
949,626,3,0.116642779108979,1
922,607,4,0.164807584250488,1
922,608,4,0.14486709523283,1
922,609,4,0.115789938867662,1
922,612,4,0.11016014479233,1
922,613,4,0.121884255368967,1
922,614,4,0.1164010927063,1
922,615,4,0.105096219028827,1
923,609,4,0.156289354349744,1
923,610,4,0.116961685142715,1
923,611,4,0.115293348488592,1
923,612,4,0.149405865042348,1
923,613,4,0.174013953385443,1
923,614,4,0.163323892081779,1
923,615,4,0.139861248715163,1
923,616,4,0.124322356746263,1
923,617,4,0.121108255520306,1
923,618,4,0.123998576383656,1
923,619,4,0.134620675934896,1
923,620,4,0.156773842562167,1
924,610,4,0.120463037149926,1
924,611,4,0.12217948131073,1
924,612,4,0.171607016481522,1
924,617,4,0.16252328635328,1
924,618,4,0.153662749178592,1
924,619,4,0.14759071851043,1
924,620,4,0.153033235739677,1
925,609,4,0.124344452960206,1
925,611,4,0.10441597687663,1
925,612,4,0.148446124187995,1
925,619,4,0.161856317545148,1
925,620,4,0.141492643087318,1
925,621,4,0.143409336278365,1
926,612,4,0.105885302602352,1
926,613,4,0.15016641650317,1
926,619,4,0.178056389359516,1
926,620,4,0.133976851823347,1
926,621,4,0.123714872596867,1
926,622,4,0.144435577701888,1
927,614,4,0.122510467202972,1
927,615,4,0.15630820472913,1
927,619,4,0.17753607427219,1
927,620,4,0.128796611411185,1
927,621,4,0.120868108379375,1
928,616,4,0.112282150961691,1
928,617,4,0.150543145239117,1
928,618,4,0.185797983629572,1
928,619,4,0.175003866000885,1
928,620,4,0.130249116798378,1
928,621,4,0.121729693412076,1
929,600,4,0.142432250844162,1
929,601,4,0.146632996542863,1
929,607,4,0.106206930229325,1
929,617,4,0.113648111914769,1
929,618,4,0.176754932396962,1
929,619,4,0.187875217359375,1
929,620,4,0.13527412600941,1
929,621,4,0.109205077493575,1
930,600,4,0.123534968591476,1
930,601,4,0.116567857216474,1
930,602,4,0.120533898960717,1
930,603,4,0.127327664923865,1
930,606,4,0.132553982801851,1
930,618,4,0.150344480086905,1
930,619,4,0.162227335396926,1
930,620,4,0.118962836956666,1
930,622,4,0.120788758320825,1
931,600,4,0.112031998619394,1
931,603,4,0.104008563292346,1
931,604,4,0.111439940549696,1
931,605,4,0.116150148424987,1
931,606,4,0.104764720049335,1
931,618,4,0.114974420146714,1
931,620,4,0.110311583609441,1
932,599,4,0.116878832705984,1
932,600,4,0.104209894267441,1
932,623,4,0.116278710243211,1
932,626,4,0.143481012336313,1
933,618,4,0.107750932457998,1
933,620,4,0.129402712455822,1
933,624,4,0.12281983650631,1
933,625,4,0.135352371814966,1
933,626,4,0.114876799720452,1
934,624,4,0.127934234439469,1
934,625,4,0.132584165717009,1
934,626,4,0.116163722928959,1
935,623,4,0.128760650687434,1
935,626,4,0.127912037838891,1
935,627,4,0.114012203088678,1
936,622,4,0.104837768057972,1
936,627,4,0.110194510483979,1
937,599,4,0.113550625337355,1
938,594,4,0.14994501935499,1
938,603,4,0.107353847543129,1
939,602,4,0.106872426700132,1
939,603,4,0.125133168449399,1
939,604,4,0.110432493735205,1
940,602,4,0.107768946282085,1
940,603,4,0.118598489239133,1
941,602,4,0.108848972634246,1
941,603,4,0.113595498163549,1
941,614,4,0.10369885936689,1
941,615,4,0.127136517615267,1
941,616,4,0.117988316958711,1
942,602,4,0.104172160046458,1
942,603,4,0.116049449475228,1
942,604,4,0.10894158488279,1
942,613,4,0.129632285537784,1
942,614,4,0.140856559900795,1
942,615,4,0.15482068671419,1
942,616,4,0.134482253918224,1
943,603,4,0.106668072971893,1
943,604,4,0.117919362494,1
943,605,4,0.115792816617888,1
943,612,4,0.14356934142173,1
943,613,4,0.176340357899326,1
943,614,4,0.154223475463855,1
943,615,4,0.140916646879345,1
943,616,4,0.120971350457241,1
944,605,4,0.107016604217256,1
944,612,4,0.129251329409064,1
944,613,4,0.149045800487941,1
944,614,4,0.123058812469823,1
944,615,4,0.104409540977869,1
944,624,4,0.110179352101976,1
945,625,4,0.127094567155581,1
946,624,4,0.117130959318784,1
946,628,4,0.103875852159843,1
921,608,5,0.129914829301226,1
921,609,5,0.104552045384396,1
921,613,5,0.113391423287076,1
922,609,5,0.118467752377133,1
922,612,5,0.121378663654889,1
922,613,5,0.142031195080145,1
922,614,5,0.139784374860295,1
922,615,5,0.127280137428858,1
922,616,5,0.114833600004854,1
922,617,5,0.112238482775126,1
922,618,5,0.119993216540398,1
923,610,5,0.120679526507024,1
923,611,5,0.125124379041733,1
923,612,5,0.166032568904718,1
923,616,5,0.154344430205901,1
923,617,5,0.151200108845883,1
923,618,5,0.154744058248877,1
923,619,5,0.173332818907595,1
923,620,5,0.207893048702866,1
924,610,5,0.124037437165774,1
924,611,5,0.140453451787779,1
925,609,5,0.131594342334133,1
925,610,5,0.109191067980848,1
925,611,5,0.128959851235037,1
926,609,5,0.118831308155651,1
926,611,5,0.10343390557285,1
926,612,5,0.139812672737515,1
926,621,5,0.148830091915788,1
927,609,5,0.106507766668621,1
927,613,5,0.11451456012227,1
927,620,5,0.147465848689589,1
927,621,5,0.133558228398068,1
928,608,5,0.106934844879447,1
928,616,5,0.133453636677654,1
928,619,5,0.210306544200325,1
928,620,5,0.145221493519351,1
928,621,5,0.126022716737201,1
929,600,5,0.142999323795621,1
929,601,5,0.150831767971059,1
929,607,5,0.123056436652776,1
929,617,5,0.141026090620488,1
929,618,5,0.225491606740307,1
929,620,5,0.146923504312744,1
929,621,5,0.109915636409778,1
930,600,5,0.12724491287377,1
930,601,5,0.126910257292286,1
930,602,5,0.136217414609566,1
930,606,5,0.161047234722961,1
930,617,5,0.121424707658501,1
930,618,5,0.196417718517836,1
930,620,5,0.128787543151753,1
931,599,5,0.13316412162006,1
931,600,5,0.11726665974222,1
931,601,5,0.110113866553234,1
931,602,5,0.112447465442681,1
931,603,5,0.119008624416653,1
931,604,5,0.12765991122609,1
931,605,5,0.13768955116109,1
931,606,5,0.130083133073149,1
932,598,5,0.108948779258354,1
932,599,5,0.111295461872665,1
932,600,5,0.104145780669389,1
932,623,5,0.123734180293149,1
933,623,5,0.104454068027874,1
933,624,5,0.145080807226339,1
933,626,5,0.138120466372217,1
933,627,5,0.106230342623603,1
934,618,5,0.110951191482288,1
934,620,5,0.108816123896204,1
934,623,5,0.108198545312877,1
934,624,5,0.153006744821901,1
934,625,5,0.163741489332559,1
934,626,5,0.143491664473776,1
934,627,5,0.130057501018813,1
935,623,5,0.13977107920809,1
935,626,5,0.143585124431689,1
935,627,5,0.144753992956517,1
935,628,5,0.119255486308111,1
936,622,5,0.115982525051373,1
936,627,5,0.126667946261651,1
937,594,5,0.127267957183717,1
937,595,5,0.128841930400205,1
937,596,5,0.105211652505905,1
938,593,5,0.106291835015055,1
938,594,5,0.144911343431069,1
938,595,5,0.141652637076613,1
938,596,5,0.106407781579382,1
938,602,5,0.117171705138841,1
938,603,5,0.139932244374801,1
938,604,5,0.126676702207105,1
939,594,5,0.10672982190697,1
939,602,5,0.140273492012035,1
939,603,5,0.169603700777867,1
939,604,5,0.141357254977861,1
939,616,5,0.107363975439272,1
940,602,5,0.143041285409378,1
940,603,5,0.151408957664591,1
940,604,5,0.113672706640536,1
940,615,5,0.110340617655323,1
940,616,5,0.122525949053024,1
940,617,5,0.104237812906259,1
941,601,5,0.112076246817632,1
941,602,5,0.142098632591249,1
941,603,5,0.137505944004245,1
941,604,5,0.106707814925592,1
941,614,5,0.130495175596749,1
941,615,5,0.159888505248347,1
941,616,5,0.15178624410407,1
941,617,5,0.114670962500818,1
942,601,5,0.104566144129688,1
942,602,5,0.130399005199671,1
942,603,5,0.140376979479455,1
942,604,5,0.13532447548429,1
942,605,5,0.114607216987096,1
942,612,5,0.109497592996172,1
942,613,5,0.157281977404351,1
942,614,5,0.176540473080721,1
942,615,5,0.19035898350188,1
942,616,5,0.170113698349849,1
942,617,5,0.123425948705017,1
942,622,5,0.105367441410567,1
943,603,5,0.120881024793179,1
943,604,5,0.143138995068205,1
943,605,5,0.145351583445253,1
943,612,5,0.168521131297599,1
943,613,5,0.215365740637875,1
943,614,5,0.202319984230821,1
943,615,5,0.193290674813243,1
943,616,5,0.171182548323226,1
943,617,5,0.124345189128868,1
943,623,5,0.11186575835054,1
944,604,5,0.104328149724392,1
944,605,5,0.120878905519757,1
944,612,5,0.144982606788403,1
944,613,5,0.170943583513784,1
944,614,5,0.159801336186277,1
944,615,5,0.154914135518032,1
944,616,5,0.138434408844518,1
944,624,5,0.126690477484348,1
945,614,5,0.105277138054646,1
945,615,5,0.108951088150977,1
945,624,5,0.120943833364966,1
921,608,6,0.110673633588422,1
921,613,6,0.109349065391498,1
921,614,6,0.108473281226869,1
922,609,6,0.103913519456402,1
922,612,6,0.110556694311808,1
922,613,6,0.137046496680415,1
922,614,6,0.138248336638061,1
922,615,6,0.124066058511042,1
922,616,6,0.115181250078636,1
922,617,6,0.112661601290874,1
922,618,6,0.120150355087608,1
923,610,6,0.111681872341929,1
923,611,6,0.11431384262106,1
923,612,6,0.146067451699082,1
923,617,6,0.154787938362784,1
924,610,6,0.118551240595892,1
924,611,6,0.138775478016621,1
925,609,6,0.131184117924047,1
925,610,6,0.117189116643114,1
925,611,6,0.140901566575837,1
926,609,6,0.134309666983175,1
926,610,6,0.119358494150493,1
926,611,6,0.118185420541033,1
926,612,6,0.153961979431715,1
927,609,6,0.119516324250083,1
927,610,6,0.112280500159236,1
927,613,6,0.115879416822355,1
927,621,6,0.134472728341896,1
928,600,6,0.145680695453628,1
928,608,6,0.109767532659788,1
928,620,6,0.145332063821629,1
928,621,6,0.115130934065968,1
929,600,6,0.136400374830313,1
929,617,6,0.164917541078881,1
930,601,6,0.137589755691052,1
930,607,6,0.109167276348168,1
930,617,6,0.142809158045239,1
931,601,6,0.119822704262488,1
931,602,6,0.125458722309239,1
931,603,6,0.135313522186919,1
931,606,6,0.148187171283961,1
931,617,6,0.117804843650715,1
932,602,6,0.107103728663044,1
932,604,6,0.103336050911105,1
932,623,6,0.111564286129217,1
933,624,6,0.14290952237288,1
933,626,6,0.132557329023044,1
934,624,6,0.153844917460323,1
934,625,6,0.171652435857178,1
934,626,6,0.140559281610034,1
934,627,6,0.124832175853115,1
935,618,6,0.152108050196173,1
935,620,6,0.111355292307591,1
935,626,6,0.131342628421946,1
935,627,6,0.139279229309043,1
935,628,6,0.117274791059718,1
936,617,6,0.117259331517808,1
936,618,6,0.148686739799892,1
936,619,6,0.114635949873071,1
936,627,6,0.114710180213196,1
937,603,6,0.104793910252206,1
937,617,6,0.126711324442379,1
937,618,6,0.139916695600326,1
938,602,6,0.128014008352703,1
938,603,6,0.167831062409167,1
938,604,6,0.15312618261034,1
938,616,6,0.109769194616314,1
938,617,6,0.146310186584401,1
938,618,6,0.135052606166452,1
939,602,6,0.165280751081209,1
939,603,6,0.211044832136145,1
939,604,6,0.170077023765577,1
939,616,6,0.147722782706836,1
939,617,6,0.159568918816301,1
939,618,6,0.126857342381159,1
940,601,6,0.118453597861488,1
940,602,6,0.173232911896851,1
940,603,6,0.181733562982263,1
940,604,6,0.127973351765212,1
940,615,6,0.123496408969265,1
940,616,6,0.158847083134679,1
940,617,6,0.144497170479976,1
940,618,6,0.106518061875824,1
941,601,6,0.146860026496718,1
941,602,6,0.176295250837648,1
941,603,6,0.158154036109385,1
941,604,6,0.11735400726942,1
941,614,6,0.126426895640998,1
941,615,6,0.16459353763486,1
941,616,6,0.17096765399823,1
941,617,6,0.13524114342252,1
942,601,6,0.13752269741835,1
942,602,6,0.157318718913047,1
942,603,6,0.157855932417397,1
942,604,6,0.154879624823465,1
942,605,6,0.129423459027217,1
942,613,6,0.146343459177128,1
942,614,6,0.178677325318107,1
942,615,6,0.193939930957195,1
942,616,6,0.182790321943064,1
942,617,6,0.137069117135677,1
942,621,6,0.115494065989802,1
942,622,6,0.114549371976745,1
943,602,6,0.107024345142282,1
943,603,6,0.12857740046085,1
943,604,6,0.159153842385486,1
943,605,6,0.16046711150885,1
943,612,6,0.152582265509534,1
943,613,6,0.21018282324876,1
943,614,6,0.220934410406088,1
943,615,6,0.218991705922303,1
943,616,6,0.199935511625174,1
943,617,6,0.142704231702706,1
943,621,6,0.123147052322675,1
943,622,6,0.113761905743463,1
943,623,6,0.114029815366222,1
944,604,6,0.108256680329065,1
944,605,6,0.121964129668837,1
944,612,6,0.136739503194124,1
944,613,6,0.170019669534334,1
944,614,6,0.182965530084715,1
944,615,6,0.191673959198053,1
944,616,6,0.173380736795075,1
944,617,6,0.116809220151105,1
944,621,6,0.103141256221406,1
945,613,6,0.103810489305879,1
945,614,6,0.120455664309232,1
945,615,6,0.130368498816464,1
945,616,6,0.115609599853516,1
945,624,6,0.111740899683769,1
921,613,7,0.107024534761483,1
921,614,7,0.105700412727384,1
922,608,7,0.11250352580173,1
922,612,7,0.111015751243166,1
922,613,7,0.14251225899288,1
922,614,7,0.14527843504998,1
922,615,7,0.130687170614717,1
922,616,7,0.128544551722809,1
922,617,7,0.123381075878823,1
922,618,7,0.133176469176261,1
923,609,7,0.120895547393155,1
923,610,7,0.10390688278437,1
923,611,7,0.110758694531141,1
923,612,7,0.137187684906606,1
923,616,7,0.17003105784046,1
924,609,7,0.123814344598855,1
924,610,7,0.113173617749642,1
924,611,7,0.138482125958726,1
925,609,7,0.133462002230636,1
925,610,7,0.121425744987071,1
925,611,7,0.150917498158017,1
926,609,7,0.146566707901035,1
926,610,7,0.128647526102979,1
926,611,7,0.130331835386262,1
926,612,7,0.17200182596598,1
927,609,7,0.12433376736053,1
927,610,7,0.115447653901859,1
927,612,7,0.1032817975115,1
927,613,7,0.124941452283198,1
927,614,7,0.143987585608608,1
928,600,7,0.147646667328772,1
928,608,7,0.104192672382369,1
928,616,7,0.151335720036753,1
928,621,7,0.108174787142408,1
930,607,7,0.109278359737696,1
930,622,7,0.103340222533525,1
931,602,7,0.13355497140944,1
931,606,7,0.155977687307854,1
932,601,7,0.10462937655616,1
933,624,7,0.129006709485805,1
933,626,7,0.116859625396338,1
934,624,7,0.13504388368321,1
934,625,7,0.155466987029422,1
934,626,7,0.120200938797971,1
935,617,7,0.119087238306541,1
935,623,7,0.120458441672821,1
935,626,7,0.104431481034823,1
935,627,7,0.112056225260829,1
936,617,7,0.137234096994549,1
936,618,7,0.193516812441447,1
936,622,7,0.10939963794779,1
937,603,7,0.109433568630684,1
937,604,7,0.11155912179451,1
937,617,7,0.153328015518614,1
937,618,7,0.178719800019114,1
937,619,7,0.119885055517379,1
938,602,7,0.126910837303959,1
938,603,7,0.181737544985482,1
938,604,7,0.174391842144737,1
938,605,7,0.105337581963457,1
938,616,7,0.131247439583084,1
938,617,7,0.195143789801628,1
938,618,7,0.182898706047496,1
938,619,7,0.113369561308617,1
939,602,7,0.161560355434723,1
939,603,7,0.228713013882535,1
939,604,7,0.193320010019032,1
939,615,7,0.107621522930405,1
939,616,7,0.188199020030123,1
939,617,7,0.217546762995005,1
939,618,7,0.168012505676307,1
940,601,7,0.116026003618737,1
940,602,7,0.168897023478248,1
940,603,7,0.187651578242995,1
940,604,7,0.139683263209922,1
940,615,7,0.148632709481701,1
940,616,7,0.2126324579351,1
940,617,7,0.198179883214203,1
940,618,7,0.136168381315022,1
941,601,7,0.16614374152681,1
941,602,7,0.183497902722405,1
941,603,7,0.154917135963035,1
941,604,7,0.117693793723399,1
941,614,7,0.128528356012236,1
941,615,7,0.180834109879731,1
941,616,7,0.206855050888886,1
941,617,7,0.168683679569071,1
941,618,7,0.112733779282001,1
942,601,7,0.161807295404675,1
942,602,7,0.17058027312482,1
942,603,7,0.160153916359283,1
942,604,7,0.16355016355883,1
942,605,7,0.133516021394757,1
942,613,7,0.138967026871762,1
942,614,7,0.190713906029721,1
942,615,7,0.207075923795746,1
942,616,7,0.20215519399115,1
942,617,7,0.156083550592321,1
942,618,7,0.103757574394751,1
942,621,7,0.127855163232685,1
942,622,7,0.122648041510275,1
943,602,7,0.107674080911272,1
943,603,7,0.127738781659603,1
943,604,7,0.168976128147244,1
943,605,7,0.166557412544724,1
943,612,7,0.131337742939005,1
943,613,7,0.198563315546606,1
943,614,7,0.243567202070981,1
943,615,7,0.245543748005094,1
943,616,7,0.222453193281038,1
943,617,7,0.156261714562692,1
943,620,7,0.108418659742933,1
943,621,7,0.143655038146475,1
943,622,7,0.131398276080381,1
944,604,7,0.109342930652644,1
944,605,7,0.123308685960353,1
944,612,7,0.126888127616131,1
944,613,7,0.166280133502625,1
944,614,7,0.208233203241177,1
944,615,7,0.225626637919503,1
944,616,7,0.197226098633573,1
944,617,7,0.126015009274387,1
944,621,7,0.122943602074157,1
944,622,7,0.11050325515936,1
945,614,7,0.130718758942776,1
945,615,7,0.144456547354696,1
945,616,7,0.123536563623577,1
945,624,7,0.108893689303451,1
922,608,8,0.103597758870587,1
922,612,8,0.109757337839221,1
922,613,8,0.138009728758879,1
922,614,8,0.144578104416557,1
922,615,8,0.139861706032059,1
922,616,8,0.144889291833409,1
922,617,8,0.133153904491352,1
922,618,8,0.144504677169518,1
923,608,8,0.121853280514793,1
923,609,8,0.110776842204076,1
923,610,8,0.102986549261596,1
923,611,8,0.111911188880266,1
923,612,8,0.134815671397867,1
924,609,8,0.120706296276566,1
924,610,8,0.115786559184257,1
924,611,8,0.138463855591014,1
925,609,8,0.135662521903249,1
925,610,8,0.12333467494495,1
925,611,8,0.150313929087416,1
926,609,8,0.14698178433185,1
926,610,8,0.12660160184947,1
926,611,8,0.130280905899709,1
926,612,8,0.166286346319973,1
927,609,8,0.119074946520693,1
927,610,8,0.106109097875721,1
927,613,8,0.110878556174264,1
927,614,8,0.120082962192787,1
928,616,8,0.141326614745806,1
928,621,8,0.108369012974504,1
929,607,8,0.107585751825854,1
931,606,8,0.136899776035185,1
933,624,8,0.113019725036989,1
934,624,8,0.107094838868742,1
935,621,8,0.116418069201817,1
935,624,8,0.114248992854345,1
936,617,8,0.132686905861696,1
936,620,8,0.135779940804901,1
936,623,8,0.159883073215944,1
937,604,8,0.111242803505162,1
937,617,8,0.162047632164806,1
937,618,8,0.215784709839345,1
937,619,8,0.158663966756943,1
938,602,8,0.106605186321611,1
938,603,8,0.170098417273069,1
938,604,8,0.180470230633165,1
938,605,8,0.111046648018845,1
938,616,8,0.133692099553917,1
938,617,8,0.230011258472744,1
938,618,8,0.236073005087773,1
938,619,8,0.14817030632915,1
939,602,8,0.130392870460817,1
939,603,8,0.21035142818059,1
939,604,8,0.200570445942421,1
939,605,8,0.10666732564916,1
939,615,8,0.112397796366111,1
939,616,8,0.218122469197142,1
939,617,8,0.274467323971588,1
939,618,8,0.214577080919035,1
939,619,8,0.121157723823605,1
940,602,8,0.136586859737383,1
940,603,8,0.166737205009409,1
940,604,8,0.144096382413653,1
940,615,8,0.173577650758196,1
940,616,8,0.283950380982898,1
940,617,8,0.278741050754502,2
940,618,8,0.179577246891606,1
941,601,8,0.157602746167885,1
941,602,8,0.163528959670539,1
941,603,8,0.132902079038458,1
941,604,8,0.111612226324838,1
941,614,8,0.129832188791837,1
941,615,8,0.207318368675229,1
941,616,8,0.271472032149422,1
941,617,8,0.236580782999697,1
941,618,8,0.149135646526966,1
942,601,8,0.158735486657902,1
942,602,8,0.161438999146134,1
942,603,8,0.14356674252327,1
942,604,8,0.155695790480509,1
942,605,8,0.1213517600365,1
942,613,8,0.133406889967592,1
942,614,8,0.206590721722802,1
942,615,8,0.235465465168024,1
942,616,8,0.238848628642708,1
942,617,8,0.194908907382041,1
942,618,8,0.128401534229032,1
942,621,8,0.127116061049709,1
942,622,8,0.124162853536077,1
943,603,8,0.113482061265116,1
943,604,8,0.159386259755462,1
943,605,8,0.149631322272243,1
943,612,8,0.112003321503772,1
943,613,8,0.18791646511261,1
943,614,8,0.270346474880899,1
943,615,8,0.278234923645032,1
943,616,8,0.239661894241385,1
943,617,8,0.169546525011754,1
943,618,8,0.107404933186671,1
943,620,8,0.114511693526115,1
943,621,8,0.159194487818907,1
943,622,8,0.149723265276548,1
944,604,8,0.103011054754797,1
944,605,8,0.1135465429475,1
944,612,8,0.118550069418474,1
944,613,8,0.161483626582774,1
944,614,8,0.22881953525717,1
944,615,8,0.247272138175556,1
944,616,8,0.200923494586394,1
944,617,8,0.126169303533583,1
945,614,8,0.132724662390821,1
945,615,8,0.14385793069146,1
945,616,8,0.117024582947068,1
946,605,8,0.104411202934395,1
947,604,8,0.111593766337925,1
947,605,8,0.123425268306708,1
947,606,8,0.10303887300698,1
948,604,8,0.103907540874538,1
948,605,8,0.106464098482056,1
922,612,9,0.103894401379321,1
922,613,9,0.122047562117242,1
922,614,9,0.127891637043686,1
922,615,9,0.134352108221969,1
922,616,9,0.14104921300893,1
922,617,9,0.128700630633308,1
923,608,9,0.111474239316921,1
923,609,9,0.10655724612599,1
923,610,9,0.10537218189059,1
923,611,9,0.112464508862623,1
923,612,9,0.130191238325815,1
924,609,9,0.129440033976191,1
924,610,9,0.129207694684711,1
924,611,9,0.139298704316384,1
925,609,9,0.141164534945302,1
925,610,9,0.135462384413712,1
925,611,9,0.152434039064768,1
926,609,9,0.14138363435493,1
926,610,9,0.129633624026261,1
926,611,9,0.133822401407162,1
926,612,9,0.156585271843887,1
927,609,9,0.110648603853901,1
927,614,9,0.103645375598159,1
927,615,9,0.124460577989663,1
928,616,9,0.128729051205304,1
929,621,9,0.105453952382469,1
931,606,9,0.115289556104574,1
932,624,9,0.109635479617453,1
936,617,9,0.122689400804217,1
936,621,9,0.104896048077078,1
936,623,9,0.122976473120341,1
937,604,9,0.10751379691614,1
937,617,9,0.16147540603271,1
937,618,9,0.250930717962542,1
937,620,9,0.140194833505865,1
938,603,9,0.14729571565008,1
938,604,9,0.180096535804433,1
938,605,9,0.11356374252443,1
938,616,9,0.121453083614215,1
938,617,9,0.236938672510329,1
938,618,9,0.279653230651636,1
938,619,9,0.197160356541207,1
938,620,9,0.114049535763118,1
939,603,9,0.169159646071523,1
939,604,9,0.190316419568309,1
939,605,9,0.103295360861401,1
939,615,9,0.105706882088356,1
939,616,9,0.218885095315103,1
939,617,9,0.299731316284738,2
939,618,9,0.250072590691741,1
939,619,9,0.150787040147783,1
940,603,9,0.126540611391197,1
940,604,9,0.13071067224156,1
940,615,9,0.172951829316663,1
940,616,9,0.318845065586382,2
940,617,9,0.33779447081118,2
940,618,9,0.217530812673987,2
940,619,9,0.117805234043187,1
941,602,9,0.119656787461682,1
941,614,9,0.112518494564532,1
941,615,9,0.197895365180257,1
941,616,9,0.297696456869306,1
941,617,9,0.286985002058149,2
941,618,9,0.182135544534144,1
942,602,9,0.127494239814839,1
942,603,9,0.113567367597389,1
942,604,9,0.128835014876407,1
942,613,9,0.112097829944325,1
942,614,9,0.181118337907841,1
942,615,9,0.217130671543762,1
942,616,9,0.232398831910029,1
942,617,9,0.213317741727227,1
942,618,9,0.152063523146169,1
943,604,9,0.133285477908649,1
943,605,9,0.116424460484295,1
943,613,9,0.153292813271666,1
943,614,9,0.242768927543246,1
943,615,9,0.258242724355877,1
943,616,9,0.213299939830481,1
943,617,9,0.163908588464853,1
943,618,9,0.118964487759121,1
944,612,9,0.104750342452277,1
944,613,9,0.135339042700549,1
944,614,9,0.20448084002823,1
944,615,9,0.222327018433931,1
944,616,9,0.170597037692996,1
944,617,9,0.113083849789112,1
945,614,9,0.118582527764043,1
945,615,9,0.125962607450509,1
946,605,9,0.109448972402241,1
947,604,9,0.109550463291017,1
947,605,9,0.13330719488419,1
948,605,9,0.106911510563663,1
922,616,10,0.124248572568964,1
922,617,10,0.117076739381392,1
923,609,10,0.10489207722793,1
923,610,10,0.105213816395609,1
923,611,10,0.107958007779473,1
924,609,10,0.146396251393478,1
924,610,10,0.143660403254454,1
925,609,10,0.160807667593704,1
925,610,10,0.15255926581587,1
926,609,10,0.143091311416209,1
926,610,10,0.13125553743837,1
926,611,10,0.126827427163696,1
928,616,10,0.103839869127951,1
930,617,10,0.107764272726486,1
931,617,10,0.104509180290918,1
937,617,10,0.12649481277714,1
938,603,10,0.112662638619444,1
938,604,10,0.161368561190027,1
938,605,10,0.104751491321553,1
938,617,10,0.192405666232193,1
938,618,10,0.264448804645019,1
938,620,10,0.12884912477577,1
939,603,10,0.123586913098457,1
939,604,10,0.164312733906438,1
939,616,10,0.179403555703563,1
939,617,10,0.270305963296326,2
939,618,10,0.248181083392205,1
939,619,10,0.164274575830771,1
940,604,10,0.112761151371357,1
940,615,10,0.14400915758123,1
940,616,10,0.296909291795931,2
940,617,10,0.350155121891238,2
940,618,10,0.235845060500125,2
940,619,10,0.128575716196183,1
941,615,10,0.169020231342564,1
941,616,10,0.289038332614565,1
941,617,10,0.31495561884524,2
941,618,10,0.20669677462647,1
941,619,10,0.107065514817023,1
942,614,10,0.151888426545225,1
942,615,10,0.192643471018289,1
942,616,10,0.220170535032214,1
942,617,10,0.228316062816513,1
942,618,10,0.172818861640535,1
943,613,10,0.133642118163369,1
943,614,10,0.215906423058195,1
943,615,10,0.241468675220322,1
943,616,10,0.193296988017227,1
943,617,10,0.159476429262535,1
943,618,10,0.127591079456156,1
944,612,10,0.10324584794182,1
944,613,10,0.130528470497617,1
944,614,10,0.190144356874579,1
944,615,10,0.207525432842635,1
944,616,10,0.151329741454889,1
944,617,10,0.103606369813123,1
945,612,10,0.103810946622775,1
945,613,10,0.103862712664626,1
945,614,10,0.118914026743535,1
945,615,10,0.119523485163435,1
946,605,10,0.108588859706866,1
947,604,10,0.1034490081845,1
947,605,10,0.133994374868326,1
948,605,10,0.102933779353387,1
922,617,11,0.109233598452208,1
923,609,11,0.106311533103809,1
923,610,11,0.107149694588161,1
924,609,11,0.165001865852937,1
924,610,11,0.160411106920155,1
925,610,11,0.179599131178206,1
926,609,11,0.154685488223934,1
926,610,11,0.13852717725005,1
926,611,11,0.120846291017199,1
938,604,11,0.126682390783133,1
938,617,11,0.144784164717604,1
938,618,11,0.23105561410699,1
938,620,11,0.144587819612086,1
939,604,11,0.124706190625209,1
939,616,11,0.133279967797752,1
939,617,11,0.217935236967338,1
939,618,11,0.234799500226249,1
939,619,11,0.180329800883777,1
939,620,11,0.106212998043754,1
940,615,11,0.112870104333392,1
940,616,11,0.238437400366264,1
940,617,11,0.317202851765703,2
940,618,11,0.243445288078859,1
940,619,11,0.143242672154826,1
941,615,11,0.141757920349406,1
941,616,11,0.259557789284614,3
941,617,11,0.321257824915178,3
941,618,11,0.225861564955373,3
941,619,11,0.115386942295352,1
942,614,11,0.131821740372319,1
942,615,11,0.171283403429975,1
942,616,11,0.211514976213721,1
942,617,11,0.243409818134217,3
942,618,11,0.185160985809256,1
943,613,11,0.134174000021951,1
943,614,11,0.200082009188991,1
943,615,11,0.227188988594383,1
943,616,11,0.18692031737168,1
943,617,11,0.163088853505202,1
943,618,11,0.128001292712171,1
944,612,11,0.108066101878069,1
944,613,11,0.159526979510686,1
944,614,11,0.209816568185146,1
944,615,11,0.214701694196252,1
944,616,11,0.152469140925079,1
944,617,11,0.103264107155461,1
945,611,11,0.113208753072166,1
945,612,11,0.118855612875581,1
945,613,11,0.136413882409861,1
945,614,11,0.150120997127515,1
945,615,11,0.136503672678532,1
946,611,11,0.116958729313995,1
926,610,12,0.151213917585338,1
927,609,12,0.104062225526207,1
934,618,12,0.10509784752314,1
936,618,12,0.121023718818907,1
937,618,12,0.146529866005703,1
938,617,12,0.105300182364593,1
938,618,12,0.176560907338138,1
938,619,12,0.203851348897456,1
938,620,12,0.138301697712015,1
939,617,12,0.160395022750289,1
939,618,12,0.200834507410809,1
939,619,12,0.177019640801448,1
939,620,12,0.103290765384297,1
940,616,12,0.173896590254144,1
940,617,12,0.263509364199235,1
940,618,12,0.23939874740679,1
940,619,12,0.150618747529931,1
941,615,12,0.113866642466795,1
941,616,12,0.223693012849222,1
941,617,12,0.325933432863336,3
941,618,12,0.254955932051543,1
941,619,12,0.128365930435541,1
942,614,12,0.106617444645247,1
942,615,12,0.140547369062588,1
942,616,12,0.202390901811965,1
942,617,12,0.267098699515672,1
942,618,12,0.205862271677289,1
943,613,12,0.126889622261598,1
943,614,12,0.172883521788049,1
943,615,12,0.192429268245673,1
943,616,12,0.179734563903946,1
943,617,12,0.171108161826112,1
943,618,12,0.126134447062825,1
944,612,12,0.103978001138786,1
944,613,12,0.183956480028726,1
944,614,12,0.224909341944633,1
944,615,12,0.209101993803512,1
944,616,12,0.157932415879792,1
944,617,12,0.108439763244589,1
945,611,12,0.105411890382077,1
945,612,12,0.114926033788268,1
945,613,12,0.159370298280372,1
945,614,12,0.176033063253128,1
945,615,12,0.147176121704653,1
945,616,12,0.103764110680148,1
946,611,12,0.120355813068841,1
924,609,13,0.154083915731978,1
926,610,13,0.146534784950857,1
927,609,13,0.109844373052443,1
933,605,13,0.103193925742979,1
936,619,13,0.1899051020593,1
937,618,13,0.114954755520172,1
937,619,13,0.18294183883867,1
937,620,13,0.15761481487232,1
938,618,13,0.133492687078973,1
938,619,13,0.174450211396408,1
938,620,13,0.122405462781945,1
939,617,13,0.1166289034451,1
939,618,13,0.159990765767997,1
939,619,13,0.158980998906812,1
940,616,13,0.125173691188043,1
940,617,13,0.20007139051374,1
940,618,13,0.212920433730945,1
940,619,13,0.142866255732858,1
941,616,13,0.185100742673716,1
941,617,13,0.303646774318618,1
941,618,13,0.26620097529409,1
941,619,13,0.134739634098297,1
942,615,13,0.116547601424187,1
942,616,13,0.193530018861087,1
942,617,13,0.279645088180067,1
942,618,13,0.221120437996261,1
942,619,13,0.105563920364933,1
943,613,13,0.116575553525217,1
943,614,13,0.152177763137688,1
943,615,13,0.166992030907305,1
943,616,13,0.187624027688508,1
943,617,13,0.185015480957726,1
943,618,13,0.124492132855511,1
944,613,13,0.194161138486175,1
944,614,13,0.239319419656381,1
944,615,13,0.211563764118711,1
944,616,13,0.177440528503067,1
944,617,13,0.119070875284908,1
945,612,13,0.10424789618612,1
945,613,13,0.169926599968894,1
945,614,13,0.198230812700757,1
945,615,13,0.159266320033844,1
945,616,13,0.115162522394028,1
924,608,14,0.116204134126896,1
924,609,14,0.120150198930619,1
924,610,14,0.117890975384215,1
925,609,14,0.199346487462691,1
925,610,14,0.163526226923232,1
926,610,14,0.129484482947701,1
927,609,14,0.118253504988234,1
928,607,14,0.116647887673333,1
932,605,14,0.120670324398744,1
933,604,14,0.116296177517837,1
933,619,14,0.128310148928259,1
934,619,14,0.120671261340678,1
935,619,14,0.12781304546194,1
936,619,14,0.133231994139919,1
936,620,14,0.14798712302699,1
937,619,14,0.131056983826865,1
937,620,14,0.113159530158421,1
938,616,14,0.107193585856139,1
938,619,14,0.129067499170806,1
939,618,14,0.118624801691778,1
939,619,14,0.123462589827077,1
940,617,14,0.148555132920383,1
940,618,14,0.174951185325241,1
940,619,14,0.122616653955488,1
941,616,14,0.1441459845658,1
941,617,14,0.259175650824406,1
941,618,14,0.253297946374976,1
941,619,14,0.131001079624806,1
942,616,14,0.172744943614388,1
942,617,14,0.265957794245945,1
942,618,14,0.217263315751841,1
943,614,14,0.127588034394871,1
943,615,14,0.148792703470995,1
943,616,14,0.187365565563583,1
943,617,14,0.185092343658523,1
943,618,14,0.116409023250526,1
944,613,14,0.159868048682789,1
944,614,14,0.214298162228551,1
944,615,14,0.203221344679432,1
944,616,14,0.181365166337086,1
944,617,14,0.116163232149851,1
945,613,14,0.145239250799814,1
945,614,14,0.182595014166116,1
945,615,14,0.152678101284494,1
945,616,14,0.111256288776569,1
924,608,15,0.109466841223411,1
925,609,15,0.147576965541328,1
925,610,15,0.118160268111735,1
926,609,15,0.166501274107181,1
927,608,15,0.168307530844798,1
927,609,15,0.107987421063757,1
928,607,15,0.116229654640526,1
932,605,15,0.107269098914388,1
933,604,15,0.105559402966322,1
935,620,15,0.125017411504273,1
937,615,15,0.127127984751225,1
937,616,15,0.135377133851792,1
938,615,15,0.138898730497219,1
938,616,15,0.144583937995503,1
940,617,15,0.110317339109893,1
940,618,15,0.138226396581108,1
941,616,15,0.109263301742328,1
941,617,15,0.203161001157257,1
941,618,15,0.215431683503513,1
941,619,15,0.117407267956738,1
942,616,15,0.148246432861284,1
942,617,15,0.230204893139095,1
942,618,15,0.190090772719213,1
943,614,15,0.104550216116811,1
943,615,15,0.139124778892858,1
943,616,15,0.178204983888614,1
943,617,15,0.171708362367379,1
944,613,15,0.115601613538936,1
944,614,15,0.176083803120481,1
944,615,15,0.195368120470388,1
944,616,15,0.172584168840149,1
944,617,15,0.105436674727044,1
945,613,15,0.117295035697934,1
945,614,15,0.151309909517287,1
945,615,15,0.1373912578499,1
924,608,16,0.124243876705223,1
925,609,16,0.117060354051618,1
926,609,16,0.136423028747788,1
927,608,16,0.157728129075976,1
928,607,16,0.122388787446334,1
932,605,16,0.103223684803453,1
937,615,16,0.165677724455371,1
937,616,16,0.159077347769021,1
938,615,16,0.159605939176764,1
938,616,16,0.154900973714674,1
941,617,16,0.146393920192714,1
941,618,16,0.157420711735001,1
942,616,16,0.11887869064774,1
942,617,16,0.175934695504133,1
942,618,16,0.140055898401943,1
943,615,16,0.128220258272952,1
943,616,16,0.150964467949492,1
943,617,16,0.136586424728628,1
944,614,16,0.142054429009293,1
944,615,16,0.177238405588957,1
944,616,16,0.145060785669536,1
945,613,16,0.106883636541128,1
945,614,16,0.126518715950526,1
945,615,16,0.118293101939015,1
923,608,17,0.117345887105992,1
926,608,17,0.16508595639151,1
926,609,17,0.108808115273483,1
927,607,17,0.1678391044941,1
927,608,17,0.136195351857835,1
928,607,17,0.12906461026651,1
932,605,17,0.103813166282833,1
935,612,17,0.110903407443656,1
936,612,17,0.102946305374718,1
937,615,17,0.171861028132262,1
937,616,17,0.154117366789834,1
938,615,17,0.149538408863792,1
938,616,17,0.139440941025216,1
941,617,17,0.105853022721913,1
941,618,17,0.10583301231918,1
942,617,17,0.129586977702834,1
943,615,17,0.112336125509529,1
943,616,17,0.123546479592379,1
944,614,17,0.109656348883625,1
944,615,17,0.142600130761401,1
944,616,17,0.113622011389466,1
924,615,18,0.114834180016528,1
924,617,18,0.138796614980488,1
925,618,18,0.116845560113258,1
926,608,18,0.143736217472611,1
926,615,18,0.157269139069042,1
926,617,18,0.163494337435265,1
927,607,18,0.147750400185747,1
927,608,18,0.114758733882703,1
927,616,18,0.105558700259872,1
932,605,18,0.111253031787941,1
933,600,18,0.129605839236291,1
934,600,18,0.104390590211848,1
934,601,18,0.121354637786725,1
934,602,18,0.115149304820316,1
935,611,18,0.104998487061858,1
935,612,18,0.140730351591476,1
937,615,18,0.154763600180642,1
937,616,18,0.132857864302432,1
938,615,18,0.125297490218103,1
938,616,18,0.113297628707044,1
924,616,19,0.121538802647102,1
924,617,19,0.112211110685769,1
925,615,19,0.136899720264832,1
926,608,19,0.131601224395719,1
926,615,19,0.145469995059193,1
926,616,19,0.190057845902677,1
927,607,19,0.137873515248195,1
927,616,19,0.106606212496111,1
932,599,19,0.104786035478332,1
934,600,19,0.1244487100585,1
934,603,19,0.135179137943819,1
934,612,19,0.108414577353078,1
935,600,19,0.112718922059905,1
935,601,19,0.142702447051404,1
935,603,19,0.124926282747124,1
935,611,19,0.121594071067135,1
935,612,19,0.168426500162269,1
935,613,19,0.116702040686302,1
936,601,19,0.110359300723649,1
936,602,19,0.123757782306628,1
937,615,19,0.123021200943617,1
937,616,19,0.104257142910682,1
925,615,20,0.118874730952662,1
926,606,20,0.12753401523075,1
926,607,20,0.132700034202842,1
926,608,20,0.12233714409926,1
926,615,20,0.154123735764171,1
927,607,20,0.130515275232047,1
927,614,20,0.103117040734041,1
927,615,20,0.1341791866648,1
927,616,20,0.121288538764099,1
928,608,20,0.103755321272481,1
929,608,20,0.106353528179778,1
932,617,20,0.108844087151305,1
933,599,20,0.103572372205805,1
934,612,20,0.104788723609357,1
935,600,20,0.125385272754059,1
935,611,20,0.108939588304145,1
935,612,20,0.152501164261894,1
935,613,20,0.107783123105872,1
936,601,20,0.131867538986377,1
936,603,20,0.115257599692183,1
924,609,21,0.119333252488629,1
925,607,21,0.159889509114705,1
925,608,21,0.167569510606673,1
925,609,21,0.109850641640145,1
926,605,21,0.121616289975855,1
926,606,21,0.114987269636094,1
926,607,21,0.117147389264841,1
926,608,21,0.118940171885121,1
926,614,21,0.119824622762638,1
927,607,21,0.123255681816661,1
927,614,21,0.126012599995128,1
927,615,21,0.185293496168488,1
928,608,21,0.115807194214946,1
928,615,21,0.110034148410353,1
930,608,21,0.10410708719833,1
934,599,21,0.119803842729032,1
935,599,21,0.108640391513234,1
935,612,21,0.116556546988843,1
936,600,21,0.117040109413402,1
936,603,21,0.135443054409289,1
937,601,21,0.117456145094293,1
937,602,21,0.134367634688303,1
925,608,22,0.15726753288287,1
925,609,22,0.131416702605082,1
926,608,22,0.118693031141898,1
926,609,22,0.105524211873446,1
927,607,22,0.113514742692098,1
928,608,22,0.119212431595431,1
930,608,22,0.119678470975011,1
936,599,22,0.104779075338252,1
937,600,22,0.124033667089897,1
937,603,22,0.128025285118123,1
938,600,22,0.109183505520953,1
938,601,22,0.132962333328069,1
938,602,22,0.139910304317848,1
938,603,22,0.104794278336537,1
939,601,22,0.110489223338492,1
939,602,22,0.105067039980026,1
926,608,23,0.111341851652467,1
926,609,23,0.118620975845548,1
927,606,23,0.107717838330402,1
927,607,23,0.103827253874054,1
928,608,23,0.119602790605703,1
930,608,23,0.121613679923324,1
931,607,23,0.106188871788955,1
936,599,23,0.119254170127775,1
937,599,23,0.121148376712406,1
938,599,23,0.119654288949859,1
938,600,23,0.141259021077713,1
939,599,23,0.113794219086114,1
939,600,23,0.126103505670863,1
939,601,23,0.144028889132196,1
928,606,24,0.127697478136014,1
928,607,24,0.156629720815396,1
928,608,24,0.111881753287841,1
929,608,24,0.14594831507055,1
934,616,48,0.106674910417197,1
940,616,48,0.108721202755038,1
941,616,48,0.116183722177621,1
942,616,48,0.135756271866998,1
943,616,48,0.133515474845295,1
944,616,48,0.11440430213397,1
948,618,48,0.13529843072934,1
949,618,48,0.130154240273494,1
934,615,49,0.139354675442868,1
934,616,49,0.115284335999513,1
941,616,49,0.142802197905158,1
942,616,49,0.174947549098211,1
942,617,49,0.119385386614812,1
943,615,49,0.139983251939849,1
943,616,49,0.167136342273276,1
943,617,49,0.122499000818352,1
944,616,49,0.127975036029879,1
947,618,49,0.103527120141209,1
948,618,49,0.147005587118601,1
949,618,49,0.140569141808482,1
932,621,50,0.111338806591181,1
932,622,50,0.11288205034305,1
933,620,50,0.107609878080654,1
933,621,50,0.126985413420274,1
933,622,50,0.12122865255882,1
933,623,50,0.112991215232427,1
934,621,50,0.10901434288559,1
934,622,50,0.104835671092691,1
934,623,50,0.106227955652486,1
941,617,50,0.122120933593928,1
942,617,50,0.154344564054749,1
943,615,50,0.14051685152531,1
943,616,50,0.183768444705836,1
943,617,50,0.149677210118866,1
944,616,50,0.134849189380147,1
944,617,50,0.111847175668849,1
947,618,50,0.107701241073286,1
948,618,50,0.150055701197974,1
948,619,50,0.109407724649006,1
949,618,50,0.1472972660659,1
949,619,50,0.115011105885057,1
949,620,50,0.109897087190299,1
932,621,51,0.115849958921789,1
932,622,51,0.121066037362924,1
933,621,51,0.149462828881119,1
933,622,51,0.146734420507214,1
933,623,51,0.136257346182466,1
933,624,51,0.10520879706382,1
934,622,51,0.135770850237327,1
934,623,51,0.142177614565467,1
934,624,51,0.123387422545018,1
935,622,51,0.109279977077939,1
935,623,51,0.114616742563425,1
935,624,51,0.104848197114023,1
940,617,51,0.114753246079946,1
941,617,51,0.146527735578211,1
942,618,51,0.119467748272435,1
943,617,51,0.166984546525904,1
943,618,51,0.105667865149249,1
944,616,51,0.131147733345612,1
944,617,51,0.112790598117853,1
945,617,51,0.104836507647989,1
947,618,51,0.105695226084535,1
948,618,51,0.137255010877004,1
948,619,51,0.123614240571531,1
948,620,51,0.13221451981592,1
948,621,51,0.117831390338844,1
949,618,51,0.139281404352818,1
949,619,51,0.131234445090786,1
949,620,51,0.157749767973023,1
949,621,51,0.144429476425247,1
949,622,51,0.107483067451521,1
950,620,51,0.116143165976765,1
950,621,51,0.116209688854076,1
933,621,52,0.161871052072466,1
933,622,52,0.171554915817552,1
933,623,52,0.154938942171141,1
933,624,52,0.111883181008883,1
934,623,52,0.169554678637394,1
934,624,52,0.139913762079747,1
935,622,52,0.132764616271862,1
935,623,52,0.132932986968208,1
935,624,52,0.120060732129997,1
936,627,52,0.121149280192128,1
941,618,52,0.109513164078788,1
943,618,52,0.119062242034231,1
944,616,52,0.125436469938307,1
944,617,52,0.11079114172264,1
945,617,52,0.106630918762583,1
947,620,52,0.107509368750095,1
947,621,52,0.105622088843333,1
948,618,52,0.116757967196503,1
948,619,52,0.128402326168048,1
948,620,52,0.179411229704165,1
948,621,52,0.180873439132817,1
948,622,52,0.137227906485343,1
948,623,52,0.10658362550306,1
949,619,52,0.130634568017567,1
949,620,52,0.192366738525651,1
949,621,52,0.201377554494104,1
949,622,52,0.155731494660636,1
949,623,52,0.123756756132129,1
950,620,52,0.119087450233883,1
950,621,52,0.130462929178522,1
950,622,52,0.120774759962169,1
950,623,52,0.116359064168119,1
934,624,53,0.137594708098417,1
935,623,53,0.147946689520911,1
935,624,53,0.124752335015456,1
936,622,53,0.113948714118582,1
939,617,53,0.132871851507018,1
939,618,53,0.110682467612371,1
940,617,53,0.133520282249742,1
941,618,53,0.117438019729499,1
943,618,53,0.120754303396611,1
944,616,53,0.129936568584908,1
944,617,53,0.108686368592421,1
945,617,53,0.103814884009712,1
946,617,53,0.118550236729534,1
947,619,53,0.106031565930685,1
947,620,53,0.140992539175996,1
947,621,53,0.145081565703142,1
947,622,53,0.120184631546692,1
947,623,53,0.109043365777402,1
948,619,53,0.127250422984667,1
948,620,53,0.227857474356122,1
948,621,53,0.266673707116056,1
948,622,53,0.198417732616582,1
948,623,53,0.14309687729746,1
948,624,53,0.118985870112543,1
949,620,53,0.211451888790168,1
949,621,53,0.271573690349257,1
949,622,53,0.226167342647964,1
949,623,53,0.171632213527104,1
949,624,53,0.135074958924019,1
949,625,53,0.103856254457724,1
950,622,53,0.157616744526541,1
950,623,53,0.159263263818488,1
939,617,54,0.136324928696488,1
940,617,54,0.139451972401081,1
941,618,54,0.129988356934901,1
943,618,54,0.118665045578656,1
944,617,54,0.106441310715734,1
948,620,54,0.248872211917348,1
948,621,54,0.328787714924441,1
948,622,54,0.246639947759687,1
948,623,54,0.175104163404101,1
949,622,54,0.2781107342225,1
949,623,54,0.20684800151624,1
