x,y,z,signal,mito.p
707,487,3,0.293004140123325,2
706,487,4,0.264487598502713,2
707,486,4,0.276182039251442,2
707,487,4,0.332508579041894,2
707,488,4,0.261814904711667,2
708,487,4,0.287089738781481,2
705,487,5,0.22430590672288,2
706,486,5,0.229569958821848,2
706,487,5,0.32087205022794,2
706,488,5,0.279722653587314,2
707,486,5,0.259371137066485,2
707,487,5,0.348063711337649,2
707,488,5,0.291052958545852,2
708,487,5,0.282163833488107,2
705,487,6,0.266225291168091,2
705,488,6,0.241330342436215,2
706,486,6,0.228137553069953,2
706,487,6,0.345210455451043,2
706,488,6,0.312063033705549,2
706,489,6,0.225260070541912,2
707,486,6,0.232266321550798,2
707,487,6,0.326914054137933,2
707,488,6,0.288471482744519,2
708,487,6,0.251583186478839,2
705,487,7,0.31015289910804,2
705,488,7,0.29108331992614,2
706,486,7,0.237782165640448,2
706,487,7,0.374773828909584,2
706,488,7,0.347339522147121,2
706,489,7,0.224778281614585,2
707,486,7,0.22483862513676,2
707,487,7,0.311956333865784,2
707,488,7,0.28102553827091,2
708,487,7,0.213604044412475,2
704,487,8,0.181179685296374,2
704,488,8,0.195321072600418,2
704,492,8,0.142874755134687,1
705,486,8,0.209103443832696,2
705,487,8,0.331755612349109,2
705,488,8,0.326037210336593,2
705,489,8,0.224340395109306,2
705,490,8,0.185847217697388,1
705,491,8,0.191089642053381,1
705,492,8,0.210628160673228,1
705,493,8,0.187396618496251,1
706,486,8,0.257634225186052,2
706,487,8,0.390625637176285,2
706,488,8,0.360854552614242,2
706,489,8,0.218465969956645,2
706,492,8,0.186044901291383,1
707,486,8,0.238261232974538,1
707,487,8,0.295355462831023,2
707,488,8,0.25576275059739,2
708,485,8,0.184033030415544,1
708,486,8,0.205409260252219,1
739,503,8,0.118973243704576,1
703,492,9,0.10916227932452,1
704,487,9,0.168470636819801,2
704,488,9,0.199597253278873,2
704,489,9,0.174731751293493,1
704,490,9,0.172110299302978,1
704,491,9,0.171080365882071,1
704,492,9,0.159281824192037,1
704,493,9,0.119651333121138,1
705,486,9,0.202490976133769,2
705,487,9,0.319701742828,2
705,488,9,0.332952221047624,2
705,489,9,0.226894922675967,2
705,490,9,0.170268974167262,1
705,491,9,0.190070561543209,1
705,492,9,0.217548123791624,1
705,493,9,0.182941704989823,1
705,494,9,0.13434726735531,1
705,495,9,0.122445550511834,1
706,486,9,0.286852670164048,2
706,487,9,0.385271638651657,2
706,488,9,0.346332554957668,2
706,489,9,0.213999054670205,2
706,490,9,0.146321396425397,1
706,491,9,0.147782178133007,1
706,492,9,0.167044767353302,1
706,493,9,0.15746652150313,1
706,494,9,0.136017845977632,1
706,495,9,0.129875700821413,1
707,485,9,0.204739168304307,1
707,486,9,0.26216362557623,1
707,487,9,0.278121999833849,2
707,488,9,0.223013841487807,2
707,489,9,0.135155335157069,1
708,484,9,0.124929227421774,1
708,485,9,0.175827895277732,1
708,486,9,0.17049554680422,1
708,487,9,0.139738420089249,1
708,488,9,0.10346028494992,1
709,485,9,0.109867171972837,1
739,503,9,0.10348199077139,1
703,489,10,0.134592846528644,1
703,490,10,0.152510444448668,1
703,491,10,0.132399554693807,1
704,487,10,0.152065240873048,1
704,488,10,0.196685260056265,2
704,489,10,0.170493650612211,1
704,490,10,0.146027196658133,1
704,491,10,0.149333296658749,1
704,492,10,0.150090847674568,1
704,493,10,0.112843468412698,1
705,486,10,0.190486898384007,1
705,487,10,0.296847699017844,2
705,488,10,0.328188674406521,2
705,489,10,0.227963549567931,2
705,490,10,0.153926955649898,1
705,491,10,0.169205444685581,1
705,492,10,0.194541291521809,1
705,493,10,0.158855827926063,1
705,494,10,0.104941121676544,1
706,485,10,0.203408286903399,1
706,486,10,0.29734525980106,2
706,487,10,0.363811429817115,2
706,488,10,0.322792468878581,2
706,489,10,0.203136372969279,2
706,490,10,0.134402368464283,1
706,491,10,0.132114200104563,1
706,492,10,0.134756275971696,1
706,493,10,0.115580878121612,1
707,484,10,0.140471989853187,1
707,485,10,0.228773268172145,1
707,486,10,0.258633027595795,1
707,487,10,0.248174145560265,2
707,488,10,0.18800241838098,2
707,489,10,0.114241318853743,1
708,484,10,0.117111662776573,1
708,485,10,0.150696056393553,1
708,486,10,0.134723460695866,1
708,487,10,0.109935234111896,1
708,546,10,0.199932901572644,1
708,547,10,0.194076880636542,1
709,547,10,0.205099288629067,1
710,548,10,0.187185204241295,1
711,548,10,0.171246383069513,1
730,544,10,0.156218871777355,1
733,541,10,0.107217176715547,1
740,498,10,0.117184052695042,1
740,503,10,0.114280659260899,1
741,498,10,0.14411593549949,1
703,489,11,0.122291334331132,1
704,487,11,0.142652956439963,1
704,488,11,0.191383797204362,1
704,489,11,0.172982079156245,1
704,490,11,0.130404950319323,1
704,491,11,0.126106784967632,1
704,492,11,0.135636086755826,1
704,493,11,0.10879659311851,1
705,486,11,0.169587560837648,1
705,487,11,0.274621183222029,2
705,488,11,0.315665330052073,2
705,489,11,0.226979916694262,1
705,490,11,0.145330123013337,1
705,491,11,0.147904928680426,1
705,492,11,0.168032393384262,1
705,493,11,0.141148595778354,1
705,543,11,0.213791098177148,1
706,485,11,0.189457578436986,1
706,486,11,0.26063025317688,2
706,487,11,0.325840541763027,2
706,488,11,0.292112595256879,2
706,489,11,0.18261400954842,1
706,490,11,0.116458446937543,1
706,491,11,0.112545253180003,1
706,492,11,0.108412257306385,1
706,543,11,0.178206032371255,1
707,484,11,0.131434102955284,1
707,485,11,0.199390322960315,1
707,486,11,0.215833319279204,1
707,487,11,0.211307577424197,2
707,488,11,0.158348797336872,1
707,543,11,0.116469768319245,1
707,544,11,0.182228647561796,1
708,485,11,0.115531565975302,1
708,486,11,0.104385838577754,1
708,544,11,0.122753804408107,1
708,545,11,0.159180244070697,1
708,546,11,0.188524339654479,1
708,547,11,0.193131327760046,1
709,545,11,0.120950704272482,1
709,546,11,0.178507448822224,1
709,547,11,0.200724862896394,1
709,548,11,0.192273267413668,1
710,546,11,0.140836828349828,1
710,547,11,0.174948329883156,1
710,548,11,0.191720025509806,1
711,547,11,0.122894814169168,1
711,548,11,0.175177010639466,1
712,548,11,0.162491352249031,1
713,548,11,0.157763755177608,1
714,548,11,0.160641059240518,1
718,547,11,0.11128999637805,1
719,547,11,0.121119030352546,1
720,547,11,0.114870040353643,1
721,547,11,0.122559165875397,1
724,546,11,0.110385947798414,1
729,544,11,0.138340837345899,1
730,543,11,0.141932537325313,1
730,544,11,0.147045540999642,1
731,542,11,0.113956343502901,1
731,543,11,0.147372266036899,1
732,542,11,0.12020837856309,1
733,542,11,0.111623358087339,1
740,497,11,0.104782901184482,1
740,498,11,0.159026306741761,1
740,499,11,0.126850962252751,1
741,497,11,0.147768124003997,1
741,498,11,0.180264493800166,1
741,499,11,0.125544642115397,1
704,487,12,0.13336432603402,1
704,488,12,0.173508172052164,1
704,489,12,0.158085170877239,1
704,490,12,0.113111969201202,1
704,491,12,0.10360179664416,1
704,492,12,0.114927885363994,1
705,486,12,0.146456628377865,1
705,487,12,0.248519475587353,1
705,488,12,0.282552463617429,1
705,489,12,0.201654443143731,1
705,490,12,0.127293622700265,1
705,491,12,0.124394423196683,1
705,492,12,0.140560832025853,1
705,493,12,0.114524464937,1
706,485,12,0.145949608942745,1
706,486,12,0.199234143663181,1
706,487,12,0.27302619573645,2
706,488,12,0.247222747950752,1
706,489,12,0.14858025188747,1
706,543,12,0.141968743438618,1
707,484,12,0.109103820840283,1
707,485,12,0.145296560414774,1
707,486,12,0.160408864951956,1
707,487,12,0.1687199526068,1
707,488,12,0.126575746713721,1
707,543,12,0.104004023585595,1
707,544,12,0.172175952162779,1
707,546,12,0.229061623206392,1
708,544,12,0.119764201161969,1
708,545,12,0.156996277038917,1
708,546,12,0.184451899230378,1
708,547,12,0.195000281528743,1
709,545,12,0.110700749134154,1
709,546,12,0.16669710612545,1
709,547,12,0.197415293979809,1
709,548,12,0.20350936509156,1
710,546,12,0.126086696486405,1
710,547,12,0.165811484070515,1
710,548,12,0.197713598445069,1
711,547,12,0.124697044287282,1
711,548,12,0.189792981341203,1
712,548,12,0.176856423285738,1
713,548,12,0.167650310694407,1
714,548,12,0.174464365912054,1
718,547,12,0.109528980550959,1
719,547,12,0.114831157263384,1
720,547,12,0.111044394896575,1
721,547,12,0.12097498668427,1
722,547,12,0.137635833156876,1
729,544,12,0.114405439849176,1
730,543,12,0.123502844868025,1
730,544,12,0.135743567380536,1
730,545,12,0.128911386798096,1
731,543,12,0.141645320006271,1
731,544,12,0.140791174738689,1
732,542,12,0.114118836004019,1
732,543,12,0.129660293409167,1
733,542,12,0.110391881763996,1
740,497,12,0.110567814920238,1
740,498,12,0.189305258448294,1
740,499,12,0.145291775318469,1
741,497,12,0.142439824458129,1
741,498,12,0.200652829908186,1
741,499,12,0.141443420173573,1
704,487,13,0.128371496316792,1
704,488,13,0.158223994440454,1
704,489,13,0.136706721380506,1
705,486,13,0.131515817676811,1
705,487,13,0.21647378601549,1
705,488,13,0.237215405002967,1
705,489,13,0.16522329646333,1
705,492,13,0.115230406067957,1
706,486,13,0.146003460795806,1
706,487,13,0.213670232667667,1
706,488,13,0.193252037112538,1
706,489,13,0.113204246827626,1
706,543,13,0.124813503938859,1
706,544,13,0.220901550513975,1
707,486,13,0.117574657094868,1
707,487,13,0.130218688493666,1
707,543,13,0.103226729864739,1
707,544,13,0.176153649910843,1
707,545,13,0.245892134247539,1
707,546,13,0.235038487343833,1
708,544,13,0.12539310291165,1
708,545,13,0.1774374388255,1
708,546,13,0.205233092860494,1
708,547,13,0.209654722620125,1
709,545,13,0.115487908942807,1
709,546,13,0.16972042812714,1
709,547,13,0.2108853512341,1
710,546,13,0.120078924419214,1
710,547,13,0.177116881989308,1
711,547,13,0.142871609686766,1
712,547,13,0.11213714804334,1
713,548,13,0.189625357967589,1
718,547,13,0.108513335494546,1
719,547,13,0.109754292777936,1
720,547,13,0.11014660375057,1
721,547,13,0.122465850920403,1
722,547,13,0.129226589680379,1
723,547,13,0.119937111565067,1
725,546,13,0.108323136281952,1
728,545,13,0.126441128235138,1
729,544,13,0.107843890482731,1
729,545,13,0.133486095023223,1
730,543,13,0.113050677583022,1
730,544,13,0.131411058645337,1
730,545,13,0.120080006364067,1
731,543,13,0.130842234504787,1
731,544,13,0.130185616674211,1
732,542,13,0.108880505191952,1
732,543,13,0.114799557781254,1
733,542,13,0.11278498762032,1
737,536,13,0.10664979145011,1
740,497,13,0.104804127380914,1
740,498,13,0.188019729498617,1
740,499,13,0.142718921613742,1
740,521,13,0.103032359029724,1
740,527,13,0.103901651525239,1
740,528,13,0.10722712614656,1
741,497,13,0.121782084081883,1
741,498,13,0.190271557896185,1
741,499,13,0.139327504126783,1
742,498,13,0.118275891208014,1
704,487,14,0.11446332947581,1
704,488,14,0.13551253311532,1
705,486,14,0.11780146396731,1
705,487,14,0.171264486126165,1
705,488,14,0.180152116538444,1
705,489,14,0.12217757396465,1
706,486,14,0.11063053425946,1
706,487,14,0.153543456393072,1
706,488,14,0.137217533199645,1
706,543,14,0.121758660533534,1
706,544,14,0.219830068179926,1
706,545,14,0.298996753808513,1
707,543,14,0.105593690579477,1
707,544,14,0.181459150536319,1
707,545,14,0.25515971692218,1
707,546,14,0.25242375724245,1
708,544,14,0.128595302744232,1
708,545,14,0.201418043770536,1
708,546,14,0.245101912958808,1
708,547,14,0.234640510103313,1
709,545,14,0.121835411693624,1
709,546,14,0.180676435937131,1
710,546,14,0.121282950574707,1
711,547,14,0.176927909724485,1
712,547,14,0.138063524841588,1
713,547,14,0.108291358334692,1
716,547,14,0.109247663735288,1
717,547,14,0.109527162437445,1
718,547,14,0.114487243803267,1
719,547,14,0.112825008425785,1
720,547,14,0.114005443721869,1
721,547,14,0.122941259719323,1
722,547,14,0.118440079127869,1
723,547,14,0.105603383466865,1
724,547,14,0.116281933769627,1
728,545,14,0.121065881205935,1
728,546,14,0.146710205019849,1
729,544,14,0.10487332723518,1
729,545,14,0.127246217900035,1
729,546,14,0.136267117148349,1
730,543,14,0.105490928126649,1
730,544,14,0.125941024323816,1
730,545,14,0.111195320626438,1
731,543,14,0.12042993186826,1
731,544,14,0.117744020503502,1
732,542,14,0.107269266225447,1
732,543,14,0.107558100884732,1
733,542,14,0.126332041424255,1
740,498,14,0.157020849456542,1
740,499,14,0.117573218219755,1
740,518,14,0.104727565840025,1
741,498,14,0.153642816854354,1
741,499,14,0.116156082390569,1
741,526,14,0.10758723531725,1
705,486,15,0.105683112763817,1
705,487,15,0.126997738668334,1
705,488,15,0.125290173147762,1
706,487,15,0.106313406987677,1
706,543,15,0.130878061379691,1
706,544,15,0.222393318229829,1
707,543,15,0.109787152670048,1
707,544,15,0.179944327356447,1
707,545,15,0.253156490451089,1
707,546,15,0.267624346248766,1
708,544,15,0.1259159165108,1
708,545,15,0.213914819128714,1
708,546,15,0.277982105479852,1
708,547,15,0.250326145025583,1
709,545,15,0.123595758276477,1
709,546,15,0.18512563855939,1
710,546,15,0.120583456496581,1
712,547,15,0.165791205970087,1
713,547,15,0.137467730158224,1
714,547,15,0.121891327049755,1
715,547,15,0.117738510392605,1
717,547,15,0.116453416451683,1
718,547,15,0.118216417703348,1
719,547,15,0.115278948583393,1
720,547,15,0.117703296991587,1
721,547,15,0.120629857430454,1
722,547,15,0.109298938998031,1
724,547,15,0.108196403731313,1
725,547,15,0.131393725219559,1
727,546,15,0.115526111634758,1
728,545,15,0.120175619057613,1
728,546,15,0.12859023879616,1
729,544,15,0.105399197049686,1
729,545,15,0.129600607977159,1
729,546,15,0.116192768128912,1
730,544,15,0.117907014937799,1
730,545,15,0.107823868925928,1
731,543,15,0.111436471633726,1
731,544,15,0.104653837433079,1
732,542,15,0.105133841709103,1
739,532,15,0.103489207455095,1
739,533,15,0.11032613967163,1
740,493,15,0.116109413759001,1
740,498,15,0.117469418438357,1
740,509,15,0.103249428398496,1
741,498,15,0.112424209205392,1
741,506,15,0.110825763957914,1
743,506,15,0.114831146109313,1
707,543,16,0.112754693164455,1
707,544,16,0.177001537744795,1
707,545,16,0.247190512686595,1
708,544,16,0.126643820006851,1
708,545,16,0.219569040618753,1
708,546,16,0.289958944989105,1
709,545,16,0.12687578005993,1
709,546,16,0.183811120180114,1
710,546,16,0.121231998780012,1
711,546,16,0.110799618816328,1
712,546,16,0.107062057055124,1
717,547,16,0.12047855246219,1
718,547,16,0.119974600396496,1
719,547,16,0.117004081765227,1
720,547,16,0.118937249518613,1
721,547,16,0.115649810278182,1
725,547,16,0.106344415304063,1
725,548,16,0.144754059880941,1
726,547,16,0.122611523082992,1
727,546,16,0.103860437234215,1
727,547,16,0.125263113372383,1
728,545,16,0.114705450887244,1
728,546,16,0.113650744275441,1
729,545,16,0.123661165746724,1
729,546,16,0.104430309857405,1
730,544,16,0.103060534212167,1
739,491,16,0.116055651138505,1
739,492,16,0.120966632285359,1
740,492,16,0.132563988003217,1
740,493,16,0.135216849856661,1
741,507,16,0.104176487825867,1
741,509,16,0.121144260860339,1
741,510,16,0.110043484367481,1
741,525,16,0.10575852543543,1
741,527,16,0.103927060498162,1
743,507,16,0.110295677904705,1
708,544,17,0.137172916917076,1
708,545,17,0.223338090321381,1
708,546,17,0.273493395139377,1
709,546,17,0.179951231726175,1
725,548,17,0.118840599496496,1
728,546,17,0.108344596713868,1
729,545,17,0.118576259176342,1
729,546,17,0.103072290602624,1
738,489,17,0.105704238573614,1
738,490,17,0.12254255746421,1
738,491,17,0.11110924466329,1
739,490,17,0.124938920309162,1
739,491,17,0.134008094375216,1
740,491,17,0.135474085033816,1
740,492,17,0.144837191169438,1
741,493,17,0.127051735524314,1
738,490,18,0.144918192030443,1
738,491,18,0.136671842601608,1
735,487,19,0.107144407558676,1
736,488,19,0.112094595263839,1
737,489,19,0.119559869741871,1
737,490,19,0.11748370680285,1
738,490,19,0.166841986349024,1
720,480,20,0.115704398299905,1
728,546,20,0.114315950740412,1
734,487,20,0.107511331866528,1
735,487,20,0.120582318781376,1
735,488,20,0.122188583032374,1
736,487,20,0.104673111667149,1
736,488,20,0.129789033692521,1
737,488,20,0.103120610036647,1
737,489,20,0.121272365361667,1
737,490,20,0.12060323266383,1
738,489,20,0.126448646078751,1
738,490,20,0.173785651867535,1
738,491,20,0.182756302027605,1
739,490,20,0.143005826618806,1
739,491,20,0.190114486273399,1
740,492,20,0.135313031407811,1
741,493,20,0.105592452477636,1
741,494,20,0.120723618548274,1
741,496,20,0.123291843313683,1
742,495,20,0.110124451766274,1
742,496,20,0.1115085938545,1
713,545,21,0.123454581204356,1
714,545,21,0.106727457243993,1
717,546,21,0.11775059025111,1
718,546,21,0.107140336322892,1
719,546,21,0.104580454802323,1
720,480,21,0.132406581758312,1
720,481,21,0.112016449844918,1
721,480,21,0.115083094256983,1
721,481,21,0.105212656372263,1
721,547,21,0.115785008768438,1
723,547,21,0.105232019838898,1
724,548,21,0.112740739422082,1
727,546,21,0.106288934956688,1
733,486,21,0.106685306011036,1
734,486,21,0.105912563151002,1
734,487,21,0.112381656425891,1
735,487,21,0.124853703209454,1
735,488,21,0.129375886915927,1
736,487,21,0.107443950125778,1
736,488,21,0.136306591404352,1
737,488,21,0.103379362167409,1
737,489,21,0.116768998572368,1
737,490,21,0.119263584163397,1
738,489,21,0.118394637444072,1
738,490,21,0.173219571628363,1
738,491,21,0.187142305685605,1
738,492,21,0.14474624087742,1
739,490,21,0.142429875027116,1
739,491,21,0.182832528946375,1
739,492,21,0.172036615512314,1
740,492,21,0.123576852126738,1
740,493,21,0.133864931878521,1
740,494,21,0.142608072459698,1
741,494,21,0.126146214607353,1
741,495,21,0.167248005674477,1
741,496,21,0.15050031360785,1
742,495,21,0.13010051111521,1
742,496,21,0.138799749274338,1
717,546,22,0.122948219859403,1
718,546,22,0.120227641643089,1
719,546,22,0.12212200438471,1
720,479,22,0.104190843114784,1
720,480,22,0.139301370139268,1
720,481,22,0.113674446675556,1
720,546,22,0.107007848271802,1
721,480,22,0.123204205780646,1
721,481,22,0.108152222457499,1
723,547,22,0.109394484767153,1
724,548,22,0.116761536499108,1
727,546,22,0.105985142688672,1
731,483,22,0.110295577518069,1
731,484,22,0.102920048692426,1
732,483,22,0.105503297990991,1
733,486,22,0.118579605397535,1
734,486,22,0.128709788125305,1
734,487,22,0.12377049794716,1
735,486,22,0.107026196718008,1
735,487,22,0.130307675669251,1
735,488,22,0.124313188100195,1
736,487,22,0.106779078282926,1
736,488,22,0.129312364483619,1
737,489,22,0.104925818291623,1
737,490,22,0.108078293277281,1
738,489,22,0.104009477926139,1
738,490,22,0.154159629563498,1
738,491,22,0.170738727852366,1
738,492,22,0.129819718540858,1
739,490,22,0.127924720017211,1
739,491,22,0.159397469596457,1
739,492,22,0.146307609994083,1
739,493,22,0.118680415888001,1
740,492,22,0.112725569886008,1
740,493,22,0.123724286632489,1
740,494,22,0.128172775394227,1
740,495,22,0.123471468467308,1
741,494,22,0.123484619116596,1
741,495,22,0.168977845874123,1
741,496,22,0.149209430704265,1
742,495,22,0.134569400672153,1
742,496,22,0.145622906213629,1
742,497,22,0.103679161278135,1
745,508,22,0.115268664530261,1
718,545,23,0.109393703982208,1
718,546,23,0.14567396954903,1
719,545,23,0.10748877833569,1
719,546,23,0.14910428128032,1
720,480,23,0.137070667551497,1
720,481,23,0.11332186650255,1
720,546,23,0.119945053263364,1
721,480,23,0.125934142262229,1
721,481,23,0.105810369555776,1
724,547,23,0.104653692430161,1
727,544,23,0.108866640682144,1
727,545,23,0.11365732517712,1
731,483,23,0.122193356974609,1
731,484,23,0.111883716404274,1
732,484,23,0.124191619884264,1
733,485,23,0.127252464179594,1
733,486,23,0.134736287877105,1
734,485,23,0.132823253221229,1
734,486,23,0.171173212366099,1
734,487,23,0.147158799432945,1
735,486,23,0.14198979116992,1
735,487,23,0.146427125861016,1
735,488,23,0.115709306090988,1
736,487,23,0.110053009943809,1
736,488,23,0.119970729933983,1
738,490,23,0.130851458921209,1
738,491,23,0.150219353722439,1
738,492,23,0.115287369906728,1
739,491,23,0.135783699726707,1
739,492,23,0.125543526708333,1
739,493,23,0.105052405839343,1
740,492,23,0.103056864522926,1
740,493,23,0.112469282804858,1
740,494,23,0.112310114216791,1
740,495,23,0.107336837585399,1
741,494,23,0.114468627659365,1
741,495,23,0.147352634872568,1
741,496,23,0.129089517306254,1
742,495,23,0.122043758579153,1
742,496,23,0.13254996733642,1
742,528,23,0.113149714576256,1
745,507,23,0.112671762649229,1
745,508,23,0.131640564802875,1
718,545,24,0.145028985414134,1
719,480,24,0.103493947935118,1
719,481,24,0.108152557079618,1
719,545,24,0.143814150964189,1
720,480,24,0.125937376942716,1
720,481,24,0.113922078197888,1
721,480,24,0.120638802995109,1
727,544,24,0.12471471233518,1
731,483,24,0.124787871884523,1
731,484,24,0.113808574375031,1
732,484,24,0.156041533208211,1
732,485,24,0.110405947047076,1
733,483,24,0.164526390129593,1
733,484,24,0.171586147215351,1
733,485,24,0.157323515163424,1
733,486,24,0.139975009081644,1
734,485,24,0.176016644461143,1
734,486,24,0.205244046157864,1
734,487,24,0.15605766199436,1
735,486,24,0.1740279517441,1
735,487,24,0.154925546132299,1
735,488,24,0.10348841551608,1
736,487,24,0.111341171254157,1
736,488,24,0.108465395298925,1
738,490,24,0.108870064981831,1
738,491,24,0.126243768109191,1
739,491,24,0.115989150569335,1
739,492,24,0.108450448844264,1
741,495,24,0.114389433757804,1
741,496,24,0.103597145396702,1
742,496,24,0.107997348186629,1
745,506,24,0.103479849189826,1
745,507,24,0.127814082790509,1
746,506,24,0.118108479761742,1
718,481,25,0.108558754870202,1
719,481,25,0.127498199509917,1
719,482,25,0.107963707509572,1
720,480,25,0.113412883718992,1
720,481,25,0.119707304247622,1
721,480,25,0.112425793083423,1
731,483,25,0.125774884441597,1
731,484,25,0.113658764052233,1
732,483,25,0.198002065020022,1
732,484,25,0.182639262364354,1
732,485,25,0.11955898857029,1
733,482,25,0.151101718788746,1
733,483,25,0.215549738187192,1
733,484,25,0.217527778766772,1
733,485,25,0.178138048310689,1
733,486,25,0.135722419262598,1
734,483,25,0.140548785629559,1
734,484,25,0.167429181243922,1
734,485,25,0.213353546293989,1
734,486,25,0.218664690879209,1
734,487,25,0.150106385294973,1
735,485,25,0.165259469114423,1
735,486,25,0.200921799167656,1
735,487,25,0.160044439155928,1
736,487,25,0.122655949746361,1
736,488,25,0.104501773988011,1
738,491,25,0.107199754057204,1
745,506,25,0.116324586935764,1
718,481,26,0.125695824388884,1
718,482,26,0.143563931697468,1
719,480,26,0.107538826650662,1
719,481,26,0.154205394715344,1
719,482,26,0.157238420758493,1
719,544,26,0.104646631903444,1
720,481,26,0.126558524828649,1
720,482,26,0.114040445195545,1
720,545,26,0.114044795283095,1
731,483,26,0.123720784254307,1
731,484,26,0.110811899448106,1
732,483,26,0.213439901108902,1
732,484,26,0.190616107138329,1
732,485,26,0.119721447609196,1
733,482,26,0.157062186442343,1
733,483,26,0.235141015561178,1
733,484,26,0.232585640285148,1
733,485,26,0.177815071041168,1
733,486,26,0.122285656909175,1
734,483,26,0.150234601337007,1
734,484,26,0.181550915075494,1
734,485,26,0.222574304180073,1
734,486,26,0.200949483570991,1
734,487,26,0.131362449205478,1
735,485,26,0.181971490463136,1
735,486,26,0.208355808785678,1
735,487,26,0.157689658686331,1
736,486,26,0.154374144650093,1
736,487,26,0.141675313302229,1
736,488,26,0.107147051073419,1
745,506,26,0.124306540274092,1
717,482,27,0.103507957447845,1
718,481,27,0.144952211945903,1
718,482,27,0.181974792068046,1
718,483,27,0.110612698900503,1
719,480,27,0.113974636178755,1
719,481,27,0.176725831426656,1
719,482,27,0.20480102878009,1
719,483,27,0.117411216497745,1
719,544,27,0.115564068937154,1
720,481,27,0.123895813930827,1
720,482,27,0.129157367517972,1
720,544,27,0.126334629168644,1
721,544,27,0.107400125782224,1
731,483,27,0.123622349580888,1
731,484,27,0.111667885137344,1
732,483,27,0.204285086088456,1
732,484,27,0.182365251464953,1
732,485,27,0.120130478533723,1
733,482,27,0.146807546594345,1
733,483,27,0.214987193788414,1
733,484,27,0.213925839350508,1
733,485,27,0.162340337286604,1
733,486,27,0.10886744377523,1
734,483,27,0.146949760995036,1
734,484,27,0.174577323185449,1
734,485,27,0.199849402199815,1
734,486,27,0.165816347245315,1
734,487,27,0.111764323232118,1
735,486,27,0.196007226410055,1
735,487,27,0.1485319882238,1
736,487,27,0.156681408778753,1
736,488,27,0.109127077077573,1
738,528,27,0.112872089757966,1
738,529,27,0.105446088762666,1
739,491,27,0.109781252166678,1
739,528,27,0.122729365839329,1
739,529,27,0.118226054820383,1
740,492,27,0.107372909849856,1
744,506,27,0.106435834067048,1
745,505,27,0.105141058392809,1
746,506,27,0.108514015892855,1
718,481,28,0.147042484784286,1
718,482,28,0.184581576455666,1
718,483,28,0.113725454240604,1
719,481,28,0.174820180765546,1
719,482,28,0.211463712105049,1
719,483,28,0.122802603467167,1
720,481,28,0.109315647795853,1
720,482,28,0.124111221343073,1
721,544,28,0.123103227979121,1
727,539,28,0.114955513996976,1
727,540,28,0.107836015708858,1
731,483,28,0.116638719027265,1
731,484,28,0.108942510670653,1
732,484,28,0.160738813515628,1
732,485,28,0.116900371216394,1
733,483,28,0.173711622300681,1
733,484,28,0.179100142673948,1
733,485,28,0.141226283880378,1
734,485,28,0.161289322672183,1
734,486,28,0.132674837157261,1
735,486,28,0.168357423002781,1
735,487,28,0.132250815161791,1
736,487,28,0.149591457623767,1
736,488,28,0.103617546191907,1
738,528,28,0.121396878252248,1
739,491,28,0.12507831272998,1
739,492,28,0.118133353339274,1
739,527,28,0.103357634037798,1
740,492,28,0.131830407085208,1
740,493,28,0.10568141734508,1
744,505,28,0.106389421979105,1
744,506,28,0.122091921856187,1
745,505,28,0.104659526009107,1
718,482,29,0.163939842170793,1
718,483,29,0.112926387773854,1
719,481,29,0.157663357387756,1
719,482,29,0.186090041815272,1
719,483,29,0.120176076374509,1
720,482,29,0.108113941687054,1
726,483,29,0.114116326338125,1
726,484,29,0.127933275189394,1
727,482,29,0.103223896730795,1
727,483,29,0.13731156201516,1
727,484,29,0.155515261847162,1
727,485,29,0.120694272188413,1
728,482,29,0.111809062209464,1
728,483,29,0.121217186174199,1
728,484,29,0.125100219324722,1
728,485,29,0.106476178340562,1
731,483,29,0.107351549804576,1
731,484,29,0.10420431723212,1
732,484,29,0.13187627262369,1
732,485,29,0.111047294954942,1
733,485,29,0.122502402809898,1
734,486,29,0.116982320173404,1
735,487,29,0.122406645113433,1
735,529,29,0.114542556839582,1
736,488,29,0.103577882316702,1
736,490,29,0.112681132068569,1
736,528,29,0.122662430261404,1
736,529,29,0.133166564361531,1
737,490,29,0.108406646808852,1
737,491,29,0.105488764236944,1
737,528,29,0.120803715929557,1
737,529,29,0.105313455708658,1
738,490,29,0.109564193951977,1
738,491,29,0.117563837646345,1
738,492,29,0.113033321849102,1
738,527,29,0.106365485343507,1
739,491,29,0.147098032056085,1
739,492,29,0.150118755159315,1
739,493,29,0.120126016905466,1
740,492,29,0.15855295029184,1
740,493,29,0.124954602932485,1
744,502,29,0.105482306030042,1
744,503,29,0.106430301648009,1
744,505,29,0.110572120391506,1
744,506,29,0.128720841809312,1
718,482,30,0.132791698355381,1
718,483,30,0.110476195383982,1
719,482,30,0.141147859609691,1
719,483,30,0.111209062441469,1
722,532,30,0.10930535258865,1
723,530,30,0.112388795031102,1
723,531,30,0.146502962387314,1
723,532,30,0.159292777489408,1
723,533,30,0.125267474614004,1
724,531,30,0.125161600175467,1
724,532,30,0.122268791954364,1
725,484,30,0.110858746544804,1
726,483,30,0.144501509413456,1
726,484,30,0.17544117249449,1
726,485,30,0.144173992437183,1
727,482,30,0.128834825257206,1
727,483,30,0.192191753465414,1
727,484,30,0.216016491427294,1
727,485,30,0.162222739919821,1
728,482,30,0.14535049034633,1
728,483,30,0.166100207189093,1
728,484,30,0.158526704763618,1
728,485,30,0.124930610526534,1
729,482,30,0.126948616141225,1
729,483,30,0.113148264547072,1
729,537,30,0.106784488007188,1
732,484,30,0.106340622920045,1
732,485,30,0.103403376881502,1
733,485,30,0.111001306721684,1
733,486,30,0.106418913341884,1
734,486,30,0.114790824143941,1
734,529,30,0.103407001954461,1
735,487,30,0.113096643508139,1
735,528,30,0.10966286286088,1
735,529,30,0.134691671594535,1
735,530,30,0.106982907769845,1
736,488,30,0.104039482376167,1
736,489,30,0.107895500367594,1
736,490,30,0.120018882056946,1
736,491,30,0.111669870561918,1
736,528,30,0.145616012997972,1
736,529,30,0.145445790725899,1
737,489,30,0.105471787741427,1
737,490,30,0.114350751440816,1
737,491,30,0.114487254957337,1
737,492,30,0.107464395537265,1
737,529,30,0.10943020010135,1
738,490,30,0.111726042461673,1
738,491,30,0.12517988169725,1
738,492,30,0.130534371000987,1
738,493,30,0.114754127251527,1
739,491,30,0.158363743791533,1
739,492,30,0.176233412670007,1
739,493,30,0.13926268782228,1
740,493,30,0.139587137429126,1
743,505,30,0.109178731578718,1
743,506,30,0.115396144403632,1
744,502,30,0.106603524365086,1
744,505,30,0.106273531185131,1
718,483,31,0.106912503275951,1
720,485,31,0.125041749686414,1
720,486,31,0.109027482380807,1
722,531,31,0.114111050462711,1
722,532,31,0.13859575247636,1
722,533,31,0.12045928938219,1
723,530,31,0.147164488008972,1
723,531,31,0.203822214464938,1
723,532,31,0.225245994104761,1
723,533,31,0.169297655387581,1
724,530,31,0.14532790335328,1
724,531,31,0.188713378843726,1
724,532,31,0.181826387158149,1
724,533,31,0.131063073949436,1
725,483,31,0.110531452649944,1
725,484,31,0.143191196118812,1
725,485,31,0.137714882055519,1
725,531,31,0.111787434466489,1
726,482,31,0.111682285042543,1
726,483,31,0.164597463867727,1
726,484,31,0.219751052743495,1
726,485,31,0.199366140935163,1
726,486,31,0.129401619356899,1
727,482,31,0.152740842931857,1
727,483,31,0.226020622002734,1
727,484,31,0.254038777438902,1
727,485,31,0.199571286602417,1
727,486,31,0.131092844163981,1
728,483,31,0.202948672268509,1
728,484,31,0.179973060242422,1
728,485,31,0.135760398873135,1
728,486,31,0.10758775955857,1
728,537,31,0.121494331367451,1
729,483,31,0.132572699332389,1
729,484,31,0.106750568478364,1
733,486,31,0.109021894191415,1
734,529,31,0.117429721100941,1
735,487,31,0.103785046870743,1
735,490,31,0.103652648052218,1
735,491,31,0.10376553840119,1
735,528,31,0.123050815001172,1
735,530,31,0.110660784099042,1
736,488,31,0.10376379836617,1
736,489,31,0.110950053767082,1
736,490,31,0.117616607554554,1
736,491,31,0.119489431785764,1
736,492,31,0.121030132409526,1
736,493,31,0.11612328942288,1
736,529,31,0.139546971620743,1
737,489,31,0.114492274289127,1
737,490,31,0.117612614397264,1
737,491,31,0.119532709579856,1
737,492,31,0.131492104122625,1
737,493,31,0.143051100991543,1
737,494,31,0.129986940367929,1
738,491,31,0.12731732510038,1
738,492,31,0.142136400274444,1
738,493,31,0.137269678479898,1
738,494,31,0.122743252657279,1
738,495,31,0.104581380590186,1
739,492,31,0.184859201273955,1
739,493,31,0.148592175588986,1
739,494,31,0.108890030768281,1
740,493,31,0.143874784492201,1
740,494,31,0.105298330788867,1
742,518,31,0.104061177043566,1
743,505,31,0.11144417909654,1
743,506,31,0.116678539059458,1
743,507,31,0.105931246219328,1
744,506,31,0.105077814812267,1
719,485,32,0.120568342730861,1
719,486,32,0.127276266966345,1
719,487,32,0.104028796776491,1
720,484,32,0.108139975287933,1
720,485,32,0.143855644106979,1
720,486,32,0.137885751263689,1
720,487,32,0.110293034389963,1
721,485,32,0.112194524582724,1
721,486,32,0.108638539937507,1
722,531,32,0.122236634768702,1
722,532,32,0.144160061002951,1
722,533,32,0.128657698615405,1
723,529,32,0.104938322004813,1
723,530,32,0.168545815255931,1
723,531,32,0.236809441447866,1
723,532,32,0.256019785001273,1
723,533,32,0.186983438257445,1
723,534,32,0.108251884078688,1
724,483,32,0.104144609491971,1
724,484,32,0.112250953026104,1
724,485,32,0.103998926175311,1
724,529,32,0.124987518594951,1
724,530,32,0.186506222499081,1
724,531,32,0.243201571635323,1
724,532,32,0.231445270410812,1
724,533,32,0.156671358961105,1
725,483,32,0.124109503616194,1
725,484,32,0.171772375578796,1
725,485,32,0.176080947678396,1
725,486,32,0.133255339609774,1
725,530,32,0.124225171328756,1
725,531,32,0.14738165776438,1
725,532,32,0.13360410509062,1
725,533,32,0.112375800538804,1
726,483,32,0.173105387407197,1
726,484,32,0.253454415677948,1
726,485,32,0.268720657544065,1
726,486,32,0.19138272641358,1
726,487,32,0.115556506477258,1
727,482,32,0.178292721808287,1
727,483,32,0.230561288004261,1
727,484,32,0.259954628809929,1
727,485,32,0.239240493452516,1
727,486,32,0.175925772247619,1
727,487,32,0.115059994176683,1
728,483,32,0.221624579681156,1
728,484,32,0.182922107287704,1
728,485,32,0.143570646447995,1
728,486,32,0.121928068558451,1
729,483,32,0.146779449490397,1
729,484,32,0.112920710351897,1
732,488,32,0.119829987870617,1
732,489,32,0.141189776607166,1
732,490,32,0.109724065246495,1
733,486,32,0.108027475331434,1
733,488,32,0.107834097208707,1
733,489,32,0.138591447005092,1
733,490,32,0.13364317780008,1
733,491,32,0.106711551539257,1
734,489,32,0.107102568639697,1
734,490,32,0.129140346406172,1
734,491,32,0.136363834094889,1
734,492,32,0.111008947260074,1
735,490,32,0.109987513240997,1
735,491,32,0.131809337045765,1
735,492,32,0.133538842623291,1
735,493,32,0.109351307359697,1
736,489,32,0.109438844506098,1
736,490,32,0.111605098873698,1
736,491,32,0.122930997974332,1
736,492,32,0.147701444969697,1
736,493,32,0.161640854362549,1
736,494,32,0.139910181623071,1
736,528,32,0.135459696282687,1
737,490,32,0.115649018339166,1
737,491,32,0.118605616690273,1
737,492,32,0.145518459496134,1
737,493,32,0.185738900517379,1
737,494,32,0.188176934970251,1
737,495,32,0.139192350252809,1
737,496,32,0.107243701095535,1
738,491,32,0.125642586009708,1
738,492,32,0.145274018038006,1
738,493,32,0.152221565173101,1
738,494,32,0.15119553567692,1
738,495,32,0.139572213282606,1
738,496,32,0.140236739349268,1
738,497,32,0.128341335709775,1
739,492,32,0.178190728986333,1
739,493,32,0.147756679927518,1
739,494,32,0.113460890839037,1
739,495,32,0.107800188833954,1
739,496,32,0.125608633018673,1
739,497,32,0.129371458749882,1
739,503,32,0.119875730714322,1
740,494,32,0.110517130823239,1
740,497,32,0.103327573817416,1
741,518,32,0.105932774327006,1
743,506,32,0.104748647033539,1
718,486,33,0.134811934784201,1
718,487,33,0.106365351494659,1
719,485,33,0.138849485275333,1
719,486,33,0.165625880335025,1
719,487,33,0.145306688310918,1
720,484,33,0.116270132762887,1
720,485,33,0.147173076643367,1
720,486,33,0.161098844607823,1
720,487,33,0.149487434760956,1
720,488,33,0.112796487467152,1
721,485,33,0.120382482451747,1
721,486,33,0.121666260212332,1
721,487,33,0.105866128754917,1
722,486,33,0.111608155089054,1
722,531,33,0.113517932756302,1
722,532,33,0.127441402982206,1
722,533,33,0.117578650252158,1
722,534,33,0.10361413304629,1
723,486,33,0.11107712093984,1
723,487,33,0.104453956487167,1
723,530,33,0.160587196233386,1
723,531,33,0.223951988061397,1
723,532,33,0.233164201929369,1
723,533,33,0.172028004569778,1
723,534,33,0.112343520658365,1
724,483,33,0.118983628144344,1
724,484,33,0.122136170054426,1
724,485,33,0.114627628936372,1
724,486,33,0.11268445598162,1
724,487,33,0.111301540841165,1
724,529,33,0.138683200390196,1
724,530,33,0.191793463910915,1
724,531,33,0.249927810854802,1
724,532,33,0.239984514580646,1
724,533,33,0.163600234181944,1
725,483,33,0.134144620199879,1
725,484,33,0.187361683946999,1
725,485,33,0.20109479880332,1
725,486,33,0.163349390287267,1
725,487,33,0.130444636502669,1
725,488,33,0.104865073222904,1
725,530,33,0.127172768344855,1
725,531,33,0.157827065682574,1
725,532,33,0.150514624280484,1
725,533,33,0.122485281311462,1
726,483,33,0.167421139158988,1
726,484,33,0.256722625300591,1
726,485,33,0.30795467717398,1
726,486,33,0.239390024923548,1
726,487,33,0.156526501045672,1
726,488,33,0.110493283420206,1
727,483,33,0.201370750511013,1
727,484,33,0.226240134112976,1
727,485,33,0.248955845139025,1
727,486,33,0.202426661762445,1
727,487,33,0.142882540675996,1
727,488,33,0.103277726275716,1
728,484,33,0.160068710413646,1
728,485,33,0.142572557898773,1
728,486,33,0.129456586617025,1
728,487,33,0.114422672888318,1
729,484,33,0.109906980850959,1
731,488,33,0.115045560809272,1
731,489,33,0.126537510559559,1
732,488,33,0.140343573037881,1
732,489,33,0.186596336235801,1
732,490,33,0.153478573164145,1
733,488,33,0.120614922129864,1
733,489,33,0.164772069689563,1
733,490,33,0.168078649315216,1
733,491,33,0.14171649413104,1
734,489,33,0.113726547339527,1
734,490,33,0.147538707079025,1
734,491,33,0.178469134589567,1
734,492,33,0.153106339518667,1
735,490,33,0.11715119280293,1
735,491,33,0.158209984927727,1
735,492,33,0.17047591563989,1
735,493,33,0.140080894674252,1
735,494,33,0.103149577158105,1
736,489,33,0.105369605300272,1
736,490,33,0.110637550169894,1
736,491,33,0.129224024244131,1
736,492,33,0.164311094258054,1
736,493,33,0.194248809481424,1
736,494,33,0.1790294927905,1
736,495,33,0.122870386754461,1
737,490,33,0.112247327953145,1
737,491,33,0.122025566289936,1
737,492,33,0.153523524068834,1
737,493,33,0.208818435019641,1
737,494,33,0.227043383356217,1
737,495,33,0.178959422918724,1
737,496,33,0.165492801118191,1
737,497,33,0.147209182370037,1
738,492,33,0.147366923237061,1
738,493,33,0.161351049299118,1
738,494,33,0.17007517218985,1
738,495,33,0.169024202191712,1
738,496,33,0.205650255102519,1
738,497,33,0.211065333317985,1
738,498,33,0.147168124236002,1
738,503,33,0.120398131612858,1
739,493,33,0.140619100890889,1
739,494,33,0.121922145746939,1
739,495,33,0.120635981015236,1
739,496,33,0.150862910136293,1
739,497,33,0.169557824085315,1
739,498,33,0.139198730381217,1
739,499,33,0.104469549877925,1
739,502,33,0.104359526125109,1
739,503,33,0.141040077825074,1
739,504,33,0.103619955471165,1
740,497,33,0.106625352881333,1
740,503,33,0.1110979567438,1
742,505,33,0.102926640748176,1
742,506,33,0.103880179939252,1
718,487,34,0.1400591442365,1
719,486,34,0.192914648783747,1
719,487,34,0.190442728264263,1
719,488,34,0.14800483569117,1
720,485,34,0.141918449734091,1
720,486,34,0.169175797165813,1
720,487,34,0.174621470997052,1
720,488,34,0.137666339540083,1
721,485,34,0.119124080201873,1
721,486,34,0.119902243940239,1
721,487,34,0.110682601461219,1
721,490,34,0.117593641323101,1
721,491,34,0.110244569953022,1
722,485,34,0.113475625366355,1
722,486,34,0.109104679703723,1
722,490,34,0.103409154690095,1
722,532,34,0.10501797322327,1
723,486,34,0.108100177563881,1
723,487,34,0.10738980826688,1
723,530,34,0.136161945416261,1
723,531,34,0.185841830281267,1
723,532,34,0.184780843927693,1
723,533,34,0.143983425140258,1
723,534,34,0.111871803856828,1
724,484,34,0.114918326325454,1
724,485,34,0.113075361541353,1
724,486,34,0.118731903078086,1
724,487,34,0.128831200184247,1
724,488,34,0.11892817010511,1
724,529,34,0.12426761256755,1
724,530,34,0.164014652522591,1
724,531,34,0.21258889013517,1
724,532,34,0.209073506307092,1
724,533,34,0.154898441740638,1
724,534,34,0.107174434316846,1
725,484,34,0.173673765384921,1
725,485,34,0.19198384158864,1
725,486,34,0.171819936536015,1
725,487,34,0.157358037012062,1
725,488,34,0.141271312863561,1
725,489,34,0.103652726130713,1
725,530,34,0.107867068641526,1
725,531,34,0.135663548077748,1
725,532,34,0.138933832357531,1
725,533,34,0.115482443448193,1
726,483,34,0.149793134375052,1
726,484,34,0.226082794792495,1
726,485,34,0.286646609863,1
726,486,34,0.245203571158643,1
726,487,34,0.187172354751915,1
726,488,34,0.155367671184422,1
726,489,34,0.11262525017465,1
727,484,34,0.182371999677692,1
727,485,34,0.221669151347443,1
727,486,34,0.195454252203888,1
727,487,34,0.152843136913719,1
727,488,34,0.127300794767688,1
728,485,34,0.132894405037856,1
728,486,34,0.125455532245035,1
728,487,34,0.116048824847272,1
728,488,34,0.108561164149461,1
731,488,34,0.111484300288641,1
731,489,34,0.133655893440612,1
731,490,34,0.107396266473782,1
731,506,34,0.106525010861834,1
731,507,34,0.109031018221201,1
731,508,34,0.106018392973257,1
732,488,34,0.140057125349714,1
732,489,34,0.196837669277522,1
732,490,34,0.174765191197279,1
732,491,34,0.11016571067358,1
732,505,34,0.108080144853008,1
732,506,34,0.105251606386946,1
733,488,34,0.120920086348569,1
733,489,34,0.162101160549819,1
733,490,34,0.173578375772787,1
733,491,34,0.153266065810266,1
733,492,34,0.114790522984033,1
734,489,34,0.110056534630132,1
734,490,34,0.145036469795535,1
734,491,34,0.189980592809408,1
734,492,34,0.177050202955008,1
734,493,34,0.114707915936856,1
734,510,34,0.104312009784172,1
734,511,34,0.104874609953304,1
735,490,34,0.120589925857554,1
735,491,34,0.171925052497749,1
735,492,34,0.190878584728685,1
735,493,34,0.157385933342738,1
735,494,34,0.115771635037738,1
736,490,34,0.110142309433372,1
736,491,34,0.135082644078692,1
736,492,34,0.168060390101574,1
736,493,34,0.197956734876932,1
736,494,34,0.18846774390004,1
736,495,34,0.135175379022013,1
736,496,34,0.11701853744078,1
737,491,34,0.122769587418066,1
737,492,34,0.151701729710812,1
737,493,34,0.199297030313462,1
737,494,34,0.22063840367938,1
737,495,34,0.187127191919884,1
737,496,34,0.204429419762568,1
737,497,34,0.202456175433365,1
737,498,34,0.136540838041913,1
737,503,34,0.103738088233339,1
738,492,34,0.143858521857205,1
738,493,34,0.156401910076596,1
738,494,34,0.167206936386372,1
738,495,34,0.170307701100532,1
738,496,34,0.232646251505019,1
738,497,34,0.269633105138894,1
738,498,34,0.196257211441292,1
738,499,34,0.116183142165947,1
738,502,34,0.104529480699487,1
738,503,34,0.130410705819775,1
738,504,34,0.103836143668356,1
739,494,34,0.128603523294295,1
739,495,34,0.125179658615837,1
739,496,34,0.149886438175976,1
739,497,34,0.180052187219559,1
739,498,34,0.158020856505915,1
739,499,34,0.11978731239634,1
739,502,34,0.108578553345592,1
739,503,34,0.138071611542803,1
739,504,34,0.104670044297722,1
740,503,34,0.106718991304376,1
719,487,35,0.22542256304303,1
719,489,35,0.11772107658019,1
720,487,35,0.178341877797608,1
720,488,35,0.151899826005421,1
720,489,35,0.110923429000459,1
720,490,35,0.1197511955156,1
720,491,35,0.126564034939546,1
720,492,35,0.106957376102145,1
721,486,35,0.115278613961274,1
721,487,35,0.109367569994693,1
721,489,35,0.105495166673493,1
721,490,35,0.146524244354099,1
721,491,35,0.160256199187073,1
721,492,35,0.141313174090682,1
721,493,35,0.111844532154107,1
722,490,35,0.120687758211158,1
722,491,35,0.130045454622519,1
722,492,35,0.123835325405734,1
722,493,35,0.10495962627974,1
723,486,35,0.105202283086565,1
723,487,35,0.11021763287242,1
723,488,35,0.111943825690966,1
723,496,35,0.105722386246549,1
723,530,35,0.103243048270088,1
723,531,35,0.139810832315859,1
723,532,35,0.139612066777012,1
723,533,35,0.123820546262133,1
723,534,35,0.11553778994672,1
724,485,35,0.116173672359972,1
724,486,35,0.128063722045557,1
724,487,35,0.142695163443274,1
724,488,35,0.138438357385525,1
724,489,35,0.108813324224473,1
724,496,35,0.108594782518377,1
724,497,35,0.12083520387098,1
724,530,35,0.120138810624493,1
724,531,35,0.156633758588969,1
724,532,35,0.165446991350063,1
724,533,35,0.149944394727034,1
724,534,35,0.133113515601556,1
725,485,35,0.17531251028963,1
725,486,35,0.175586063872135,1
725,487,35,0.178670744416428,1
725,488,35,0.175642012690477,1
725,489,35,0.133388563829526,1
725,531,35,0.104658131750276,1
725,532,35,0.116346883922978,1
725,533,35,0.109085160080099,1
726,484,35,0.193037187403824,1
726,485,35,0.236057456313298,1
726,486,35,0.225819023329943,1
726,487,35,0.207191859206003,1
726,488,35,0.19959790021497,1
726,489,35,0.149690171148952,1
727,485,35,0.187122161434024,1
727,486,35,0.175129137368269,1
727,487,35,0.152876911439624,1
727,488,35,0.142657027675748,1
727,489,35,0.113491631457727,1
728,485,35,0.128624414868608,1
728,486,35,0.122028923665199,1
728,487,35,0.113417412271673,1
728,488,35,0.112938579173066,1
729,488,35,0.105114902097153,1
730,505,35,0.108485182620245,1
730,506,35,0.126387276382076,1
730,507,35,0.136451817404116,1
730,508,35,0.135798345021461,1
730,509,35,0.120759244649905,1
730,510,35,0.103948108229464,1
731,488,35,0.104496118874196,1
731,489,35,0.127513670205898,1
731,490,35,0.111336151922368,1
732,487,35,0.103859076437597,1
732,488,35,0.133431707774771,1
732,489,35,0.181557150200983,1
732,490,35,0.176496682199379,1
732,491,35,0.120661010749758,1
732,504,35,0.114349056022078,1
733,488,35,0.126558792526344,1
733,489,35,0.153086920281679,1
733,490,35,0.168207088438663,1
733,491,35,0.153365816664021,1
733,492,35,0.123978465594288,1
733,504,35,0.110499931246309,1
733,505,35,0.129669127433116,1
734,489,35,0.11235887981364,1
734,490,35,0.140807827766158,1
734,491,35,0.181568304271625,1
734,492,35,0.183830717882233,1
734,493,35,0.131742501854476,1
734,505,35,0.109212483796482,1
734,506,35,0.11263791004483,1
734,507,35,0.119700645267448,1
735,490,35,0.128574255012929,1
735,491,35,0.181092728161646,1
735,492,35,0.203167983605479,1
735,493,35,0.17167815714408,1
735,494,35,0.123234243692886,1
735,508,35,0.111857470876052,1
735,509,35,0.110304846550773,1
736,491,35,0.14867819578178,1
736,492,35,0.176904196170299,1
736,493,35,0.191454157081974,1
736,494,35,0.175980494118191,1
736,495,35,0.134853215999649,1
736,496,35,0.127708710285151,1
736,497,35,0.122022945083335,1
737,492,35,0.148538658358044,1
737,493,35,0.175426516045666,1
737,494,35,0.185523348102215,1
737,495,35,0.171565846806781,1
737,496,35,0.207967580202899,1
737,497,35,0.2289832770142,1
737,498,35,0.163883781811744,1
737,502,35,0.123260254985624,1
737,503,35,0.133329346868486,1
737,504,35,0.103005990806726,1
738,493,35,0.142301859758353,1
738,494,35,0.149120331987974,1
738,495,35,0.153446471748836,1
738,496,35,0.211765496640349,1
738,497,35,0.270395865105704,1
738,498,35,0.215543469599491,1
738,499,35,0.128649678838613,1
738,502,35,0.131581570923247,1
738,503,35,0.142428469614215,1
738,504,35,0.105354915389236,1
739,495,35,0.121114780651632,1
739,496,35,0.132319379234029,1
739,497,35,0.163940087560347,1
739,498,35,0.156248887381453,1
739,499,35,0.123867716826879,1
739,502,35,0.110086684083079,1
739,503,35,0.124269084904875,1
741,505,35,0.106203740165121,1
720,489,36,0.117306067073799,1
720,490,36,0.133926669659527,1
720,491,36,0.152414597519638,1
720,492,36,0.144840994707527,1
720,493,36,0.110208096142021,1
721,489,36,0.106968619405352,1
721,490,36,0.161910860950589,1
721,491,36,0.203738023539729,1
721,492,36,0.198671666188826,1
721,493,36,0.150762958509266,1
722,490,36,0.130064014996068,1
722,491,36,0.161437326035537,1
722,492,36,0.16358817663158,1
722,493,36,0.136911532425642,1
722,494,36,0.116646069559818,1
722,495,36,0.10857191667356,1
722,496,36,0.113388433996144,1
722,497,36,0.11845954298114,1
723,487,36,0.111246027031578,1
723,488,36,0.12036099971169,1
723,489,36,0.110951381101489,1
723,491,36,0.114800517031329,1
723,492,36,0.122847643604421,1
723,493,36,0.107823578920091,1
723,494,36,0.117031632319714,1
723,495,36,0.128937041160573,1
723,496,36,0.140239148628527,1
723,497,36,0.146199092040803,1
723,532,36,0.106968998643754,1
723,533,36,0.107563421376428,1
723,534,36,0.111704403564627,1
724,486,36,0.132082399849161,1
724,487,36,0.14453422430265,1
724,488,36,0.142749974546411,1
724,489,36,0.116457755385163,1
724,491,36,0.131322595711072,1
724,492,36,0.145434625501186,1
724,495,36,0.107647400374295,1
724,496,36,0.128801998827306,1
724,497,36,0.144330160580247,1
724,498,36,0.104144921805949,1
724,531,36,0.106403386875549,1
724,532,36,0.121199808132138,1
724,533,36,0.133424859175397,1
724,534,36,0.142230005235275,1
724,535,36,0.111992658212238,1
725,486,36,0.16535318561596,1
725,487,36,0.177655166284439,1
725,488,36,0.180224249913288,1
725,489,36,0.142735061553962,1
725,490,36,0.104457659638621,1
725,491,36,0.125457974986506,1
725,492,36,0.133894122081392,1
726,485,36,0.172996880607988,1
726,486,36,0.18534875343445,1
726,487,36,0.196209918181769,1
726,488,36,0.203294604615412,1
726,489,36,0.15810029579703,1
727,486,36,0.14626570415068,1
727,487,36,0.140242706777062,1
727,488,36,0.139162814273748,1
727,489,36,0.116423925088905,1
728,486,36,0.113223309134354,1
728,487,36,0.105689950209121,1
728,488,36,0.107938588542485,1
728,489,36,0.103567453260652,1
729,504,36,0.113585849892444,1
729,505,36,0.114835373502086,1
729,506,36,0.113859169239465,1
729,507,36,0.111197674135343,1
729,508,36,0.106729163816802,1
730,503,36,0.118367700363471,1
731,489,36,0.111804756738196,1
731,490,36,0.105242158889112,1
731,503,36,0.113103213255747,1
732,488,36,0.124439574874644,1
732,489,36,0.151858366324843,1
732,490,36,0.155397831791439,1
732,491,36,0.118669953369738,1
732,503,36,0.112723651385858,1
733,489,36,0.146262859862666,1
733,490,36,0.152194215391886,1
733,491,36,0.140212791559599,1
733,492,36,0.119656240912221,1
733,503,36,0.113182764087569,1
734,490,36,0.134096244995503,1
734,491,36,0.160131853607552,1
734,492,36,0.167896692960827,1
734,493,36,0.134140203187905,1
734,503,36,0.103699762846612,1
734,504,36,0.124182942017304,1
735,491,36,0.180043754742153,1
735,492,36,0.202560845232273,1
735,493,36,0.173023393833905,1
735,494,36,0.121126927434561,1
735,507,36,0.121210627580662,1
736,492,36,0.187382809756796,1
736,493,36,0.177829972879546,1
736,494,36,0.149319621768141,1
736,495,36,0.123120884872948,1
736,496,36,0.125319976824518,1
736,497,36,0.130796000881975,1
736,498,36,0.110565082172931,1
736,502,36,0.103704670637694,1
736,503,36,0.111305121297841,1
736,508,36,0.109507698584174,1
737,493,36,0.148568049334187,1
737,494,36,0.145693779178491,1
737,495,36,0.1456750068776,1
737,496,36,0.183405970872171,1
737,497,36,0.220475688096849,1
737,498,36,0.180488501000877,1
737,499,36,0.11605401149012,1
737,502,36,0.14132165118437,1
737,503,36,0.146539313503537,1
737,504,36,0.105955528631116,1
737,509,36,0.105179127235912,1
738,494,36,0.126918254760937,1
738,495,36,0.132321152731262,1
738,496,36,0.170309998839084,1
738,497,36,0.227252767570316,1
738,498,36,0.20550476140506,1
738,499,36,0.134326732711257,1
738,501,36,0.103169197168365,1
738,502,36,0.147971239630395,1
738,503,36,0.144316050680885,1
738,504,36,0.103851246280006,1
738,510,36,0.112008619687327,1
739,496,36,0.114604026922893,1
739,497,36,0.140566130209408,1
739,498,36,0.148223555862397,1
739,499,36,0.1258832797001,1
739,502,36,0.1125542210528,1
739,503,36,0.114898248998298,1
739,504,36,0.103928276291862,1
740,504,36,0.11045376454792,1
740,505,36,0.106529528260444,1
741,504,36,0.107097114299153,1
741,505,36,0.113195055873417,1
741,506,36,0.104490419144097,1
720,491,37,0.158936839941139,1
720,492,37,0.176162863173194,1
720,493,37,0.136367570708554,1
721,490,37,0.150475038483775,1
721,491,37,0.212452007380247,1
721,492,37,0.232625103387081,1
721,493,37,0.180120026277206,1
721,494,37,0.120333538389768,1
722,490,37,0.125411295200867,1
722,491,37,0.173951345586928,1
722,492,37,0.192359823001853,1
722,493,37,0.17225046135467,1
722,494,37,0.149314747439271,1
722,495,37,0.1283282185227,1
722,496,37,0.134881960039694,1
722,497,37,0.152213656937015,1
722,498,37,0.104852926439975,1
723,488,37,0.112928919747889,1
723,489,37,0.10586200174878,1
723,490,37,0.103930440181567,1
723,491,37,0.129459787835299,1
723,492,37,0.145147095868166,1
723,493,37,0.14058005048957,1
723,494,37,0.156594652417297,1
723,495,37,0.156905616752736,1
723,496,37,0.1639776433162,1
723,497,37,0.182159403091248,1
723,498,37,0.128785624651603,1
724,488,37,0.133242445504111,1
724,489,37,0.11674940087025,1
724,490,37,0.109610884891686,1
724,491,37,0.152171159927868,1
724,492,37,0.168220283704233,1
724,493,37,0.124422910693104,1
724,494,37,0.124145843578347,1
724,495,37,0.131910794472328,1
724,496,37,0.140221179420722,1
724,497,37,0.156534955831219,1
724,498,37,0.127603003157673,1
724,533,37,0.110604746048135,1
724,534,37,0.132580618722545,1
725,487,37,0.157220908867584,1
725,488,37,0.161746606106309,1
725,489,37,0.137732505487134,1
725,490,37,0.11059701627718,1
725,491,37,0.136660409679199,1
725,492,37,0.145756364668866,1
725,497,37,0.10389420060605,1
726,487,37,0.164862551510614,1
726,488,37,0.175969641207456,1
726,489,37,0.145925482687945,1
727,487,37,0.126287246676555,1
727,488,37,0.130156850326025,1
727,489,37,0.116130695725787,1
728,505,37,0.108739696204163,1
728,506,37,0.107072162643126,1
729,503,37,0.131707511534871,1
730,502,37,0.113469367932725,1
731,502,37,0.125581829786919,1
732,489,37,0.122512586476394,1
732,490,37,0.126448177607784,1
732,491,37,0.111180809180532,1
732,500,37,0.103488471286433,1
732,501,37,0.123163359573954,1
733,490,37,0.137243332565041,1
733,491,37,0.126186425032019,1
733,492,37,0.111208939746692,1
733,500,37,0.115243434022468,1
733,501,37,0.137989885667207,1
734,491,37,0.139996915676386,1
734,492,37,0.143517586533949,1
734,493,37,0.126725456649883,1
734,500,37,0.10909941498238,1
734,501,37,0.126372274157062,1
734,502,37,0.130431329696392,1
734,503,37,0.130420777945565,1
735,492,37,0.189393286373804,1
735,493,37,0.162469992203751,1
735,494,37,0.112840222578141,1
735,500,37,0.103019241842649,1
735,501,37,0.118981564641275,1
735,502,37,0.116425007033757,1
735,503,37,0.109218317375428,1
735,504,37,0.110794911798517,1
736,493,37,0.162774453716005,1
736,494,37,0.121552444075498,1
736,495,37,0.104256205968748,1
736,496,37,0.112902027283571,1
736,497,37,0.125459882332586,1
736,498,37,0.119611055772049,1
736,499,37,0.110043071666867,1
736,500,37,0.108914112406798,1
736,501,37,0.119107137168567,1
736,502,37,0.123861939018287,1
736,503,37,0.120914888551649,1
737,494,37,0.112976871097581,1
737,495,37,0.114342943591366,1
737,496,37,0.141409902191293,1
737,497,37,0.177242499132883,1
737,498,37,0.17236992145125,1
737,499,37,0.134266980354826,1
737,500,37,0.108281910836858,1
737,501,37,0.11669610672072,1
737,503,37,0.146359019105674,1
737,504,37,0.105613165586819,1
738,496,37,0.126857308918947,1
738,497,37,0.163647449362973,1
738,498,37,0.170211329930182,1
738,499,37,0.131270595433738,1
738,501,37,0.112458072963862,1
738,502,37,0.150103105998204,1
738,503,37,0.1393515857653,1
738,504,37,0.106497170301511,1
739,498,37,0.135729412864891,1
739,499,37,0.123189672026599,1
739,502,37,0.113953967685854,1
739,503,37,0.117782513201289,1
739,504,37,0.125111161468022,1
739,505,37,0.121492134015534,1
740,503,37,0.115649207958367,1
740,506,37,0.10719065233556,1
741,506,37,0.105066683049766,1
720,492,38,0.197350288056105,1
721,491,38,0.198235898956969,1
721,492,38,0.235333713285596,1
721,493,38,0.191448936976913,1
721,494,38,0.129337762302471,1
721,496,38,0.107457636170456,1
722,491,38,0.171887585974461,1
722,492,38,0.19966908549381,1
722,493,38,0.19995159579504,1
722,494,38,0.171313686731769,1
722,495,38,0.144665418481545,1
722,496,38,0.162364162381496,1
722,497,38,0.177355233324865,1
722,498,38,0.128124801736394,1
723,490,38,0.114064917226534,1
723,491,38,0.141896264287584,1
723,492,38,0.157352393052317,1
723,493,38,0.176849072753184,1
723,494,38,0.187820540105086,1
723,495,38,0.176716607010235,1
723,496,38,0.190885812566462,1
723,497,38,0.211106692611927,1
723,498,38,0.170356310540392,1
723,499,38,0.125937778489259,1
724,489,38,0.113607745333115,1
724,490,38,0.125445259345973,1
724,491,38,0.155600612795718,1
724,492,38,0.163648620540391,1
724,493,38,0.151216962646624,1
724,494,38,0.16157124180767,1
724,495,38,0.154852966594629,1
724,496,38,0.149968152897502,1
724,497,38,0.161985648994246,1
724,498,38,0.156970533443875,1
724,499,38,0.1357240142947,1
725,489,38,0.124683414012957,1
725,490,38,0.118200891237014,1
725,491,38,0.133685039027201,1
725,492,38,0.137832903276986,1
725,493,38,0.118013101303679,1
725,494,38,0.11989809462596,1
725,495,38,0.111306203242694,1
725,497,38,0.103074789114448,1
725,498,38,0.112298212823416,1
725,499,38,0.105019657487937,1
726,488,38,0.139317855855677,1
726,489,38,0.123390913769129,1
727,488,38,0.119436260331012,1
727,489,38,0.113213058543434,1
730,497,38,0.107710655108908,1
731,496,38,0.13324608173114,1
731,497,38,0.139799510934157,1
731,498,38,0.110598365919728,1
731,501,38,0.110310892057061,1
732,490,38,0.103793903202833,1
732,496,38,0.119880571580981,1
732,497,38,0.127350508460541,1
732,498,38,0.109228567966348,1
732,500,38,0.117710223669455,1
733,491,38,0.112970792129081,1
733,498,38,0.105095694787506,1
733,499,38,0.110227883463341,1
733,500,38,0.134720627561923,1
734,492,38,0.121458192178569,1
734,493,38,0.110256304035338,1
734,499,38,0.105486209954767,1
734,500,38,0.12451712912782,1
735,493,38,0.138528638433305,1
735,500,38,0.120940520605985,1
735,503,38,0.123528878468905,1
736,497,38,0.1125566526402,1
736,498,38,0.120651864411831,1
736,499,38,0.124756763181501,1
736,500,38,0.138738680737571,1
736,503,38,0.132575945166946,1
736,504,38,0.104685448069279,1
737,496,38,0.106131249860016,1
737,497,38,0.132776684976297,1
737,498,38,0.150398967721993,1
737,499,38,0.144491437287666,1
737,500,38,0.137451645988358,1
737,504,38,0.103742092544699,1
738,498,38,0.136318213945961,1
738,499,38,0.126754970320803,1
738,500,38,0.115981621571651,1
738,501,38,0.127471452048516,1
738,503,38,0.130123533117016,1
738,504,38,0.108238175725869,1
739,501,38,0.104172528130789,1
739,502,38,0.114304673974992,1
739,503,38,0.121229266032705,1
739,506,38,0.111715635713764,1
721,492,39,0.200797052041592,1
722,496,39,0.189372629034974,1
722,497,39,0.181301565826283,1
722,498,39,0.137154010767337,1
723,494,39,0.204959773513472,1
723,495,39,0.183604223323768,1
723,496,39,0.203889518127194,1
723,497,39,0.21432627048657,1
723,498,39,0.199195617503182,1
723,499,39,0.1589724548887,1
724,493,39,0.186770138964551,1
724,494,39,0.196843290929126,1
724,495,39,0.166928028849959,1
724,496,39,0.152206774875429,1
724,497,39,0.161234835037095,1
724,498,39,0.186656110900374,1
724,499,39,0.176212666098612,1
725,492,39,0.128144990604257,1
726,513,39,0.107592990817701,1
732,500,39,0.126597575229968,1
733,499,39,0.121382032184223,1
734,499,39,0.111003403686965,1
735,499,39,0.105926215733468,1
736,498,39,0.112151614872963,1
736,499,39,0.128639260936633,1
736,504,39,0.107135975081271,1
737,504,39,0.106118768454968,1
738,506,39,0.108233390629563,1
722,496,40,0.210771869719384,1
722,497,40,0.181006997974688,1
722,498,40,0.143763411096837,1
723,495,40,0.181871304600626,1
723,496,40,0.204015202195192,1
723,497,40,0.21350220774751,1
723,498,40,0.228470970549595,1
723,499,40,0.186746793494696,1
724,496,40,0.156117012804248,1
724,497,40,0.171419416167388,1
724,498,40,0.226691896282134,1
724,499,40,0.218949275837579,1
724,500,40,0.131369297804852,1
725,498,40,0.156602828351078,1
725,499,40,0.174975556969594,1
721,496,41,0.147808490585652,1
722,495,41,0.191114582555337,1
722,496,41,0.206148284356701,1
722,497,41,0.172079625608711,1
722,498,41,0.148853493155996,1
722,499,41,0.112938010315463,1
723,495,41,0.181914905862767,1
723,496,41,0.192463132004143,1
723,497,41,0.206324920219394,1
723,498,41,0.238653700104161,1
723,499,41,0.193798363492602,1
723,500,41,0.108457230519215,1
724,496,41,0.172165400411951,1
724,497,41,0.187194707509483,1
724,498,41,0.241042277407805,1
724,499,41,0.228072346372977,1
724,500,41,0.136747099116232,1
725,497,41,0.151518278710957,1
725,498,41,0.177824875469263,1
725,499,41,0.202754903753309,1
725,500,41,0.147137316692888,1
726,499,41,0.159672216664521,1
722,496,42,0.183615901635731,1
722,497,42,0.157425630680155,1
722,498,42,0.150068628765848,1
722,499,42,0.117260357692307,1
723,496,42,0.178657883772978,1
723,497,42,0.191069765499496,1
723,498,42,0.227784526734121,1
723,499,42,0.186415316823346,1
723,500,42,0.108532230490214,1
724,496,42,0.190060745961044,1
724,497,42,0.197690063356014,1
724,498,42,0.228540415793414,1
724,499,42,0.213936168019923,1
724,500,42,0.138889584159292,1
725,497,42,0.187958515958932,1
725,498,42,0.193868879527203,1
725,499,42,0.218443461042088,1
725,500,42,0.168327931640003,1
726,498,42,0.144064637928605,1
726,499,42,0.177418543829831,1
722,497,43,0.138877493146716,1
722,498,43,0.146695258565189,1
723,496,43,0.163442705242262,1
723,497,43,0.169948506563635,1
723,498,43,0.202595712857101,1
723,499,43,0.168725607720616,1
724,495,43,0.181392359961312,1
724,496,43,0.193998378287361,1
724,497,43,0.199117672857533,1
724,498,43,0.201945073608389,1
724,499,43,0.183836886083298,1
724,500,43,0.136762815201767,1
725,496,43,0.19559042109829,1
725,497,43,0.223787733217117,1
725,498,43,0.204488380179984,1
725,499,43,0.207868152817193,1
725,500,43,0.177522421689724,1
726,497,43,0.174428806734846,1
726,498,43,0.166178876849334,1
726,499,43,0.180715999425699,1
723,496,44,0.157583115003555,1
723,497,44,0.153787150528466,1
723,498,44,0.174911331830835,1
724,495,44,0.17888017324681,1
724,496,44,0.1829079750802,1
724,497,44,0.191752996942625,1
724,498,44,0.181331927206572,1
724,499,44,0.155997084236702,1
725,495,44,0.130160798867032,1
725,496,44,0.180697840598693,1
725,497,44,0.243601935846961,1
725,498,44,0.21768904432012,1
725,499,44,0.18631606790277,1
725,500,44,0.171611388877214,1
726,496,44,0.154427014944938,1
726,497,44,0.2103644561351,1
726,498,44,0.199843869780776,1
726,499,44,0.176626582506081,1
726,500,44,0.153319148032453,1
727,497,44,0.141067717612126,1
727,498,44,0.136347828003517,1
727,499,44,0.135424605576446,1
723,497,45,0.146041150400507,1
723,498,45,0.146427560869771,1
724,496,45,0.164565485147195,1
724,497,45,0.174536789292735,1
724,498,45,0.161730733863785,1
724,499,45,0.13107304568859,1
725,496,45,0.153582227942625,1
725,497,45,0.228555629945771,1
725,498,45,0.219299602888315,1
725,499,45,0.158422849211867,1
725,500,45,0.146045299714786,1
726,496,45,0.146710640028604,1
726,497,45,0.225644105194129,1
726,498,45,0.232115429283148,1
726,499,45,0.16572771699999,1
726,500,45,0.132658920298454,1
727,497,45,0.146272084279087,1
727,498,45,0.15050586833503,1
727,499,45,0.12918753927906,1
724,497,46,0.150542977928057,1
724,498,46,0.140702310257881,1
725,496,46,0.127639878515217,1
725,497,46,0.18798296568178,1
725,498,46,0.195891268691657,1
725,499,46,0.132607812346771,1
726,496,46,0.127621574685292,1
726,497,46,0.20340119291447,1
726,498,46,0.226147042239395,1
726,499,46,0.145506089631792,1
727,497,46,0.131138040458223,1
727,498,46,0.143696152050863,1
724,497,47,0.129792045291595,1
724,498,47,0.122395056034035,1
725,496,47,0.107682413002041,1
725,497,47,0.147258338359358,1
725,498,47,0.160398045503433,1
725,499,47,0.113549420697725,1
726,496,47,0.107485710966263,1
726,497,47,0.16377466153865,1
726,498,47,0.187150715854869,1
726,499,47,0.123039158997351,1
727,497,47,0.111829106074409,1
727,498,47,0.125345653495137,1
725,497,48,0.118315521621006,1
725,498,48,0.127254404987886,1
726,497,48,0.123708023997492,1
726,498,48,0.137803891539245,1
