x,y,z,signal,mito.p
887,331,8,0.143908614788459,1
887,332,8,0.16781931717278,1
892,334,8,0.107318901839806,1
893,334,8,0.10908710088839,1
897,348,8,0.116232108536067,1
897,349,8,0.121661419345674,1
898,348,8,0.108345433269166,1
898,349,8,0.124858410227266,1
899,341,8,0.107581591357505,1
899,342,8,0.147555806269319,1
899,343,8,0.129677994919276,1
900,341,8,0.12931933577777,1
900,342,8,0.176333319680751,1
900,343,8,0.154255431876246,1
901,342,8,0.117385963681811,1
901,343,8,0.110535970048554,1
878,338,9,0.104807283982906,1
879,337,9,0.120590617409934,1
879,338,9,0.111626882773662,1
880,336,9,0.114741712770902,1
880,337,9,0.124396085153209,1
881,336,9,0.103815285556255,1
881,337,9,0.10519160864096,1
886,332,9,0.103169687947473,1
887,331,9,0.118766224153453,1
887,332,9,0.133442069906398,1
888,332,9,0.112916672578324,1
888,354,9,0.103188147934387,1
888,355,9,0.121837508658905,1
889,354,9,0.131018892675622,1
889,355,9,0.14876310056751,1
890,335,9,0.108741603550243,1
890,353,9,0.106350661583623,1
890,354,9,0.150724142343431,1
890,355,9,0.159360928861033,1
891,334,9,0.117100876790262,1
891,335,9,0.131935868823132,1
891,353,9,0.1069349006498,1
891,354,9,0.149038673036801,1
891,355,9,0.15488023829735,1
892,336,9,0.110644577234399,1
892,354,9,0.115526635876078,1
892,355,9,0.137764194201829,1
893,334,9,0.129558300587213,1
893,335,9,0.132756116870032,1
893,354,9,0.107996757020885,1
894,354,9,0.125696895179666,1
897,348,9,0.108358494685888,1
897,349,9,0.113834663746263,1
898,348,9,0.108302880489665,1
898,349,9,0.127183989339921,1
898,350,9,0.105589942811741,1
899,342,9,0.123875781219954,1
899,343,9,0.116748051227702,1
900,341,9,0.11680358734543,1
900,342,9,0.161434548671947,1
900,343,9,0.153394304160442,1
900,344,9,0.109435676750036,1
901,342,9,0.108840272459145,1
901,343,9,0.11411293550065,1
902,336,9,0.119044217056073,1
902,337,9,0.12188065260415,1
903,338,9,0.115496386036496,1
904,338,9,0.127157074567461,1
904,341,9,0.108604620408683,1
904,342,9,0.108693250654008,1
873,349,10,0.154283863602313,1
874,348,10,0.154540072604969,1
874,349,10,0.168036631931106,1
875,346,10,0.107855925724954,1
875,347,10,0.124752546942799,1
875,348,10,0.144814503789752,1
875,349,10,0.154175970276989,1
876,347,10,0.112881258404035,1
876,348,10,0.126930022305464,1
876,349,10,0.131284593792394,1
877,337,10,0.117173567868638,1
877,338,10,0.135229732808253,1
877,339,10,0.114824922137894,1
877,348,10,0.112454291733915,1
877,349,10,0.11630003682628,1
877,350,10,0.112300175939849,1
878,336,10,0.105159239527956,1
878,337,10,0.162669806225239,1
878,338,10,0.178687497830533,1
878,339,10,0.134560890116253,1
878,349,10,0.107512436119522,1
878,350,10,0.107192682376417,1
878,351,10,0.109522098489373,1
879,336,10,0.130218041557569,1
879,337,10,0.180101108973396,1
879,338,10,0.167738650933895,1
879,339,10,0.115382067966482,1
879,351,10,0.105612094796037,1
879,352,10,0.110157713204929,1
880,336,10,0.13697227749436,1
880,337,10,0.161093111415513,1
880,338,10,0.12760381740483,1
881,336,10,0.117126821158576,1
881,337,10,0.125425762030491,1
887,331,10,0.108539380249496,1
887,332,10,0.112741096352342,1
888,354,10,0.106525055478117,1
888,355,10,0.139153277543349,1
888,356,10,0.148347455279092,1
889,335,10,0.118652363400335,1
889,336,10,0.103855417902426,1
889,354,10,0.15350002244199,1
889,355,10,0.186158561271229,1
889,356,10,0.179283850217429,1
890,332,10,0.106995154939411,1
890,333,10,0.110541123229191,1
890,334,10,0.124393820876869,1
890,335,10,0.145306710619059,1
890,336,10,0.11939248060374,1
890,353,10,0.123807250609927,1
891,331,10,0.106300390187238,1
891,332,10,0.122219658273184,1
891,333,10,0.133100844577306,1
891,336,10,0.142836329361324,1
891,353,10,0.121945703144136,1
891,354,10,0.193565957276697,1
892,354,10,0.120755173414121,1
892,355,10,0.150338791510878,1
893,336,10,0.139812115033983,1
893,354,10,0.104837321895146,1
893,355,10,0.154913611276712,1
894,335,10,0.135834919219097,1
894,336,10,0.108069046552718,1
894,354,10,0.133759291675467,1
895,333,10,0.103044773510349,1
895,334,10,0.110355374490783,1
895,335,10,0.112183905907472,1
895,354,10,0.122969624520966,1
897,349,10,0.104577554743956,1
898,348,10,0.108909873859954,1
898,349,10,0.12183237778641,1
899,345,10,0.102991155892771,1
900,342,10,0.121474900976392,1
900,343,10,0.125159581288681,1
900,351,10,0.111298484625809,1
901,331,10,0.103926290867288,1
901,336,10,0.105237942650409,1
901,337,10,0.103277480886161,1
902,333,10,0.103713359658725,1
902,334,10,0.105675461071357,1
902,338,10,0.110046741356108,1
904,339,10,0.118869577772025,1
904,341,10,0.104629599637573,1
905,340,10,0.117618514900634,1
905,341,10,0.15553207103162,1
905,342,10,0.15837046969613,1
872,349,11,0.152457295302057,1
873,348,11,0.180761429955426,1
873,349,11,0.191149294023176,1
873,350,11,0.17039656558134,1
874,345,11,0.1062478210523,1
874,346,11,0.129463725222236,1
874,347,11,0.162643404540028,1
874,348,11,0.195841967699418,1
874,349,11,0.208763490067657,1
874,350,11,0.18239731941805,1
875,345,11,0.110130006493454,1
875,346,11,0.126665514674251,1
875,347,11,0.151214653754001,1
875,348,11,0.177391651365513,1
875,349,11,0.18620217368744,1
875,350,11,0.165614313563769,1
876,344,11,0.104277666400664,1
876,345,11,0.109413926312283,1
876,346,11,0.115699167040774,1
876,347,11,0.128997953540351,1
876,348,11,0.146966257865516,1
876,349,11,0.151717245023076,1
876,350,11,0.140754700927689,1
877,337,11,0.144194348616106,1
877,338,11,0.169346554833277,1
877,339,11,0.138629649697042,1
877,340,11,0.109316149729032,1
877,344,11,0.104456477307133,1
877,345,11,0.106137897686119,1
877,346,11,0.107084900591799,1
877,347,11,0.114134719400614,1
877,348,11,0.127505616966894,1
877,349,11,0.133054410181222,1
877,350,11,0.129910490367746,1
877,351,11,0.130217048845282,1
878,336,11,0.121573346803881,1
878,337,11,0.207208121841,1
878,338,11,0.230252097166054,1
878,339,11,0.164739154027097,1
878,340,11,0.109310338458227,1
878,347,11,0.103645364444089,1
878,348,11,0.116503989007976,1
878,349,11,0.124497129879159,1
878,350,11,0.125424222768742,1
878,351,11,0.134282752210715,1
878,352,11,0.144830833349172,1
879,336,11,0.140685768771119,1
879,337,11,0.21059277996115,1
879,338,11,0.197663025888776,1
879,339,11,0.131298435994061,1
879,349,11,0.107620630604753,1
879,350,11,0.111106567686336,1
879,351,11,0.128330560877534,1
879,352,11,0.145258257336188,1
879,353,11,0.145938722569798,1
880,336,11,0.141886114083299,1
880,337,11,0.172896795132114,1
880,338,11,0.133288255272239,1
880,351,11,0.111028344188921,1
880,352,11,0.12588413856354,1
880,353,11,0.122299666421902,1
881,336,11,0.128096793865011,1
881,337,11,0.138588178862394,1
881,338,11,0.104655577468099,1
881,352,11,0.103674699649878,1
882,336,11,0.105087217693818,1
882,337,11,0.111132891293052,1
883,336,11,0.108561978396618,1
883,337,11,0.113142129808219,1
883,338,11,0.109773210081745,1
884,336,11,0.115884848854758,1
884,337,11,0.112947178961531,1
885,329,11,0.104053324577834,1
886,329,11,0.10321668004709,1
887,357,11,0.136604505477139,1
888,354,11,0.105364664046977,1
888,355,11,0.150332634463883,1
888,356,11,0.166797269679818,1
888,357,11,0.145740447810059,1
889,335,11,0.126496418963312,1
889,336,11,0.113190995791703,1
890,331,11,0.109293216959791,1
890,332,11,0.12210985760178,1
890,333,11,0.129215647537079,1
890,335,11,0.152804599599649,1
890,336,11,0.130214204557268,1
891,330,11,0.109436345994274,1
891,331,11,0.1250326368107,1
891,336,11,0.157811494599957,1
891,353,11,0.11401483544935,1
892,330,11,0.109733970061225,1
892,354,11,0.109450879748321,1
893,355,11,0.141173670129158,1
894,336,11,0.119000805413133,1
894,354,11,0.118105747014435,1
895,332,11,0.110463033580624,1
895,335,11,0.132939523253605,1
895,354,11,0.115190050640373,1
896,334,11,0.110615532034446,1
896,335,11,0.1078629750976,1
897,348,11,0.109820291413927,1
897,349,11,0.109998354997662,1
898,348,11,0.113148855712816,1
898,349,11,0.117315269182079,1
898,353,11,0.114896062800452,1
899,345,11,0.119468417516674,1
899,346,11,0.11436124742129,1
899,353,11,0.110020506981957,1
900,350,11,0.106696593930526,1
900,351,11,0.113707116948468,1
901,332,11,0.105482105256771,1
901,336,11,0.111646692403123,1
901,337,11,0.104439266576131,1
901,348,11,0.103685942953086,1
902,338,11,0.115659101619027,1
905,340,11,0.113892642605462,1
905,341,11,0.154665399742707,1
905,342,11,0.162661262207126,1
906,341,11,0.17605878454003,1
906,342,11,0.180065605566542,1
906,343,11,0.104437972703937,1
872,348,12,0.173021073787211,1
872,349,12,0.179409690442416,1
872,350,12,0.168449310236733,1
873,346,12,0.135004442889418,1
873,347,12,0.184416607750866,1
873,348,12,0.223703854605886,1
873,349,12,0.228836221746851,1
873,350,12,0.20104409239818,1
873,351,12,0.167991000628108,1
874,341,12,0.105604610414636,1
874,342,12,0.121880641450079,1
874,343,12,0.116411845230399,1
874,344,12,0.108401794788122,1
874,345,12,0.112922249613645,1
874,346,12,0.144929903804618,1
874,347,12,0.19761481799546,1
874,348,12,0.242448560326256,1
874,349,12,0.24754012587681,1
874,350,12,0.211584198376128,1
874,351,12,0.170619446220916,1
875,341,12,0.105301710472271,1
875,342,12,0.116222114488772,1
875,343,12,0.110290167793808,1
875,344,12,0.109250842645421,1
875,345,12,0.118255356563961,1
875,346,12,0.141177997908567,1
875,347,12,0.17748328205584,1
875,348,12,0.212891143141438,1
875,349,12,0.217002265882527,1
875,350,12,0.189251964298765,1
875,351,12,0.15569215425348,1
876,337,12,0.103078838042091,1
876,338,12,0.106965485111502,1
876,341,12,0.112109608642923,1
876,342,12,0.113653231633194,1
876,343,12,0.109314766624272,1
876,344,12,0.114236656452215,1
876,345,12,0.122057500394185,1
876,346,12,0.131641245201184,1
876,347,12,0.146174196155129,1
876,348,12,0.166423920627276,1
876,349,12,0.170709058024457,1
876,350,12,0.160228871714,1
877,336,12,0.106531402144312,1
877,337,12,0.159482820545013,1
877,338,12,0.179351399269239,1
877,339,12,0.150728748974606,1
877,340,12,0.122182504063874,1
877,341,12,0.112957518785017,1
877,342,12,0.107957751235849,1
877,343,12,0.109687323737799,1
877,344,12,0.118780021738838,1
877,345,12,0.125644437585435,1
877,346,12,0.128516108842671,1
877,347,12,0.131144431740702,1
877,348,12,0.143480488094993,1
877,349,12,0.152594133440698,1
877,350,12,0.153316593750276,1
877,351,12,0.160521063748548,1
878,336,12,0.134240980216159,1
878,337,12,0.224084989199736,1
878,338,12,0.240182142404288,1
878,339,12,0.175426538353807,1
878,340,12,0.12118247470636,1
878,343,12,0.106153412998383,1
878,344,12,0.112997885366671,1
878,345,12,0.118479865697851,1
878,346,12,0.120050079992533,1
878,347,12,0.12082739602153,1
878,348,12,0.135816983473504,1
878,349,12,0.150654563250764,1
878,350,12,0.15535061661041,1
878,351,12,0.170355094746691,1
878,352,12,0.184304141256578,1
879,336,12,0.137373288642095,1
879,337,12,0.20385195121727,1
879,338,12,0.189181225182751,1
879,339,12,0.131464955114681,1
879,343,12,0.103265869498623,1
879,347,12,0.105585079636941,1
879,348,12,0.122884976278861,1
879,349,12,0.134971516072882,1
879,350,12,0.142433845876264,1
879,351,12,0.166939807548557,1
879,352,12,0.187596566366586,1
879,353,12,0.178592331299812,1
880,336,12,0.129702924267162,1
880,337,12,0.154654491061619,1
880,338,12,0.121146748218093,1
880,349,12,0.105599434925858,1
880,350,12,0.115784718762601,1
880,351,12,0.143502796236277,1
880,352,12,0.161808979669342,1
880,353,12,0.149967673272464,1
880,354,12,0.132595085552168,1
881,336,12,0.127342064829065,1
881,337,12,0.135692905591678,1
881,351,12,0.117960297933258,1
881,352,12,0.126078520552624,1
881,353,12,0.116748731626011,1
881,354,12,0.113063973235227,1
882,336,12,0.117331732590347,1
882,337,12,0.119931813381512,1
883,335,12,0.106046478923134,1
883,336,12,0.136724411736545,1
883,337,12,0.133892036270182,1
883,338,12,0.112188534846789,1
884,333,12,0.108000594021186,1
884,334,12,0.108984316127421,1
884,335,12,0.122566761797504,1
884,336,12,0.155933461417757,1
884,337,12,0.143591839182216,1
885,328,12,0.119906884033626,1
885,329,12,0.105159574150075,1
885,332,12,0.108828605301253,1
885,333,12,0.119220696761777,1
885,334,12,0.113358429546116,1
885,335,12,0.110866387083194,1
885,336,12,0.12161100294637,1
885,337,12,0.107269857391191,1
886,328,12,0.112694282717856,1
886,330,12,0.103808726962717,1
886,332,12,0.106009893571427,1
886,333,12,0.112997238430574,1
886,334,12,0.10714378293072,1
887,357,12,0.161864326167869,1
888,354,12,0.1082178753173,1
888,357,12,0.163759536618859,1
889,331,12,0.107578167057818,1
889,332,12,0.110450552175575,1
889,333,12,0.103039598021571,1
889,335,12,0.113702209157385,1
889,336,12,0.104340597667229,1
890,330,12,0.102921777573376,1
890,331,12,0.116364172732473,1
890,335,12,0.132065891824611,1
890,336,12,0.11567774007107,1
891,330,12,0.120137695217429,1
891,336,12,0.139276619256512,1
893,329,12,0.105378472786432,1
893,330,12,0.117486595707146,1
893,355,12,0.1212112968249,1
894,336,12,0.108928110765454,1
896,335,12,0.112808098854691,1
897,348,12,0.104487195617682,1
897,349,12,0.108979185254925,1
898,346,12,0.10391730068635,1
898,353,12,0.117151449346554,1
898,354,12,0.118865227684475,1
899,345,12,0.120339516971632,1
899,346,12,0.122716906742422,1
899,353,12,0.112951640589788,1
899,354,12,0.133901305302886,1
900,350,12,0.10685328631491,1
900,351,12,0.104491456472667,1
901,333,12,0.113052373001759,1
901,334,12,0.110822506969286,1
901,337,12,0.108719406949664,1
901,347,12,0.10920638251984,1
901,348,12,0.110157958594484,1
905,341,12,0.146964194362447,1
905,342,12,0.153558659391357,1
906,341,12,0.17220253231312,1
906,342,12,0.173691009578134,1
907,342,12,0.127491841689651,1
869,356,13,0.235496027321584,2
869,357,13,0.24687978258664,2
870,351,13,0.13872354466371,1
870,352,13,0.143809711644073,1
870,357,13,0.259770988190873,1
871,348,13,0.153324769684057,1
871,349,13,0.152814404027744,1
871,351,13,0.153013113796238,1
871,352,13,0.148666785167513,1
871,357,13,0.226992944648772,1
872,347,13,0.1692773215168,1
872,348,13,0.195501947009955,1
872,349,13,0.199310549047081,1
872,350,13,0.188560077296817,1
872,351,13,0.166258316140449,1
873,342,13,0.142629019804365,1
873,345,13,0.114685128170533,1
873,346,13,0.142197669584482,1
873,347,13,0.203030364681893,1
873,348,13,0.251583253403263,1
873,349,13,0.254570268905012,1
873,350,13,0.227078474062458,1
873,351,13,0.188801897548344,1
873,352,13,0.17379754210684,1
874,341,13,0.120654775624269,1
874,342,13,0.147489997252529,1
874,343,13,0.141108809208372,1
874,344,13,0.124132982934897,1
874,345,13,0.121027522356996,1
874,346,13,0.151706302879776,1
874,347,13,0.213844883105786,1
874,348,13,0.269161644880982,1
874,349,13,0.271137700035987,1
874,350,13,0.232964521756729,1
874,351,13,0.186620953269709,1
874,352,13,0.174692533581114,1
874,353,13,0.175290715235595,1
874,354,13,0.169983820351289,1
874,355,13,0.165978304351042,1
875,341,13,0.116046805960485,1
875,342,13,0.135774475310286,1
875,343,13,0.127896455602203,1
875,344,13,0.120025630269685,1
875,345,13,0.12542175771913,1
875,346,13,0.146823831537483,1
875,347,13,0.185516164880721,1
875,348,13,0.227168532028825,1
875,349,13,0.231886949300109,1
875,350,13,0.203390306541523,1
875,351,13,0.169188557422628,1
875,355,13,0.183020106952368,1
876,336,13,0.104782075783254,1
876,337,13,0.121359199801618,1
876,338,13,0.124512578266998,1
876,339,13,0.11604949409151,1
876,340,13,0.111299510800308,1
876,341,13,0.119377344529879,1
876,342,13,0.126229122814438,1
876,343,13,0.121089840149675,1
876,344,13,0.122655715510877,1
876,345,13,0.130799101713613,1
876,346,13,0.141992970080053,1
876,347,13,0.154443790667184,1
876,348,13,0.174133982339626,1
876,349,13,0.180527339474854,1
876,350,13,0.17398837710146,1
877,336,13,0.125424579699003,1
877,337,13,0.175421630562725,1
877,338,13,0.19089498121253,1
877,339,13,0.1683601892123,1
877,340,13,0.136325252164537,1
877,341,13,0.119704973046858,1
877,342,13,0.114652736749388,1
877,343,13,0.117031119232464,1
877,344,13,0.127367886502602,1
877,345,13,0.138386089410495,1
877,346,13,0.145998463772159,1
877,347,13,0.14674077832748,1
877,348,13,0.157502861465283,1
877,349,13,0.169951217002801,1
877,350,13,0.176782137175259,1
878,336,13,0.147638424470568,1
878,337,13,0.225464145418385,1
878,338,13,0.234161085838961,1
878,339,13,0.183592913096137,1
878,340,13,0.133372122729399,1
878,341,13,0.108174965607539,1
878,343,13,0.11043379876147,1
878,344,13,0.122226841494678,1
878,345,13,0.131921435455721,1
878,346,13,0.138071488848026,1
878,347,13,0.138860438572704,1
878,348,13,0.154984528857856,1
878,349,13,0.174359651496863,1
878,350,13,0.18705888439127,1
878,351,13,0.211474866175691,1
878,352,13,0.226912300718028,1
879,336,13,0.131094996899615,1
879,337,13,0.181336846151725,1
879,338,13,0.169893215835461,1
879,339,13,0.131533184564801,1
879,340,13,0.106511692901487,1
879,343,13,0.103514951050138,1
879,344,13,0.107120169763171,1
879,345,13,0.108558955643473,1
879,346,13,0.111906325705466,1
879,347,13,0.121526432782759,1
879,348,13,0.146784569208822,1
879,349,13,0.166103988419041,1
879,350,13,0.181266352425265,1
879,351,13,0.216396265224526,1
879,352,13,0.242587428505753,3
880,336,13,0.115876862540178,1
880,337,13,0.131879819618154,1
880,338,13,0.112420494899868,1
880,348,13,0.124658038502246,1
880,349,13,0.140578399687115,1
880,350,13,0.15508044271131,1
880,351,13,0.187910531147028,1
880,352,13,0.211352595253309,1
880,353,13,0.187316175338778,1
881,336,13,0.123501060216723,1
881,337,13,0.129866654870122,1
881,338,13,0.104381689263475,1
881,349,13,0.105920906395842,1
881,350,13,0.119263561855256,1
881,351,13,0.143197609709431,1
881,352,13,0.154096776375429,1
881,353,13,0.139710534912643,1
881,354,13,0.122925443247152,1
882,336,13,0.128075121505753,1
882,337,13,0.128518562738212,1
882,338,13,0.104220479480481,1
882,351,13,0.105343281693556,1
882,352,13,0.110898678117703,1
882,353,13,0.110308427007449,1
883,335,13,0.121609329835774,1
883,336,13,0.154978918360323,1
883,337,13,0.144030852248629,1
883,338,13,0.108184290410596,1
884,333,13,0.11414367611934,1
884,334,13,0.122984715978545,1
884,335,13,0.146086145921478,1
884,336,13,0.175669005541432,1
884,337,13,0.15074357273449,1
885,329,13,0.10332243179085,1
885,332,13,0.109609702560198,1
885,333,13,0.128727166167366,1
885,334,13,0.137989617969511,1
885,335,13,0.138835419992253,1
885,336,13,0.136085729651562,1
885,337,13,0.109369811962892,1
886,332,13,0.104064166334498,1
886,333,13,0.12676620246994,1
886,334,13,0.136069188164799,1
886,335,13,0.118618666952925,1
887,333,13,0.11829110536037,1
887,334,13,0.12424937566205,1
887,335,13,0.105439295933645,1
888,332,13,0.106072334058883,1
888,333,13,0.112860143748308,1
888,334,13,0.110909698339498,1
888,354,13,0.103566672475707,1
889,331,13,0.115677862765847,1
889,332,13,0.12380765215647,1
889,333,13,0.122963869020515,1
889,334,13,0.111266360902359,1
889,335,13,0.104976011609514,1
890,335,13,0.118680795126403,1
891,336,13,0.118241079353539,1
891,354,13,0.125628699191758,1
892,355,13,0.104984421778778,1
893,355,13,0.103057901851495,1
896,335,13,0.113711310879029,1
897,349,13,0.110484862096871,1
898,346,13,0.103654533090157,1
899,345,13,0.107200813693915,1
899,346,13,0.116371802116793,1
899,353,13,0.103318360555066,1
900,334,13,0.109978500751918,1
900,335,13,0.111428228775521,1
900,336,13,0.10299252784346,1
905,341,13,0.1294563300734,1
905,342,13,0.122280381033761,1
906,342,13,0.150074919661691,1
868,355,14,0.268653510038797,1
868,356,14,0.278181718728068,2
868,357,14,0.274211159585215,2
868,358,14,0.272052824607772,2
868,359,14,0.252407606148159,2
869,351,14,0.130072079389142,1
869,352,14,0.140521926627453,1
869,355,14,0.261402315638605,2
869,356,14,0.308049352925592,2
869,357,14,0.307444311517667,2
869,358,14,0.267938154872219,2
870,350,14,0.135913332335713,1
870,351,14,0.155676047775472,1
870,352,14,0.166819187428631,1
870,353,14,0.15704928118261,1
870,356,14,0.26314933310704,2
870,357,14,0.287322345770658,2
870,358,14,0.254388412937259,1
871,348,14,0.162695627898776,1
871,349,14,0.160325231730279,1
871,350,14,0.165833580284457,1
871,351,14,0.170364397241607,1
871,352,14,0.170069996701072,1
871,353,14,0.159649875061024,1
871,356,14,0.194676478857994,1
871,357,14,0.224746559437678,1
871,358,14,0.213862685002531,1
872,347,14,0.176139796555105,1
872,348,14,0.204298894827911,1
872,349,14,0.209563593862977,1
872,350,14,0.202254197522172,1
872,351,14,0.183455115707421,1
872,352,14,0.16958673543642,1
872,357,14,0.174480383157496,1
873,341,14,0.147797949988895,1
873,342,14,0.194825921096461,1
873,343,14,0.19073402797316,1
873,344,14,0.145676601909702,1
873,345,14,0.113652852394792,1
873,346,14,0.133401022926434,1
873,347,14,0.200418059029305,1
873,348,14,0.261577144541854,1
873,349,14,0.268393486343982,1
873,350,14,0.240505744301765,1
873,351,14,0.204370347804446,1
873,352,14,0.182215887304981,1
873,353,14,0.173441046855038,1
873,354,14,0.161946185892314,1
873,355,14,0.155569437168272,1
874,339,14,0.103349792726136,1
874,340,14,0.112632556090921,1
874,341,14,0.150460114337255,1
874,342,14,0.200068178141395,1
874,343,14,0.189501302393904,1
874,344,14,0.144208101585208,1
874,345,14,0.119486821733234,1
874,346,14,0.140574763460086,1
874,347,14,0.20602219874216,1
874,348,14,0.273735906943284,1
874,349,14,0.281095050439154,1
874,350,14,0.241091890714022,1
874,351,14,0.196183906889031,1
874,352,14,0.17552937888513,1
874,353,14,0.17447471688961,1
874,354,14,0.176421972234217,1
874,355,14,0.174268823899622,1
874,356,14,0.170232957673157,1
875,337,14,0.119120120506795,1
875,338,14,0.123053715059539,1
875,339,14,0.116341106114385,1
875,340,14,0.115560789640385,1
875,341,14,0.137281111402307,1
875,342,14,0.167996443814582,1
875,343,14,0.156794064892241,1
875,344,14,0.131889010572364,1
875,345,14,0.125246237263501,1
875,346,14,0.139210475617603,1
875,347,14,0.174430223301817,1
875,348,14,0.21807990526357,1
875,349,14,0.229575602781593,1
875,350,14,0.206960233775043,1
875,351,14,0.179330786546692,1
875,353,14,0.166276586508161,1
875,354,14,0.177139201284663,1
875,355,14,0.182589492901148,1
875,356,14,0.180161920966539,1
876,336,14,0.130538721088537,1
876,337,14,0.1538340980118,1
876,338,14,0.167958363817408,1
876,339,14,0.154527635816203,1
876,340,14,0.133892582819644,1
876,341,14,0.129219227993755,1
876,342,14,0.137608081829118,1
876,343,14,0.133773836583585,1
876,344,14,0.1317196583178,1
876,345,14,0.139559274560661,1
876,346,14,0.146787792735238,1
876,347,14,0.151616311837833,1
876,348,14,0.164119110394157,1
876,349,14,0.176660067026149,1
876,350,14,0.183225397622541,1
876,355,14,0.171476380006159,1
877,335,14,0.117542488755135,1
877,336,14,0.154216816483682,1
877,337,14,0.198340412598889,1
877,338,14,0.219119576188147,1
877,339,14,0.195652036184519,1
877,340,14,0.15141258273755,1
877,341,14,0.121279727048291,1
877,342,14,0.117573106679049,1
877,343,14,0.126628438543435,1
877,344,14,0.141487177592703,1
877,345,14,0.156984308721118,1
877,346,14,0.160467245357698,1
877,347,14,0.152422182287675,1
877,348,14,0.155506472439496,1
877,349,14,0.173809677735699,1
877,350,14,0.197394882030533,1
877,351,14,0.221263277024908,1
877,352,14,0.224994335962928,1
878,335,14,0.10649056709169,1
878,336,14,0.15501116477855,1
878,337,14,0.211171230064664,1
878,338,14,0.219797007514542,1
878,339,14,0.180829213242719,1
878,340,14,0.134389307047561,1
878,341,14,0.107398051125084,1
878,342,14,0.105117512149683,1
878,343,14,0.120098232115496,1
878,344,14,0.139351942695561,1
878,345,14,0.152071319841548,1
878,346,14,0.153539485543923,1
878,347,14,0.148900083709069,1
878,348,14,0.161474324087858,1
878,349,14,0.190085931852555,1
878,350,14,0.224232669095042,1
878,351,14,0.26289722880238,3
878,352,14,0.277654175802966,3
878,353,14,0.225830735104118,1
879,336,14,0.120913483138748,1
879,337,14,0.152968475205527,1
879,338,14,0.14937394209217,1
879,339,14,0.125256911709106,1
879,340,14,0.104316214868804,1
879,343,14,0.107648214621452,1
879,344,14,0.120420406291931,1
879,345,14,0.124659265450016,1
879,346,14,0.125301561453888,1
879,347,14,0.136125036596506,1
879,348,14,0.170952428691803,1
879,349,14,0.211825483232264,1
879,350,14,0.246162308146639,3
879,351,14,0.288231781766414,3
879,352,14,0.311323831135937,3
879,353,14,0.245894788916352,3
880,332,14,0.105226398187294,1
880,333,14,0.108691622159694,1
880,336,14,0.104103450971301,1
880,337,14,0.116502806676488,1
880,338,14,0.111519067526833,1
880,347,14,0.113105488686158,1
880,348,14,0.163073115111526,1
880,349,14,0.212624917783345,1
880,350,14,0.235549031465276,3
880,351,14,0.257350153314932,3
880,352,14,0.271048445162707,3
880,353,14,0.218366631803503,1
881,332,14,0.120841695540094,1
881,333,14,0.125370036293561,1
881,334,14,0.103726454537659,1
881,336,14,0.117591678206668,1
881,337,14,0.125456413416616,1
881,338,14,0.111222692715794,1
881,348,14,0.122816066430432,1
881,349,14,0.159220777963411,1
881,350,14,0.170198034277976,1
881,351,14,0.1766086802227,1
881,352,14,0.179707782980334,1
881,353,14,0.155685249883752,1
882,332,14,0.116482472805707,1
882,333,14,0.118440904529097,1
882,334,14,0.108659208430407,1
882,335,14,0.114092155467043,1
882,336,14,0.13778089184558,1
882,337,14,0.137512881836185,1
882,338,14,0.110680348338949,1
882,351,14,0.106833108601118,1
882,352,14,0.112966508965954,1
882,353,14,0.114946847284086,1
883,332,14,0.108091020071884,1
883,333,14,0.113763311156364,1
883,334,14,0.118737201261641,1
883,335,14,0.146966592487635,1
883,336,14,0.176071444410209,1
883,337,14,0.154419363252477,1
883,338,14,0.106740407120009,1
884,332,14,0.114722538923468,1
884,333,14,0.125937845413683,1
884,334,14,0.144006870996748,1
884,335,14,0.185216019993805,1
884,336,14,0.200429993884892,1
884,337,14,0.155667213751524,1
885,332,14,0.116648824615267,1
885,333,14,0.14100928143603,1
885,336,14,0.170434132491263,1
885,337,14,0.120948875004897,1
886,332,14,0.107900731626725,1
886,333,14,0.146113350699775,1
886,336,14,0.128847306662255,1
887,332,14,0.103331555820636,1
887,336,14,0.1046350985944,1
888,331,14,0.106166095176703,1
888,332,14,0.11851336137199,1
888,335,14,0.125132699978432,1
889,335,14,0.121815211671691,1
897,349,14,0.110269688920108,1
899,335,14,0.109310862699547,1
900,336,14,0.120449418029672,1
867,355,15,0.222736060512529,1
867,356,15,0.228082496577262,2
867,357,15,0.238792077504551,2
867,358,15,0.261262242819478,2
867,359,15,0.27374868950824,2
868,354,15,0.22776246398239,1
868,355,15,0.292537186109952,2
868,356,15,0.338546054399206,2
868,357,15,0.340040878330416,2
868,358,15,0.316472304754909,2
868,359,15,0.31320712903948,2
868,360,15,0.257510124996085,2
869,351,15,0.13984575571104,1
869,352,15,0.150887281780647,1
869,354,15,0.206873321256598,1
869,355,15,0.295441326866828,2
869,356,15,0.386722649393384,2
869,357,15,0.390272008520639,2
869,358,15,0.316633882622235,2
869,359,15,0.284599637126851,2
870,350,15,0.147467979117081,1
870,351,15,0.164215459256366,1
870,352,15,0.17914669976481,1
870,353,15,0.165673441292245,1
870,355,15,0.236604741943437,2
870,356,15,0.314812958281723,2
870,357,15,0.33172315400354,2
870,358,15,0.270951003201575,2
870,359,15,0.233799939339702,1
871,348,15,0.164134703784915,1
871,349,15,0.167134568776044,1
871,350,15,0.176986803217476,1
871,351,15,0.182479781462309,1
871,352,15,0.184457063565085,1
871,353,15,0.170058786860076,1
871,355,15,0.177414383361482,1
871,356,15,0.211428376009254,2
871,357,15,0.231134897241116,2
871,358,15,0.207370882039814,1
872,347,15,0.174457260769054,1
872,348,15,0.206147771269452,1
872,349,15,0.216434902925231,1
872,350,15,0.213170641843595,1
872,351,15,0.197004221860354,1
872,352,15,0.181391958414769,1
872,353,15,0.167762654493917,1
872,354,15,0.153334317568527,1
872,355,15,0.148137111814918,1
872,356,15,0.160348175653591,1
872,357,15,0.176171697197143,1
873,340,15,0.132871929585512,1
873,341,15,0.179985028560221,1
873,342,15,0.253043254325928,1
873,343,15,0.239904428353433,1
873,344,15,0.159017651182943,1
873,346,15,0.126974984364224,1
873,347,15,0.190307317846665,1
873,348,15,0.257668691264337,1
873,349,15,0.273823622554816,1
873,350,15,0.249503978478533,1
873,351,15,0.21751229691672,1
873,352,15,0.189053622614602,1
873,353,15,0.173250267630771,1
873,354,15,0.163702885094066,1
873,355,15,0.160162103447134,1
873,356,15,0.162031681843787,1
874,338,15,0.139989788225245,1
874,339,15,0.142960083775101,1
874,340,15,0.147138086323762,1
874,341,15,0.189206790312663,1
874,342,15,0.26136178174589,1
874,343,15,0.240701163619419,1
874,344,15,0.158229794557188,1
874,345,15,0.117704423552721,1
874,346,15,0.131505723242879,1
874,347,15,0.185485134256194,1
874,348,15,0.255786107221315,1
874,349,15,0.277753937810791,1
874,350,15,0.250307272338056,1
874,351,15,0.215215696079594,1
874,352,15,0.187472466176619,1
874,353,15,0.175971057774427,1
874,354,15,0.180944122478477,1
874,355,15,0.183382792713376,1
874,356,15,0.177253976671574,1
874,357,15,0.185455230192802,1
875,337,15,0.148899079842712,1
875,338,15,0.179515531418742,1
875,340,15,0.172257198413338,1
875,341,15,0.173753595068509,1
875,342,15,0.205167172302997,1
875,343,15,0.186255847075371,1
875,344,15,0.142797412808853,1
875,345,15,0.128834903335701,1
875,346,15,0.136097363347242,1
875,347,15,0.156671035493056,1
875,348,15,0.193130145428558,1
875,349,15,0.217570766555028,1
875,350,15,0.215738911225287,1
875,351,15,0.201333094368524,1
875,353,15,0.173298107439756,1
875,354,15,0.175926675727341,1
875,355,15,0.180726004627065,1
875,356,15,0.182810031185889,1
875,357,15,0.199942851003657,1
876,336,15,0.159614315883816,1
876,337,15,0.19818521485997,1
876,340,15,0.190401815133147,1
876,341,15,0.153578602869666,1
876,342,15,0.149800942224502,1
876,343,15,0.144929279176662,1
876,344,15,0.140632998862909,1
876,345,15,0.146803006887594,1
876,346,15,0.147863290534718,1
876,347,15,0.143810202423182,1
876,348,15,0.151760444738674,1
876,349,15,0.174733547098866,1
876,350,15,0.196686955475002,1
876,351,15,0.20518510804859,1
876,352,15,0.196124544925072,1
876,354,15,0.158926712044995,1
876,355,15,0.164963384309221,1
876,356,15,0.176712301538967,1
877,335,15,0.134188377619009,1
877,336,15,0.184296857648449,1
877,337,15,0.234289469192055,1
877,340,15,0.178325102075362,1
877,341,15,0.136106520839239,1
877,342,15,0.126668905511726,1
877,343,15,0.134325271528003,1
877,344,15,0.146097177297344,1
877,345,15,0.158680095543092,1
877,346,15,0.156623619538755,1
877,347,15,0.148325637916916,1
877,348,15,0.152771672783113,1
877,349,15,0.179258452398576,1
877,350,15,0.217799536543903,1
877,351,15,0.247592193078569,3
877,352,15,0.244186810695165,3
877,353,15,0.197460200268215,1
878,335,15,0.111811326485805,1
878,336,15,0.15749465206929,1
878,337,15,0.198426722797519,1
878,338,15,0.211394133012382,1
878,339,15,0.176632862247852,1
878,340,15,0.138227935842856,1
878,341,15,0.118544068528468,1
878,342,15,0.115024156147709,1
878,343,15,0.124381417550314,1
878,344,15,0.138064484091663,1
878,345,15,0.14937011624594,1
878,346,15,0.149875094486132,1
878,347,15,0.151584522736502,1
878,348,15,0.165531293815978,1
878,349,15,0.204016139137126,1
878,350,15,0.264025306890869,3
878,351,15,0.319883308789916,3
878,352,15,0.32686156308149,3
878,353,15,0.245190699361122,3
878,354,15,0.178668402061593,1
879,336,15,0.112392877420958,1
879,337,15,0.131844595063066,1
879,338,15,0.138776269955636,1
879,339,15,0.123931573881307,1
879,340,15,0.10838266555697,1
879,343,15,0.104915054613453,1
879,344,15,0.117157896399386,1
879,345,15,0.12595030451059,1
879,346,15,0.129780801988387,1
879,347,15,0.146758223293965,1
879,348,15,0.187169164687711,1
879,349,15,0.252616410350585,3
879,350,15,0.313894643645736,3
879,351,15,0.358702062369815,3
879,352,15,0.366579847842415,3
879,353,15,0.265655028152428,3
879,354,15,0.174055825766635,1
880,332,15,0.113525640219116,1
880,333,15,0.117995622874982,1
880,337,15,0.108724615900654,1
880,338,15,0.11613525774068,1
880,339,15,0.111962040288325,1
880,347,15,0.126214209821989,1
880,348,15,0.200135838733911,1
880,349,15,0.294891609649288,3
880,350,15,0.325001331796035,3
880,351,15,0.312499492489786,3
880,352,15,0.298989459046313,3
880,353,15,0.226525053693465,1
881,332,15,0.131818739927317,1
881,333,15,0.139990780937533,1
881,334,15,0.110172458886319,1
881,336,15,0.110981932100978,1
881,337,15,0.120465557969891,1
881,338,15,0.115087288187545,1
881,339,15,0.105201703074892,1
881,348,15,0.1528515024667,1
881,349,15,0.221384432540225,1
881,350,15,0.222306071089265,3
881,351,15,0.194600765026474,3
881,352,15,0.18415085086374,1
881,353,15,0.161211712648654,1
882,332,15,0.124331101537647,1
882,333,15,0.128135264254657,1
882,334,15,0.114999706424861,1
882,335,15,0.117341626251007,1
882,336,15,0.139256240769449,1
882,337,15,0.140539126204383,1
882,338,15,0.111713851062461,1
882,349,15,0.104157135513303,1
882,350,15,0.105126993109729,1
882,351,15,0.104633726643711,1
882,352,15,0.112199242754606,1
882,353,15,0.119372771360915,1
883,332,15,0.118817889808668,1
883,333,15,0.120361434720445,1
883,334,15,0.121632374145721,1
883,335,15,0.154220006547886,1
883,336,15,0.185830876983896,1
883,337,15,0.162133986979719,1
883,338,15,0.106167333278545,1
884,332,15,0.128330103560638,1
884,333,15,0.133530822846499,1
884,337,15,0.166039529044798,1
885,337,15,0.140640873636783,1
886,332,15,0.117458219751432,1
886,337,15,0.10534909296436,1
888,354,15,0.106742303312018,1
890,354,15,0.103252194608015,1
899,335,15,0.11768252811205,1
867,355,16,0.232759911484865,2
867,356,16,0.257587221932365,2
867,357,16,0.257256347580829,2
867,358,16,0.261231948363613,2
867,359,16,0.28910666245132,2
868,354,16,0.210260009417605,2
868,355,16,0.301815365151703,2
868,356,16,0.395535257526521,2
868,357,16,0.392110600909048,2
868,358,16,0.340723217447893,2
868,359,16,0.355618831854705,2
868,360,16,0.287914961543888,2
869,351,16,0.136352657716105,1
869,352,16,0.137389093960196,1
869,354,16,0.193823995546938,2
869,355,16,0.309491730416642,2
869,356,16,0.449625495385739,2
869,357,16,0.458220599141351,2
869,358,16,0.368059413004986,2
869,359,16,0.345523996376801,2
869,360,16,0.289298133227968,2
870,350,16,0.144379673499829,1
870,351,16,0.149854704844998,1
870,352,16,0.156478237382002,1
870,353,16,0.148183735830203,1
870,354,16,0.169062639119146,1
870,355,16,0.2425024567956,2
870,356,16,0.344977402299041,2
870,357,16,0.366277907150125,2
870,358,16,0.305330771287923,2
870,359,16,0.271981728561497,2
871,349,16,0.160912225851906,1
871,350,16,0.166805579462447,1
871,351,16,0.170575945345411,1
871,352,16,0.170540174240861,1
871,353,16,0.159131389241283,1
871,355,16,0.178612665170593,1
871,356,16,0.216856102940829,2
871,357,16,0.233884777201008,2
871,358,16,0.215622351187074,2
872,348,16,0.195972135703814,1
872,349,16,0.205438818539422,1
872,350,16,0.19842759281503,1
872,351,16,0.185771403479231,1
872,352,16,0.171828335551209,1
872,353,16,0.159852979533351,1
872,354,16,0.151779440120978,1
872,355,16,0.150716981430079,1
872,356,16,0.159855723434729,1
872,357,16,0.17152171014925,1
873,340,16,0.141704949667925,1
873,341,16,0.184125185347192,1
873,342,16,0.27997625253744,1
873,343,16,0.266606782692202,1
873,344,16,0.162524111754508,1
873,346,16,0.129730017504752,1
873,347,16,0.179550845206395,1
873,348,16,0.232608796135802,1
873,349,16,0.252800318667337,1
873,350,16,0.232635788986756,1
873,351,16,0.208286274309293,1
873,352,16,0.181438258962006,1
873,353,16,0.166266871312632,1
873,354,16,0.165981539031529,1
873,355,16,0.168501790139106,1
873,356,16,0.16630852061241,1
873,357,16,0.175654772947292,1
874,338,16,0.167653958075507,1
874,340,16,0.178595108663402,1
874,341,16,0.207086654011704,1
874,342,16,0.294810251858023,1
874,343,16,0.270538168738959,1
874,344,16,0.162809711733306,1
874,345,16,0.11592967706467,1
874,346,16,0.126134435908755,1
874,347,16,0.162082377094857,1
874,348,16,0.218339192789723,1
874,349,16,0.252638227712761,1
874,350,16,0.244723566882618,1
874,351,16,0.227707206716428,1
874,352,16,0.197042257241245,1
874,353,16,0.174597322434111,1
874,354,16,0.177263401861266,1
874,355,16,0.18335334596688,1
874,356,16,0.176774708564211,1
874,357,16,0.191199241951513,1
875,337,16,0.158772663175353,1
875,341,16,0.203053587456971,1
875,342,16,0.22495583211107,1
875,343,16,0.20071540424449,1
875,344,16,0.149255987795127,1
875,345,16,0.130740788232295,1
875,346,16,0.131402737708638,1
875,347,16,0.138206151942892,1
875,348,16,0.167095562991008,1
875,349,16,0.205769179803708,1
875,350,16,0.225636029646984,1
875,351,16,0.225451117463875,1
875,352,16,0.203759483971645,1
875,353,16,0.179876432528447,1
875,354,16,0.170124863574562,1
875,355,16,0.172816641980478,1
875,356,16,0.177312111687762,1
876,336,16,0.167562271614827,1
876,341,16,0.171229908507174,1
876,342,16,0.149838431055931,1
876,343,16,0.143623650591688,1
876,344,16,0.144102818312414,1
876,345,16,0.14556213883677,1
876,346,16,0.140474744908635,1
876,347,16,0.132161772215853,1
876,348,16,0.143311961241657,1
876,349,16,0.177456768829923,1
876,350,16,0.207137248876138,1
876,351,16,0.214041819377048,1
876,352,16,0.199601447209434,1
876,355,16,0.154746757533972,1
877,335,16,0.12611958984073,1
877,336,16,0.187591837040634,1
877,341,16,0.13879891271904,1
877,342,16,0.12296377978795,1
877,343,16,0.1263581642577,1
877,344,16,0.134836328736696,1
877,345,16,0.140541836643549,1
877,346,16,0.137055542631706,1
877,347,16,0.135322311594585,1
877,348,16,0.146917748812292,1
877,349,16,0.178737590761788,1
877,350,16,0.222550746782876,1
877,351,16,0.250639909032754,3
877,352,16,0.236505158400742,3
877,353,16,0.184760220051075,1
878,336,16,0.143316333637349,1
878,337,16,0.177760393786879,1
878,340,16,0.123478149755623,1
878,341,16,0.11447532010175,1
878,342,16,0.108987918892238,1
878,343,16,0.10950988478202,1
878,344,16,0.113784013111476,1
878,345,16,0.122746955808732,1
878,346,16,0.127871682411307,1
878,347,16,0.142070323559958,1
878,348,16,0.159339223039563,1
878,349,16,0.200270401442141,1
878,350,16,0.276033444722344,3
878,351,16,0.341658129340997,3
878,352,16,0.331688754849678,3
878,353,16,0.232295299826327,3
878,354,16,0.163477171320546,1
879,337,16,0.110815959529819,1
879,338,16,0.120248332444131,1
879,339,16,0.112189449480582,1
879,345,16,0.108452345036273,1
879,346,16,0.119517818895549,1
879,347,16,0.145504963070657,1
879,348,16,0.183148534921744,1
879,349,16,0.255567755134419,3
879,350,16,0.329401746513304,3
879,351,16,0.367074687032393,3
879,352,16,0.352385646013879,3
879,353,16,0.239773345715244,3
879,354,16,0.154232900653548,1
880,332,16,0.107480568939697,1
880,333,16,0.111749901018777,1
880,338,16,0.114460518650008,1
880,339,16,0.113612541583491,1
880,347,16,0.128888978270175,1
880,348,16,0.205138818655424,1
880,349,16,0.321950247312516,3
880,350,16,0.350015852165197,3
880,351,16,0.301004754221838,3
880,352,16,0.263485271406647,3
880,353,16,0.193463139053516,1
881,332,16,0.125656762833494,1
881,333,16,0.138248938957876,1
881,334,16,0.106538261897757,1
881,336,16,0.105677245722659,1
881,337,16,0.119738290255866,1
881,338,16,0.119429612504909,1
881,339,16,0.110285628087056,1
881,348,16,0.154823207534155,1
881,349,16,0.24136342540974,1
881,350,16,0.235403827773654,3
881,351,16,0.179235541937476,3
881,352,16,0.156183591451913,1
881,353,16,0.140320071411037,1
882,332,16,0.120756188434549,1
882,333,16,0.131552157638963,1
882,334,16,0.116307866983871,1
882,335,16,0.115998832302653,1
882,336,16,0.142457414427532,1
882,337,16,0.152815653283656,1
882,338,16,0.119632226198128,1
882,349,16,0.104428893290434,1
882,350,16,0.103419762211276,1
882,353,16,0.10496240364333,1
883,332,16,0.131775105202963,1
883,333,16,0.138354958399332,1
883,334,16,0.130829842332304,1
883,337,16,0.1869632047733,1
883,338,16,0.11645631651005,1
884,338,16,0.112396870578248,1
887,330,16,0.114757462318649,1
888,330,16,0.11228925610469,1
904,341,16,0.104748468568409,1
866,358,17,0.202277397989108,1
866,359,17,0.207648886096504,1
867,355,17,0.227900283679248,1
867,356,17,0.266239836076209,2
867,357,17,0.253563970959797,2
867,358,17,0.244783085003566,2
867,359,17,0.280767566925093,2
867,360,17,0.228967594390877,2
868,354,17,0.181633722895943,1
868,355,17,0.28704735331304,2
868,356,17,0.404187470123822,2
868,357,17,0.393290612350447,2
868,358,17,0.346376948158824,2
868,359,17,0.376660963813429,2
868,360,17,0.303454745838439,2
868,361,17,0.200001008327986,2
869,354,17,0.169531020853561,1
869,355,17,0.286483269652513,2
869,356,17,0.443980955629018,2
869,357,17,0.465419347101383,2
869,358,17,0.416877813223927,2
869,359,17,0.413180551119953,2
869,360,17,0.327840912792033,2
869,361,17,0.211337626490507,2
870,351,17,0.138832174157696,1
870,352,17,0.134570761468772,1
870,354,17,0.155879029553022,1
870,355,17,0.224863074859608,2
870,356,17,0.32784780600769,2
870,357,17,0.365176732680026,2
870,358,17,0.350272462714396,2
870,359,17,0.326776635987618,2
870,360,17,0.259501818158131,2
871,350,17,0.154052918569663,1
871,351,17,0.15635335640709,1
871,352,17,0.152998167341577,1
871,353,17,0.143367028888418,1
871,354,17,0.152849204728148,1
871,355,17,0.174907840606724,1
871,356,17,0.208173328189968,2
871,357,17,0.228340222533525,2
871,358,17,0.232785365074071,2
871,359,17,0.221018177476612,2
872,348,17,0.194225698247053,1
872,349,17,0.1923259146271,1
872,350,17,0.178040874047253,1
872,351,17,0.169068059997478,1
872,352,17,0.157477831730761,1
872,353,17,0.145937160999908,1
872,354,17,0.149998090423106,1
872,355,17,0.157418904775557,1
872,356,17,0.16338381174927,1
872,357,17,0.172770207584393,1
873,341,17,0.175619414543355,1
873,342,17,0.259377740276305,1
873,343,17,0.250069489860102,1
873,344,17,0.153144430669911,1
873,347,17,0.210405034644097,1
873,348,17,0.219798234462313,1
873,349,17,0.226966977972317,1
873,350,17,0.207770844704908,1
873,351,17,0.188524852741729,1
873,352,17,0.162490002606483,1
873,353,17,0.146247846483581,1
873,354,17,0.152793077444676,1
873,355,17,0.163710536786527,1
873,356,17,0.166157550266266,1
874,341,17,0.216755381682928,1
874,342,17,0.278387087476736,1
874,343,17,0.250972367262321,1
874,344,17,0.151082210319193,1
874,345,17,0.119286461162285,1
874,346,17,0.140808642013315,1
874,347,17,0.165467514840045,1
874,348,17,0.194242920132125,1
874,349,17,0.22936873938746,1
874,350,17,0.239989913150837,1
874,351,17,0.234167755973206,1
874,352,17,0.193677877221523,1
874,353,17,0.157427671875082,1
874,354,17,0.152906648191956,1
874,355,17,0.163795608883316,1
874,356,17,0.16760243742321,1
875,342,17,0.213435216399232,1
875,343,17,0.190443598281773,1
875,344,17,0.149850254370812,1
875,345,17,0.136800984431505,1
875,346,17,0.136229918322756,1
875,347,17,0.134868318611299,1
875,348,17,0.157350351857389,1
875,349,17,0.205993108925925,1
875,350,17,0.244347830858959,1
875,351,17,0.250355034068547,1
875,352,17,0.213034205251497,1
875,354,17,0.152571345674376,1
875,355,17,0.155310183104331,1
876,342,17,0.141066691437627,1
876,343,17,0.14377736483921,1
876,344,17,0.156703828460744,1
876,345,17,0.154546095803116,1
876,346,17,0.142108582022262,1
876,347,17,0.128703764927158,1
876,348,17,0.143927286702715,1
876,349,17,0.186819718808556,1
876,350,17,0.218169227061274,1
876,351,17,0.214813948763196,1
876,352,17,0.188766516836267,1
877,335,17,0.109861271469467,1
877,341,17,0.133262533985338,1
877,342,17,0.119038829639953,1
877,343,17,0.127561220009046,1
877,344,17,0.144201308756186,1
877,346,17,0.133232317607968,1
877,347,17,0.127711420724317,1
877,348,17,0.140855187950106,1
877,349,17,0.173380736795075,1
877,350,17,0.211561756385995,1
877,351,17,0.22759680372521,3
877,352,17,0.203007588069642,1
878,336,17,0.126523791052669,1
878,340,17,0.105161838426416,1
878,341,17,0.10711338808822,1
878,342,17,0.107598991707707,1
878,343,17,0.109566937853355,1
878,344,17,0.116325836191675,1
878,345,17,0.122539099702311,1
878,346,17,0.12390314215524,1
878,347,17,0.134551922243457,1
878,348,17,0.151549855884946,1
878,349,17,0.187020871318521,1
878,350,17,0.259363150751905,3
878,351,17,0.318119337134105,3
878,352,17,0.290889484486517,3
878,353,17,0.199132396230781,1
879,338,17,0.103677064312854,1
879,345,17,0.108515398997615,1
879,346,17,0.11880506262743,1
879,347,17,0.141156135930108,1
879,348,17,0.172516597480197,1
879,349,17,0.231092110226132,3
879,350,17,0.297245877031636,3
879,351,17,0.326138221600331,3
879,352,17,0.293853366445754,3
879,353,17,0.198440955391659,1
880,338,17,0.109427132731924,1
880,339,17,0.110850949849425,1
880,347,17,0.126989975435167,1
880,348,17,0.187112780860614,1
880,349,17,0.287911369933141,1
880,350,17,0.312627741994032,3
880,351,17,0.253364781566265,3
880,352,17,0.206183441987366,1
880,353,17,0.155332190085709,1
881,332,17,0.115181718549603,1
881,333,17,0.125628308799286,1
881,336,17,0.103205704441578,1
881,337,17,0.121394558205555,1
881,338,17,0.121823554916531,1
881,339,17,0.112979960775149,1
881,348,17,0.134256261292939,1
881,349,17,0.21571430534545,1
881,350,17,0.219480744995548,1
881,351,17,0.156514778117427,1
881,352,17,0.125501687789353,1
881,353,17,0.116752791707725,1
882,332,17,0.112653659592577,1
882,333,17,0.125593608485517,1
882,334,17,0.113283251109986,1
882,335,17,0.111277548435213,1
882,336,17,0.14186251206982,1
882,337,17,0.164956747637189,1
882,338,17,0.129958954804687,1
883,334,17,0.139442669906166,1
883,338,17,0.133997988787214,1
885,338,17,0.11497833522551,1
904,341,17,0.118131590996113,1
866,358,18,0.182088953981071,1
866,359,18,0.186339892997662,1
867,355,18,0.204989510265805,1
867,356,18,0.24887397426051,2
867,357,18,0.23824771424092,2
867,358,18,0.227842550209603,2
867,359,18,0.253689476562665,2
867,360,18,0.213084621650801,2
868,354,18,0.158459992267106,1
868,355,18,0.245896015864122,2
868,356,18,0.35799145883733,2
868,357,18,0.359170756418208,2
868,358,18,0.354136991261723,2
868,359,18,0.383884161496309,2
868,360,18,0.298232209190401,2
868,361,18,0.190345799390381,2
869,354,18,0.153816284960984,1
869,355,18,0.242780349311584,2
869,356,18,0.385250222836023,2
869,357,18,0.436559126256138,2
869,358,18,0.479795337973248,2
869,359,18,0.489542032598262,2
869,360,18,0.350794495528601,2
869,361,18,0.207003266179582,2
870,351,18,0.143005570075181,1
870,352,18,0.134844716597819,1
870,354,18,0.152744099920485,1
870,355,18,0.201844084652793,2
870,356,18,0.288208581299478,2
870,357,18,0.349291908364223,2
870,358,18,0.409818223449229,2
870,359,18,0.394278149148842,2
870,360,18,0.276633533722905,2
871,350,18,0.14837657855754,1
871,351,18,0.155528747118569,1
871,352,18,0.153385280517292,1
871,353,18,0.141212720530477,1
871,354,18,0.155083454310384,1
871,355,18,0.175573214382755,1
871,356,18,0.198911947178605,2
871,357,18,0.219554004931527,2
871,358,18,0.248796319620697,2
871,359,18,0.238953744604441,2
871,360,18,0.191535157942979,1
872,347,18,0.230727238267278,1
872,348,18,0.195193046177585,1
872,349,18,0.179385486109122,1
872,350,18,0.16375592269997,1
872,351,18,0.162467159069808,1
872,352,18,0.155625185213343,1
872,353,18,0.138969926930129,1
872,354,18,0.148558891842189,1
872,355,18,0.160821309022099,1
872,356,18,0.161432273241536,1
872,357,18,0.162958150105415,1
872,358,18,0.189937493480446,1
872,359,18,0.205294083318766,1
873,342,18,0.211632540118292,1
873,346,18,0.223519165504189,1
873,347,18,0.266139717138122,1
873,348,18,0.22362405838451,1
873,349,18,0.209790824590104,1
873,350,18,0.194362090222868,1
873,351,18,0.179949513999296,1
873,352,18,0.153341523098162,1
873,354,18,0.135028357216876,1
873,355,18,0.145737726216822,1
873,356,18,0.149477697257285,1
874,342,18,0.229648148857051,1
874,343,18,0.209332236129712,1
874,344,18,0.143482440057355,1
874,345,18,0.133961961139039,1
874,347,18,0.198349625861239,1
874,348,18,0.199158474447943,1
874,349,18,0.229482667065001,1
874,350,18,0.254442108633331,1
874,351,18,0.24687059163243,1
874,352,18,0.187898217053039,1
874,354,18,0.126017619326917,1
874,355,18,0.132530191169171,1
875,343,18,0.17097945500497,1
875,344,18,0.155304461066092,1
875,345,18,0.153439299681413,1
875,346,18,0.156315097944787,1
875,347,18,0.157495399392023,1
875,348,18,0.180342193056261,1
875,349,18,0.239271903315445,1
875,350,18,0.287178837497773,1
875,351,18,0.281273426336867,1
875,352,18,0.213867146630788,1
876,342,18,0.135705967008401,1
876,343,18,0.151054737843201,1
876,344,18,0.17876089161536,1
876,346,18,0.161528566333392,1
876,347,18,0.146243953712927,1
876,348,18,0.165069548753595,1
876,349,18,0.210823602299023,1
876,350,18,0.235342212687425,1
876,351,18,0.217924952914206,1
876,352,18,0.178073488549811,1
877,341,18,0.12720689980102,1
877,342,18,0.125961001264336,1
877,343,18,0.142410366557562,1
877,347,18,0.139396023582739,1
877,348,18,0.148971469761181,1
877,349,18,0.171721323397466,1
877,350,18,0.193345508224521,1
877,351,18,0.195995358478892,1
877,352,18,0.171778621858356,1
878,336,18,0.115303175224828,1
878,341,18,0.106060488435861,1
878,342,18,0.119128385673141,1
878,343,18,0.126324601659137,1
878,344,18,0.13961273602125,1
878,346,18,0.141566784194878,1
878,347,18,0.140302247206151,1
878,348,18,0.153595055123863,1
878,349,18,0.17377394009336,1
878,350,18,0.223013283784275,1
878,351,18,0.262623954071642,3
878,352,18,0.23374816214378,1
878,353,18,0.16426066670468,1
879,342,18,0.108594068657856,1
879,343,18,0.111418848202111,1
879,344,18,0.114579131037219,1
879,345,18,0.126202709975157,1
879,346,18,0.134241459841196,1
879,347,18,0.146144927873764,1
879,348,18,0.173516214137097,1
879,349,18,0.205063082515762,1
879,350,18,0.244726333092138,3
879,351,18,0.260076096639225,3
879,352,18,0.22762042804683,1
879,353,18,0.160207768212344,1
880,337,18,0.106358279813872,1
880,338,18,0.108000649791539,1
880,339,18,0.106313351217324,1
880,345,18,0.104207473834112,1
880,346,18,0.116444102802697,1
880,347,18,0.130630407549218,1
880,348,18,0.172201907685164,1
880,349,18,0.233812342666257,1
880,350,18,0.250976360419611,1
880,351,18,0.198305254968224,1
880,352,18,0.158041402304038,1
881,333,18,0.122137999322011,1
881,337,18,0.122450502919199,1
881,338,18,0.123393233815823,1
881,339,18,0.113970263783063,1
881,348,18,0.113889329846482,1
881,349,18,0.173293121570179,1
881,350,18,0.189948312928969,1
881,351,18,0.132033980028503,1
882,334,18,0.114715734940376,1
882,335,18,0.105735291506282,1
882,336,18,0.133310596875736,1
882,338,18,0.138346682078915,1
887,337,18,0.107327345471282,1
901,337,18,0.104827506312981,1
866,359,19,0.166152609012971,1
867,356,19,0.21835164073256,1
867,357,19,0.21175405256387,2
867,358,19,0.19970346233953,2
867,359,19,0.210924234324359,2
867,360,19,0.193105628781286,1
868,355,19,0.200967017770041,1
868,356,19,0.285378860501928,2
868,357,19,0.301244789822062,2
868,358,19,0.334368498013371,2
868,359,19,0.356768214218121,2
868,360,19,0.271062811605695,2
868,361,19,0.181988489266795,1
869,354,19,0.145084008444613,1
869,355,19,0.202687912405031,2
869,356,19,0.30660867085328,2
869,357,19,0.379147116927052,2
869,358,19,0.499715303500924,2
869,359,19,0.518114121490673,2
869,360,19,0.338532513357446,2
869,361,19,0.189365557354187,2
870,351,19,0.137045827436176,1
870,352,19,0.128653114292371,1
870,354,19,0.144474817722408,1
870,355,19,0.182260548203833,1
870,356,19,0.251090377329717,2
870,357,19,0.322568606680789,2
870,358,19,0.433076334622476,2
870,359,19,0.42432087994731,2
870,360,19,0.272059673207146,2
870,361,19,0.158468324357876,1
871,350,19,0.140346205398552,1
871,351,19,0.142350513814495,1
871,352,19,0.13892634797613,1
871,353,19,0.127399642141721,1
871,354,19,0.143500509651796,1
871,355,19,0.171580224403839,1
871,356,19,0.196557791336963,1
871,357,19,0.211246653890348,2
871,358,19,0.244190513846619,2
871,359,19,0.236618439142186,2
871,360,19,0.184911067702443,1
872,347,19,0.241353721368281,1
872,348,19,0.192738057537336,1
872,350,19,0.146960201205157,1
872,351,19,0.144596642481965,1
872,352,19,0.140245528756934,1
872,353,19,0.125857089942232,1
872,354,19,0.140084296665798,1
872,355,19,0.16404171229797,1
872,356,19,0.166801273991179,1
872,357,19,0.155717496301979,1
872,358,19,0.180535381559787,1
872,359,19,0.210322048358518,1
873,346,19,0.247812240584202,1
873,347,19,0.298037704506539,1
873,348,19,0.222786811533952,1
873,349,19,0.187706612427544,1
873,350,19,0.176447715829259,1
873,351,19,0.164057986087037,1
873,352,19,0.140095506506794,1
873,354,19,0.129306218590695,1
873,355,19,0.144596486324976,1
873,356,19,0.145939023729705,1
874,342,19,0.17762705802642,1
874,343,19,0.171853632983426,1
874,347,19,0.225499593054887,1
874,348,19,0.204961669705482,1
874,349,19,0.227222941585418,1
874,350,19,0.262067879033836,1
874,351,19,0.242894990849647,1
874,352,19,0.173351680441052,1
875,342,19,0.151900539865942,1
875,343,19,0.154797162779205,1
875,344,19,0.159925938309423,1
875,345,19,0.166906746883173,1
875,346,19,0.173707941457369,1
875,348,19,0.197626262071939,1
875,349,19,0.265229589589986,1
875,350,19,0.321511959260694,1
875,351,19,0.291415331992882,1
875,352,19,0.199362237010438,1
876,342,19,0.133477941397584,1
876,343,19,0.162500230889262,1
876,346,19,0.168643614147324,1
876,347,19,0.153549178431311,1
876,348,19,0.17557556789166,1
876,349,19,0.221291831445752,1
876,350,19,0.238048011760138,1
876,351,19,0.205461952081934,1
877,341,19,0.119433527583704,1
877,342,19,0.12893855811418,1
877,347,19,0.142640307723855,1
877,348,19,0.151558857219954,1
877,349,19,0.164805743828832,1
877,350,19,0.166684312406423,1
878,336,19,0.108636521050721,1
878,337,19,0.129840498574465,1
878,342,19,0.122621416743652,1
878,343,19,0.132520219430016,1
878,346,19,0.150966564914773,1
878,347,19,0.146944819741741,1
878,348,19,0.162566017597911,1
878,349,19,0.17076518530793,1
878,350,19,0.184539135216872,1
878,351,19,0.19671452833763,1
878,352,19,0.176068655892548,1
879,337,19,0.119282869551538,1
879,338,19,0.105434834305388,1
879,342,19,0.118436677136324,1
879,343,19,0.119612583879727,1
879,344,19,0.118089819001557,1
879,345,19,0.130539044556586,1
879,346,19,0.143540664306108,1
879,347,19,0.155211458425076,1
879,348,19,0.186572957303735,1
879,349,19,0.198881340408762,1
879,350,19,0.20374759373234,1
879,351,19,0.201808369318596,1
879,352,19,0.176042131512561,1
880,337,19,0.125006647826103,1
880,338,19,0.117372032247578,1
880,339,19,0.103594055719134,1
880,345,19,0.107322169982504,1
880,346,19,0.123239709187501,1
880,347,19,0.131807440853756,1
880,348,19,0.163417050879784,1
880,349,19,0.192528606398814,1
880,350,19,0.197850681973264,1
880,351,19,0.16006305529983,1
880,352,19,0.129741695816715,1
881,337,19,0.123049130736505,1
881,338,19,0.123494546239468,1
881,339,19,0.11042355932462,1
881,349,19,0.131237724387555,1
881,350,19,0.150940085151068,1
881,351,19,0.110928805262508,1
882,334,19,0.118546845892058,1
882,336,19,0.121425131513185,1
882,338,19,0.142581436539004,1
886,338,19,0.108449299974988,1
895,332,19,0.104722579970448,1
895,335,19,0.11570066168624,1
867,357,20,0.183365593136445,1
867,358,20,0.174197337460875,2
867,359,20,0.175160915315529,2
867,360,20,0.17443652535173,1
868,356,20,0.218336560429052,1
868,357,20,0.243320741726067,2
868,358,20,0.299558115875803,2
868,359,20,0.31431769523706,2
868,360,20,0.238760511484633,2
868,361,20,0.183260510636923,1
869,355,20,0.172395352732315,1
869,356,20,0.23601652087404,2
869,357,20,0.312092301986915,2
869,358,20,0.469331615071059,2
869,359,20,0.489704435866815,2
869,360,20,0.30388399909304,2
869,361,20,0.172115987879005,2
870,355,20,0.162213080494645,1
870,356,20,0.215806437968956,1
870,357,20,0.280979494267298,2
870,358,20,0.403194400906389,2
870,359,20,0.399475589137934,2
870,360,20,0.247693427423719,2
871,351,20,0.120311765643874,1
871,352,20,0.114797695051456,1
871,354,20,0.126718418431308,1
871,355,20,0.160488058853517,1
871,356,20,0.18810902898818,1
871,357,20,0.19323749220442,1
871,358,20,0.217863917839651,2
871,359,20,0.213327133454707,2
872,346,20,0.18245965951887,1
872,347,20,0.216054772197738,1
872,351,20,0.116119374344085,1
872,352,20,0.11530754762052,1
872,353,20,0.1131492795675,1
872,354,20,0.132447059880673,1
872,355,20,0.165980312083758,1
872,356,20,0.168221432573509,1
872,357,20,0.146138648131992,1
873,345,20,0.161454402917691,1
873,346,20,0.22918730727439,1
873,347,20,0.276558689908894,1
873,348,20,0.199495862776734,1
873,349,20,0.157762706694968,1
873,350,20,0.149764223023947,1
873,351,20,0.138328757487393,1
873,354,20,0.132224112316673,1
873,355,20,0.155229528019516,1
873,356,20,0.149024027742048,1
874,342,20,0.138268436273359,1
874,343,20,0.142078109101267,1
874,344,20,0.135007476796633,1
874,346,20,0.200879547548063,1
874,347,20,0.223507252956743,1
874,348,20,0.192130874547847,1
874,349,20,0.209677766930072,1
874,350,20,0.24330430062594,1
874,351,20,0.213590391830009,1
874,352,20,0.148284300931115,1
875,341,20,0.148112383240304,1
875,342,20,0.126906241826855,1
875,343,20,0.133093482890682,1
875,344,20,0.146594871929407,1
875,345,20,0.159615197055397,1
875,346,20,0.1709796334701,1
875,347,20,0.17169291397954,1
875,348,20,0.190002209398313,1
875,349,20,0.26115549836343,1
875,350,20,0.314245662248852,1
875,351,20,0.26556146780788,1
875,352,20,0.169441609823292,1
876,341,20,0.126158082538517,1
876,342,20,0.126575590556732,1
876,343,20,0.160063601849291,1
876,346,20,0.150526458749436,1
876,347,20,0.13904303070912,1
876,348,20,0.161237534322191,1
876,349,20,0.20525421867029,1
876,350,20,0.216850302824095,1
876,351,20,0.180662761046523,1
877,340,20,0.120988750807443,1
877,341,20,0.109857278312177,1
877,342,20,0.124253067659432,1
877,347,20,0.129737736121637,1
877,348,20,0.138246685835606,1
877,349,20,0.146961093530809,1
877,350,20,0.140153853450324,1
878,336,20,0.106146385933878,1
878,337,20,0.12122986835252,1
878,338,20,0.107526858332863,1
878,342,20,0.117529159640718,1
878,343,20,0.129405422894988,1
878,346,20,0.152248357250784,1
878,347,20,0.145679535430281,1
878,348,20,0.159377804969915,1
878,349,20,0.158357341354984,1
878,350,20,0.148151065557292,1
879,337,20,0.130301719395528,1
879,338,20,0.112885106558406,1
879,342,20,0.118642759745512,1
879,343,20,0.118794544338814,1
879,344,20,0.114558562930954,1
879,345,20,0.130722462094229,1
879,346,20,0.153439321989554,1
879,347,20,0.162686537331202,1
879,348,20,0.195042867770456,1
879,349,20,0.19382905949501,1
879,350,20,0.173192322233784,1
879,351,20,0.156175181282649,1
880,337,20,0.132214017882741,1
880,338,20,0.120950804659118,1
880,345,20,0.108610342446923,1
880,346,20,0.127838365202298,1
880,347,20,0.131555325395026,1
880,348,20,0.159224458806723,1
880,349,20,0.168930898390789,1
880,350,20,0.163653528331473,1
880,351,20,0.137593693077989,1
880,352,20,0.111864587173122,1
881,337,20,0.113792568283659,1
881,338,20,0.114941850260439,1
881,349,20,0.105821769015973,1
881,350,20,0.119407203976988,1
882,335,20,0.104202688737806,1
882,336,20,0.109567562481311,1
882,338,20,0.135533937776883,1
892,335,20,0.122268167326408,1
893,335,20,0.118773318142381,1
894,335,20,0.109839732959056,1
894,349,20,0.104349599002237,1
895,334,20,0.130761144411217,1
901,336,20,0.111659976901258,1
902,337,20,0.111717632292409,1
867,358,21,0.163913083555322,1
867,359,21,0.153460392028998,1
868,357,21,0.206566852011628,1
868,358,21,0.269550051928891,2
868,359,21,0.270611183285384,2
868,360,21,0.210227908002296,1
869,356,21,0.184351546056808,1
869,357,21,0.257367375200004,2
869,358,21,0.411033570986424,2
869,359,21,0.42085339169857,2
869,360,21,0.257203633442973,2
870,356,21,0.18529787971825,1
870,357,21,0.237601871242584,2
870,358,21,0.339430215270886,2
870,359,21,0.335393467872841,2
870,360,21,0.210884235827036,2
871,355,21,0.141038148170853,1
871,356,21,0.174986989892003,1
871,357,21,0.174685038045643,1
871,358,21,0.18377648679077,2
871,359,21,0.181282079664871,2
872,354,21,0.122004473942351,1
872,355,21,0.15365090355557,1
872,356,21,0.160937869060312,1
873,346,21,0.190658470298628,1
873,347,21,0.22420364620323,1
873,355,21,0.153855569597787,1
874,340,21,0.123364378235071,1
874,341,21,0.121710642259419,1
874,342,21,0.112756042807003,1
874,344,21,0.122815229875134,1
874,345,21,0.147933048092516,1
874,346,21,0.201742247987828,1
874,347,21,0.213093567215456,1
874,349,21,0.179790668879277,1
874,350,21,0.202069642269323,1
874,351,21,0.172590047035377,1
875,340,21,0.135286562798176,1
875,341,21,0.121271874582559,1
875,342,21,0.111489252696006,1
875,343,21,0.117477215133736,1
875,344,21,0.133394910495722,1
875,345,21,0.154430216163212,1
875,346,21,0.177292859761833,1
875,347,21,0.171273476307103,1
875,348,21,0.170863564210995,1
875,349,21,0.223054107682826,1
875,350,21,0.257118505575831,1
875,351,21,0.208252053620562,1
876,340,21,0.13974400827864,1
876,341,21,0.114571122414498,1
876,342,21,0.119514584215063,1
876,343,21,0.156227973498999,1
876,346,21,0.138315907998013,1
876,347,21,0.128800381487062,1
876,348,21,0.142508031600107,1
876,349,21,0.174033651474198,1
876,350,21,0.179565200495312,1
877,336,21,0.135565113404329,1
877,339,21,0.134283733768931,1
877,340,21,0.113972505751262,1
877,341,21,0.103235653121253,1
877,342,21,0.119636052044358,1
877,347,21,0.119664361075649,1
877,348,21,0.126744106255997,1
877,349,21,0.1302086832923,1
877,350,21,0.119835397594879,1
878,337,21,0.109874422118754,1
878,342,21,0.112559552698567,1
878,343,21,0.12881891955247,1
878,346,21,0.152568434461938,1
878,347,21,0.146585346353078,1
878,348,21,0.153697750652268,1
878,349,21,0.143425799686633,1
878,350,21,0.121698562400913,1
878,351,21,0.105328480241813,1
879,337,21,0.126899538230399,1
879,338,21,0.112353291624248,1
879,342,21,0.113463757435192,1
879,343,21,0.114920456752947,1
879,344,21,0.110655742459112,1
879,345,21,0.130917669484542,1
879,346,21,0.161636950437824,1
879,347,21,0.170246599101553,1
879,348,21,0.191850684293311,1
879,349,21,0.179068130491205,1
879,350,21,0.146907531683584,1
879,351,21,0.122297803692104,1
879,352,21,0.105491798144159,1
880,337,21,0.124747750692422,1
880,338,21,0.114747066724811,1
880,343,21,0.103988775971027,1
880,345,21,0.10561110208375,1
880,346,21,0.126344812835141,1
880,347,21,0.130663869761145,1
880,348,21,0.148963706528014,1
880,349,21,0.147246515044477,1
880,350,21,0.136549984379839,1
880,351,21,0.119315840984357,1
882,335,21,0.109093425246445,1
882,336,21,0.104210831209375,1
882,337,21,0.120874310042652,1
882,338,21,0.120700507313903,1
883,338,21,0.164844526532456,1
892,335,21,0.106172207607415,1
893,333,21,0.105331581073452,1
893,334,21,0.10918502247456,1
894,334,21,0.104830952920809,1
901,336,21,0.106025799276163,1
902,336,21,0.11770682167791,1
867,358,22,0.159891092992736,1
868,357,22,0.191672709942141,1
868,358,22,0.249119698436761,2
868,359,22,0.230649739784455,2
869,356,22,0.158966989394085,1
869,357,22,0.221810674195754,2
869,358,22,0.344491307900446,2
869,359,22,0.335754324366264,2
869,360,22,0.210593895368214,2
870,357,22,0.19763478378191,1
870,358,22,0.265279247512486,2
870,359,22,0.257843631708292,2
870,360,22,0.174098122002511,1
871,358,22,0.151845851457583,1
871,359,22,0.150084211002536,1
872,355,22,0.135081082508802,1
874,341,22,0.107150174213199,1
874,344,22,0.110894573419707,1
874,345,22,0.141409746034304,1
874,346,22,0.188227909073087,1
875,339,22,0.126359413513612,1
875,340,22,0.112046253521675,1
875,341,22,0.106996471119746,1
875,342,22,0.103040367652446,1
875,343,22,0.109159814274908,1
875,344,22,0.123720070393786,1
875,345,22,0.147240447230047,1
875,346,22,0.173178613880964,1
875,347,22,0.158605251729082,1
875,348,22,0.145576360276839,1
875,349,22,0.177123596739835,1
875,350,22,0.192889306735247,1
876,339,22,0.146599054705898,1
876,340,22,0.122612906187752,1
876,341,22,0.105369014134528,1
876,342,22,0.113770628226705,1
876,343,22,0.152077075341999,1
876,345,22,0.150926532955237,1
876,346,22,0.128256754392094,1
876,347,22,0.11806381886289,1
876,348,22,0.12457529760622,1
876,349,22,0.143101651239695,1
877,338,22,0.11832566067122,1
877,339,22,0.114579421043056,1
877,340,22,0.103684894470445,1
877,342,22,0.115915221389117,1
877,346,22,0.123290928679891,1
877,347,22,0.114307830576984,1
877,348,22,0.120480448654199,1
877,349,22,0.11731529149022,1
877,350,22,0.107975173894192,1
878,342,22,0.109329066142836,1
878,345,22,0.150248700082299,1
878,346,22,0.147958512835792,1
878,347,22,0.14526019814448,1
878,348,22,0.147772786405526,1
878,349,22,0.130335750465058,1
878,350,22,0.107852791431104,1
879,337,22,0.111184880416316,1
879,342,22,0.108933498181574,1
879,345,22,0.133048364674933,1
879,346,22,0.163076227097235,1
879,347,22,0.171743888082375,1
879,348,22,0.180228309995002,1
879,349,22,0.160535809429937,1
879,350,22,0.129002091700559,1
879,351,22,0.104552904247836,1
880,337,22,0.107871195647664,1
880,343,22,0.11393722542582,1
880,344,22,0.105662723122683,1
880,345,22,0.108579233743901,1
880,346,22,0.126294586055038,1
880,347,22,0.132658128359439,1
880,348,22,0.140555846156276,1
880,349,22,0.133755410058884,1
880,350,22,0.121499506856229,1
880,351,22,0.106859510286329,1
882,337,22,0.10660776291193,1
882,338,22,0.104890604890605,1
883,338,22,0.142532927485781,1
891,335,22,0.107503490554867,1
892,334,22,0.131050235614127,1
893,333,22,0.121932887116968,1
893,334,22,0.119823551971857,1
894,333,22,0.10713040920002,1
894,334,22,0.10748844371357,1
895,335,22,0.112158675399679,1
897,336,22,0.103156637684822,1
900,336,22,0.102921108329137,1
901,336,22,0.10629036267773,1
903,340,22,0.109241551304576,1
904,341,22,0.12224772191492,1
867,358,23,0.164927189349986,1
868,357,23,0.203403200647186,1
868,358,23,0.244868012097437,1
868,359,23,0.199474647734372,1
869,357,23,0.214859412755135,1
869,358,23,0.289409406236696,2
869,359,23,0.257158727154567,2
869,360,23,0.174133123476187,1
870,358,23,0.207927514781151,1
870,359,23,0.197833058541649,1
874,345,23,0.130981939239583,1
875,339,23,0.116797552993213,1
875,340,23,0.103888746265506,1
875,343,23,0.106374073977901,1
875,344,23,0.114314946874054,1
875,345,23,0.136073828258187,1
875,346,23,0.156120548644642,1
875,347,23,0.137365625795564,1
876,339,23,0.124602123146115,1
876,340,23,0.109809739663099,1
876,342,23,0.120425782553981,1
876,345,23,0.132852666505513,1
876,346,23,0.118917807973483,1
876,347,23,0.109924336584879,1
876,348,23,0.110653165868794,1
877,338,23,0.103646792165131,1
877,346,23,0.112499019557191,1
877,347,23,0.111977856760496,1
877,348,23,0.117364447479541,1
877,349,23,0.111231415199036,1
878,346,23,0.135515332787052,1
878,347,23,0.142967780083845,1
878,348,23,0.144318716503768,1
878,349,23,0.122520974337517,1
879,346,23,0.155297333614951,1
879,347,23,0.170399075247234,1
879,348,23,0.167542584680143,1
879,349,23,0.141040033208791,1
879,350,23,0.1124283473656,1
880,345,23,0.112532269841775,1
880,346,23,0.132962277557715,1
880,347,23,0.14676195990763,1
880,348,23,0.141744780854189,1
880,349,23,0.125246939969952,1
880,350,23,0.107156699344524,1
883,338,23,0.11690307050149,1
886,333,23,0.134176888926248,1
886,338,23,0.112371483913465,1
887,335,23,0.123346955576727,1
887,337,23,0.119560996303006,1
888,336,23,0.108425709115579,1
892,333,23,0.136043556110463,1
892,334,23,0.130843472606629,1
893,333,23,0.134166727567892,1
893,334,23,0.129329552906479,1
894,333,23,0.115737838203691,1
894,334,23,0.113438928473942,1
895,335,23,0.123951718132887,1
896,336,23,0.134716701329057,1
896,348,23,0.107118318187444,1
897,336,23,0.125323021885804,1
897,346,23,0.10931820207803,1
898,336,23,0.107223501073602,1
898,346,23,0.110313502109592,1
901,336,23,0.1082300332543,1
903,339,23,0.126257476462011,1
903,340,23,0.115886399270577,1
904,341,23,0.117065551848537,1
868,358,24,0.229894408428694,1
869,357,24,0.202821359706196,1
869,358,24,0.234088093600678,1
869,359,24,0.194374939712248,1
870,358,24,0.165287923148632,1
875,340,24,0.109051430170476,1
875,345,24,0.116981026301209,1
876,339,24,0.115423360336,1
876,340,24,0.104619705976913,1
876,341,24,0.103011121679221,1
876,342,24,0.124723724824259,1
876,345,24,0.116203866429201,1
876,346,24,0.109260591303162,1
877,346,24,0.105878409386695,1
877,347,24,0.108331222983168,1
877,348,24,0.114238028402904,1
878,346,24,0.122880235798838,1
878,347,24,0.135894158488279,1
878,348,24,0.13945264164532,1
878,349,24,0.117464477185062,1
879,346,24,0.143386225043994,1
879,347,24,0.16451557068107,1
879,348,24,0.160348209115803,1
879,349,24,0.131819922258805,1
879,350,24,0.105212924069958,1
880,346,24,0.141691531320943,1
880,347,24,0.165654122441892,1
880,348,24,0.15693816433087,1
880,349,24,0.132686928169837,1
880,350,24,0.103182570899065,1
881,346,24,0.114406410253321,1
881,347,24,0.133976807207064,1
881,348,24,0.127121080381498,1
881,349,24,0.109522979660954,1
886,338,24,0.107294987512349,1
887,334,24,0.122915081115525,1
887,335,24,0.11671137664343,1
887,336,24,0.126057327818404,1
887,337,24,0.10998998944468,1
888,335,24,0.117756535370763,1
888,336,24,0.105594861756895,1
889,335,24,0.115162165463767,1
890,335,24,0.106664771366983,1
891,334,24,0.121913657499181,1
892,334,24,0.12523545127719,1
893,334,24,0.128545600205449,1
894,334,24,0.112192461079655,1
895,335,24,0.119495388059487,1
895,336,24,0.112467029682588,1
895,348,24,0.118780356360957,1
895,349,24,0.110845595895516,1
896,335,24,0.153723862331642,1
896,347,24,0.124186600552475,1
896,348,24,0.152243159453865,1
896,349,24,0.123173063615413,1
897,337,24,0.114598695277126,1
897,346,24,0.137767551577092,1
897,347,24,0.131137025437795,1
897,348,24,0.121601588910748,1
898,336,24,0.110192346594274,1
898,346,24,0.133967950874974,1
898,347,24,0.117213945604364,1
899,346,24,0.108407472210079,1
902,337,24,0.104322249221022,1
903,338,24,0.113091189167595,1
903,339,24,0.121557998802677,1
903,340,24,0.121641342018517,1
904,340,24,0.13683909789089,1
904,341,24,0.110819818838262,1
905,341,24,0.118744406791276,1
869,358,25,0.182485146570288,1
876,341,25,0.105463321801809,1
876,344,25,0.106775720907663,1
877,345,25,0.106543113918487,1
877,347,25,0.105099041008699,1
878,346,25,0.113141092479649,1
878,347,25,0.128244830690577,1
878,348,25,0.13625203684484,1
879,346,25,0.131881057719996,1
879,347,25,0.158229805711259,1
879,348,25,0.158905720084046,1
879,349,25,0.129110710040475,1
880,346,25,0.149249038809116,1
880,349,25,0.144704725426489,1
880,350,25,0.10295275242755,1
881,346,25,0.141648186602426,1
881,349,25,0.137715506683475,1
882,337,25,0.110907590220147,1
885,338,25,0.121660013932773,1
886,337,25,0.149529429836925,1
886,338,25,0.111497752097835,1
887,335,25,0.117636261027026,1
887,336,25,0.119882980860239,1
887,337,25,0.113862024681549,1
888,335,25,0.110137780880692,1
889,335,25,0.103471539407198,1
895,348,25,0.139189149034535,1
896,347,25,0.15694145478171,1
896,348,25,0.186042123927793,1
897,346,25,0.171681157589082,1
897,347,25,0.165089235688279,1
898,346,25,0.173057123743527,1
