x,y,z,signal,mito.p
960,595,1,0.110047232135217,1
960,596,1,0.111918952113433,1
951,585,2,0.12220414296092,1
951,586,2,0.118753720440263,1
952,585,2,0.113463099345024,1
952,586,2,0.112647602932218,1
953,586,2,0.114568110815424,1
953,587,2,0.107884279372527,1
954,586,2,0.118637037707273,1
954,587,2,0.112217680433378,1
954,596,2,0.111518855599491,1
954,597,2,0.118222931680603,1
955,594,2,0.113090162993096,1
955,595,2,0.115154904163779,1
955,596,2,0.117780650471491,1
955,597,2,0.120598380643101,1
955,598,2,0.110153351963308,1
956,593,2,0.113386303568651,1
956,594,2,0.130449733912952,1
956,595,2,0.129156497500462,1
956,596,2,0.117857792024054,1
956,597,2,0.113123312891045,1
956,598,2,0.113782317692739,1
956,599,2,0.111260460398989,1
957,594,2,0.127977991858599,1
957,595,2,0.141754719131132,1
957,596,2,0.1294684880104,1
957,597,2,0.115181941631016,1
957,598,2,0.112997294200927,1
957,599,2,0.111440052090402,1
958,594,2,0.123784328994757,1
958,597,2,0.12960166761387,1
958,598,2,0.112316115106797,1
959,594,2,0.127748909555746,1
959,598,2,0.1228892929042,1
960,594,2,0.121351615033581,1
960,598,2,0.142455395540745,1
960,599,2,0.104218717137319,1
961,595,2,0.140423112715632,1
961,599,2,0.106737752451196,1
962,596,2,0.139445469577897,1
963,597,2,0.119758969902837,1
963,598,2,0.111212676360357,1
948,604,3,0.105996519840727,1
949,604,3,0.107851285631567,1
950,585,3,0.125281406048237,1
950,586,3,0.130383523349619,1
950,587,3,0.118163703565492,1
950,588,3,0.106468102793417,1
951,583,3,0.106503204653728,1
951,584,3,0.113725320391756,1
951,585,3,0.133154283729753,1
951,586,3,0.134020174233722,1
951,587,3,0.11147560011354,1
952,584,3,0.106438109497459,1
952,585,3,0.121554005645387,1
952,586,3,0.123596539061422,1
952,587,3,0.107456877693652,1
953,585,3,0.11156520076301,1
953,586,3,0.131928841758628,1
953,587,3,0.121093409452281,1
953,594,3,0.108982241470281,1
953,595,3,0.1191660529697,1
953,596,3,0.128991238789824,1
953,597,3,0.129123202599594,1
953,598,3,0.10664665715626,1
954,585,3,0.103332637765488,1
954,586,3,0.137842540394021,1
954,587,3,0.127977434155067,1
954,590,3,0.109540937714688,1
954,591,3,0.104500145493697,1
954,593,3,0.110204716458616,1
954,594,3,0.124693586525383,1
954,595,3,0.136631788333931,1
954,596,3,0.156464417488476,1
954,597,3,0.168447592509854,1
954,598,3,0.139040286807742,1
954,599,3,0.107537688935456,1
955,589,3,0.103642196688026,1
955,590,3,0.121354392397171,1
955,591,3,0.115328372270409,1
955,592,3,0.115555948773726,1
955,593,3,0.136929970104414,1
955,594,3,0.157030330416588,1
955,595,3,0.158892848286525,1
955,596,3,0.157043358371099,1
955,597,3,0.1614587306971,1
955,598,3,0.147722871939401,1
955,599,3,0.130807801888714,1
955,600,3,0.118235011539109,1
956,592,3,0.110302147265678,1
956,593,3,0.144673215176925,1
956,594,3,0.176146399764926,1
956,595,3,0.176837416749363,1
956,596,3,0.151474967454653,1
956,597,3,0.140265126459053,1
956,598,3,0.14319012532803,1
956,599,3,0.148882002960558,1
956,600,3,0.140127786387233,1
957,593,3,0.118364655302186,1
957,594,3,0.156855824981388,1
957,597,3,0.139884973423419,1
957,598,3,0.140269175386696,1
957,599,3,0.145456431709292,1
957,600,3,0.13191569110934,1
958,598,3,0.146463097738838,1
958,599,3,0.139768536079983,1
958,600,3,0.112376202085347,1
959,599,3,0.146067607856071,1
959,600,3,0.104836239950294,1
960,599,3,0.146567444069697,1
962,595,3,0.117906234152854,1
963,596,3,0.126816094627923,1
970,584,3,0.108726266703109,1
971,584,3,0.125937220785727,1
949,589,4,0.121234820759885,1
949,604,4,0.111339788149398,1
950,588,4,0.117988261188358,1
950,589,4,0.105391668052002,1
951,583,4,0.12456643012006,1
951,587,4,0.123961031781873,1
951,588,4,0.105130685107112,1
952,580,4,0.110979980138616,1
952,582,4,0.106755911278202,1
952,583,4,0.106198308132718,1
952,584,4,0.120023254452638,1
952,587,4,0.121467851603746,1
952,594,4,0.11620453567344,1
952,595,4,0.124073096729618,1
952,596,4,0.112168122897513,1
953,584,4,0.107507294092956,1
953,585,4,0.1349753084569,1
953,586,4,0.156128356494092,1
953,587,4,0.133957733746266,1
953,588,4,0.106352669316338,1
953,589,4,0.104665292663629,1
953,590,4,0.112540378851133,1
953,591,4,0.110035765750596,1
953,593,4,0.107193585856139,1
953,594,4,0.127251616470226,1
953,595,4,0.141716438360687,1
953,596,4,0.146458993040841,1
953,597,4,0.136507900071306,1
953,598,4,0.106637265428779,1
954,585,4,0.110570692670464,1
954,586,4,0.140102544725369,1
954,587,4,0.125697675964611,1
954,589,4,0.112673134599918,1
954,591,4,0.126040485171734,1
954,592,4,0.123566858079442,1
954,593,4,0.132850971086775,1
954,594,4,0.145641198889483,1
954,595,4,0.155066165500888,1
954,596,4,0.171263080713264,1
954,597,4,0.179172878368607,1
954,598,4,0.144764210085225,1
954,599,4,0.115998575759028,1
954,600,4,0.109014599429215,1
955,589,4,0.105002636376137,1
955,590,4,0.127778244761535,1
955,591,4,0.131154871950823,1
955,592,4,0.142699915077368,1
955,596,4,0.170745766070941,1
955,597,4,0.17027761857201,1
955,598,4,0.157635260283808,1
955,599,4,0.149245926823407,1
955,600,4,0.146651400759423,1
955,601,4,0.108523240309277,1
956,591,4,0.10599535981738,1
956,592,4,0.13170489032827,1
956,596,4,0.163417898589153,1
956,597,4,0.145819284781359,1
956,598,4,0.152583782463142,1
956,599,4,0.168187167268496,1
956,600,4,0.168447994056397,1
956,601,4,0.116422408135297,1
957,593,4,0.142205845518263,1
957,598,4,0.152352893200844,1
957,599,4,0.160351945729468,1
957,600,4,0.146196939305169,1
958,593,4,0.112326454930282,1
958,599,4,0.162995772785692,1
958,600,4,0.123696613383225,1
959,593,4,0.103510043259055,1
959,600,4,0.117733279133473,1
960,600,4,0.109212740340106,1
963,595,4,0.1110458672339,1
963,599,4,0.114513500485559,1
964,596,4,0.105411834611724,1
964,598,4,0.116073263416049,1
965,598,4,0.106733525058423,1
966,598,4,0.105915117433179,1
967,594,4,0.104585652599242,1
969,594,4,0.103858552196277,1
970,584,4,0.121710419178006,1
970,607,4,0.108287710953592,1
971,584,4,0.139705905973326,1
971,585,4,0.115468467397678,1
948,604,5,0.10795915664875,1
949,589,5,0.131946264416971,1
949,590,5,0.106331231192564,1
949,604,5,0.108256055701109,1
949,605,5,0.104233998214099,1
950,589,5,0.114520148311662,1
951,588,5,0.119598697061777,1
951,589,5,0.102975105185117,1
952,583,5,0.117821630527032,1
952,588,5,0.118925604668862,1
952,594,5,0.132308303241882,1
952,595,5,0.148656278032968,1
952,596,5,0.126948281519106,1
953,580,5,0.110485330567838,1
953,582,5,0.106497995702738,1
953,583,5,0.10437933575457,1
953,584,5,0.124609808300788,1
953,587,5,0.153232603598339,1
953,588,5,0.116394199490643,1
953,589,5,0.109504218514133,1
953,591,5,0.115748568419649,1
953,592,5,0.110063517078354,1
953,593,5,0.114183652308522,1
953,594,5,0.135101405225513,1
953,595,5,0.157632538690571,1
953,596,5,0.160304317847825,1
953,597,5,0.139901916456725,1
953,598,5,0.107956055817111,1
954,585,5,0.119203419106352,1
954,586,5,0.139351474224594,1
954,587,5,0.120065439147808,1
954,596,5,0.177935189227916,1
954,597,5,0.181695583371726,1
954,598,5,0.151361485939937,1
954,599,5,0.131693368173296,1
954,600,5,0.12894584172231,1
954,601,5,0.10363879469648,1
955,597,5,0.180637162454399,1
955,598,5,0.174666366131387,1
955,599,5,0.177397049935703,1
955,600,5,0.183481796244398,1
955,601,5,0.130599488465397,1
956,591,5,0.103631890326753,1
956,597,5,0.159627477687174,1
956,598,5,0.170610601042897,1
956,599,5,0.191345984904884,1
956,600,5,0.196048273390019,1
956,601,5,0.13068080164038,1
957,592,5,0.108703378550151,1
957,599,5,0.180988203365656,1
957,600,5,0.159249689314516,1
958,593,5,0.129615242117842,1
958,600,5,0.139663520504885,1
959,614,5,0.109561528129094,1
959,615,5,0.128177917420793,1
960,593,5,0.107288261607751,1
960,614,5,0.109247039107332,1
960,615,5,0.126049475352672,1
962,594,5,0.103168505615985,1
964,599,5,0.12122865255882,1
965,599,5,0.126207785077299,1
966,597,5,0.119256802488446,1
966,598,5,0.141125651855042,1
966,599,5,0.115002171474473,1
967,597,5,0.112342784489703,1
967,598,5,0.115911228231827,1
968,597,5,0.104959905131506,1
969,596,5,0.104043174373549,1
970,584,5,0.116017035745941,1
970,595,5,0.104774100622745,1
970,596,5,0.119911077964188,1
970,597,5,0.111849584948108,1
970,607,5,0.11544472038128,1
971,584,5,0.135056231239411,1
971,585,5,0.11887954951118,1
971,595,5,0.109782534884802,1
971,596,5,0.130756292390488,1
971,597,5,0.120594119788115,1
971,607,5,0.112767821505601,1
971,608,5,0.110844212790756,1
971,609,5,0.106448873175629,1
971,610,5,0.103794182054599,1
972,596,5,0.113354269077766,1
972,597,5,0.10534214397835,1
972,608,5,0.106102896212443,1
972,609,5,0.112799119827824,1
949,604,6,0.106617266180117,1
950,589,6,0.114919385962165,1
950,590,6,0.104158641312839,1
951,589,6,0.103871992851401,1
952,588,6,0.120286646676787,1
952,594,6,0.126916771269541,1
952,595,6,0.149589505661405,1
952,596,6,0.123931339645823,1
953,583,6,0.113253268968099,1
953,588,6,0.112907704705528,1
953,589,6,0.111267163995445,1
953,593,6,0.118501616135604,1
953,594,6,0.12772033282676,1
953,595,6,0.148221269277915,1
953,596,6,0.147647648886989,1
953,597,6,0.120230854015434,1
954,582,6,0.117083320283071,1
954,583,6,0.105898074013237,1
954,585,6,0.111911278112831,1
954,596,6,0.151996476027538,1
954,597,6,0.150527083377392,1
954,598,6,0.129026262571641,1
954,599,6,0.12231195820775,1
954,600,6,0.12836155803985,1
955,597,6,0.1567614057734,1
955,598,6,0.158596640786546,1
955,599,6,0.173700100145708,1
955,600,6,0.194165421649302,1
955,601,6,0.135581253344548,1
956,597,6,0.145931784737858,1
956,598,6,0.161355544389587,1
956,599,6,0.186583743290046,1
956,600,6,0.199250607071449,1
956,601,6,0.130455389026768,1
957,592,6,0.122994933107254,1
957,600,6,0.154135469846487,1
958,615,6,0.117702203892664,1
959,614,6,0.152461578465184,1
959,615,6,0.185231178375808,1
959,616,6,0.128331821287517,1
960,593,6,0.103455511007685,1
960,614,6,0.149650306500476,1
960,615,6,0.180666754203813,1
960,616,6,0.130648454835517,1
961,614,6,0.114129186981576,1
961,615,6,0.130392859306747,1
961,616,6,0.10444618209993,1
962,594,6,0.107190618873348,1
962,615,6,0.103816735585438,1
966,599,6,0.136972177107724,1
967,596,6,0.107262161082448,1
967,597,6,0.129442030554836,1
967,598,6,0.137266834191884,1
967,612,6,0.110413029881934,1
967,613,6,0.103787154990095,1
968,596,6,0.111825603696227,1
968,597,6,0.125086020192794,1
968,598,6,0.113136229304849,1
968,611,6,0.114243772749285,1
968,613,6,0.126186280029101,1
969,596,6,0.121870736635349,1
969,597,6,0.120831244175902,1
969,610,6,0.103062073473916,1
969,611,6,0.127409390799462,1
970,595,6,0.12131164999847,1
970,597,6,0.136913272460662,1
970,598,6,0.105132436296203,1
970,607,6,0.117453066570795,1
970,608,6,0.113691768947264,1
970,609,6,0.111545279592843,1
970,610,6,0.1204745593049,1
971,584,6,0.116199962504476,1
971,585,6,0.110227995004047,1
971,595,6,0.132677157203955,1
971,597,6,0.15026486233066,1
971,598,6,0.117781765878556,1
971,606,6,0.106327037262002,1
971,607,6,0.128459301160889,1
971,608,6,0.138296789920932,1
972,595,6,0.113345524286383,1
972,596,6,0.132276547602763,1
972,597,6,0.124845003034353,1
972,598,6,0.108508171159839,1
951,589,7,0.105102297997327,1
952,589,7,0.10377544321592,1
953,588,7,0.112419000254402,1
953,589,7,0.113834875673605,1
953,594,7,0.112103328901152,1
953,595,7,0.123087500739515,1
953,596,7,0.123466783757639,1
954,583,7,0.110097035060635,1
954,584,7,0.110405790890087,1
954,596,7,0.122466787862337,1
954,597,7,0.118167016324473,1
954,598,7,0.104458273112506,1
954,599,7,0.103242144790366,1
954,600,7,0.112165010911804,1
955,597,7,0.127735803522741,1
955,598,7,0.132895174668731,1
955,599,7,0.149928154400178,1
955,600,7,0.174236867487231,1
955,601,7,0.123387734858996,1
956,597,7,0.128903545486434,1
956,598,7,0.143646293355092,1
956,599,7,0.167153318768794,1
956,600,7,0.182082651931158,1
956,601,7,0.121555544907136,1
957,600,7,0.142345416404211,1
958,614,7,0.115904100780687,1
958,615,7,0.134401286519431,1
959,614,7,0.174160919420227,1
959,615,7,0.213890837876832,1
959,616,7,0.146628691071595,1
960,613,7,0.103504700459218,1
960,614,7,0.168509664912979,1
960,615,7,0.207220770557108,1
960,616,7,0.148461483343269,1
961,594,7,0.124765998751993,1
961,614,7,0.129763568949245,1
961,615,7,0.150976737427198,1
961,616,7,0.117965741119731,1
962,594,7,0.104547382982868,1
962,614,7,0.113155403152283,1
962,615,7,0.119956385799137,1
963,614,7,0.105365946765101,1
963,615,7,0.104940664359648,1
966,612,7,0.115331026939222,1
967,609,7,0.119507635229052,1
967,610,7,0.115454011722125,1
968,597,7,0.139261037019825,1
968,598,7,0.125757428321042,1
968,610,7,0.119011803326786,1
969,597,7,0.134701899877314,1
969,598,7,0.110461784324712,1
969,609,7,0.110346785856389,1
970,598,7,0.122681838344322,1
970,606,7,0.109370615055979,1
970,607,7,0.122713203590968,1
970,608,7,0.125339574526637,1
971,598,7,0.141104291809762,1
971,605,7,0.106257759329242,1
972,595,7,0.112360887546355,1
972,598,7,0.131678934805885,1
958,615,8,0.134268062299678,1
959,614,8,0.177951039162299,1
959,615,8,0.213404877327085,1
959,616,8,0.143327699635333,1
960,614,8,0.170478369535431,1
960,615,8,0.204024928544793,1
960,616,8,0.14084362117885,1
961,615,8,0.161589556791665,1
958,614,9,0.126934662398852,1
958,615,9,0.131272067771062,1
959,614,9,0.183300352977258,1
959,615,9,0.20101475719239,1
959,616,9,0.131084121680738,1
960,613,9,0.108022913316542,1
960,614,9,0.173448653931217,1
960,615,9,0.187283583144361,1
960,616,9,0.123639348384547,1
961,613,9,0.112076692980458,1
961,614,9,0.173016667929307,1
961,615,9,0.171822490818192,1
962,613,9,0.113678908303813,1
962,614,9,0.167592822614316,1
962,615,9,0.158969588292545,1
963,614,9,0.12856263247132,1
963,615,9,0.117367961011794,1
964,610,9,0.108204267351116,1
964,614,9,0.105740511611343,1
965,609,9,0.106154093396692,1
965,610,9,0.123047245698567,1
966,608,9,0.122851592145428,1
966,609,9,0.127080579950995,1
967,607,9,0.121843241851215,1
967,608,9,0.159933244225694,1
968,607,9,0.12899375960979,1
969,607,9,0.128079850831706,1
949,591,10,0.111686902827789,1
958,614,10,0.107720794159122,1
958,615,10,0.106335413969055,1
959,614,10,0.156289510506733,1
959,615,10,0.161051450961664,1
960,614,10,0.156628895414169,1
960,615,10,0.152524598964313,1
961,613,10,0.119285747301763,1
961,614,10,0.190861742082015,1
961,615,10,0.16576382272666,1
962,613,10,0.123594062857739,1
962,614,10,0.193092444669786,1
962,615,10,0.161335857454903,1
963,614,10,0.128454705683784,1
963,615,10,0.107627546128551,1
964,609,10,0.103267419914442,1
964,610,10,0.128351619762907,1
964,611,10,0.105785930986999,1
965,609,10,0.107845719750317,1
965,610,10,0.129933668526541,1
965,611,10,0.118208542929475,1
965,613,10,0.110661765657259,1
966,609,10,0.108531393934916,1
966,610,10,0.124774732389306,1
967,607,10,0.105235745298492,1
967,608,10,0.131806046594925,1
967,609,10,0.112582775473644,1
968,607,10,0.11387177333929,1
968,608,10,0.15828955806769,1
969,607,10,0.114126074995866,1
947,593,11,0.109428359679694,1
956,601,11,0.108741592396172,1
957,600,11,0.105588247393004,1
958,600,11,0.111185348887283,1
959,614,11,0.11017004960706,1
959,615,11,0.111095837470378,1
960,614,11,0.121481426107717,1
960,615,11,0.114173680569368,1
961,613,11,0.10701164065582,1
961,614,11,0.175930144643311,1
961,615,11,0.141553901243286,1
962,613,11,0.112086363559705,1
962,614,11,0.17909704184231,1
962,615,11,0.135667786624592,1
963,614,11,0.107181885236035,1
964,610,11,0.124771698482092,1
965,610,11,0.118284669461609,1
965,613,11,0.110245540357168,1
966,611,11,0.116981539388459,1
968,608,11,0.119010710227863,1
968,609,11,0.106662763634267,1
969,608,11,0.137912967196057,1
944,595,12,0.120593238616535,1
945,595,12,0.108201523449738,1
958,600,12,0.104456064606519,1
961,614,12,0.135543820283472,1
961,615,12,0.105526152681738,1
962,614,12,0.132052384245063,1
964,610,12,0.105337470422751,1
971,606,12,0.113925290570233,1
944,595,13,0.136788971497423,1
945,595,13,0.119141123621814,1
958,600,13,0.103741769076651,1
967,614,13,0.110396075694557,1
944,595,14,0.146507624788842,1
945,595,14,0.121017773699255,1
953,592,14,0.111663356584663,1
955,594,14,0.106584216668804,1
967,613,14,0.10886675222285,1
945,595,15,0.122693237804518,1
956,594,15,0.118282996351013,1
945,595,16,0.124528606666511,1
955,588,16,0.1482932353417,1
955,589,16,0.117540603717197,1
956,589,16,0.111959809474196,1
956,591,16,0.103665865625929,1
956,593,16,0.123993534743725,1
957,594,16,0.131633381581381,1
958,595,16,0.124027498888831,1
959,600,16,0.111013185806918,1
955,590,17,0.116848370939059,1
955,591,17,0.110693844764426,1
956,590,17,0.113313043632672,1
956,591,17,0.119376351817592,1
956,592,17,0.135499817474788,1
956,593,17,0.113242148359669,1
957,589,17,0.119589071098812,1
957,591,17,0.106302609847295,1
957,592,17,0.140939166947972,1
957,593,17,0.143955372652592,1
957,594,17,0.105416229315557,1
958,592,17,0.107547147587361,1
958,593,17,0.128741856078402,1
958,594,17,0.122093271498735,1
959,593,17,0.103492665216994,1
959,594,17,0.115319025159211,1
959,595,17,0.116715057486742,1
960,594,17,0.108727359802032,1
961,593,17,0.105064262616436,1
940,594,18,0.111939977536594,1
941,595,18,0.114104380328467,1
954,591,18,0.106644013641518,1
955,591,18,0.128876675330256,1
956,592,18,0.131416033360844,1
957,591,18,0.120676247210255,1
957,592,18,0.138546295327132,1
957,593,18,0.129413543058416,1
958,590,18,0.108716317272096,1
958,591,18,0.103546082061301,1
958,592,18,0.118703471352019,1
958,593,18,0.133339965543737,1
958,594,18,0.112835180938211,1
959,592,18,0.105633287530258,1
959,593,18,0.122008255172299,1
959,594,18,0.122758266036364,1
959,595,18,0.1156173184704,1
959,599,18,0.122037768843218,1
960,591,18,0.106351710066263,1
960,592,18,0.112030526282069,1
960,593,18,0.122169353414587,1
960,594,18,0.126438306255265,1
961,592,18,0.122620803269767,1
940,595,19,0.10359780348687,1
941,596,19,0.107549880334669,1
944,596,19,0.10549823404292,1
955,592,19,0.103587407893031,1
957,592,19,0.141845122873688,1
957,593,19,0.115549981345932,1
958,593,19,0.141662329964001,1
958,594,19,0.110465554400589,1
959,599,19,0.109222076297234,1
965,624,19,0.106394664392307,1
940,596,20,0.106306234920254,1
942,597,20,0.125367738555009,1
943,597,20,0.113477800410131,1
944,596,20,0.1130341584044,1
945,595,20,0.112269390704876,1
957,593,20,0.109802957988148,1
979,610,20,0.108854973524252,1
982,612,20,0.104031362212739,1
982,613,20,0.113276458280965,1
982,616,20,0.12513717276076,1
940,596,21,0.122472007967397,1
941,597,21,0.133637567302547,1
941,598,21,0.113327220456458,1
942,598,21,0.134071126028416,1
943,597,21,0.140330812781066,1
943,598,21,0.122036028808198,1
943,599,21,0.152156659636033,1
944,596,21,0.136371920796104,1
944,597,21,0.10680692999732,1
944,599,21,0.137994202292545,1
944,600,21,0.152194706170994,1
944,601,21,0.116775133311222,1
945,595,21,0.131180046688263,1
945,596,21,0.106745883768695,1
982,613,21,0.118448611991911,1
982,614,21,0.107096645828186,1
982,616,21,0.104055666932669,1
982,617,21,0.113728198141982,1
983,616,21,0.120124678416989,1
940,598,22,0.116778591073121,1
943,598,22,0.13173771675817,1
944,597,22,0.122188326488749,1
944,598,22,0.111251581758758,1
944,599,22,0.16077964856825,1
944,601,22,0.16376963105279,1
945,596,22,0.124803889129966,1
945,600,22,0.114497304774986,1
946,595,22,0.106648252188362,1
956,624,22,0.11661484931609,1
957,624,22,0.104117783952076,1
958,624,22,0.109929712846928,1
959,624,22,0.108519604082247,1
961,599,22,0.106644091720012,1
962,598,22,0.113417456887955,1
982,613,22,0.110647109208435,1
982,614,22,0.111022309836704,1
983,612,22,0.106752486978515,1
983,613,22,0.104904770560321,1
983,614,22,0.105419642461173,1
983,617,22,0.116892407209956,1
984,612,22,0.111134107086752,1
944,597,23,0.139075779060526,1
944,598,23,0.121940851123407,1
945,596,23,0.132796271524345,1
945,597,23,0.114892348494928,1
945,599,23,0.110908437929515,1
945,601,23,0.119059319667723,1
945,602,23,0.107964532910799,1
946,595,23,0.112946799723129,1
952,586,23,0.116157476649399,1
952,587,23,0.112142490843177,1
957,625,23,0.117029178424173,1
958,625,23,0.124300695541075,1
959,597,23,0.121287133351198,1
961,598,23,0.139996748365326,1
965,627,23,0.102941810284249,1
966,627,23,0.110393242560614,1
967,627,23,0.117560714506565,1
982,613,23,0.103019453769991,1
982,614,23,0.112594174933841,1
983,611,23,0.106295448933943,1
983,612,23,0.114060823682608,1
983,613,23,0.11119414944902,1
983,614,23,0.112416468280366,1
983,615,23,0.103550655230264,1
984,611,23,0.108516124012207,1
984,612,23,0.12406896972348,1
944,597,24,0.146070519068508,1
944,598,24,0.130959419170956,1
945,596,24,0.13155452230194,1
945,597,24,0.118093265609386,1
945,598,24,0.108647173188184,1
945,599,24,0.112998074985872,1
945,602,24,0.148643171999963,1
946,595,24,0.116260317180722,1
946,596,24,0.112538404580629,1
946,603,24,0.103381481440831,1
952,588,24,0.108323883604685,1
952,591,24,0.118573504120894,1
953,587,24,0.119397366086682,1
960,598,24,0.104171624651067,1
961,598,24,0.109648574496387,1
965,627,24,0.108756962705517,1
966,627,24,0.113446334776849,1
968,627,24,0.117246749726123,1
982,614,24,0.113526421004061,1
982,615,24,0.106105684730104,1
983,611,24,0.104931484559509,1
983,612,24,0.109931899044774,1
945,595,25,0.12644306904343,1
945,596,25,0.12823949904481,1
945,597,25,0.117129063126775,1
945,598,25,0.110444428590792,1
945,599,25,0.110176730895375,1
946,595,25,0.117639328396452,1
946,596,25,0.123682927338547,1
946,602,25,0.134089128698433,1
946,603,25,0.144245490030001,1
946,604,25,0.10310886480026,1
947,596,25,0.107655754773206,1
957,594,25,0.103024160787802,1
965,626,25,0.108602043818365,1
982,615,25,0.106236912371212,1
983,607,25,0.110934884231008,1
945,595,26,0.11762626697973,1
945,596,26,0.124427640019057,1
945,597,26,0.115050502062566,1
945,598,26,0.115138150749674,1
945,599,26,0.116984550987532,1
945,600,26,0.122583649060457,1
946,595,26,0.115437336386515,1
946,596,26,0.131914687242982,1
946,597,26,0.103928488219204,1
946,601,26,0.105884544125548,1
946,604,26,0.108704360108368,1
947,595,26,0.104028227918889,1
947,596,26,0.116797006443751,1
957,594,26,0.111053407385654,1
965,626,26,0.111837928944287,1
966,626,26,0.103856890239751,1
981,615,26,0.112050848998779,1
982,615,26,0.109935390268885,1
983,607,26,0.109166350560305,1
938,604,27,0.107399211148431,1
944,604,27,0.103411307425729,1
945,594,27,0.120221841526355,1
945,595,27,0.116476683843043,1
945,596,27,0.125841061542719,1
945,597,27,0.123970133503518,1
946,595,27,0.114339084282924,1
946,596,27,0.132732414469917,1
946,597,27,0.10958699287237,1
946,599,27,0.107887536361155,1
946,601,27,0.109781988335341,1
946,604,27,0.110244703801869,1
947,595,27,0.107676914045215,1
947,596,27,0.114923156038042,1
950,590,27,0.106291957709832,1
951,591,27,0.13872025421287,1
951,592,27,0.1146758702919,1
952,589,27,0.103518921899287,1
952,591,27,0.15257246108144,1
952,592,27,0.112359024816558,1
953,589,27,0.116020225810145,1
953,591,27,0.143291783527865,1
953,592,27,0.108252821020622,1
954,588,27,0.107568964949538,1
957,594,27,0.116828460922963,1
965,626,27,0.114037143590635,1
966,626,27,0.108835453900628,1
981,615,27,0.129141629124296,1
981,616,27,0.106159246577329,1
982,608,27,0.108055661667948,1
982,615,27,0.116633822390253,1
983,607,27,0.11286780659484,1
939,609,28,0.104861481612158,1
940,603,28,0.116145497177529,1
941,604,28,0.10362195204981,1
942,604,28,0.107946641781489,1
942,605,28,0.107606319932119,1
943,605,28,0.12205985390309,1
944,593,28,0.129965970715121,1
944,605,28,0.117978356373628,1
945,594,28,0.125981680911307,1
945,595,28,0.121310255739639,1
945,596,28,0.125367136235194,1
945,605,28,0.10465228701726,1
946,595,28,0.119815353729935,1
946,596,28,0.124915039443917,1
946,597,28,0.109995611096284,1
946,600,28,0.111201689600774,1
946,601,28,0.113984998310381,1
946,604,28,0.108532520496051,1
947,596,28,0.105157209487099,1
950,591,28,0.134261258316587,1
950,593,28,0.122122037846922,1
951,590,28,0.117788335626164,1
951,591,28,0.150739389957999,1
951,592,28,0.143714188183092,1
951,593,28,0.10380078526442,1
952,590,28,0.140236092413171,1
952,591,28,0.16850081973496,1
952,592,28,0.144554480094936,1
953,591,28,0.161670847658506,1
953,592,28,0.136314800800345,1
954,592,28,0.112511500962239,1
955,588,28,0.112929287832221,1
966,594,28,0.103003034978006,1
971,624,28,0.108507702688872,1
981,608,28,0.114161522632368,1
981,615,28,0.128237324001035,1
981,616,28,0.103486307396728,1
982,608,28,0.124199595044773,1
982,609,28,0.110701317991757,1
982,615,28,0.114308533283434,1
983,608,28,0.118605806309474,1
983,609,28,0.116780888811673,1
983,610,28,0.10359017410255,1
937,605,29,0.105272141030998,1
937,609,29,0.105312786464419,1
937,610,29,0.11975623715553,1
937,611,29,0.136890205842574,1
937,612,29,0.13021511919106,1
937,613,29,0.108739417352397,1
938,607,29,0.111440799413135,1
938,608,29,0.120112252782294,1
938,609,29,0.131600834003247,1
938,610,29,0.141202347244779,1
938,611,29,0.142753331921674,1
938,612,29,0.120490375777071,1
939,606,29,0.103903904647509,1
939,607,29,0.114215430255782,1
939,608,29,0.136130591323686,1
939,609,29,0.148904355718125,1
939,610,29,0.133390393097112,1
939,611,29,0.108619120700518,1
940,607,29,0.105360570503051,1
940,608,29,0.131963118217712,1
940,609,29,0.139361356731183,1
940,610,29,0.106537224569187,1
941,605,29,0.103556165341162,1
941,608,29,0.110230292742599,1
941,609,29,0.10416785457519,1
942,605,29,0.122827220501075,1
942,606,29,0.105381071684892,1
943,606,29,0.109214279601855,1
944,593,29,0.131818818005811,1
945,595,29,0.127836892864973,1
945,596,29,0.122569092998269,1
945,605,29,0.112412564355641,1
946,596,29,0.114580915688522,1
946,597,29,0.104988593401198,1
946,600,29,0.110568818786596,1
946,601,29,0.112379336379198,1
946,602,29,0.120782991666303,1
950,591,29,0.129547960763727,1
950,593,29,0.134952130298105,1
951,591,29,0.141529819604769,1
951,592,29,0.153671728205459,1
951,593,29,0.113713887469348,1
952,590,29,0.114445784122689,1
952,591,29,0.169218941111058,1
952,592,29,0.16632518479395,1
952,593,29,0.105754509969999,1
953,590,29,0.12424069779509,1
953,591,29,0.173147962494839,1
953,592,29,0.161069375553186,1
954,591,29,0.162143512556048,1
954,592,29,0.123958655964827,1
955,592,29,0.103646000226115,1
956,588,29,0.118261357453966,1
957,594,29,0.106636116559503,1
968,593,29,0.105858588603163,1
971,624,29,0.135943236399105,1
972,623,29,0.108262881992342,1
976,591,29,0.102966282315239,1
980,591,29,0.10673469623584,1
980,594,29,0.105237117249181,1
981,608,29,0.120759434269106,1
981,609,29,0.111178243744284,1
981,615,29,0.107187473425427,1
982,609,29,0.132914236975459,1
982,610,29,0.11537717132947,1
983,608,29,0.12722894024461,1
936,609,30,0.104324145413031,1
936,610,30,0.112824104946063,1
936,611,30,0.122781845741702,1
936,612,30,0.125262399511862,1
937,606,30,0.122324830005271,1
937,607,30,0.118565763195868,1
937,608,30,0.117781096634317,1
937,609,30,0.140759486023994,1
937,613,30,0.151696955768577,1
938,607,30,0.138892785377567,1
938,608,30,0.151790203799148,1
938,613,30,0.118786513407951,1
939,607,30,0.138910163419627,1
939,608,30,0.169483270277141,1
939,611,30,0.136728393739764,1
940,607,30,0.13218985816573,1
940,608,30,0.167147262108435,1
940,609,30,0.166687134386295,1
940,610,30,0.123474803534431,1
941,606,30,0.113747249294639,1
941,607,30,0.117635892942695,1
941,608,30,0.129532523529958,1
941,609,30,0.11729792460223,1
942,606,30,0.118588394805201,1
945,592,30,0.117504475682386,1
945,596,30,0.119536044646979,1
946,596,30,0.110024210133411,1
946,600,30,0.114952714325244,1
946,601,30,0.121304734474671,1
946,602,30,0.124806253792942,1
947,601,30,0.10605196672589,1
947,602,30,0.107390756362884,1
950,591,30,0.120053258902666,1
950,593,30,0.138750604439088,1
951,591,30,0.127448842747324,1
951,592,30,0.152278819017708,1
951,593,30,0.122017747286415,1
952,591,30,0.163820750158544,1
952,592,30,0.174917968502868,1
952,593,30,0.116997088162934,1
953,590,30,0.112283511758309,1
953,591,30,0.17797050301557,1
953,592,30,0.174216087453625,1
953,593,30,0.109615034205965,1
954,590,30,0.118927746250425,1
954,591,30,0.15584425116076,1
954,592,30,0.129884824851198,1
955,591,30,0.139416257066885,1
955,592,30,0.105681841199764,1
956,588,30,0.106752263897102,1
956,589,30,0.110807962061169,1
965,624,30,0.106430747810835,1
967,594,30,0.107247683098754,1
971,623,30,0.116633119683803,1
973,594,30,0.122060813153166,1
979,595,30,0.111397354307983,1
980,592,30,0.108356364258396,1
980,593,30,0.104000365050424,1
980,594,30,0.114029391511538,1
981,608,30,0.126255792197344,1
981,609,30,0.122547208711668,1
981,610,30,0.103442773059011,1
935,612,31,0.118546511269939,1
937,607,31,0.139511970147067,1
937,608,31,0.134918233077423,1
938,607,31,0.156203434543586,1
939,607,31,0.156416332289937,1
940,607,31,0.162533403095353,1
941,606,31,0.141722004241938,1
941,607,31,0.144820883918159,1
941,608,31,0.146209342631724,1
941,609,31,0.122471517188289,1
942,607,31,0.116964518276659,1
946,600,31,0.125567753349768,1
947,601,31,0.138544410289193,1
947,602,31,0.142860823700455,1
947,603,31,0.114260001922069,1
948,602,31,0.103896531806814,1
949,591,31,0.104528688760471,1
950,591,31,0.106943980063303,1
950,592,31,0.143122185883747,1
950,593,31,0.132641586872676,1
951,591,31,0.111642186158584,1
951,592,31,0.139331474975932,1
951,593,31,0.125820627285302,1
952,591,31,0.145649419439546,1
952,592,31,0.162703357669731,1
952,593,31,0.123040051323002,1
953,590,31,0.104721297252324,1
953,591,31,0.165194028181964,1
953,592,31,0.16670109928274,1
953,593,31,0.114440396706569,1
954,590,31,0.103356373627815,1
954,591,31,0.138112078511094,1
954,592,31,0.128893908369399,1
955,590,31,0.103296610117313,1
955,591,31,0.117150122012148,1
955,592,31,0.106634610759966,1
968,594,31,0.113519226628497,1
969,594,31,0.106079494972236,1
970,623,31,0.1106168035985,1
972,595,31,0.10511450055061,1
973,595,31,0.106367548846575,1
978,592,31,0.107017295769636,1
978,596,31,0.104348940912069,1
978,598,31,0.107995061602148,1
979,592,31,0.117187198142963,1
979,593,31,0.10754955686662,1
979,594,31,0.109930058623118,1
979,600,31,0.109904605033912,1
979,603,31,0.108688320554784,1
980,593,31,0.119962364381001,1
938,607,32,0.15819665581331,1
940,611,32,0.105117010216504,1
941,609,32,0.125789195114232,1
942,607,32,0.142659983504468,1
942,608,32,0.117234056393732,1
943,596,32,0.131030202903253,1
946,598,32,0.114658358400992,1
946,599,32,0.120099626374327,1
947,600,32,0.117116336332172,1
947,603,32,0.131397417216942,1
948,592,32,0.11076943590117,1
948,601,32,0.134168791070961,1
948,602,32,0.150173767035724,1
948,603,32,0.104344021966916,1
949,592,32,0.120044369108364,1
949,593,32,0.127590610985189,1
949,594,32,0.103677242777985,1
949,602,32,0.111142606488582,1
950,592,32,0.119055761519188,1
950,593,32,0.121934069448456,1
951,592,32,0.122462649702128,1
951,593,32,0.124491842849674,1
952,591,32,0.125138622789944,1
952,592,32,0.145062726477827,1
952,593,32,0.126148021566797,1
953,591,32,0.14380410114654,1
953,592,32,0.15694006052288,1
953,593,32,0.12194281423984,1
954,591,32,0.124434566696925,1
954,592,32,0.137057293820797,1
954,593,32,0.113783254634673,1
955,591,32,0.106394396694612,1
955,592,32,0.114537057882756,1
956,592,32,0.110685679984716,1
963,624,32,0.115639258527354,1
964,623,32,0.103319420191777,1
969,623,32,0.103663155186763,1
970,622,32,0.106195776158683,1
976,594,32,0.109705036401979,1
977,594,32,0.109562967004207,1
977,595,32,0.109315190478957,1
977,598,32,0.102952049721099,1
977,613,32,0.106058603397923,1
978,613,32,0.104615601278917,1
979,602,32,0.108782862457549,1
979,603,32,0.118178516171305,1
980,601,32,0.112363932607641,1
980,607,32,0.105442240608295,1
980,608,32,0.105449691527484,1
980,609,32,0.104293081326292,1
941,609,33,0.120594855956778,1
942,608,33,0.138578117890674,1
943,597,33,0.14500164678699,1
944,596,33,0.138611669335167,1
945,597,33,0.12941449115442,1
945,598,33,0.13086311492503,1
946,596,33,0.109800883331009,1
946,597,33,0.103346892667769,1
946,598,33,0.112292301165975,1
946,599,33,0.118377939800321,1
947,600,33,0.121202105870691,1
948,593,33,0.112450845126086,1
948,601,33,0.156714435981925,1
948,603,33,0.113951558406596,1
949,593,33,0.112489137050601,1
949,601,33,0.124008971977494,1
949,602,33,0.142970836299201,1
950,593,33,0.109689643784492,1
951,592,33,0.106719437467201,1
951,593,33,0.116192087730603,1
952,591,33,0.105005335661232,1
952,592,33,0.129826031744842,1
952,593,33,0.124762931382567,1
953,591,33,0.123433399624206,1
953,592,33,0.156432304919097,1
953,593,33,0.133213032219827,1
954,591,33,0.123002049404324,1
954,592,33,0.159104195617057,1
954,593,33,0.13553788631789,1
955,591,33,0.115550695206453,1
955,592,33,0.132610757021421,1
955,593,33,0.114418412033333,1
956,592,33,0.120601715710223,1
957,593,33,0.102968100428754,1
958,596,33,0.108169578191418,1
971,595,33,0.116024988598309,1
977,612,33,0.110311661687936,1
977,613,33,0.109632256091037,1
979,601,33,0.105838076267252,1
979,602,33,0.109804586482462,1
979,603,33,0.119543517874309,1
979,604,33,0.112706139494949,1
980,601,33,0.113971100338361,1
980,602,33,0.123373993043965,1
980,606,33,0.109333081608267,1
941,609,34,0.116056833469993,1
942,599,34,0.139417729404209,1
943,597,34,0.132142386441076,1
943,599,34,0.14456894692456,1
943,608,34,0.105180532648812,1
944,596,34,0.130853522424277,1
944,597,34,0.131631652700432,1
944,598,34,0.127008591579069,1
945,597,34,0.128269949657664,1
945,598,34,0.122660377912406,1
946,596,34,0.120634586756406,1
946,597,34,0.11837949021614,1
946,598,34,0.120186817744538,1
947,596,34,0.10608233926025,1
947,597,34,0.108456293577281,1
947,598,34,0.103409846242475,1
947,604,34,0.106226014844194,1
948,603,34,0.112465367726062,1
949,593,34,0.107732673244356,1
949,601,34,0.131749941619594,1
949,602,34,0.148508040434131,1
950,593,34,0.113448364817705,1
950,594,34,0.111477027834582,1
951,592,34,0.105213426003137,1
951,593,34,0.120423362120651,1
951,594,34,0.117304605890545,1
952,592,34,0.12896529442151,1
952,593,34,0.131540022010105,1
952,594,34,0.114184288090549,1
953,591,34,0.118736074700507,1
953,592,34,0.166228980934659,1
953,593,34,0.147725426221578,1
953,594,34,0.107452616838667,1
954,591,34,0.135558789046274,1
954,593,34,0.153949141096406,1
954,594,34,0.103529774810022,1
955,590,34,0.122058905807086,1
955,593,34,0.131177124321754,1
956,592,34,0.139803370242599,1
956,593,34,0.111733883773335,1
957,593,34,0.108396585837132,1
958,596,34,0.117992745124756,1
969,620,34,0.104683083406303,1
970,595,34,0.11660147558539,1
970,620,34,0.109209449889267,1
971,596,34,0.12162871561055,1
972,597,34,0.107346898557118,1
974,608,34,0.113676320559424,1
974,609,34,0.112038267207095,1
974,614,34,0.104371762140604,1
975,608,34,0.114249862871856,1
975,609,34,0.11665860673522,1
976,599,34,0.108278174223193,1
977,599,34,0.118630345264887,1
977,611,34,0.105488251149695,1
978,600,34,0.11049266994632,1
979,601,34,0.108926694198482,1
979,602,34,0.107512648046864,1
979,603,34,0.115288652624852,1
979,604,34,0.118400883723632,1
979,605,34,0.107453854940508,1
941,609,35,0.114694943752699,1
941,610,35,0.104642973368273,1
944,595,35,0.116231762759878,1
944,596,35,0.116181524825704,1
944,597,35,0.115383964158491,1
945,596,35,0.147606099973846,1
945,597,35,0.134559417778928,1
945,598,35,0.128628943421289,1
946,594,35,0.105395460436021,1
946,595,35,0.126902025588152,1
946,596,35,0.14779838499765,1
946,597,35,0.148321655913696,1
946,598,35,0.133979896884632,1
947,595,35,0.112214903069788,1
947,596,35,0.134616716239818,1
947,597,35,0.134399914568742,1
947,598,35,0.114066177636517,1
947,599,35,0.10901746602537,1
947,604,35,0.114974286297867,1
948,595,35,0.114162314571383,1
948,596,35,0.120788724858613,1
948,597,35,0.106102717747313,1
948,600,35,0.107434658784933,1
948,603,35,0.106530041347694,1
949,593,35,0.107957104299751,1
949,594,35,0.119366915473828,1
949,595,35,0.127623604726149,1
949,596,35,0.114720040411644,1
949,601,35,0.127421069111425,1
949,602,35,0.132566865753443,1
950,592,35,0.107360484215161,1
950,593,35,0.12969507180143,1
950,594,35,0.149298150182155,1
950,595,35,0.146114555339405,1
950,596,35,0.115339470570698,1
951,592,35,0.115728301473292,1
951,593,35,0.141000380487658,1
951,594,35,0.156588707297644,1
951,595,35,0.141183508019464,1
951,596,35,0.107958967029549,1
952,591,35,0.103127994031412,1
952,592,35,0.135587499624108,1
952,593,35,0.14800709996751,1
952,594,35,0.14230492712778,1
952,595,35,0.120442915206487,1
953,591,35,0.126522407947909,1
953,593,35,0.159321923075996,1
953,594,35,0.129413063433378,1
953,595,35,0.108011926556959,1
954,590,35,0.124700000116002,1
954,594,35,0.125375100241633,1
954,595,35,0.103436482163169,1
955,589,35,0.112990434447482,1
955,594,35,0.113140166691786,1
956,593,35,0.129210304737241,1
957,593,35,0.127852073555117,1
957,595,35,0.115636648474824,1
957,596,35,0.115435819432907,1
958,596,35,0.135584264943622,1
961,622,35,0.105404249843687,1
962,622,35,0.11296782514629,1
962,623,35,0.110877318072423,1
963,597,35,0.106310417696745,1
963,622,35,0.128817424907004,1
964,597,35,0.112954339874883,1
966,620,35,0.104487731013072,1
968,619,35,0.108384639827474,1
968,620,35,0.112660017412843,1
969,595,35,0.113414657216224,1
970,596,35,0.125114273453731,1
971,597,35,0.129223756546436,1
971,616,35,0.106802959148172,1
972,597,35,0.131507708667454,1
972,598,35,0.106070103244755,1
972,607,35,0.114165872719918,1
972,608,35,0.119122150547651,1
972,609,35,0.112982280821843,1
972,610,35,0.112316907045812,1
972,614,35,0.10368097939165,1
972,615,35,0.107045035943323,1
973,598,35,0.113253547819866,1
973,607,35,0.119815164110734,1
973,615,35,0.113938485835803,1
974,599,35,0.1078822381776,1
974,607,35,0.116999631291041,1
975,607,35,0.10470472230335,1
975,608,35,0.140180065516334,1
975,609,35,0.141911043431185,1
976,600,35,0.110694960171491,1
977,600,35,0.113938641992792,1
978,601,35,0.10576616597382,1
978,603,35,0.104002082777303,1
978,604,35,0.107463514365685,1
941,609,36,0.117840079359874,1
942,609,36,0.105286797479823,1
944,597,36,0.103605934804368,1
945,595,36,0.119099284702835,1
945,596,36,0.13823737218662,1
945,597,36,0.136974497154418,1
945,607,36,0.110917271953464,1
946,595,36,0.131279697155382,1
946,596,36,0.172589121247514,1
947,595,36,0.129199284515446,1
947,597,36,0.153440359318124,1
947,598,36,0.127833747417052,1
947,599,36,0.1335843177693,1
948,594,36,0.106742905631833,1
948,595,36,0.138459594736028,1
948,596,36,0.147728013965967,1
948,597,36,0.125168571469618,1
948,598,36,0.104058187752634,1
948,599,36,0.106600702385213,1
948,600,36,0.123924926055204,1
949,593,36,0.112138843462077,1
949,594,36,0.141160820639778,1
949,596,36,0.148800622861151,1
949,597,36,0.11331562022299,1
949,600,36,0.103593419937107,1
949,601,36,0.119041305843635,1
949,602,36,0.111689646729167,1
950,592,36,0.119832207530675,1
950,593,36,0.149231582688561,1
950,596,36,0.15087519076807,1
950,597,36,0.107542418261409,1
951,591,36,0.115703929828938,1
951,592,36,0.136661090077508,1
951,596,36,0.139609891733236,1
951,597,36,0.103233556155972,1
952,591,36,0.118285651019826,1
952,592,36,0.145673936086818,1
952,593,36,0.169747610597295,1
952,596,36,0.123421408998265,1
953,590,36,0.105868125333562,1
953,594,36,0.159908638345857,1
953,595,36,0.142883232228375,1
953,596,36,0.114708272867116,1
954,594,36,0.155404066916928,1
954,595,36,0.136384759131414,1
954,596,36,0.10335490129049,1
955,594,36,0.133661381243368,1
955,595,36,0.113868739432076,1
956,594,36,0.115532681382366,1
956,595,36,0.105390798034492,1
956,596,36,0.111699930782299,1
956,597,36,0.107124441772227,1
957,597,36,0.137157133907117,1
958,597,36,0.132401428577675,1
959,597,36,0.116757030254569,1
960,597,36,0.110016368821749,1
961,597,36,0.111912248516977,1
961,621,36,0.113368992451014,1
962,597,36,0.114105930744286,1
962,621,36,0.133740519374576,1
963,621,36,0.138947083393454,1
964,621,36,0.118915978705898,1
965,621,36,0.11137872701001,1
966,597,36,0.104315913708897,1
966,621,36,0.111346725981337,1
968,596,36,0.110976633917423,1
968,617,36,0.108426155278405,1
969,596,36,0.115158696547797,1
969,616,36,0.107105368311428,1
970,597,36,0.120948261531011,1
970,605,36,0.110905526717078,1
970,606,36,0.119849953657067,1
970,607,36,0.108885546831883,1
970,608,36,0.108009818437607,1
970,609,36,0.107159432091832,1
970,613,36,0.106109934431019,1
970,614,36,0.104853963768545,1
970,615,36,0.107102825183322,1
971,598,36,0.114377253512662,1
971,605,36,0.104697427541149,1
971,606,36,0.126277018393776,1
971,608,36,0.139870818907774,1
971,609,36,0.133793456593845,1
971,610,36,0.131820647273396,1
971,613,36,0.115150598692511,1
971,614,36,0.118959111497072,1
971,615,36,0.121096632978696,1
972,598,36,0.123867828367586,1
972,599,36,0.112359214435759,1
972,600,36,0.106654799627829,1
972,606,36,0.134592378057677,1
972,615,36,0.128463818559499,1
973,599,36,0.11642800747876,1
973,600,36,0.113949572982021,1
973,601,36,0.106806126904234,1
973,606,36,0.121498012210763,1
974,600,36,0.116012763736885,1
975,607,36,0.113999097055673,1
976,604,36,0.107735149448039,1
977,603,36,0.111699495773544,1
977,604,36,0.109927738576425,1
941,609,37,0.123059403635567,1
942,609,37,0.113621230604521,1
942,610,37,0.104063954407156,1
943,609,37,0.107449951015783,1
944,597,37,0.106291511547006,1
945,596,37,0.131045238590479,1
946,595,37,0.144858495444365,1
947,594,37,0.106942909272522,1
948,594,37,0.127049393169479,1
948,598,37,0.132992795094993,1
948,599,37,0.136996269900312,1
949,593,37,0.125249605792835,1
949,597,37,0.137583308638221,1
949,598,37,0.113642233719541,1
949,599,37,0.107879516584363,1
949,600,37,0.109089755557203,1
949,601,37,0.10952969441148,1
950,591,37,0.118403404543597,1
950,592,37,0.136208569431547,1
950,597,37,0.129473908888732,1
951,590,37,0.109588476363766,1
951,591,37,0.150171993538492,1
951,597,37,0.128738186389161,1
952,590,37,0.11901568494337,1
952,597,37,0.120070436171455,1
953,596,37,0.144432967649358,1
953,597,37,0.105074267817802,1
954,595,37,0.165462685127457,1
954,596,37,0.118143882781961,1
955,595,37,0.129955764740484,1
955,596,37,0.105508707715253,1
956,594,37,0.136568310517905,1
956,595,37,0.123169036995911,1
956,597,37,0.121729871877206,1
957,598,37,0.112670524547388,1
958,598,37,0.106195798466824,1
961,597,37,0.123941132919847,1
961,620,37,0.107736722171999,1
962,620,37,0.110723447667911,1
967,597,37,0.121120458073588,1
967,598,37,0.103435333293893,1
968,597,37,0.118837944827683,1
968,598,37,0.110874518400692,1
968,599,37,0.105901029841958,1
968,616,37,0.112660630886728,1
969,597,37,0.122336474855022,1
969,598,37,0.113122978268926,1
969,599,37,0.110937215431773,1
969,600,37,0.103627038306023,1
969,603,37,0.109737416669054,1
969,604,37,0.117385171742795,1
969,605,37,0.130643491274081,1
969,606,37,0.138899109735621,1
969,607,37,0.117929557314567,1
969,608,37,0.113341062658126,1
969,609,37,0.115055209080377,1
969,613,37,0.107863867423252,1
970,597,37,0.140046227822696,1
970,598,37,0.117943466440658,1
970,599,37,0.109997484980152,1
970,600,37,0.106002732658075,1
970,601,37,0.103990304078705,1
970,602,37,0.103613831886383,1
970,603,37,0.108519983320649,1
970,604,37,0.125208893434991,1
970,610,37,0.130924540392058,1
970,612,37,0.115441954171761,1
971,598,37,0.132117535171685,1
971,599,37,0.117882453674245,1
971,600,37,0.113084217873443,1
971,601,37,0.111208303964665,1
971,602,37,0.106389890450072,1
971,604,37,0.116610220376774,1
972,599,37,0.125588656078152,1
972,600,37,0.119137654705844,1
972,601,37,0.115208220621449,1
972,602,37,0.107282639956148,1
972,604,37,0.103188750254201,1
972,605,37,0.123609946254334,1
973,599,37,0.128444990488255,1
973,600,37,0.122442393909842,1
974,606,37,0.105475937055705,1
942,609,38,0.124029919322161,1
944,609,38,0.104020341990944,1
945,608,38,0.103636418879434,1
946,606,38,0.106310785781076,1
947,594,38,0.115168065967137,1
949,599,38,0.136268957570005,1
949,600,38,0.125317121382434,1
949,601,38,0.116584354086954,1
950,598,38,0.125155666209885,1
950,599,38,0.10649576488861,1
951,591,38,0.170488876669976,1
951,598,38,0.118609275225444,1
952,598,38,0.108068332692197,1
953,597,38,0.125093136489864,1
954,596,38,0.132572063550362,1
954,597,38,0.105733373006132,1
955,595,38,0.142228923290422,1
955,596,38,0.116619957880445,1
955,597,38,0.106606781353713,1
955,598,38,0.10344501502721,1
956,598,38,0.108825761013239,1
960,598,38,0.109392644345497,1
961,598,38,0.109171146810681,1
961,619,38,0.10729760871895,1
964,599,38,0.105758101580746,1
965,598,38,0.124687262167329,1
965,599,38,0.105205562383334,1
966,598,38,0.118623340508524,1
966,599,38,0.105139541439202,1
967,598,38,0.123382280518452,1
967,599,38,0.118949463225966,1
967,600,38,0.119933218794413,1
967,601,38,0.112328351122291,1
967,602,38,0.107221270259473,1
967,603,38,0.107923151308716,1
968,598,38,0.131640631727299,1
968,599,38,0.132304722785205,1
968,600,38,0.134948873309478,1
968,601,38,0.127790447314818,1
968,602,38,0.124476059839715,1
968,603,38,0.130869941216263,1
968,604,38,0.126973601259464,1
968,605,38,0.118674883468962,1
968,606,38,0.116397088394939,1
968,607,38,0.104520825140668,1
969,598,38,0.136104702725725,1
969,599,38,0.132764181263107,1
969,600,38,0.129400124711433,1
969,601,38,0.128919919662137,1
969,602,38,0.140048994032215,1
969,610,38,0.141935727389516,1
969,611,38,0.119297068683465,1
969,612,38,0.115854208622703,1
970,598,38,0.147963956022266,1
970,599,38,0.137526132872108,1
970,600,38,0.127473571321939,1
970,601,38,0.126371214520351,1
970,602,38,0.134373981354499,1
971,599,38,0.139060386443039,1
971,600,38,0.130736928923853,1
971,603,38,0.123989586202718,1
972,599,38,0.136861640267658,1
972,600,38,0.130004909575734,1
972,604,38,0.117933349698586,1
973,605,38,0.114205157356721,1
943,610,39,0.126151813950816,1
943,611,39,0.106044683117761,1
943,612,39,0.105768452558302,1
944,610,39,0.109186550582238,1
945,609,39,0.108742306256693,1
946,607,39,0.109629601422224,1
947,605,39,0.105408689163803,1
948,604,39,0.104713946719771,1
949,602,39,0.116586161046398,1
950,599,39,0.143825862738364,1
950,600,39,0.123188701622453,1
950,601,39,0.106044236954935,1
951,599,39,0.121058463748958,1
951,600,39,0.110013401838958,1
952,599,39,0.116391689824748,1
952,600,39,0.108607531621121,1
953,598,39,0.128780683398308,1
953,599,39,0.121101273072084,1
953,600,39,0.106066701253209,1
954,597,39,0.135031368815949,1
954,598,39,0.129156174032413,1
954,599,39,0.11662091713052,1
955,597,39,0.134943552817781,1
955,598,39,0.1246680102414,1
955,599,39,0.106784164539139,1
956,598,39,0.121489267419379,1
958,618,39,0.112988772490956,1
959,599,39,0.105866262603765,1
959,618,39,0.134465779355885,1
960,599,39,0.112280968630202,1
960,618,39,0.146718537110619,1
961,599,39,0.121670688378377,1
961,618,39,0.116221422936392,1
962,599,39,0.122944907100423,1
962,619,39,0.12056797464653,1
963,599,39,0.12603329079617,1
964,599,39,0.134251052341949,1
964,600,39,0.105528383495866,1
965,599,39,0.127776348569526,1
965,600,39,0.107860398507282,1
966,599,39,0.124475479828042,1
966,600,39,0.11918549451483,1
966,601,39,0.110713141306638,1
966,602,39,0.109601158542086,1
966,603,39,0.11605782618228,1
966,604,39,0.106387548095237,1
966,606,39,0.108470381168502,1
966,607,39,0.112996937270667,1
967,599,39,0.141029035295138,1
967,600,39,0.153748356670772,1
967,601,39,0.14321860167038,1
967,602,39,0.131668037278867,1
967,603,39,0.136399672123863,1
967,605,39,0.116613165051423,1
967,606,39,0.123683261960666,1
967,607,39,0.133847319600977,1
967,608,39,0.121948346658878,1
968,598,39,0.144682618058476,1
968,599,39,0.149730270032912,1
968,600,39,0.170601410088687,1
968,601,39,0.163658692666181,1
968,602,39,0.155577646564265,1
968,607,39,0.138853935749519,1
968,608,39,0.138130326570665,1
968,610,39,0.112818661759589,1
968,611,39,0.103603068208213,1
969,599,39,0.14442519326212,1
969,600,39,0.147237770253093,1
969,601,39,0.153905651374971,1
970,599,39,0.160211069817254,1
970,600,39,0.143799650672354,1
943,611,40,0.122094353443587,1
943,612,40,0.122818999951011,1
943,613,40,0.111507500755577,1
944,610,40,0.137244927597143,1
944,611,40,0.106165113618487,1
946,609,40,0.121221391258831,1
946,610,40,0.113996342000225,1
947,605,40,0.127372950450674,1
947,606,40,0.120108460398275,1
947,607,40,0.112666453311603,1
947,608,40,0.104045249030689,1
948,604,40,0.13021423801948,1
949,603,40,0.112719914772192,1
950,601,40,0.127216748845398,1
951,600,40,0.14570660635973,1
951,601,40,0.114153870939907,1
952,600,40,0.141084671799502,1
953,599,40,0.151054659764706,1
953,600,40,0.125781944968314,1
954,598,40,0.160435947035476,1
954,599,40,0.134359503370805,1
954,600,40,0.107976880467,1
955,597,40,0.162849141373027,1
955,598,40,0.147688149317491,1
955,599,40,0.123440437842781,1
955,600,40,0.111888969971546,1
956,598,40,0.136814280083711,1
956,599,40,0.123336136128204,1
956,600,40,0.120161687623381,1
957,599,40,0.119610788074353,1
957,600,40,0.110541123229191,1
960,600,40,0.104329198207032,1
960,617,40,0.108347117533833,1
961,599,40,0.144419839308212,1
961,600,40,0.114493478928756,1
961,604,40,0.105091266621461,1
962,600,40,0.119705263052694,1
962,603,40,0.106899765327277,1
962,604,40,0.121390297350569,1
962,605,40,0.105067017671885,1
962,618,40,0.106428238144941,1
963,600,40,0.125627081851515,1
963,601,40,0.108502906438495,1
963,602,40,0.104364467378403,1
963,603,40,0.113799863045859,1
963,604,40,0.124136719548562,1
963,605,40,0.115736165093095,1
964,600,40,0.133403510284187,1
964,601,40,0.120866357190284,1
964,602,40,0.112428592755155,1
964,603,40,0.111093729351027,1
964,604,40,0.113251116232465,1
964,605,40,0.11449180581816,1
964,606,40,0.108207691650803,1
965,599,40,0.14643777799848,1
965,600,40,0.131243524504289,1
965,601,40,0.119875094932295,1
965,602,40,0.113571271522114,1
965,603,40,0.115095118345136,1
965,604,40,0.116164224862138,1
965,605,40,0.119129556850558,1
965,606,40,0.123470040746266,1
965,607,40,0.126267827439567,1
965,608,40,0.108405163317456,1
966,599,40,0.140926852853983,1
966,600,40,0.135652148617551,1
966,601,40,0.126201404948892,1
966,602,40,0.124584867798832,1
966,603,40,0.137643440233054,1
966,608,40,0.155888499358998,1
967,599,40,0.153571977351704,1
967,600,40,0.170206031746627,1
967,601,40,0.159621253715756,1
967,602,40,0.14879297116869,1
967,609,40,0.115472315552049,1
968,599,40,0.158619227779597,1
968,600,40,0.187667907802415,1
968,601,40,0.181171520516664,1
968,611,40,0.110246231909547,1
943,612,41,0.146692760053365,1
944,611,41,0.127497675268597,1
944,612,41,0.113500320478758,1
944,613,41,0.106191314530426,1
946,611,41,0.108798232766894,1
948,605,41,0.121721751713778,1
948,606,41,0.105950933154012,1
948,607,41,0.104135641619175,1
949,604,41,0.106376360562383,1
950,602,41,0.106166608263953,1
951,601,41,0.146586651379344,1
952,601,41,0.123412998829001,1
953,600,41,0.147084992947504,1
954,598,41,0.183958576994007,1
954,599,41,0.143917080728077,1
954,600,41,0.122731842043012,1
954,601,41,0.107619214037782,1
955,598,41,0.16987115308373,1
955,599,41,0.138683133465772,1
955,600,41,0.152990158718856,1
955,601,41,0.142432797393624,1
956,599,41,0.151083236493692,1
956,600,41,0.185512573269975,1
956,601,41,0.161861191874019,1
956,617,41,0.134167954515663,1
957,599,41,0.145388079564395,1
957,600,41,0.165765942000082,1
957,601,41,0.137094749190014,1
957,617,41,0.115846467697678,1
958,600,41,0.125865533573708,1
958,601,41,0.104728703555231,1
958,617,41,0.105310399493302,1
959,600,41,0.119000838875345,1
959,601,41,0.10629973209707,1
960,600,41,0.137027713225453,1
960,601,41,0.131105671345219,1
960,602,41,0.116832777548301,1
960,603,41,0.108456840126742,1
960,604,41,0.106870452429629,1
961,600,41,0.140596614284474,1
961,601,41,0.130031567804569,1
961,602,41,0.119937635806387,1
961,603,41,0.12793128976482,1
961,604,41,0.13949847372159,1
961,605,41,0.120649522056996,1
962,601,41,0.121142900063721,1
962,602,41,0.122910329481431,1
962,603,41,0.155837034477054,1
962,604,41,0.177773655976873,1
962,605,41,0.143943315102228,1
962,606,41,0.104685247296008,1
962,618,41,0.112193554178578,1
963,601,41,0.138106066467018,1
963,602,41,0.140223242923791,1
963,603,41,0.179822368748043,1
963,604,41,0.200011247764836,1
963,605,41,0.169011330394191,1
963,606,41,0.133108763967462,1
964,601,41,0.155689923439351,1
964,602,41,0.143452625226528,1
964,603,41,0.153706896990194,1
964,604,41,0.161955454925017,1
964,605,41,0.160524521510447,1
964,606,41,0.156887580620507,1
964,607,41,0.127193236064483,1
965,600,41,0.151951937823462,1
965,601,41,0.143034247190803,1
965,602,41,0.130554582176991,1
965,603,41,0.130728061437692,1
965,608,41,0.138682809997724,1
966,600,41,0.14827691693635,1
966,601,41,0.137486368610268,1
966,602,41,0.133429744658338,1
966,609,41,0.11838782230691,1
966,613,41,0.10411438196053,1
967,600,41,0.171419405013318,1
967,601,41,0.162983313688784,1
945,612,42,0.118338766704225,1
946,612,42,0.107729349331305,1
948,613,42,0.12619147782602,1
948,614,42,0.142421297546792,1
949,605,42,0.104241237205946,1
949,613,42,0.121167383248781,1
949,614,42,0.146980602000362,1
950,602,42,0.116573846952409,1
950,614,42,0.103507544747231,1
953,601,42,0.109089465551367,1
954,599,42,0.141657232553717,1
954,600,42,0.128804475030988,1
954,601,42,0.126172393211151,1
955,599,42,0.144776646873991,1
955,600,42,0.182423174553799,1
955,601,42,0.188915512911908,1
955,602,42,0.114927316506392,1
956,600,42,0.233126211164761,1
956,601,42,0.221619649581932,1
956,602,42,0.123985303039591,1
957,600,42,0.204618927422782,1
957,601,42,0.176656006944435,1
957,602,42,0.110094023461561,1
958,600,42,0.145195593767319,1
958,601,42,0.120098176345143,1
958,617,42,0.119542090153267,1
959,600,42,0.13435211937604,1
959,601,42,0.123177335624469,1
959,602,42,0.119800541124122,1
959,603,42,0.108298887332376,1
959,605,42,0.112762601400541,1
959,606,42,0.116257361352002,1
960,600,42,0.163186786245443,1
960,601,42,0.170093141397655,1
960,602,42,0.155840101846481,1
960,603,42,0.13334140441885,1
960,604,42,0.135886138711487,1
960,605,42,0.155085562429735,1
960,606,42,0.147653426695582,1
960,607,42,0.109446072343874,1
961,601,42,0.165093987322373,1
961,602,42,0.160109746239539,1
961,603,42,0.16042057672613,1
961,604,42,0.173147750567497,1
961,605,42,0.172244058918121,1
961,606,42,0.144257659121072,1
962,602,42,0.160990739355157,1
962,604,42,0.228946490889221,1
962,605,42,0.17378434684127,1
962,606,42,0.123984031475538,1
962,618,42,0.112773855857819,1
963,605,42,0.193806372115323,1
963,606,42,0.143646326817304,1
963,607,42,0.104956023514922,1
963,618,42,0.11237174045709,1
964,602,42,0.167753073147235,1
964,607,42,0.147801296210088,1
965,601,42,0.159921130904976,1
965,602,42,0.14221360875143,1
965,614,42,0.114961682198041,1
966,600,42,0.155766663445371,1
966,601,42,0.143976353459471,1
966,613,42,0.108532107795437,1
967,601,42,0.156448891022142,1
967,610,42,0.116570824199265,1
947,612,43,0.112448893163724,1
948,612,43,0.11389989275138,1
948,613,43,0.16255296733526,1
949,612,43,0.10994971209559,1
949,613,43,0.153842586259559,1
950,614,43,0.124932517872614,1
952,615,43,0.104514333471555,1
953,601,43,0.114108228482838,1
954,600,43,0.126458863207459,1
954,601,43,0.1340567707395,1
955,600,43,0.181860328995114,1
955,601,43,0.206989212050572,1
955,602,43,0.122596297776565,1
956,600,43,0.233171875929971,1
956,601,43,0.243648492937822,1
956,602,43,0.134832703663737,1
957,600,43,0.209335983897448,1
957,601,43,0.19211200186032,1
957,602,43,0.120035858552464,1
958,600,43,0.15309910052682,1
958,601,43,0.129489212273654,1
958,602,43,0.110732304000001,1
958,606,43,0.120375778855291,1
958,607,43,0.106927561271318,1
958,617,43,0.127761926356186,1
959,600,43,0.144084436403995,1
959,601,43,0.133636262276282,1
959,602,43,0.134803502306796,1
959,603,43,0.121329039194601,1
959,604,43,0.119377980311905,1
959,605,43,0.150667769670404,1
959,606,43,0.167072351370001,1
959,607,43,0.124809042310602,1
960,600,43,0.174473690715111,1
960,601,43,0.186219908659762,1
960,602,43,0.180809213994058,1
960,603,43,0.151264501295701,1
960,604,43,0.166322162040806,1
960,607,43,0.151889954652903,1
961,601,43,0.18204726006501,1
961,602,43,0.184412503052869,1
961,604,43,0.195051813335111,1
961,607,43,0.130793647373069,1
962,605,43,0.190783373581682,1
962,606,43,0.143129804113996,1
962,618,43,0.109428883921015,1
963,606,43,0.139878002129267,1
963,607,43,0.107067444471244,1
963,617,43,0.106506550874921,1
963,618,43,0.113266330384822,1
964,608,43,0.103363032607989,1
964,614,43,0.107563711382265,1
964,615,43,0.120723718934909,1
965,609,43,0.106889302809014,1
965,613,43,0.109330505017949,1
965,614,43,0.139659538501666,1
966,601,43,0.148400805198975,1
966,610,43,0.108107661945282,1
966,613,43,0.116729658165212,1
967,610,43,0.131235493573426,1
967,611,43,0.106174561116321,1
948,611,44,0.119416874556235,1
948,612,44,0.133479971438441,1
949,611,44,0.121655039217266,1
949,612,44,0.146493671046469,1
950,612,44,0.11655597813124,1
950,613,44,0.121147038223929,1
951,602,44,0.105721203915061,1
951,614,44,0.104621791788123,1
952,614,44,0.107112964233536,1
952,615,44,0.111526217286115,1
953,601,44,0.115878435264139,1
953,616,44,0.133070572429582,1
954,600,44,0.120458475135033,1
954,601,44,0.130383980666516,1
954,616,44,0.114607228141167,1
955,599,44,0.130741725174229,1
955,600,44,0.163018337470601,1
955,601,44,0.196317331882055,1
955,602,44,0.126707387055442,1
956,600,44,0.20387555323075,1
956,601,44,0.232349486301507,1
956,602,44,0.143609998009221,1
956,606,44,0.110754467138368,1
956,607,44,0.113624063738464,1
956,617,44,0.119916309223319,1
957,600,44,0.191710232235782,1
957,601,44,0.190315861864777,1
957,602,44,0.131470755231415,1
957,605,44,0.103050473240448,1
957,606,44,0.142916761364726,1
957,607,44,0.142357618957494,1
957,608,44,0.116826642809448,1
957,617,44,0.108729367534748,1
958,600,44,0.16056885894125,1
958,601,44,0.142865932264809,1
958,602,44,0.124618586554384,1
958,603,44,0.107865908618179,1
958,605,44,0.120289067110117,1
958,606,44,0.158564327443895,1
958,607,44,0.148904032250077,1
958,608,44,0.120216799886425,1
958,609,44,0.103642888240406,1
958,617,44,0.126955576281306,1
958,618,44,0.193377185785145,1
959,599,44,0.166533509371338,1
959,600,44,0.159515033501028,1
959,601,44,0.149555195740109,1
959,602,44,0.150732719823755,1
959,603,44,0.133860559482829,1
959,604,44,0.137223757171064,1
959,608,44,0.115575334548502,1
959,609,44,0.103029224735874,1
959,617,44,0.135671612470822,1
960,601,44,0.192401762307468,1
960,602,44,0.197759776297529,1
960,603,44,0.167844413831726,1
960,608,44,0.109778474803088,1
960,617,44,0.119760999943694,1
961,618,44,0.136841083315465,1
962,607,44,0.112199822766279,1
963,606,44,0.127152858328758,1
963,607,44,0.106403186102278,1
963,617,44,0.107302951518787,1
964,608,44,0.104956815453938,1
964,613,44,0.106692768084296,1
964,614,44,0.120626957372087,1
964,615,44,0.128683319515671,1
964,616,44,0.126720314623317,1
965,609,44,0.111815509262296,1
965,613,44,0.121717937021619,1
965,614,44,0.158874555610672,1
966,610,44,0.117281349653256,1
948,612,45,0.148391971175026,1
949,612,45,0.177240658711227,1
953,601,45,0.122732277051767,1
954,599,45,0.129911393847468,1
954,600,45,0.119431464080636,1
954,601,45,0.121477622569628,1
954,617,45,0.18033349288116,1
955,599,45,0.12809226531233,1
955,600,45,0.141134318567932,1
955,601,45,0.164177133869639,1
955,617,45,0.133178343060129,1
956,600,45,0.168565981815652,1
956,601,45,0.19269123274878,1
956,602,45,0.144355368779899,1
956,618,45,0.171684526118416,1
957,600,45,0.172475104337408,1
957,601,45,0.175286521305033,1
957,602,45,0.13880672056849,1
957,618,45,0.166358301229687,1
958,602,45,0.144353584128596,1
958,618,45,0.170562649693205,1
958,619,45,0.169390133787277,1
959,603,45,0.14477766189442,1
959,618,45,0.157605913923948,1
959,619,45,0.159401384675253,1
960,618,45,0.133011567395884,1
963,605,45,0.140007255499871,1
963,606,45,0.11425741417768,1
964,605,45,0.145056937515164,1
964,606,45,0.134278837131919,1
964,607,45,0.127267957183717,1
964,614,45,0.129618521414611,1
965,608,45,0.142203770861124,1
