x,y,z,signal,mito.p
929,662,34,0.114890084218587,1
930,662,34,0.114638091454634,1
942,671,34,0.140707530362942,1
944,674,34,0.143073844141583,1
944,675,34,0.124951959417743,1
944,684,34,0.107992630014747,1
944,685,34,0.12161673613868,1
923,661,35,0.115633302253631,1
928,663,35,0.136989019754395,1
928,665,35,0.103427971607269,1
929,661,35,0.124695906572077,1
929,662,35,0.138670752447359,1
929,663,35,0.14784127239927,1
930,662,35,0.135379074660084,1
930,663,35,0.146240719032441,1
931,662,35,0.104899316219777,1
931,663,35,0.111366457532304,1
931,664,35,0.112207608307588,1
932,665,35,0.106063845811124,1
933,665,35,0.109681534775135,1
934,665,35,0.111846272189127,1
934,666,35,0.107131903845486,1
935,665,35,0.10979152506574,1
935,666,35,0.116279859112488,1
935,667,35,0.110629374236113,1
936,666,35,0.105339121225206,1
936,667,35,0.111975135167259,1
941,687,35,0.104304759638255,1
941,688,35,0.134602807113727,1
942,673,35,0.139098934911179,1
943,674,35,0.14502057524487,1
943,675,35,0.111178734523392,1
943,686,35,0.116027487110133,1
944,676,35,0.123750052535673,1
944,677,35,0.103267609533643,1
944,681,35,0.108228315527421,1
944,682,35,0.111725083211598,1
944,685,35,0.103198643914861,1
944,686,35,0.127363536415051,1
922,664,36,0.113641954867775,1
923,663,36,0.124752770024211,1
923,664,36,0.124737455485219,1
924,663,36,0.139585185466763,1
924,664,36,0.117671106343713,1
925,664,36,0.119896276512445,1
927,664,36,0.144612380875641,1
928,664,36,0.15192897159201,1
928,665,36,0.103574101086754,1
929,661,36,0.147112108493236,1
929,664,36,0.148487873874409,1
929,665,36,0.109765725700344,1
930,662,36,0.150802354686775,1
930,663,36,0.160455857051572,1
930,664,36,0.150382995092834,1
930,665,36,0.123269869794518,1
931,662,36,0.114521397567574,1
931,663,36,0.131448168238364,1
931,664,36,0.138170559303472,1
931,665,36,0.130423321073671,1
932,663,36,0.112010839347385,1
932,664,36,0.131476466115584,1
932,665,36,0.13933214422017,1
932,666,36,0.103135523029096,1
933,663,36,0.113313489795498,1
933,664,36,0.135850568380209,1
933,665,36,0.15519313228701,1
933,666,36,0.120524719160579,1
934,663,36,0.115892578625713,1
934,666,36,0.161504362000098,1
935,667,36,0.133092334021406,1
936,664,36,0.113073654968545,1
936,665,36,0.14023330389551,1
936,666,36,0.152496256470811,1
936,667,36,0.134976122704057,1
936,668,36,0.112698699729831,1
937,666,36,0.103839244499995,1
937,667,36,0.103090192886005,1
941,669,36,0.105301275463516,1
941,671,36,0.125155688518026,1
941,688,36,0.108580984932992,1
941,689,36,0.11871320885569,1
942,670,36,0.156408468670134,1
942,687,36,0.108823184422921,1
943,675,36,0.118922771534919,1
944,676,36,0.151140958809266,1
944,677,36,0.11727986616186,1
944,681,36,0.106479647256531,1
944,682,36,0.105105343058612,1
923,664,37,0.104291597834897,1
924,664,37,0.108595819846947,1
930,661,37,0.132062378292358,1
931,662,37,0.128367558929855,1
931,666,37,0.103669613393665,1
932,662,37,0.12439228161512,1
932,666,37,0.116418916911186,1
933,663,37,0.136590038647516,1
934,667,37,0.108312662609619,1
937,665,37,0.110863654335886,1
938,665,37,0.107261201832373,1
938,666,37,0.107095764656605,1
939,666,37,0.108045176841544,1
941,689,37,0.114988719665278,1
941,690,37,0.110695919421566,1
942,669,37,0.127215243045861,1
942,670,37,0.178406181014862,1
943,670,37,0.151726536363921,1
943,675,37,0.126239696873407,1
943,687,37,0.130032248202878,1
944,677,37,0.128720172565073,1
944,681,37,0.105304008210824,1
944,686,37,0.110490784908382,1
945,685,37,0.138305066241349,1
938,665,38,0.130282579010306,1
939,666,38,0.120234992175643,1
943,670,38,0.153843902439895,1
944,686,38,0.111363524011725,1
945,685,38,0.144678011427301,1
944,686,41,0.153141485995261,1
902,687,42,0.105471486581519,1
903,685,42,0.15270182599275,1
903,686,42,0.184695816447186,1
903,687,42,0.129679902265356,1
904,685,42,0.109997172666174,1
904,686,42,0.143548628312547,1
904,687,42,0.105125308845062,1
905,695,42,0.120094350498913,1
906,695,42,0.198402496156084,1
907,694,42,0.110217822491621,1
907,695,42,0.240564749335463,1
908,695,42,0.18218253663376,1
909,695,42,0.104890827972018,1
909,696,42,0.131487006712341,1
932,667,42,0.123592055125023,1
935,668,42,0.108638093774681,1
936,693,42,0.121571450611872,1
939,669,42,0.125540158178999,1
939,691,42,0.109744867588243,1
940,667,42,0.137714101270574,1
940,669,42,0.135820775857523,1
940,690,42,0.117217425674404,1
941,668,42,0.11800131145101,1
941,669,42,0.119530322608739,1
941,670,42,0.110027467122038,1
941,671,42,0.103203473627449,1
941,689,42,0.123856005052705,1
942,672,42,0.132079879029196,1
942,673,42,0.108127270801472,1
943,675,42,0.103247576822769,1
943,686,42,0.103450692449167,1
944,677,42,0.116260852576113,1
944,678,42,0.109292926953954,1
944,679,42,0.113589820741592,1
944,680,42,0.119053374548071,1
944,681,42,0.121197633088363,1
944,682,42,0.125291757025793,1
944,683,42,0.122331979764553,1
944,684,42,0.121205775559932,1
944,685,42,0.137612141910832,1
945,679,42,0.164166570964741,1
902,685,43,0.13627200263129,1
902,686,43,0.161114739158489,1
902,687,43,0.122481935090269,1
903,685,43,0.150411081042711,1
903,686,43,0.211748854766951,1
903,687,43,0.170879235680248,1
903,697,43,0.123182968430143,1
904,685,43,0.110404162395773,1
904,686,43,0.156075251963763,1
904,687,43,0.131516866159451,1
904,696,43,0.140239795564624,1
905,695,43,0.12383785737977,1
905,696,43,0.214980679811159,1
906,695,43,0.221542508029369,1
906,696,43,0.326442861577716,1
907,694,43,0.128115978866516,1
907,695,43,0.305568665306584,1
907,696,43,0.373689608626862,2
908,694,43,0.12830374649171,1
908,695,43,0.267577610692774,1
908,696,43,0.288572850938517,1
909,695,43,0.158996034594038,1
909,696,43,0.173277673182339,1
909,697,43,0.184555431314081,1
910,696,43,0.123879250135924,1
910,697,43,0.165549575337761,1
911,697,43,0.133468716981162,1
932,667,43,0.156845050149148,1
933,668,43,0.117154572486334,1
934,668,43,0.111999674122672,1
935,668,43,0.126484015636758,1
935,694,43,0.133078324508679,1
936,693,43,0.130271034547191,1
937,692,43,0.104084031734313,1
938,669,43,0.121502641150079,1
939,668,43,0.196625764243458,1
939,669,43,0.152113102990174,1
939,691,43,0.111662575799718,1
940,667,43,0.146421448439059,1
940,668,43,0.177485089015284,1
940,669,43,0.16733538666389,1
940,670,43,0.116918329270128,1
940,690,43,0.129164149192923,1
941,668,43,0.143511016786341,1
941,669,43,0.147059784747852,1
941,670,43,0.126640484939729,1
941,671,43,0.119458613088579,1
941,672,43,0.112483113852454,1
941,689,43,0.131588107208644,1
942,673,43,0.146454832572492,1
943,674,43,0.138026537943337,1
943,675,43,0.105389515316368,1
943,685,43,0.106138488851863,1
943,686,43,0.123002116328747,1
944,676,43,0.134389831288881,1
944,677,43,0.12312492264652,1
944,678,43,0.120853864631165,1
944,679,43,0.125876286097807,1
944,680,43,0.131529604108125,1
944,681,43,0.135210837812585,1
944,682,43,0.140797811410721,1
944,683,43,0.141406355196829,1
945,679,43,0.175340897399415,1
902,685,44,0.118220143162943,1
903,685,44,0.129090398477835,1
903,686,44,0.197177890740256,1
903,687,44,0.174171828101316,1
904,686,44,0.14082348808134,1
904,687,44,0.132940817125799,1
904,696,44,0.126919994795957,1
904,697,44,0.123369531415708,1
905,695,44,0.119568625687325,1
905,696,44,0.193993782810257,1
905,697,44,0.149144670170116,1
906,695,44,0.213618321622898,1
906,696,44,0.30049811402512,2
906,697,44,0.184665310063979,1
907,687,44,0.113062177429854,1
907,694,44,0.131926220552027,1
907,695,44,0.318030104568966,2
907,696,44,0.367253910639475,2
907,697,44,0.202820244299132,2
908,694,44,0.148766837181175,1
908,695,44,0.328295128856732,1
908,696,44,0.329859777270163,2
909,694,44,0.122439884243947,1
909,695,44,0.226548856480216,1
909,696,44,0.218870059627877,1
910,695,44,0.132707172808053,1
910,696,44,0.150738932641103,1
911,696,44,0.118709238006541,1
911,697,44,0.174687614635961,1
911,700,44,0.169331753381535,1
911,701,44,0.127677021570456,1
912,697,44,0.112332366587723,1
912,698,44,0.13964606438433,1
912,699,44,0.14631815059084,1
912,700,44,0.115589979843256,1
926,697,44,0.106445683111425,1
926,698,44,0.116580572857006,1
927,697,44,0.144728650908017,1
927,698,44,0.143701349847783,1
928,697,44,0.171676673652684,1
928,698,44,0.16327945426434,1
929,696,44,0.112581871993922,1
929,697,44,0.198375190991152,1
929,699,44,0.159029463343753,1
930,696,44,0.115032053229724,1
931,667,44,0.103271569228721,1
931,696,44,0.125826806640438,1
932,667,44,0.169437806285203,1
932,668,44,0.113118505486598,1
932,695,44,0.10687811527616,1
933,668,44,0.146741759885697,1
934,668,44,0.141019610105445,1
934,694,44,0.117549025040532,1
936,669,44,0.113855376855446,1
936,693,44,0.124339868637172,1
937,669,44,0.127838153274956,1
938,669,44,0.160087650025596,1
938,670,44,0.106655413101714,1
939,670,44,0.129028359536922,1
939,691,44,0.11817042947009,1
940,667,44,0.16220692344765,1
940,670,44,0.144082562520128,1
940,671,44,0.107817031480624,1
941,673,44,0.13497738311404,1
942,674,44,0.131145892923956,1
942,687,44,0.117088964242816,1
943,675,44,0.112411627413707,1
943,685,44,0.122171539612433,1
943,686,44,0.14390879325359,1
944,676,44,0.141869606058748,1
944,677,44,0.136510476661624,1
944,678,44,0.13503972321486,1
944,679,44,0.13725009193185,1
944,680,44,0.140018878041481,1
944,681,44,0.143798635651926,1
944,682,44,0.149384795002905,1
945,679,44,0.184334190322889,1
945,680,44,0.190018895887994,1
904,686,45,0.112353592784155,1
904,687,45,0.112951584819435,1
904,696,45,0.109091975217261,1
905,695,45,0.11730156082926,1
905,696,45,0.157857493987287,1
905,697,45,0.118099210729038,1
906,695,45,0.185264941747643,1
906,696,45,0.235838925761272,1
906,697,45,0.147316796843594,1
906,698,45,0.119088677181654,1
907,687,45,0.114003692532778,1
907,688,45,0.107122969434902,1
907,694,45,0.122183775627927,1
907,695,45,0.277499379610591,1
907,696,45,0.3045444985402,2
907,697,45,0.170347108432112,1
907,698,45,0.170253882709682,1
908,687,45,0.109052355958339,1
908,688,45,0.109658836241378,1
908,694,45,0.149733437788974,1
908,695,45,0.332831355538143,1
908,696,45,0.31571476489316,1
908,697,45,0.183690321595057,1
909,694,45,0.142804161021592,1
909,695,45,0.284493807304596,1
909,696,45,0.246732593470443,1
910,694,45,0.103943758141914,1
910,695,45,0.181285760508183,1
910,696,45,0.178085166861774,1
910,701,45,0.190268925535514,1
911,695,45,0.103407291960298,1
911,696,45,0.135697211062946,1
911,701,45,0.151431912741973,1
911,702,45,0.179993918354523,1
912,697,45,0.140629819952776,1
912,700,45,0.140912151788876,1
912,701,45,0.122697442889151,1
916,701,45,0.115842753392154,1
917,700,45,0.106494236780932,1
917,701,45,0.148747964493648,1
918,700,45,0.114518564433631,1
918,701,45,0.146069838670199,1
919,701,45,0.11220939295889,1
920,700,45,0.10618879371046,1
921,700,45,0.106076974152271,1
924,699,45,0.12244548358741,1
925,698,45,0.118213584569405,1
925,699,45,0.124124606227844,1
926,697,45,0.118543008891757,1
926,698,45,0.158390056244178,1
926,699,45,0.108951456235308,1
927,697,45,0.167672273059502,1
927,698,45,0.192675817823152,1
927,699,45,0.106748493821225,1
928,697,45,0.191420494096775,1
928,698,45,0.185535260649661,1
928,699,45,0.116747883916642,1
929,696,45,0.113736586003105,1
929,697,45,0.214143589117589,1
930,696,45,0.122739359886625,1
931,696,45,0.138581073719394,1
932,667,45,0.170545037415661,1
932,668,45,0.129712806773751,1
932,695,45,0.103273409650377,1
933,668,45,0.174983933676647,1
933,669,45,0.105658205724073,1
933,695,45,0.15640613746937,1
934,669,45,0.124889808936124,1
934,694,45,0.110503734784398,1
935,669,45,0.143625992946523,1
936,669,45,0.142461775669153,1
936,693,45,0.110199875591958,1
938,670,45,0.138758334210043,1
938,692,45,0.122369725139607,1
939,671,45,0.105607532781144,1
940,671,45,0.131212806193739,1
940,672,45,0.109819499474911,1
941,688,45,0.104539619749701,1
942,686,45,0.106167656746593,1
942,687,45,0.142640408110491,1
943,675,45,0.121232567637615,1
943,676,45,0.111171194371638,1
943,677,45,0.109169105615753,1
943,683,45,0.105857395117605,1
944,675,45,0.153680785310821,1
944,676,45,0.148573771372426,1
944,677,45,0.152925353568424,1
944,678,45,0.152312035840081,1
944,679,45,0.149180909745633,1
944,680,45,0.144211369727906,1
944,681,45,0.147206126154681,1
944,682,45,0.153402000469185,1
945,677,45,0.182864195352929,1
905,695,46,0.12117240258057,1
905,696,46,0.126148255802281,1
906,695,46,0.154496482496899,1
906,696,46,0.168128664167976,1
906,697,46,0.111177663732611,1
907,694,46,0.112390222752145,1
907,695,46,0.213184807513311,1
907,696,46,0.223185123396591,1
907,697,46,0.138939833247536,1
907,698,46,0.125729821996202,1
908,687,46,0.123778618110588,1
908,688,46,0.129782664718184,1
908,692,46,0.119011926021563,1
908,694,46,0.13876539473676,1
908,695,46,0.285719349662357,1
908,696,46,0.262307602320082,1
908,697,46,0.162550245742023,1
909,687,46,0.117476891665687,1
909,688,46,0.105291627192411,1
909,691,46,0.108979553339257,1
909,692,46,0.108605992359372,1
909,694,46,0.150254221347267,1
909,695,46,0.304574212984391,1
909,696,46,0.248574018992795,1
909,697,46,0.179915817551885,1
910,694,46,0.118974035643591,1
910,695,46,0.225014569447073,1
910,696,46,0.201002688487955,1
911,695,46,0.12604840456189,1
911,696,46,0.152140441617319,1
911,701,46,0.169961947218759,1
912,696,46,0.121121417323664,1
912,697,46,0.174939417780713,1
912,700,46,0.159069472995147,1
912,701,46,0.133927104668282,1
912,702,46,0.180019450022223,1
913,697,46,0.119561475928043,1
913,698,46,0.118073779447973,1
913,699,46,0.105494084728641,1
913,701,46,0.110896157297738,1
915,702,46,0.112066364311043,1
916,701,46,0.159935508502034,1
916,702,46,0.140288070382364,1
917,700,46,0.126992407022567,1
917,701,46,0.226625217247834,1
917,702,46,0.175787472925724,1
918,700,46,0.127717231995121,1
918,701,46,0.202275724878512,1
918,702,46,0.144479290504736,1
919,700,46,0.123043854861091,1
919,701,46,0.151311727630801,1
919,702,46,0.103237315077778,1
920,700,46,0.159452648783925,1
920,701,46,0.169179377622489,1
921,700,46,0.166560033751325,1
921,701,46,0.169033861616889,1
922,700,46,0.128058490786425,1
922,701,46,0.113859749251138,1
923,699,46,0.13406563822566,1
923,700,46,0.130797897073984,1
924,698,46,0.104552268465809,1
924,699,46,0.162095304662732,1
924,700,46,0.126459543605768,1
925,684,46,0.106886123898881,1
925,698,46,0.134454937599221,1
925,699,46,0.141678581444927,1
926,697,46,0.118838904077759,1
926,698,46,0.180574454269247,1
926,699,46,0.118433208220354,1
927,697,46,0.160498264828155,1
927,698,46,0.209964984249114,1
927,699,46,0.119550243778906,1
928,697,46,0.177127255275005,1
928,698,46,0.194583543141402,1
928,699,46,0.139875983242481,1
929,697,46,0.196256006801663,1
930,696,46,0.118458260263017,1
931,696,46,0.136664369374277,1
932,668,46,0.13664115775327,1
932,696,46,0.155926768975372,1
933,669,46,0.135459952826312,1
933,695,46,0.137277073628734,1
937,670,46,0.115693266537404,1
937,693,46,0.121167126705156,1
938,671,46,0.103467133549294,1
938,692,46,0.108834215798786,1
939,671,46,0.133893441683083,1
939,691,46,0.128395120638413,1
940,672,46,0.148239182715367,1
940,673,46,0.11770180234612,1
940,690,46,0.145105703112012,1
941,674,46,0.126556416709298,1
941,688,46,0.11017561548831,1
941,689,46,0.163927561539015,1
942,675,46,0.126341600462796,1
942,676,46,0.10294667345905,1
942,686,46,0.118140413865991,1
943,675,46,0.138628032356799,1
943,676,46,0.131532325701361,1
943,677,46,0.137596258514237,1
943,678,46,0.141445684449914,1
943,679,46,0.134203257149246,1
943,680,46,0.129975362442602,1
943,681,46,0.135438280467054,1
943,682,46,0.126234666387547,1
944,675,46,0.154825416040143,1
944,676,46,0.156748913214281,1
944,677,46,0.17441968270506,1
944,678,46,0.179991308301993,1
944,679,46,0.166224050835435,1
944,680,46,0.152468683608183,1
944,681,46,0.152100710817691,1
945,676,46,0.188926243127866,1
945,677,46,0.180285429990762,1
945,678,46,0.177903545129504,1
945,679,46,0.181324710522866,1
945,680,46,0.168597101672745,1
905,696,47,0.111139003723764,1
906,696,47,0.12055686519217,1
907,694,47,0.103752131208278,1
907,696,47,0.153629945056833,1
907,697,47,0.119879210784362,1
907,699,47,0.142569713610759,1
908,691,47,0.105143489980209,1
908,692,47,0.118587959796446,1
908,694,47,0.118392986641617,1
908,695,47,0.208069126862027,1
908,696,47,0.199361701615047,1
908,697,47,0.156809000192832,1
908,698,47,0.155673738882849,1
909,686,47,0.136167611684148,1
909,688,47,0.141719818044092,1
909,691,47,0.118177757694502,1
909,692,47,0.11296087616028,1
909,694,47,0.134519285432757,1
909,695,47,0.265011906747329,1
909,696,47,0.226314799461856,1
909,697,47,0.186048035585233,1
910,686,47,0.129030322653355,1
910,687,47,0.150904637514566,1
910,688,47,0.107805364322732,1
910,694,47,0.119769990124632,1
910,695,47,0.234695209665743,1
910,696,47,0.21267154179863,1
911,695,47,0.144213042838502,1
911,696,47,0.17170212724189,1
912,696,47,0.15455155014366,1
912,697,47,0.218961121460601,1
912,701,47,0.147674675200155,1
912,702,47,0.187252017124443,1
913,696,47,0.121005091520934,1
913,697,47,0.152558295411724,1
913,698,47,0.139228500595761,1
913,699,47,0.115613425699746,1
913,701,47,0.118879538357109,1
914,702,47,0.151211564076433,1
915,701,47,0.104673223207855,1
915,702,47,0.141960768278109,1
915,703,47,0.153724330802609,1
916,701,47,0.177390614036943,1
916,702,47,0.189988467583281,1
916,703,47,0.143071936795503,1
917,700,47,0.126263555430511,1
917,701,47,0.262116176159718,1
917,702,47,0.247165906806758,1
917,703,47,0.158059962677587,1
918,700,47,0.119736940613319,1
918,701,47,0.217492576519825,1
918,702,47,0.185886937342945,1
919,700,47,0.120102861054813,1
919,701,47,0.160864475275485,1
919,702,47,0.118282750961459,1
920,700,47,0.173359889837044,1
920,701,47,0.209297145423471,1
920,702,47,0.128288710804484,1
921,681,47,0.104132908871867,1
921,700,47,0.185127066280432,1
921,701,47,0.217272372857203,1
921,702,47,0.126906877608881,1
922,700,47,0.154232209101168,1
922,701,47,0.1422922672576,1
923,680,47,0.109127958249154,1
923,681,47,0.110022603947238,1
923,699,47,0.160684047028774,1
923,700,47,0.184497229373469,1
923,701,47,0.122137140458572,1
924,684,47,0.121215434985108,1
924,698,47,0.104766694319839,1
924,699,47,0.172029878453646,1
924,700,47,0.153539530160205,1
925,684,47,0.137983661695788,1
925,685,47,0.108563272268812,1
925,698,47,0.132659422231633,1
925,699,47,0.129708043985587,1
926,697,47,0.106091005973139,1
926,698,47,0.168721458406337,1
926,699,47,0.108767503302274,1
927,697,47,0.127121069227427,1
927,698,47,0.180691460470286,1
927,699,47,0.116145374482752,1
928,697,47,0.13567453483733,1
928,698,47,0.175976445190548,1
928,699,47,0.153950546509307,1
929,697,47,0.149491874081072,1
929,698,47,0.183097471586344,1
930,697,47,0.163452375821508,1
931,696,47,0.115494523306698,1
931,697,47,0.170567412481369,1
932,669,47,0.122085675576628,1
932,696,47,0.121893267858046,1
933,669,47,0.163323869773637,1
933,695,47,0.111695457999972,1
934,670,47,0.118450932038605,1
935,670,47,0.119286963095463,1
936,670,47,0.115605238611895,1
937,670,47,0.140514743405959,1
938,671,47,0.135058082815138,1
939,672,47,0.139416045139542,1
939,673,47,0.110450451788939,1
939,691,47,0.127202705870459,1
940,673,47,0.18278746650098,1
940,674,47,0.124638931579235,1
940,690,47,0.130631154871951,1
941,674,47,0.163957298291348,1
941,675,47,0.121447729660307,1
941,688,47,0.110932865344222,1
942,675,47,0.161615311540778,1
942,676,47,0.134020006922662,1
942,677,47,0.122986099083305,1
942,678,47,0.136985160445952,1
942,679,47,0.140758638314625,1
942,680,47,0.131121387430754,1
942,681,47,0.122705708055497,1
942,682,47,0.111260917715885,1
942,686,47,0.122118680471658,1
943,675,47,0.156904869430003,1
943,676,47,0.155155208446826,1
943,677,47,0.177852370253396,1
943,678,47,0.208217029838745,1
943,679,47,0.203714443834391,1
943,680,47,0.191402736816312,1
943,681,47,0.181674212172375,1
943,682,47,0.152097654602335,1
944,675,47,0.159853905321214,1
944,676,47,0.164816440582578,1
944,677,47,0.195688376146672,1
944,678,47,0.213231186139042,1
944,679,47,0.192390429771696,1
944,680,47,0.173527624751365,1
944,681,47,0.165239157551783,1
945,677,47,0.17645276862326,1
945,678,47,0.176430058935432,1
945,679,47,0.168456928466982,1
945,680,47,0.154072371268863,1
907,697,48,0.110566911440516,1
908,696,48,0.151624510079755,1
908,697,48,0.166186004300474,1
908,698,48,0.147232170909631,1
909,692,48,0.105712425661465,1
909,694,48,0.111517952119769,1
909,695,48,0.190833745364703,1
909,696,48,0.196679549172096,1
909,697,48,0.210160916654018,1
910,688,48,0.137887837074899,1
910,691,48,0.107544582151113,1
910,694,48,0.111790011056807,1
910,695,48,0.205662703045356,1
910,696,48,0.211037581990227,1
911,695,48,0.161639883958403,1
911,696,48,0.205054493881368,1
912,695,48,0.12622794048295,1
912,696,48,0.209723342462717,1
912,697,48,0.2755166320132,1
912,701,48,0.158282966011941,1
913,696,48,0.149025723160785,1
913,697,48,0.183265128422169,1
913,698,48,0.157901396409335,1
913,699,48,0.122615248542587,1
913,701,48,0.118497455667254,1
915,701,48,0.116533223827129,1
915,702,48,0.181833726536632,1
916,701,48,0.18020465221117,1
916,702,48,0.240971047512682,1
916,703,48,0.179656552333873,1
917,700,48,0.112143873947937,1
917,701,48,0.244414822207237,1
917,702,48,0.29159049551825,1
917,703,48,0.19368789357696,1
918,701,48,0.192317504457836,1
918,702,48,0.208537776294138,1
919,700,48,0.108353207656404,1
919,701,48,0.156672697449582,1
919,702,48,0.136865588808666,1
920,680,48,0.116179606325554,1
920,681,48,0.116747248134616,1
920,700,48,0.156486145618088,1
920,701,48,0.218118052185167,1
920,702,48,0.14969204503282,1
921,679,48,0.10295657827378,1
921,680,48,0.125451126387131,1
921,681,48,0.128398444551464,1
921,700,48,0.167795815545937,1
921,701,48,0.227308961778212,1
921,702,48,0.146058260744872,1
922,680,48,0.117420496684519,1
922,681,48,0.125663667203222,1
922,700,48,0.157743967856288,1
922,701,48,0.152600692034236,1
923,680,48,0.129327377862703,1
923,681,48,0.13449137794801,1
923,699,48,0.153915277337936,1
923,700,48,0.203270467206542,1
923,701,48,0.137018511117173,1
924,680,48,0.104341177678902,1
924,684,48,0.124660313932657,1
924,699,48,0.145873192404774,1
924,700,48,0.152145092864777,1
924,701,48,0.106655123095877,1
925,684,48,0.149953474140536,1
925,685,48,0.108662264645763,1
925,698,48,0.113962277468483,1
925,699,48,0.105187883181366,1
926,698,48,0.129913736202303,1
927,698,48,0.128639528634329,1
928,698,48,0.141201867619742,1
928,699,48,0.148590469016178,1
929,697,48,0.103121212356462,1
929,698,48,0.155046891266818,1
930,697,48,0.113125320623761,1
931,669,48,0.107692038965006,1
932,669,48,0.136516756403396,1
932,670,48,0.110493807661526,1
933,669,48,0.181366036354596,1
933,670,48,0.123052309646638,1
934,670,48,0.139499756439713,1
936,670,48,0.135364998222933,1
937,671,48,0.131159411657574,1
938,671,48,0.181738916936171,1
938,672,48,0.116049951408407,1
939,673,48,0.149153548810347,1
939,674,48,0.111868926106602,1
940,674,48,0.178783266681069,1
940,675,48,0.115847750415801,1
941,675,48,0.160380779002078,1
941,676,48,0.127895808666106,1
941,677,48,0.111084359931687,1
941,678,48,0.112007336969203,1
941,679,48,0.110016502670597,1
942,675,48,0.188598313450979,1
942,676,48,0.16938654217653,1
942,677,48,0.179122517739657,1
942,678,48,0.214759985369429,1
942,679,48,0.21638158646756,1
942,680,48,0.190428696443395,1
942,681,48,0.15544368617585,1
942,682,48,0.124400636014031,1
942,683,48,0.110377827634986,1
943,675,48,0.168301329181521,1
943,676,48,0.174705728846684,1
943,677,48,0.226196900935166,1
943,678,48,0.291107858881554,3
943,679,48,0.288171549784945,3
943,680,48,0.260547958443681,1
943,681,48,0.216220834001462,1
943,682,48,0.16226509192605,1
944,675,48,0.16094927967458,1
944,676,48,0.164279907476538,1
944,677,48,0.204121478180273,1
944,678,48,0.236278619225995,1
944,679,48,0.21537294616751,1
944,680,48,0.193047092218554,1
944,681,48,0.169961523364075,1
908,696,49,0.12125852316,1
908,697,49,0.170213047657061,1
908,698,49,0.147227240810407,1
909,695,49,0.128142793252341,1
909,696,49,0.163101970692278,1
909,697,49,0.227666806672561,1
910,694,49,0.104509949921792,1
910,695,49,0.162340192283685,1
910,696,49,0.197218714638808,1
911,691,49,0.120535293219548,1
911,692,49,0.105843463683372,1
911,695,49,0.178205106583391,1
912,695,49,0.161109318280157,1
912,696,49,0.260723345050461,1
912,701,49,0.166397351631006,1
913,695,49,0.103926469332418,1
913,696,49,0.163196177972923,1
913,697,49,0.192225126444776,1
913,698,49,0.166737963486213,1
913,699,49,0.128552660732166,1
913,700,49,0.111080734858728,1
913,701,49,0.117403352877942,1
914,701,49,0.108754821123954,1
915,701,49,0.130221867403799,1
916,701,49,0.163513812442607,1
916,702,49,0.25743798046717,1
917,675,49,0.123767977127195,1
917,701,49,0.181496594751465,1
917,702,49,0.27019854959604,1
918,675,49,0.13728654343471,1
918,676,49,0.11861581151084,1
918,701,49,0.14525949543803,1
919,675,49,0.118415071701489,1
919,676,49,0.125782123433444,1
919,701,49,0.147412855699967,1
920,677,49,0.108340547786225,1
920,678,49,0.121362467944316,1
920,679,49,0.119953117656439,1
920,680,49,0.136111685173947,1
920,681,49,0.124772111182705,1
920,700,49,0.118551474831375,1
920,701,49,0.194622671621216,1
920,702,49,0.174903222821478,1
921,678,49,0.117650939783991,1
921,679,49,0.120769272159413,1
921,680,49,0.13927831467525,1
921,681,49,0.135593690133314,1
921,700,49,0.128027002845002,1
921,701,49,0.19067100747403,1
922,680,49,0.129674693314366,1
922,681,49,0.134815225235041,1
922,700,49,0.1388450905715,1
922,701,49,0.140415762183078,1
923,680,49,0.13689413207544,1
923,681,49,0.139965003880278,1
923,699,49,0.119631467721324,1
923,700,49,0.176972726780326,1
923,701,49,0.132702610793161,1
924,680,49,0.107555948149098,1
924,684,49,0.10944182264296,1
924,700,49,0.125493891093974,1
925,673,49,0.10424876620363,1
925,683,49,0.108504133386266,1
925,684,49,0.136079059517318,1
928,698,49,0.108773303419008,1
930,671,49,0.104820144626357,1
931,669,49,0.115057741054413,1
931,670,49,0.132430061077014,1
931,671,49,0.120186527738701,1
932,670,49,0.157772198809084,1
932,671,49,0.135422631305943,1
933,670,49,0.168995257378395,1
933,671,49,0.125074230340125,1
936,671,49,0.119589673418627,1
937,671,49,0.165307587775174,1
937,672,49,0.11254503009859,1
938,672,49,0.152032860605973,1
939,674,49,0.138199838738908,1
939,675,49,0.107840109252783,1
940,675,49,0.164696902407504,1
940,676,49,0.119489030239221,1
941,675,49,0.206628199400161,1
941,676,49,0.168953005758802,1
941,677,49,0.157564688478853,1
941,678,49,0.155955368012499,1
941,679,49,0.142677004616268,1
941,680,49,0.121990352888918,1
941,681,49,0.102920472547111,1
942,675,49,0.203787569921523,1
942,676,49,0.205652285143376,1
942,677,49,0.260926438368718,3
942,678,49,0.306230280160808,3
942,679,49,0.283211178413286,3
942,680,49,0.238726736958728,1
942,681,49,0.17734403463794,1
942,682,49,0.129502753315414,1
942,683,49,0.11408828500453,1
942,684,49,0.105608603571926,1
943,675,49,0.175024132947242,1
943,676,49,0.192849352854206,1
943,677,49,0.280076773022069,3
943,678,49,0.363750506283266,3
943,679,49,0.351172506982671,3
943,680,49,0.308859294611219,3
943,681,49,0.22870893149268,1
943,682,49,0.159654024375303,1
943,683,49,0.138955025091751,1
944,676,49,0.159525473711149,1
944,677,49,0.201857447229423,1
944,678,49,0.24347498021491,3
944,679,49,0.229319326854514,3
944,680,49,0.20626841369752,1
944,681,49,0.166759156220433,1
909,696,50,0.131957351563189,1
909,697,50,0.217729221282574,1
910,695,50,0.131877678036591,1
910,696,50,0.187106835740962,1
911,694,50,0.108496961318843,1
911,695,50,0.192978516992245,1
912,695,50,0.189449435965417,1
913,676,50,0.103097097255733,1
913,695,50,0.114152766686914,1
913,696,50,0.165301754196228,1
913,698,50,0.167288450334627,1
913,699,50,0.134232960439367,1
913,700,50,0.120617175252133,1
914,676,50,0.115068694351784,1
916,701,50,0.140149536824986,1
917,676,50,0.106299185547608,1
917,701,50,0.118386762670199,1
918,675,50,0.172113277439839,1
918,676,50,0.148701206629516,1
919,675,50,0.147321013082297,1
919,676,50,0.143904052773567,1
919,677,50,0.105555632890445,1
920,675,50,0.116157978582578,1
920,676,50,0.105999419899094,1
920,677,50,0.110382523498727,1
920,678,50,0.13366609941525,1
920,679,50,0.138184490737704,1
920,680,50,0.147516131240044,1
920,681,50,0.1246219997,1
920,701,50,0.150189572353824,1
921,674,50,0.120796811559829,1
921,678,50,0.125074921892505,1
921,679,50,0.137752036264828,1
921,680,50,0.150848655234012,1
921,681,50,0.137145120973035,1
922,674,50,0.121256058110388,1
922,679,50,0.118036011764778,1
922,680,50,0.143053833738851,1
922,681,50,0.136438644446687,1
922,700,50,0.105888079965942,1
923,673,50,0.112732708491219,1
923,674,50,0.115820344864233,1
923,679,50,0.110545997558062,1
923,680,50,0.141533545064364,1
923,681,50,0.134031462153212,1
923,700,50,0.124720333986783,1
924,673,50,0.126227739709678,1
924,674,50,0.116749724338298,1
924,677,50,0.112114784131702,1
924,680,50,0.106288934956688,1
924,681,50,0.104268006975488,1
925,673,50,0.14547271665243,1
925,674,50,0.120542565673606,1
925,677,50,0.106115634161117,1
925,683,50,0.124462797649721,1
925,684,50,0.114518943672032,1
926,673,50,0.123602807649123,1
926,683,50,0.111196859888186,1
926,684,50,0.103435712532294,1
928,672,50,0.104770285930585,1
929,671,50,0.109218272759145,1
929,672,50,0.111285412055016,1
930,670,50,0.121191989128618,1
930,671,50,0.147980363660181,1
930,672,50,0.111262434669493,1
931,669,50,0.12547279874639,1
931,670,50,0.182103197729281,1
931,671,50,0.198194539663027,1
931,672,50,0.121982377728408,1
932,670,50,0.232098051241087,1
932,671,50,0.233461346371282,1
932,672,50,0.132481938659572,1
933,670,50,0.226540892473777,1
933,671,50,0.185653594185106,1
933,672,50,0.103375168236848,1
934,671,50,0.122418524198667,1
935,671,50,0.120078723645943,1
936,671,50,0.152880648053289,1
936,672,50,0.120431169970101,1
936,673,50,0.105181279971546,1
937,672,50,0.150010114511259,1
937,673,50,0.117996347889574,1
938,673,50,0.136086655439425,1
938,674,50,0.107595065474841,1
938,675,50,0.103710771914336,1
939,674,50,0.175822485553471,1
939,675,50,0.16591488230537,1
939,676,50,0.136462424925297,1
940,676,50,0.173275219286798,1
940,677,50,0.110504839037391,1
940,680,50,0.10377561052698,1
941,676,50,0.196511769641493,1
941,677,50,0.195660580202631,3
941,678,50,0.188143896613008,3
941,679,50,0.16417125567441,3
941,680,50,0.147485167539941,1
941,681,50,0.121364631834021,1
941,682,50,0.106059863807905,1
942,675,50,0.199540545983727,1
942,676,50,0.219085355499416,3
942,677,50,0.332188256441186,3
942,678,50,0.373398866621497,3
942,679,50,0.312446242956539,3
942,680,50,0.255363077938132,3
942,681,50,0.176923972337548,1
942,682,50,0.121136832249292,1
942,683,50,0.104115965838562,1
943,675,50,0.171055023833572,1
943,676,50,0.195626984141856,3
943,677,50,0.316611172934407,3
943,678,50,0.400736356050784,3
943,679,50,0.370380374332395,3
943,680,50,0.313759500925832,3
943,681,50,0.209535619453806,1
944,677,50,0.18717851179891,3
944,678,50,0.231239923970285,3
944,679,50,0.224254821079337,3
910,696,51,0.18201862756567,1
911,695,51,0.198915672638199,1
912,691,51,0.103806763846284,1
912,692,51,0.115043943469028,1
912,693,51,0.111448629570726,1
912,694,51,0.123154581320358,1
912,695,51,0.203023471466237,1
913,695,51,0.123319360405958,1
913,696,51,0.166912837005744,1
913,699,51,0.148127407773459,1
914,676,51,0.147706296990427,1
914,684,51,0.105487604213597,1
914,696,51,0.103994832631385,1
914,697,51,0.108524757262884,1
915,676,51,0.124030287406492,1
918,676,51,0.174058324278459,1
919,675,51,0.173336220899141,1
919,676,51,0.161341244871024,1
919,677,51,0.111709612515617,1
919,679,51,0.109448727012687,1
919,680,51,0.106459770702647,1
920,675,51,0.141333586039958,1
920,676,51,0.115586823241264,1
920,677,51,0.110099132025916,1
920,678,51,0.141219814519405,1
920,679,51,0.161048450516661,1
920,680,51,0.157195533356873,1
920,681,51,0.119635170872777,1
921,674,51,0.136653047992575,1
921,675,51,0.103205079813622,1
921,678,51,0.133836890544926,1
921,679,51,0.166850675370054,1
921,680,51,0.171132332697194,1
921,681,51,0.137604378677664,1
922,674,51,0.148506478864241,1
922,678,51,0.105296780373047,1
922,679,51,0.148206032817417,1
922,680,51,0.16269048587221,1
922,681,51,0.136237123852391,1
923,674,51,0.148812736181869,1
923,679,51,0.128720864117453,1
923,680,51,0.145387309933521,1
923,681,51,0.132427294867495,1
923,682,51,0.109984535104136,1
924,673,51,0.152474628727835,1
924,674,51,0.140797655253732,1
924,677,51,0.123428737222677,1
924,678,51,0.103047316638456,1
924,680,51,0.107208610389294,1
924,681,51,0.120991171240773,1
924,682,51,0.134673657770448,1
924,683,51,0.112853986701314,1
925,673,51,0.172889745759468,1
925,674,51,0.137173418850254,1
925,677,51,0.12529830446526,1
925,678,51,0.109843369186086,1
925,682,51,0.131068327516709,1
925,683,51,0.136046143854852,1
926,672,51,0.104034652663579,1
926,673,51,0.145451746999622,1
926,682,51,0.112350781958353,1
926,683,51,0.1383519691084,1
926,684,51,0.11768686704553,1
927,672,51,0.109033672890013,1
927,673,51,0.105833090397675,1
927,682,51,0.111261397340923,1
927,683,51,0.14101118878211,1
927,684,51,0.124827167675396,1
928,672,51,0.120910895394359,1
928,682,51,0.108195924106276,1
928,683,51,0.115485800823456,1
929,671,51,0.120532660858876,1
929,672,51,0.129489903826034,1
930,670,51,0.136479066798695,1
930,671,51,0.186058364254648,1
930,672,51,0.14591966026307,1
931,670,51,0.228347405755019,1
931,672,51,0.172362794000109,1
932,672,51,0.17229752037871,1
933,671,51,0.224702612399347,1
933,672,51,0.118648225240127,1
934,671,51,0.148415796269918,1
935,671,51,0.162702744195845,1
935,672,51,0.115635968076514,1
936,672,51,0.150331061739923,1
936,673,51,0.133999572665246,1
937,673,51,0.17970998033225,1
937,674,51,0.126948314981318,1
938,673,51,0.191306700268081,1
938,674,51,0.143116765005415,1
938,675,51,0.135988878856174,1
938,676,51,0.128500002364663,1
939,676,51,0.215973481330897,1
939,677,51,0.120827485254096,1
939,680,51,0.122016174562455,1
939,681,51,0.12339560963287,1
939,683,51,0.105454376237154,1
940,677,51,0.134084008980008,1
940,679,51,0.107804762002918,1
940,680,51,0.144939529767582,1
940,681,51,0.138266305845866,1
940,682,51,0.121502774998927,1
940,683,51,0.122586972973508,1
941,676,51,0.201013976407445,1
941,677,51,0.207832705180691,3
941,678,51,0.196536598602743,3
941,679,51,0.170597428085468,1
941,680,51,0.17482911517613,1
941,681,51,0.14594276034337,1
941,682,51,0.114497137463927,1
942,675,51,0.184880539011094,1
942,676,51,0.205928370699916,3
942,677,51,0.341602872075035,3
942,678,51,0.36870106207276,3
942,679,51,0.283831969368959,3
942,680,51,0.231919920732928,1
942,681,51,0.159498837790455,1
942,682,51,0.107954260011738,1
943,676,51,0.181763433583443,1
943,677,51,0.30723671195487,3
943,678,51,0.374143133139181,3
943,679,51,0.330067599914372,3
943,680,51,0.268738682522223,3
944,678,51,0.203422921044082,3
944,679,51,0.199631808589723,3
912,695,52,0.199990701966713,1
913,690,52,0.104728893174432,1
913,691,52,0.112560511948642,1
913,692,52,0.118195046503997,1
913,693,52,0.117068362674339,1
913,694,52,0.116433751825141,1
913,695,52,0.133020680271599,1
913,696,52,0.166631743271485,1
914,696,52,0.121957314531675,1
914,697,52,0.122528949498027,1
915,676,52,0.14356396515968,1
915,696,52,0.119784311951337,1
915,697,52,0.117461744437755,1
916,676,52,0.114884852959456,1
917,676,52,0.138787000171594,1
918,677,52,0.109403385715526,1
919,676,52,0.172691716389283,1
919,677,52,0.119239837146999,1
919,678,52,0.115795393208206,1
919,679,52,0.133321862487085,1
919,680,52,0.113826889359026,1
920,675,52,0.15208837441556,1
920,676,52,0.125839589205394,1
920,677,52,0.11164645816764,1
920,678,52,0.1439193896207,1
920,679,52,0.183026297461574,1
920,680,52,0.167045046205068,1
920,681,52,0.112257232767875,1
921,675,52,0.114286548610198,1
921,678,52,0.143373319784261,1
921,679,52,0.207612256128515,1
921,680,52,0.209745494447013,1
921,681,52,0.141566505343112,1
922,675,52,0.103522602742599,1
922,678,52,0.121292922313861,1
922,679,52,0.190396639644369,1
922,680,52,0.200845081469778,1
922,681,52,0.141377231918381,1
923,674,52,0.165491016466888,1
923,678,52,0.103523160446131,1
923,679,52,0.142352789244906,1
923,680,52,0.150054117319943,1
923,681,52,0.132892519999918,1
923,682,52,0.117533074719513,1
924,673,52,0.15707914062972,1
924,674,52,0.151903384153956,1
924,677,52,0.120553507816907,1
924,678,52,0.10530133123387,1
924,680,52,0.10471845296431,1
924,681,52,0.138675994860561,1
924,682,52,0.169827942214062,1
924,683,52,0.123253328307755,1
925,673,52,0.171172208499741,1
925,674,52,0.13903921601696,1
925,677,52,0.129280207297957,1
925,678,52,0.117319530037065,1
925,681,52,0.129460256306266,1
925,682,52,0.168280013752523,1
925,683,52,0.143131889925206,1
926,672,52,0.105797207752418,1
926,673,52,0.146423590020623,1
926,674,52,0.106177728872383,1
926,678,52,0.103316308206068,1
926,681,52,0.113673398192916,1
926,682,52,0.145257521167526,1
926,683,52,0.163081469510437,1
926,684,52,0.123717270722055,1
927,672,52,0.116879936958977,1
927,673,52,0.118622515107296,1
927,681,52,0.103861898417469,1
927,682,52,0.138831850689647,1
927,683,52,0.184934625099639,1
927,684,52,0.152113515690788,1
928,672,52,0.135819638142317,1
928,673,52,0.116774820997244,1
928,682,52,0.117368909107798,1
928,683,52,0.136226661334129,1
928,684,52,0.106350326961504,1
929,671,52,0.133689065646703,1
929,672,52,0.15882696119124,1
929,673,52,0.122374164459722,1
930,670,52,0.157832520023118,1
930,672,52,0.211398505408073,1
930,673,52,0.127802549481465,1
931,673,52,0.126541157940659,1
933,672,52,0.136210309466567,1
934,671,52,0.184705910881117,1
934,672,52,0.121394390894495,1
935,672,52,0.151420613668412,1
936,672,52,0.171978447033914,1
936,673,52,0.145160503061079,1
936,688,52,0.104065727904388,1
937,673,52,0.217509396858353,1
937,674,52,0.149676618953122,1
938,674,52,0.172969441594208,1
938,676,52,0.159291784777121,1
938,677,52,0.103999751576539,1
939,677,52,0.147110680772194,1
939,680,52,0.133405930717516,1
939,681,52,0.134565552517782,1
939,682,52,0.110717803708166,1
939,683,52,0.127918864130124,1
940,677,52,0.151280340076014,1
940,679,52,0.113468810229193,1
940,680,52,0.168085219062824,1
940,681,52,0.159751287871305,1
940,682,52,0.126427832582932,1
940,683,52,0.135822315119271,1
940,684,52,0.102951469709426,1
941,676,52,0.196137840577278,1
941,677,52,0.194458260619947,1
941,678,52,0.18002356587429,1
941,679,52,0.161459232630279,1
941,680,52,0.183293047060987,1
941,681,52,0.156482063228233,1
941,682,52,0.108904497597904,1
942,676,52,0.174986041795998,1
942,677,52,0.289971415240083,3
942,678,52,0.306161414928662,3
942,679,52,0.226026533660174,1
942,680,52,0.184878018191129,1
943,678,52,0.300417670867647,3
943,679,52,0.253091328370397,3
912,677,53,0.11803118205219,1
913,677,53,0.127823039509235,1
913,695,53,0.154917024422328,1
913,696,53,0.161924803538892,1
914,676,53,0.177707568108317,1
914,677,53,0.119684996106337,1
914,690,53,0.106793612036973,1
914,691,53,0.112191624524357,1
914,694,53,0.107249969683236,1
914,695,53,0.116162674446319,1
914,696,53,0.131341535323023,1
914,697,53,0.123665025055166,1
915,676,53,0.153458964307955,1
915,694,53,0.117934331256802,1
915,695,53,0.12932385317638,1
915,696,53,0.144842478198923,1
915,697,53,0.128791982471869,1
916,676,53,0.12456851593127,1
916,693,53,0.114333998026711,1
916,694,53,0.14084154652171,1
916,695,53,0.122705674593285,1
917,676,53,0.136131918658092,1
918,676,53,0.170346015333189,1
918,677,53,0.122215977429872,1
919,675,53,0.173221925137269,1
919,676,53,0.171939563943655,1
919,677,53,0.129500567117568,1
919,678,53,0.133567687049972,1
919,679,53,0.155729843858181,1
919,680,53,0.118054349056914,1
920,675,53,0.148694469570848,1
920,676,53,0.138863126703729,1
920,677,53,0.121342624852644,1
920,678,53,0.147985104140204,1
920,679,53,0.20291761933584,1
920,680,53,0.175895076245211,1
920,681,53,0.104971929219659,1
921,675,53,0.123969508875562,1
921,676,53,0.108726567863017,1
921,677,53,0.107274464022367,1
921,678,53,0.156630245056717,1
921,679,53,0.25962248289434,1
921,680,53,0.260467492978066,1
921,681,53,0.146178847402587,1
922,674,53,0.144017723907483,1
922,675,53,0.134777836790248,1
922,676,53,0.104900097004722,1
922,678,53,0.143421527677577,1
922,679,53,0.247234102794666,1
922,680,53,0.258016497495108,1
922,681,53,0.152929000949524,1
923,674,53,0.161494289874308,1
923,675,53,0.133977688378645,1
923,676,53,0.105605960057184,1
923,678,53,0.116789856684469,1
923,679,53,0.157086825784392,1
923,680,53,0.161100439639925,1
923,681,53,0.136554479470308,1
923,682,53,0.115675754646496,1
924,673,53,0.140566397907104,1
924,674,53,0.146535766509073,1
924,675,53,0.106132733351412,1
924,677,53,0.113512411491334,1
924,678,53,0.11120941937173,1
924,680,53,0.103556578041775,1
924,681,53,0.149688643041274,1
924,682,53,0.182406856148449,1
924,683,53,0.12093469818111,1
925,673,53,0.147695734085528,1
925,674,53,0.129955441272435,1
925,677,53,0.119316164452405,1
925,678,53,0.117185948887051,1
925,681,53,0.15389678388881,1
925,682,53,0.199448167970667,1
925,683,53,0.145879070600002,1
926,673,53,0.13355601989208,1
926,674,53,0.110865740147096,1
926,678,53,0.104396267633805,1
926,681,53,0.145170787114211,1
926,682,53,0.195759672966218,1
926,683,53,0.190718323041695,1
926,684,53,0.119323001897709,1
927,672,53,0.114971843556396,1
927,673,53,0.129606285399116,1
927,681,53,0.123509593080764,1
927,682,53,0.179921216122076,1
927,683,53,0.222709045353433,1
927,684,53,0.155378156010826,1
928,672,53,0.14562865056001,1
928,673,53,0.15460659548228,1
928,682,53,0.124150952142701,1
928,683,53,0.147768090541785,1
928,684,53,0.108651913668207,1
929,672,53,0.185532148663952,1
929,673,53,0.175742990492002,1
929,674,53,0.103978726153378,1
930,674,53,0.104927881794692,1
932,673,53,0.132986470736939,1
933,672,53,0.161269223036886,1
934,672,53,0.172058499798914,1
935,672,53,0.193757294204497,1
935,673,53,0.103638906237187,1
936,673,53,0.145195158758564,1
937,673,53,0.219032083658028,1
937,674,53,0.153214232843991,1
937,678,53,0.11606824408426,1
938,674,53,0.189383515407921,1
938,677,53,0.103253533096492,1
939,680,53,0.12147695332539,1
939,681,53,0.123908864193479,1
939,682,53,0.109425403850974,1
939,683,53,0.130426912684418,1
940,679,53,0.106417541391195,1
940,680,53,0.160849249969059,1
940,681,53,0.155372411664445,1
940,682,53,0.11583417591183,1
940,683,53,0.126266968576128,1
941,677,53,0.15901900082549,1
941,678,53,0.145252758379362,1
941,679,53,0.141782782772868,1
941,680,53,0.168073384593873,1
912,676,54,0.145396534349942,1
912,677,54,0.160744669402716,1
912,678,54,0.127026962333417,1
912,695,54,0.184074958567089,1
913,676,54,0.179370751581803,1
913,677,54,0.177372087125606,1
913,678,54,0.129196094451242,1
913,694,54,0.190563058378353,1
913,695,54,0.160842401369684,1
913,696,54,0.146599300095452,1
914,676,54,0.182365552624861,1
914,677,54,0.145276215389923,1
914,678,54,0.103461879982021,1
914,689,54,0.105835053514108,1
914,691,54,0.137945425541626,1
914,692,54,0.113845405116292,1
914,694,54,0.121116989157619,1
914,695,54,0.122799948798354,1
914,696,54,0.122652703911804,1
915,675,54,0.141767959012984,1
915,676,54,0.158243380215231,1
915,677,54,0.113485875957276,1
915,692,54,0.103150737181452,1
915,693,54,0.119875786484675,1
915,694,54,0.155884071192953,1
915,695,54,0.157971388202616,1
915,696,54,0.143871059032607,1
916,675,54,0.110628883457005,1
916,676,54,0.130759415530268,1
916,677,54,0.103759135964641,1
916,691,54,0.103728584965152,1
916,692,54,0.136215239565791,1
916,693,54,0.156767752439596,1
916,694,54,0.190582756467108,1
916,695,54,0.15881410054779,1
917,676,54,0.127540685364994,1
917,677,54,0.113745988884656,1
917,692,54,0.104010057937812,1
917,693,54,0.105686827069341,1
917,694,54,0.1134472271025,1
918,675,54,0.127200709291814,1
918,676,54,0.147507107596895,1
918,677,54,0.131978789686964,1
918,678,54,0.124861622599611,1
918,679,54,0.121213683796018,1
919,675,54,0.147445659821726,1
919,676,54,0.161904603516959,1
919,677,54,0.141554682028231,1
919,678,54,0.153698564899425,1
919,679,54,0.171404581253434,1
919,680,54,0.122494528036024,1
920,675,54,0.136581126545073,1
920,676,54,0.153172494311647,1
920,677,54,0.138189253525869,1
920,678,54,0.16041535662107,1
920,679,54,0.217356073003303,1
920,680,54,0.181878097429647,1
921,675,54,0.136082182657098,1
921,676,54,0.150075577751859,1
921,677,54,0.132084519122583,1
921,678,54,0.174695333252846,1
921,679,54,0.301094165252107,1
921,680,54,0.296183897965774,1
921,681,54,0.145613904878621,1
922,674,54,0.128284416487287,1
922,675,54,0.174746820442931,1
922,676,54,0.170799305610025,1
922,677,54,0.128228222279391,1
922,678,54,0.162682343400641,1
922,679,54,0.288221676178412,1
922,680,54,0.299015224949497,1
922,681,54,0.155538272694898,1
923,674,54,0.143339500642073,1
923,675,54,0.169994684416095,1
923,676,54,0.151849219986917,1
923,677,54,0.115298468207017,1
923,678,54,0.125280747958069,1
923,679,54,0.16136270530294,1
923,680,54,0.166714729557065,1
923,681,54,0.131799052992633,1
923,682,54,0.105532912048547,1
924,673,54,0.114520661398911,1
924,674,54,0.130856634409987,1
924,675,54,0.121419376012734,1
924,676,54,0.106553977983292,1
924,677,54,0.107712038213668,1
924,678,54,0.111451027695914,1
924,681,54,0.144105428364944,1
924,682,54,0.170123123539542,1
924,683,54,0.109666398701274,1
925,673,54,0.120833597684808,1
925,674,54,0.120122715300556,1
925,678,54,0.108064573770391,1
925,681,54,0.170701372869784,1
925,682,54,0.227686036290349,1
925,683,54,0.153129684988522,1
926,673,54,0.11952756755329,1
926,674,54,0.119307330428456,1
926,680,54,0.1054966836271,1
926,681,54,0.174030405639641,1
926,682,54,0.259891742159648,1
926,683,54,0.220868132918331,1
926,684,54,0.111508995401043,1
927,672,54,0.11138914491199,1
927,673,54,0.1390147328319,1
927,674,54,0.12206262011261,1
927,681,54,0.140137813896741,1
927,682,54,0.226111661527317,1
927,683,54,0.243562316588039,1
927,684,54,0.140927533252292,1
928,672,54,0.150086609127724,1
928,673,54,0.189756150599942,1
928,674,54,0.130918126801438,1
928,682,54,0.129234843692654,1
928,683,54,0.145968849714603,1
929,674,54,0.137571273395998,1
934,672,54,0.224549377776862,1
934,673,54,0.102918353273689,1
935,673,54,0.110938542766179,1
936,673,54,0.134205766815141,1
936,678,54,0.104440605064608,1
937,673,54,0.184905524129333,1
937,674,54,0.133229986407203,1
937,678,54,0.122321115699747,1
938,674,54,0.183870035981247,1
938,676,54,0.143542058564939,1
939,677,54,0.131139055478652,1
940,677,54,0.135222025345439,1
940,680,54,0.126214299054554,1
912,676,55,0.153870672209437,1
913,676,55,0.194326062574693,1
913,677,55,0.229492058792482,1
913,678,55,0.187494194306231,1
913,679,55,0.118358620949968,1
913,694,55,0.186763134208187,1
914,676,55,0.185094529856369,1
914,677,55,0.172142958421819,1
914,678,55,0.13791806460634,1
914,679,55,0.113509790284733,1
914,686,55,0.103550655230264,1
914,692,55,0.123436678920975,1
914,693,55,0.107500902810478,1
915,676,55,0.164065994709758,1
915,677,55,0.138135780911209,1
915,678,55,0.109313918914903,1
915,689,55,0.114190645910815,1
915,690,55,0.107479397762279,1
915,692,55,0.115249858767158,1
915,693,55,0.131549391429444,1
915,694,55,0.173643482083127,1
915,695,55,0.166404311771087,1
916,675,55,0.108198500696594,1
916,676,55,0.138999027900435,1
916,677,55,0.133286905629691,1
916,678,55,0.106527263984104,1
916,689,55,0.116484491692493,1
916,690,55,0.127431107775003,1
916,691,55,0.136613328347018,1
916,692,55,0.174558974739242,1
916,693,55,0.181430729964322,1
916,694,55,0.20813567204748,1
917,676,55,0.121914438284126,1
917,677,55,0.129467383757407,1
917,678,55,0.117020712484555,1
917,679,55,0.1045649617982,1
917,690,55,0.109203906316158,1
917,691,55,0.121381619483609,1
917,692,55,0.145552758263359,1
917,693,55,0.127248783336282,1
917,694,55,0.115117660721904,1
918,675,55,0.106399728340379,1
918,676,55,0.130473726318904,1
918,677,55,0.141492408851835,1
918,678,55,0.150726417773842,1
918,679,55,0.14810658312357,1
918,680,55,0.113275967501857,1
919,675,55,0.124711366113987,1
919,676,55,0.154615686049854,1
919,677,55,0.163492653170598,1
919,678,55,0.17996365736087,1
919,679,55,0.184195812922499,1
919,680,55,0.13290001553539,1
920,675,55,0.132781101988271,1
920,676,55,0.172866065667494,1
920,677,55,0.171836533793131,1
920,678,55,0.187709690951042,1
920,679,55,0.226143428320507,1
920,680,55,0.184432502301531,1
920,681,55,0.109234546548212,1
921,675,55,0.160051577761139,1
921,676,55,0.206069001222575,1
921,677,55,0.175287580941744,1
921,678,55,0.200017293271124,1
921,679,55,0.310530486707426,1
921,680,55,0.292644443653249,1
921,681,55,0.142282273210305,1
922,674,55,0.123535481678725,1
922,675,55,0.212776434678951,1
922,676,55,0.248173097077625,1
922,677,55,0.175858468585363,1
922,678,55,0.183132104975688,1
922,679,55,0.293837059194474,1
922,680,55,0.296265768844289,1
922,681,55,0.151730540675282,1
923,674,55,0.131138285847778,1
923,675,55,0.194184584342665,1
923,676,55,0.196642316884292,1
923,677,55,0.139242130870086,1
923,678,55,0.132763802024705,1
923,679,55,0.158165636342853,1
923,680,55,0.161760782930096,1
923,681,55,0.122769275104088,1
924,673,55,0.10642996702589,1
924,674,55,0.125874836068624,1
924,675,55,0.140834363300216,1
924,676,55,0.120553340505847,1
924,677,55,0.104675755181891,1
924,678,55,0.104543044049388,1
924,681,55,0.127358416696627,1
924,682,55,0.139720027026759,1
925,673,55,0.111983534182453,1
925,674,55,0.121886173869118,1
925,675,55,0.112731001918411,1
925,681,55,0.169799454717641,1
925,682,55,0.222487770900029,1
925,683,55,0.143879580742577,1
926,672,55,0.103404023817599,1
926,673,55,0.114650996714368,1
926,674,55,0.129196641000704,1
926,675,55,0.107008997141078,1
926,680,55,0.113980402833277,1
926,681,55,0.188569245942885,1
926,682,55,0.288195374879837,1
926,683,55,0.219232723080744,1
927,672,55,0.118734624671323,1
927,673,55,0.143794040174821,1
927,674,55,0.143244334111352,1
927,681,55,0.144733246385122,1
927,682,55,0.241684484179111,1
927,683,55,0.225358560985684,1
927,684,55,0.112576540348155,1
928,671,55,0.113972795757099,1
928,672,55,0.15998405101747,1
928,673,55,0.21163354398465,1
928,674,55,0.164224181739608,1
928,682,55,0.125057421155667,1
928,683,55,0.129485074113445,1
929,674,55,0.177933237265554,1
933,673,55,0.116621552912546,1
934,673,55,0.118432159737713,1
935,673,55,0.12219405968106,1
936,673,55,0.129404820575173,1
937,673,55,0.153463983639745,1
937,674,55,0.113187069558837,1
937,678,55,0.10810952467508,1
938,674,55,0.170658295848964,1
938,675,55,0.156903452863031,1
938,676,55,0.122417386483461,1
913,676,56,0.198077377305,1
913,679,56,0.152848647024616,1
914,676,56,0.182096549903178,1
914,677,56,0.191532257884612,1
914,678,56,0.170311270403138,1
914,679,56,0.145621668111788,1
914,680,56,0.116498278123807,1
914,691,56,0.146929549819032,1
914,692,56,0.115860454902263,1
915,676,56,0.166602664609321,1
915,677,56,0.163125717708675,1
915,678,56,0.13565213746348,1
915,679,56,0.119337401802908,1
915,680,56,0.113685678824693,1
915,681,56,0.104688771982331,1
915,688,56,0.12203744537517,1
915,689,56,0.136114462537537,1
915,690,56,0.122090460672933,1
915,692,56,0.108525236887921,1
916,676,56,0.142537723736157,1
916,677,56,0.160961225684238,1
916,678,56,0.144570408107814,1
916,679,56,0.119202805632467,1
916,680,56,0.114784979410924,1
916,681,56,0.116413886425326,1
916,689,56,0.144222501490407,1
916,690,56,0.163844664486001,1
916,691,56,0.151773383460619,1
916,692,56,0.175435539688816,1
916,693,56,0.174465882865661,1
917,676,56,0.116922311273348,1
917,677,56,0.143212165771619,1
917,678,56,0.155141533556218,1
917,679,56,0.143667463781171,1
917,680,56,0.121857831375615,1
917,681,56,0.110194722411321,1
917,689,56,0.11720260191452,1
917,690,56,0.145900709497049,1
917,691,56,0.145947824291442,1
917,692,56,0.166503315302109,1
917,693,56,0.140317807134697,1
918,676,56,0.121003686108033,1
918,677,56,0.151773762699021,1
918,678,56,0.17824537277841,1
918,679,56,0.174898013870488,1
918,680,56,0.135225996194588,1
918,681,56,0.107103371732783,1
919,675,56,0.1126016370071,1
919,676,56,0.153558101687825,1
919,677,56,0.194716410430894,1
919,678,56,0.212429342308702,1
919,679,56,0.197355396620459,1
919,680,56,0.153215359405126,1
919,681,56,0.119573778867962,1
919,682,56,0.104632823163989,1
920,675,56,0.142086798122297,1
920,676,56,0.192228874212511,1
920,677,56,0.215711762217344,1
920,678,56,0.224812212297479,1
920,679,56,0.228570487167866,1
920,680,56,0.194683282841086,1
920,681,56,0.131450544055411,1
921,674,56,0.116243809156171,1
921,675,56,0.19465191759444,1
921,676,56,0.254219272610037,1
921,677,56,0.221932142025049,1
921,678,56,0.226787218969844,1
921,679,56,0.285403421765482,1
921,680,56,0.26310853151663,1
921,681,56,0.145469058117259,1
922,674,56,0.12924049880647,1
922,675,56,0.236576767534266,1
922,676,56,0.299157372425763,1
922,677,56,0.223095868523311,1
922,678,56,0.205204939986192,1
922,679,56,0.263611468561895,1
922,680,56,0.252614358001587,1
922,681,56,0.142722747459973,1
923,674,56,0.125342162271026,1
923,675,56,0.193632145531889,1
923,676,56,0.215721510875085,1
923,677,56,0.161072989472074,1
923,678,56,0.140655385082689,1
923,679,56,0.146038384190988,1
923,680,56,0.141192386659696,1
923,681,56,0.105532309728732,1
924,674,56,0.124532800597073,1
924,675,56,0.149187769499078,1
924,676,56,0.130271480710016,1
924,682,56,0.106260525538762,1
925,673,56,0.112241393987563,1
925,674,56,0.122442226598782,1
925,675,56,0.127377824779544,1
925,681,56,0.153496642758585,1
925,682,56,0.191210217557025,1
925,683,56,0.123178819115864,1
926,673,56,0.109844183433243,1
926,674,56,0.125123341713164,1
926,675,56,0.116802650403496,1
926,680,56,0.114242891577704,1
926,681,56,0.185018202550963,1
926,682,56,0.266330451746107,1
926,683,56,0.186980426658372,1
927,672,56,0.129107073813446,1
927,673,56,0.134538325431344,1
927,674,56,0.142271375683287,1
927,675,56,0.108493280475531,1
927,681,56,0.13959085173465,1
927,682,56,0.219467025488658,1
927,683,56,0.180769159726381,1
928,672,56,0.16072164740091,1
928,673,56,0.198936686907289,1
928,674,56,0.17486383779804,1
928,682,56,0.111171439761192,1
928,683,56,0.105993697860854,1
929,674,56,0.206875105907901,1
932,674,56,0.10524161233965,1
934,673,56,0.129714334881429,1
935,673,56,0.123671728651622,1
914,676,57,0.178708400558917,1
914,677,57,0.212222813536687,1
914,678,57,0.211574940497495,1
914,679,57,0.177812460988638,1
914,680,57,0.138375693816656,1
914,690,57,0.176688409519651,1
914,691,57,0.127620526202652,1
915,676,57,0.167938855347855,1
915,677,57,0.193127312294615,1
915,678,57,0.175692931022959,1
915,679,57,0.151158236464691,1
915,680,57,0.144391362965862,1
915,681,57,0.113812478299756,1
915,686,57,0.110384821237279,1
915,687,57,0.119671834302979,1
915,688,57,0.139223380877336,1
915,689,57,0.144384793218254,1
915,690,57,0.123058745545399,1
916,676,57,0.146094924175074,1
916,677,57,0.183175605851193,1
916,678,57,0.184105029941541,1
916,679,57,0.160475677835104,1
916,680,57,0.155478498030325,1
916,681,57,0.132061184806799,1
916,687,57,0.103462426531483,1
916,688,57,0.113447327489136,1
916,689,57,0.147389510230112,1
916,690,57,0.171974755036531,1
916,691,57,0.142260232766715,1
916,692,57,0.140833694055978,1
917,676,57,0.122756548309485,1
917,677,57,0.159901142810385,1
917,678,57,0.196758073829418,1
917,679,57,0.183778951840382,1
917,680,57,0.152832652087315,1
917,681,57,0.131798227591405,1
917,682,57,0.10651052172407,1
917,688,57,0.103925766625968,1
917,689,57,0.128783795384017,1
917,690,57,0.158462981558038,1
917,691,57,0.143882458492803,1
918,676,57,0.123419122413784,1
918,677,57,0.165801255787736,1
918,678,57,0.207537970018037,1
918,679,57,0.19634225007587,1
918,680,57,0.15396379754523,1
918,681,57,0.129113487404065,1
918,682,57,0.117859911297476,1
919,675,57,0.117202512681955,1
919,676,57,0.158797748680228,1
919,677,57,0.226304604641289,1
919,678,57,0.249224100537974,1
919,679,57,0.219200465508446,1
919,680,57,0.187776325369059,1
919,681,57,0.147651876279762,1
919,682,57,0.111831281118184,1
920,675,57,0.165209878116347,1
920,676,57,0.205998864426376,1
920,677,57,0.257529421538296,1
920,678,57,0.26511923121505,1
920,679,57,0.240563053916725,1
920,680,57,0.225711074234266,1
920,681,57,0.16378405326613,1
920,682,57,0.105053867022598,1
921,675,57,0.229356112979492,1
921,676,57,0.270235558802431,1
921,677,57,0.257968646532052,1
921,678,57,0.251819920474153,1
921,679,57,0.253849515168242,1
921,680,57,0.239808882584311,1
921,681,57,0.167175024590264,1
921,682,57,0.113641742940433,1
922,674,57,0.137672485433007,1
922,675,57,0.238497275417472,1
922,676,57,0.297207841650745,1
922,677,57,0.261002330665369,1
922,678,57,0.237245007906451,1
922,679,57,0.230392616148007,1
922,680,57,0.20658460929209,1
922,681,57,0.15018168642588,1
922,682,57,0.118142923531886,1
923,674,57,0.123655153702647,1
923,675,57,0.176225850210111,1
923,676,57,0.203351289602416,1
923,677,57,0.180441977372228,1
923,678,57,0.159767082035334,1
923,679,57,0.140891762147742,1
923,680,57,0.123625483874739,1
924,674,57,0.126700538456068,1
924,675,57,0.147582765658062,1
924,676,57,0.131778629889286,1
924,677,57,0.105680870795618,1
925,674,57,0.122087214838376,1
925,675,57,0.133446319607312,1
925,676,57,0.107775694494824,1
925,681,57,0.13291773935364,1
925,682,57,0.148920294885073,1
925,683,57,0.103674052713781,1
926,674,57,0.11300844827157,1
926,675,57,0.116547389496845,1
926,676,57,0.102990620497381,1
926,680,57,0.108353163040121,1
926,681,57,0.164971080617964,1
926,682,57,0.205286030079762,1
926,683,57,0.141387058654617,1
927,673,57,0.123474903921066,1
927,674,57,0.124787425721697,1
927,675,57,0.107763391554905,1
927,681,57,0.127382331024084,1
927,682,57,0.171350573243383,1
927,683,57,0.13087596441441,1
928,673,57,0.181497241687563,1
928,674,57,0.167742967559233,1
928,675,57,0.106131896796114,1
929,674,57,0.219249699576261,1
929,675,57,0.111422082882597,1
930,675,57,0.106897869135268,1
932,674,57,0.11277092233724,1
934,673,57,0.147389666387101,1
913,690,58,0.232559762841258,1
914,680,58,0.148185364324517,1
914,689,58,0.242292135639567,1
915,676,58,0.159084062519548,1
915,677,58,0.214145262228185,1
915,678,58,0.221657439573268,1
915,679,58,0.187826719460222,1
915,680,58,0.171406856683845,1
915,681,58,0.112464341551563,1
915,686,58,0.124677981980554,1
915,688,58,0.142777636641604,1
915,689,58,0.139473421678927,1
916,676,58,0.144366299769129,1
916,677,58,0.192041731215273,1
916,678,58,0.213347701560972,1
916,679,58,0.202746426659621,1
916,680,58,0.205612264337911,1
916,681,58,0.142008619241164,1
916,687,58,0.109545644732499,1
916,688,58,0.10850038561853,1
916,689,58,0.127955014473076,1
916,690,58,0.148952686306219,1
917,676,58,0.132795234195775,1
917,677,58,0.177437115357451,1
917,678,58,0.228229261838774,1
917,679,58,0.21568323010464,1
917,680,58,0.194857933279205,1
917,681,58,0.153780067693609,1
917,682,58,0.113981663243259,1
917,688,58,0.104863154722754,1
917,689,58,0.11747486162483,1
918,676,58,0.128883490467419,1
918,677,58,0.183911049498999,1
918,678,58,0.232633089701661,1
918,679,58,0.209389478820249,1
918,680,58,0.175416934698984,1
918,681,58,0.147624983815444,1
918,682,58,0.126533115855726,1
919,675,58,0.119303894974699,1
919,676,58,0.160664895489481,1
919,677,58,0.246194253404959,1
919,678,58,0.27696978433649,1
919,679,58,0.238336009864125,1
919,680,58,0.217922454402382,1
919,681,58,0.159965557568345,1
919,682,58,0.106912525584092,1
920,676,58,0.208227380816301,1
920,677,58,0.278365582428537,1
920,678,58,0.291184331189878,1
920,679,58,0.252946660074165,1
920,680,58,0.253262030267508,1
920,681,58,0.179999316924714,1
920,682,58,0.106311700414869,1
921,676,58,0.258092880570867,1
921,677,58,0.27379312732568,1
921,678,58,0.268199472439228,1
921,679,58,0.224048693853866,1
921,680,58,0.217577191299718,1
921,681,58,0.182493935977955,1
921,682,58,0.139775752763689,1
921,683,58,0.105564065367851,1
922,675,58,0.219775257076789,1
922,676,58,0.261976415654569,1
922,677,58,0.281171478131195,1
922,678,58,0.266239211448253,1
922,679,58,0.196387290213124,1
922,680,58,0.161204919819632,1
922,681,58,0.155268054179515,1
922,682,58,0.145911740872914,1
922,683,58,0.11558884212805,1
923,675,58,0.154131487843268,1
923,676,58,0.180884080116209,1
923,677,58,0.196292190606827,1
923,678,58,0.184629762040842,1
923,679,58,0.133241932416861,1
924,674,58,0.121889018157132,1
924,675,58,0.135343850104996,1
924,676,58,0.124702309008625,1
924,677,58,0.10801610933345,1
925,674,58,0.115038210276718,1
925,675,58,0.12990135518389,1
925,676,58,0.112594130317558,1
926,675,58,0.109173444549233,1
926,676,58,0.110297652175209,1
926,681,58,0.125535875015872,1
926,682,58,0.130487613136854,1
927,674,58,0.103790345054298,1
927,676,58,0.106770255413048,1
927,682,58,0.111652224822162,1
928,673,58,0.171064337482558,1
928,674,58,0.151638408051776,1
928,675,58,0.103283169462189,1
929,672,58,0.231141478142795,1
929,674,58,0.21328220485816,1
929,675,58,0.123551643927086,1
930,671,58,0.22973546292204,1
930,675,58,0.123592077433165,1
931,674,58,0.161801037971044,1
932,674,58,0.1127662264735,1
914,676,59,0.16256964267087,1
914,677,59,0.224063283378266,1
915,676,59,0.151246810939663,1
915,677,59,0.217508593765267,1
915,678,59,0.252740666697541,1
915,679,59,0.219227502975683,1
915,680,59,0.181665835465322,1
916,676,59,0.152235920462018,1
916,677,59,0.202213306699197,1
916,678,59,0.236178991067017,1
916,679,59,0.240585830528977,1
916,680,59,0.241535532719752,1
917,676,59,0.158067737064825,1
917,677,59,0.208962077141374,1
917,678,59,0.246491509387578,1
917,679,59,0.237025763493905,1
917,680,59,0.239911812348199,1
917,681,59,0.174242254903352,1
918,676,59,0.14773431601588,1
918,677,59,0.211375594946974,1
918,678,59,0.246035620212282,1
918,679,59,0.215853865077328,1
918,680,59,0.198861731552573,1
918,681,59,0.15953989592449,1
918,682,59,0.120300366183678,1
919,676,59,0.169785311356066,1
919,677,59,0.253401567691244,1
919,678,59,0.285789352609709,1
919,679,59,0.253456066480403,1
919,680,59,0.230755636531134,1
919,681,59,0.157807601829303,1
920,677,59,0.275264906946943,1
920,678,59,0.296559968611553,1
920,679,59,0.269314946427891,1
920,680,59,0.262045481659986,1
920,681,59,0.180744386535484,1
920,682,59,0.109486829318002,1
921,676,59,0.233769622575696,1
921,677,59,0.266257794129943,1
921,678,59,0.267300052798909,1
921,679,59,0.215619473436848,1
921,680,59,0.210043218900599,1
921,681,59,0.196815004205977,1
921,682,59,0.162817854204875,1
921,683,59,0.117792116856112,1
922,676,59,0.21997478109244,1
922,677,59,0.271155256543179,1
922,678,59,0.267707109452932,1
922,679,59,0.175872924260916,1
922,680,59,0.142498137939447,1
922,681,59,0.164296694352855,1
922,682,59,0.165967696829861,1
922,683,59,0.134381967669079,1
923,675,59,0.141140174455019,1
923,676,59,0.160566661589334,1
923,677,59,0.198606370259286,1
923,678,59,0.199288620144198,1
923,679,59,0.130214171095056,1
924,675,59,0.125613150417283,1
924,676,59,0.117952501237879,1
924,677,59,0.112323075246878,1
924,678,59,0.109961256558705,1
925,674,59,0.107934773850325,1
925,675,59,0.123601558393211,1
925,676,59,0.112168357132997,1
926,675,59,0.105042032553646,1
926,676,59,0.110716242138276,1
927,676,59,0.104027592136862,1
928,673,59,0.16643735012833,1
928,674,59,0.140267290348757,1
929,672,59,0.212855182417687,1
929,673,59,0.217651968189304,1
929,674,59,0.188319684766332,1
929,675,59,0.124482484584405,1
930,672,59,0.204142046286538,1
930,674,59,0.176069615142624,1
930,675,59,0.133298483555018,1
931,673,59,0.161424063845543,1
931,674,59,0.135516091263855,1
931,675,59,0.112799142135965,1
932,673,59,0.167805843055444,1
919,676,60,0.175116254416677,1
919,680,60,0.21311065525168,1
919,681,60,0.138150995063565,1
920,676,60,0.203178267658612,1
920,677,60,0.25270852066595,1
920,678,60,0.274224432929279,1
920,679,60,0.266182771850802,1
920,680,60,0.231420597606551,1
920,681,60,0.157529240842352,1
921,676,60,0.211024620960141,1
921,677,60,0.246649406411592,1
921,678,60,0.2431761626624,1
921,679,60,0.203666749028324,1
921,680,60,0.185042440346469,1
921,681,60,0.181858968198495,1
921,682,60,0.160023402578696,1
922,675,60,0.168764245421321,1
922,676,60,0.183871943327327,1
922,677,60,0.238525517524339,1
922,678,60,0.231643924408952,1
922,679,60,0.151038798676253,1
923,675,60,0.130159516148908,1
923,676,60,0.138800161974952,1
923,677,60,0.181527647684134,1
923,678,60,0.185514882162598,1
928,672,60,0.168999585157805,1
928,673,60,0.149783218406251,1
929,674,60,0.153176141692747,1
930,674,60,0.14078632271796,1
