x,y,z,signal,mito.p
479,295,14,0.154416864740653,1
481,293,14,0.128944559004186,1
482,292,14,0.137420671134184,1
483,292,14,0.152429097811473,1
484,291,14,0.157616342979998,1
489,289,14,0.125564474052999,1
491,315,14,0.228903570025389,1
492,316,14,0.186750017021112,1
493,315,14,0.202763916242388,1
493,316,14,0.219236091610078,1
494,316,14,0.202657640257307,1
495,288,14,0.135386324806002,1
495,316,14,0.180323688453065,1
496,288,14,0.13717577235916,1
500,289,14,0.114872204243348,1
475,303,15,0.10811386360856,1
475,310,15,0.106689143011337,1
475,311,15,0.132199629131613,1
475,312,15,0.149301050240522,1
476,312,15,0.118168499815869,1
476,313,15,0.131777860258412,1
477,313,15,0.106338737882106,1
478,295,15,0.165774196012357,1
478,296,15,0.131509950635653,1
478,297,15,0.107448065977845,1
479,294,15,0.142428592308992,1
479,295,15,0.130874291303814,1
479,296,15,0.109198429667472,1
480,293,15,0.121433073211483,1
480,294,15,0.115342671788973,1
480,295,15,0.106055424487789,1
481,292,15,0.123879908226091,1
481,293,15,0.119474831107293,1
481,294,15,0.113877071522846,1
482,291,15,0.124961551918496,1
482,292,15,0.134801505728151,1
482,293,15,0.127897136000513,1
482,294,15,0.103887887402066,1
483,291,15,0.130599823087516,1
483,292,15,0.147937621261479,1
483,293,15,0.121500332257456,1
484,290,15,0.130583248138542,1
484,291,15,0.142652577201561,1
484,292,15,0.141618494466376,1
485,290,15,0.139648239428105,1
485,291,15,0.149434742931242,1
485,292,15,0.131235761271121,1
486,289,15,0.125157417398976,1
486,290,15,0.119937524265681,1
486,291,15,0.115660518185998,1
487,289,15,0.135341753139715,1
487,290,15,0.105862815995937,1
488,289,15,0.135182294545811,1
488,290,15,0.104075733105755,1
489,289,15,0.130314702733756,1
490,289,15,0.127808449984835,1
490,314,15,0.115404588035109,1
490,315,15,0.1131225321061,1
491,288,15,0.17037242817247,1
491,289,15,0.125593028473844,1
491,312,15,0.110359401110285,1
491,313,15,0.138775377629985,1
491,314,15,0.198156638130985,1
491,315,15,0.197910980879157,1
491,316,15,0.12852043662208,1
492,288,15,0.182704859453802,1
492,289,15,0.11672197301054,1
492,312,15,0.1130001161808,1
492,313,15,0.148976132162709,1
492,315,15,0.247175767005206,1
492,316,15,0.182623813976515,1
492,317,15,0.121772569659625,1
493,288,15,0.162185061469191,1
493,313,15,0.109955422979759,1
493,314,15,0.150317844166211,1
493,315,15,0.199059158602943,1
493,316,15,0.206488171197316,1
493,317,15,0.152500539633938,1
494,288,15,0.160750726063074,1
494,289,15,0.103686143726357,1
494,315,15,0.136935212517616,1
494,316,15,0.174861651600194,1
494,317,15,0.139608597861042,1
495,288,15,0.168630273878835,1
495,289,15,0.11077637373311,1
495,315,15,0.11389451648933,1
495,316,15,0.145414682022877,1
495,317,15,0.119013576824018,1
496,289,15,0.106345541865198,1
496,315,15,0.104560979794981,1
496,316,15,0.122465493990142,1
497,289,15,0.104351606734953,1
474,310,16,0.154770448780017,1
474,311,16,0.217276076008656,1
474,312,16,0.220062675169102,1
475,310,16,0.114628699727154,1
475,311,16,0.15413551446277,1
475,312,16,0.178640762274542,1
475,313,16,0.20460777335214,1
476,311,16,0.113620104043386,1
476,312,16,0.149365587693259,1
476,313,16,0.181836704673493,1
476,314,16,0.146052271008937,1
477,295,16,0.116210770798929,1
477,312,16,0.115206949057396,1
477,313,16,0.127051690908031,1
477,314,16,0.112288932636641,1
477,315,16,0.111307965585855,1
477,316,16,0.112691806514174,1
478,294,16,0.134825698907374,1
478,295,16,0.120528255000972,1
478,316,16,0.109275392754905,1
479,293,16,0.122049592158099,1
479,294,16,0.112635712692913,1
479,295,16,0.104754424842132,1
480,292,16,0.113932105707395,1
480,293,16,0.107564101774738,1
481,291,16,0.118793819324222,1
481,292,16,0.112613203778357,1
481,293,16,0.109209059496794,1
482,290,16,0.1066572423693,1
482,291,16,0.111154820195935,1
482,292,16,0.122858005736048,1
482,293,16,0.111019499010902,1
483,291,16,0.113198469019033,1
483,292,16,0.127073608656844,1
483,293,16,0.105651067118862,1
484,289,16,0.109529147862019,1
484,290,16,0.111267387076858,1
484,291,16,0.131761140306519,1
484,292,16,0.137656813963754,1
485,289,16,0.114572717446599,1
485,290,16,0.126112585084366,1
485,291,16,0.151352640761918,1
485,292,16,0.14641399751987,1
486,288,16,0.128794190977856,1
486,289,16,0.127500575326964,1
486,290,16,0.122379139175229,1
486,291,16,0.121641654332495,1
486,292,16,0.107870660252273,1
487,288,16,0.153947925302706,1
487,289,16,0.145593950246242,1
487,290,16,0.125318671798253,1
488,288,16,0.15294856518943,1
488,289,16,0.138435602330076,1
488,290,16,0.12340985338108,1
489,289,16,0.132373677249917,1
489,290,16,0.116284019580837,1
490,289,16,0.139683542061688,1
490,290,16,0.11040949404154,1
491,289,16,0.138191685113269,1
491,314,16,0.131180191691181,1
491,315,16,0.143163277479994,1
491,316,16,0.111943602609553,1
492,288,16,0.169305050536417,1
492,289,16,0.121030868578189,1
492,313,16,0.106223973649267,1
492,314,16,0.154414678542807,1
492,315,16,0.192615117370716,1
492,316,16,0.162413630684795,1
492,317,16,0.109910204377375,1
493,288,16,0.157849953835532,1
493,289,16,0.110539070880193,1
493,314,16,0.129781672005897,1
493,315,16,0.181631447465532,1
493,316,16,0.180506012891786,1
493,317,16,0.123762009699401,1
494,288,16,0.174440273119466,1
494,289,16,0.120001738250369,1
494,315,16,0.126199609143518,1
494,316,16,0.142383485247314,1
494,317,16,0.111333095707012,1
495,288,16,0.19594324666085,1
495,289,16,0.133961369973295,1
495,316,16,0.110892688381768,1
496,289,16,0.133641738924967,1
501,290,16,0.103810232762254,1
502,290,16,0.124334135444861,1
503,291,16,0.107410588300486,1
473,310,17,0.177024637825095,1
473,311,17,0.273318120073303,1
473,312,17,0.250018471140984,1
474,310,17,0.177167543778166,1
474,311,17,0.27437081895239,1
474,312,17,0.250808469348302,1
474,313,17,0.220517471245475,1
475,310,17,0.122443698936107,1
475,311,17,0.183504818246204,1
475,312,17,0.220945966023273,1
475,313,17,0.267426941506537,1
475,314,17,0.222120668127047,1
476,311,17,0.139547908562677,1
476,312,17,0.209660678893848,1
476,313,17,0.259718876372832,1
476,314,17,0.200240419300254,1
476,315,17,0.126799976995845,1
477,311,17,0.10715366543731,1
477,312,17,0.146491228304998,1
477,313,17,0.158663163663857,1
477,314,17,0.135691310559577,1
477,315,17,0.132247312783609,1
477,316,17,0.137670778860199,1
477,317,17,0.133114430235348,1
478,315,17,0.134300007557998,1
478,316,17,0.147567852665613,1
478,317,17,0.139823057177283,1
479,315,17,0.109159858891191,1
479,316,17,0.131390423614649,1
479,317,17,0.130742918659788,1
480,293,17,0.106270062269161,1
480,316,17,0.110711022033216,1
480,317,17,0.112301447503902,1
481,291,17,0.105615318322453,1
481,292,17,0.111752410684672,1
481,293,17,0.11173362722971,1
481,316,17,0.113357369909405,1
482,291,17,0.10396314391669,1
482,292,17,0.115747553399221,1
482,293,17,0.103219022401925,1
483,291,17,0.106987302473678,1
483,292,17,0.11500455844559,1
484,290,17,0.106728594959199,1
484,291,17,0.133924974240789,1
484,292,17,0.141896264287584,1
484,293,17,0.111073261631398,1
485,289,17,0.11673638406981,1
485,290,17,0.125997999316657,1
485,291,17,0.157407159539171,1
485,292,17,0.159742732699122,1
485,293,17,0.114128796589103,1
486,288,17,0.135443020947077,1
486,289,17,0.146229854967635,1
486,290,17,0.13832940442349,1
486,291,17,0.133097699129385,1
486,292,17,0.122878060755063,1
487,288,17,0.14607107677204,1
487,289,17,0.167633679975079,1
487,290,17,0.154740511254413,1
487,291,17,0.127144604316483,1
488,288,17,0.141774238754756,1
488,289,17,0.147998087478431,1
488,290,17,0.145639536932957,1
488,291,17,0.128992086499193,1
489,289,17,0.143310734293886,1
489,290,17,0.131227563029199,1
489,291,17,0.107922448602266,1
490,289,17,0.155689733820151,1
490,290,17,0.128184509476543,1
491,289,17,0.14606081502705,1
491,290,17,0.113779796872773,1
492,288,17,0.1580759910771,1
492,289,17,0.126154870166172,1
492,314,17,0.107360874607633,1
492,315,17,0.14313976469908,1
492,316,17,0.137196150846224,1
493,287,17,0.160141769576353,1
493,288,17,0.163324327090534,1
493,289,17,0.127627341339814,1
493,314,17,0.117557256744666,1
493,315,17,0.162934369626805,1
493,316,17,0.150141364460507,1
494,288,17,0.196148236171116,1
494,289,17,0.143132525707233,1
494,315,17,0.116560752073475,1
494,316,17,0.113550179174529,1
495,289,17,0.161591363751109,1
501,290,17,0.105621441907235,1
472,311,18,0.191757525495305,1
472,312,18,0.198304964962387,1
473,310,18,0.184111945465339,1
473,311,18,0.304415780564987,1
473,312,18,0.271178457010115,1
473,313,18,0.207908017465668,1
474,310,18,0.181125978446231,1
474,311,18,0.300885227200834,1
474,312,18,0.268970486418313,1
474,313,18,0.224519239477986,1
474,314,18,0.209459571000166,1
475,310,18,0.12318465269481,1
475,311,18,0.205708278578001,1
475,312,18,0.265903563154482,1
475,313,18,0.305803949272714,1
475,314,18,0.261099393388099,1
475,315,18,0.150013706122005,1
476,311,18,0.165039990466393,1
476,312,18,0.276437289004023,1
476,313,18,0.316559128040789,1
476,314,18,0.23885092638126,1
476,315,18,0.139896908279006,1
476,316,18,0.134101197402868,1
477,311,18,0.114967973093883,1
477,312,18,0.171839601162558,1
477,313,18,0.180657485171109,1
477,314,18,0.152242244820072,1
477,315,18,0.143656577408224,1
477,316,18,0.156629810047962,1
477,317,18,0.159444350155367,1
478,314,18,0.11416972087429,1
478,315,18,0.162818757684597,1
478,316,18,0.186014160672692,1
478,317,18,0.180985927935245,1
479,315,18,0.141776079176412,1
479,316,18,0.176375203216013,1
480,315,18,0.107438718866646,1
480,316,18,0.157211015206925,1
481,315,18,0.124262124764794,1
481,316,18,0.183377193369913,1
481,317,18,0.157769209518152,1
482,315,18,0.114110726994662,1
482,316,18,0.146583740166906,1
482,317,18,0.108107405401658,1
483,292,18,0.106098222656844,1
484,291,18,0.130124949683987,1
484,292,18,0.14582555336906,1
484,293,18,0.123942973341503,1
485,289,18,0.118049552806538,1
485,290,18,0.126601177994785,1
485,291,18,0.156418931188397,1
485,292,18,0.165145652977588,1
485,293,18,0.134035176458736,1
486,289,18,0.162053376511187,1
486,290,18,0.157486052280825,1
486,291,18,0.148925247292439,1
486,292,18,0.137452627546575,1
486,293,18,0.111413483094132,1
487,288,18,0.133427023065101,1
487,289,18,0.182155822634572,1
487,290,18,0.180154503509561,1
487,291,18,0.15305933626498,1
487,292,18,0.124503030382528,1
488,288,18,0.13156633446275,1
488,289,18,0.150477425454892,1
488,290,18,0.157644417775805,1
488,291,18,0.147217659463725,1
488,292,18,0.116531115707778,1
489,289,18,0.145488722743801,1
489,290,18,0.135996976711461,1
489,291,18,0.120429117621103,1
490,289,18,0.159113810425951,1
490,290,18,0.134326197315867,1
490,291,18,0.106699638991811,1
491,289,18,0.142819654025714,1
491,290,18,0.121877562926582,1
492,288,18,0.14672862039048,1
492,289,18,0.127533022518462,1
492,315,18,0.119077801962777,1
492,316,18,0.121559136517883,1
493,287,18,0.148036446327371,1
493,288,18,0.166298671568033,1
493,289,18,0.140900272703642,1
493,314,18,0.112873093624324,1
493,315,18,0.155249873044368,1
493,316,18,0.131340018369416,1
494,289,18,0.16017365906432,1
494,315,18,0.114898237844227,1
495,290,18,0.103557146899378,1
496,290,18,0.115588652508849,1
501,290,18,0.10572917907557,1
472,310,19,0.134303543398392,1
472,311,19,0.190200417233628,1
472,312,19,0.204109721789816,1
473,310,19,0.164914975642633,1
473,311,19,0.275186047667501,1
473,312,19,0.259289065414698,1
473,313,19,0.194228553689137,1
474,310,19,0.159268071222935,1
474,311,19,0.269088541101992,1
474,312,19,0.262893904889329,1
474,313,19,0.212807933774446,1
474,314,19,0.203593511400486,1
474,315,19,0.153607224214934,1
475,310,19,0.115092084437921,1
475,311,19,0.208758359195162,1
475,312,19,0.295975026838925,1
475,313,19,0.300965469585036,1
475,314,19,0.255461122219078,1
475,315,19,0.1497121892844,1
475,316,19,0.129875466585929,1
476,311,19,0.174441154291047,1
476,312,19,0.310792785832653,1
476,313,19,0.322298655863102,1
476,314,19,0.243271507658251,1
476,315,19,0.138964372202949,1
476,316,19,0.138259680327905,1
476,317,19,0.159345759324959,1
477,311,19,0.107723839220407,1
477,312,19,0.175922158328731,1
477,313,19,0.185581025801507,1
477,314,19,0.159510103401804,1
477,315,19,0.140296882098172,1
477,316,19,0.162864500528301,1
477,317,19,0.176894090582297,1
477,318,19,0.185773188130534,1
478,314,19,0.119559836279659,1
478,315,19,0.169269993292388,1
478,316,19,0.207067268236928,1
478,317,19,0.216424574255816,1
479,315,19,0.155746195725742,1
479,316,19,0.205125054532251,1
480,315,19,0.118304244855586,1
480,316,19,0.193157718291186,1
481,298,19,0.123994717075214,1
481,299,19,0.106422917653244,1
481,315,19,0.139255303827515,1
481,316,19,0.237804317624743,1
481,317,19,0.213331015071291,1
482,297,19,0.106966031660963,1
482,298,19,0.113555968137193,1
482,315,19,0.128212617734562,1
482,316,19,0.184214072136141,1
482,317,19,0.135113384697382,1
483,292,19,0.106922620018023,1
484,291,19,0.122657645165099,1
484,292,19,0.148357672407801,1
484,293,19,0.139501239931109,1
484,294,19,0.113576469319033,1
485,290,19,0.130763509074193,1
485,291,19,0.149702574475507,1
485,292,19,0.16033600656252,1
485,293,19,0.148485330746303,1
485,294,19,0.128239822512859,1
485,295,19,0.110297752561845,1
486,289,19,0.168920513951021,1
486,290,19,0.175811666104948,1
486,291,19,0.167300552501274,1
486,292,19,0.150179332916974,1
486,293,19,0.130895127107774,1
486,294,19,0.119165551036521,1
486,295,19,0.109294823145964,1
487,288,19,0.12784795770305,1
487,289,19,0.184105989191616,1
487,290,19,0.193142080284145,1
487,291,19,0.173561477355764,1
487,292,19,0.144791158319897,1
487,293,19,0.112490754390845,1
488,288,19,0.132311080605472,1
488,289,19,0.15333384909756,1
488,290,19,0.162397635747494,1
488,291,19,0.151895475917871,1
488,292,19,0.127943202312266,1
489,289,19,0.147858371589565,1
489,290,19,0.138680255715547,1
489,291,19,0.125021783899965,1
489,292,19,0.103873387110231,1
490,290,19,0.136800114413995,1
490,291,19,0.119710762009521,1
491,289,19,0.141268490883689,1
491,290,19,0.131132184571136,1
491,291,19,0.11518879023039,1
492,288,19,0.140118071191704,1
492,289,19,0.133264564026195,1
492,290,19,0.114119906794801,1
492,315,19,0.105836559313645,1
492,316,19,0.108604586946471,1
493,287,19,0.135943359093883,1
493,288,19,0.16597756818238,1
493,289,19,0.155268455726058,1
493,290,19,0.106968017085538,1
493,314,19,0.108502582970447,1
493,315,19,0.150288218954585,1
493,316,19,0.120635189076221,1
494,289,19,0.180548576825357,1
494,290,19,0.115448345454239,1
494,315,19,0.124226309043961,1
495,290,19,0.130349938442915,1
496,290,19,0.143359611431441,1
497,290,19,0.119968833741974,1
503,292,19,0.102925625727747,1
472,312,20,0.200096487172685,1
473,310,20,0.133511147065886,1
473,311,20,0.211219437957981,1
473,312,20,0.221525933080395,1
473,313,20,0.173211663392278,1
474,310,20,0.125539790094668,1
474,311,20,0.205737346086095,1
474,312,20,0.235251440860537,1
474,313,20,0.197390777332537,1
474,314,20,0.183295088255915,1
475,311,20,0.193436257743267,1
475,312,20,0.293476046544063,1
475,313,20,0.269979215950928,1
475,314,20,0.22085735808609,1
475,315,20,0.145128970503373,1
476,311,20,0.165501389752586,1
476,312,20,0.294334664593973,1
476,313,20,0.287121037103704,1
476,314,20,0.218871175034941,1
476,315,20,0.134227729180236,1
476,316,20,0.131683574899272,1
477,303,20,0.104095408886368,1
477,312,20,0.164622248212694,1
477,313,20,0.180665069939146,1
477,314,20,0.158106586692872,1
477,315,20,0.132166445771452,1
477,316,20,0.157119217205538,1
477,317,20,0.185133691798394,1
478,313,20,0.103478823015327,1
478,314,20,0.116462930873941,1
478,315,20,0.155560971228655,1
478,316,20,0.206447570380178,1
479,315,20,0.149540070820318,1
480,298,20,0.105321854723852,1
480,299,20,0.120005218320409,1
480,315,20,0.120424700609128,1
481,297,20,0.106212819578624,1
481,298,20,0.148703270132584,1
481,299,20,0.149418034133419,1
481,315,20,0.136192864500082,1
481,316,20,0.25390434857952,1
482,297,20,0.127119663814526,1
482,298,20,0.146386603122372,1
482,299,20,0.11654573869439,1
482,315,20,0.123746103994665,1
482,316,20,0.196161732596594,1
482,317,20,0.149915483375928,1
483,296,20,0.103474049073092,1
483,297,20,0.115089206687695,1
483,298,20,0.106148951370126,1
484,291,20,0.107057863124562,1
484,292,20,0.136367693403331,1
484,293,20,0.140794554422094,1
484,294,20,0.124945891603314,1
484,295,20,0.11814977213126,1
484,296,20,0.113549855706481,1
484,297,20,0.104070936855378,1
485,290,20,0.131080864692111,1
485,291,20,0.142700461626829,1
485,292,20,0.148626942827179,1
485,293,20,0.151078395627033,1
485,294,20,0.151776328135269,1
485,295,20,0.152485637795559,1
485,296,20,0.131387958565037,1
486,289,20,0.159067554494997,1
486,290,20,0.189178347432525,1
486,291,20,0.192176383156068,1
486,292,20,0.167588483680836,1
486,293,20,0.14904786399101,1
486,294,20,0.149794327860611,1
486,295,20,0.157063658779668,1
486,296,20,0.13013333754511,1
487,289,20,0.167581880471016,1
487,290,20,0.195104259775271,1
487,291,20,0.195712580479966,1
487,292,20,0.171567441838883,1
487,293,20,0.144174293597091,1
487,294,20,0.123294274901083,1
487,295,20,0.107998775907671,1
488,288,20,0.124552855616088,1
488,289,20,0.148287189835411,1
488,290,20,0.161704555259988,1
488,291,20,0.156645001892177,1
488,292,20,0.143326305376503,1
488,293,20,0.124539682658659,1
489,289,20,0.142345461020494,1
489,290,20,0.137135405777505,1
489,291,20,0.131520223534714,1
489,292,20,0.122634255078961,1
490,289,20,0.150100217093908,1
490,290,20,0.138449500302097,1
490,291,20,0.137397147199199,1
490,292,20,0.128482323162695,1
491,288,20,0.15444510684752,1
491,289,20,0.144387548273702,1
491,290,20,0.141227934682833,1
491,291,20,0.1301882044186,1
491,292,20,0.105740433532848,1
492,287,20,0.135499705934082,1
492,288,20,0.131005228939085,1
492,289,20,0.138328802103676,1
492,290,20,0.124223029747193,1
493,287,20,0.118901177254155,1
493,288,20,0.154205562026404,1
493,289,20,0.161904213124486,1
493,290,20,0.117088607312555,1
493,315,20,0.129196618692563,1
493,316,20,0.104505198287698,1
494,290,20,0.138164993422221,1
494,315,20,0.12722183510161,1
495,291,20,0.103887028538627,1
496,291,20,0.108903371036769,1
497,290,20,0.139187710159422,1
503,292,20,0.111116338652219,1
473,312,21,0.181291404467928,1
474,311,21,0.150741219225584,1
474,312,21,0.201765693844318,1
474,313,21,0.184669860924801,1
475,311,21,0.167712059629483,1
475,312,21,0.254281177702103,1
475,313,21,0.226121811731602,1
475,314,21,0.176407840026713,1
476,311,21,0.144801364294535,1
476,312,21,0.237314185452576,1
476,313,21,0.23112488088568,1
476,314,21,0.179317468586345,1
476,315,21,0.123495360486624,1
477,312,21,0.142063140338464,1
477,313,21,0.167057349144987,1
477,314,21,0.145800980951435,1
477,315,21,0.116992771537596,1
477,316,21,0.136775910080701,1
478,314,21,0.107167864569237,1
478,315,21,0.126066407231907,1
479,315,21,0.12438827730376,1
480,298,21,0.108500764856932,1
480,299,21,0.135074501607123,1
480,300,21,0.112097082621592,1
480,315,21,0.111111932794315,1
481,298,21,0.15864949992732,1
481,299,21,0.186956010397735,1
481,300,21,0.130011300858212,1
481,315,21,0.118580586955752,1
481,316,21,0.227231017132563,1
482,297,21,0.133697643127027,1
482,298,21,0.161346353435378,1
482,299,21,0.148484338034016,1
482,315,21,0.105867545321889,1
482,316,21,0.179455388669838,1
482,317,21,0.142736801588982,1
483,296,21,0.120918636319385,1
483,297,21,0.149112992609491,1
483,298,21,0.147343343531723,1
484,292,21,0.122934344195524,1
484,293,21,0.134333101685594,1
484,294,21,0.132119676753248,1
484,295,21,0.1388694064455,1
484,296,21,0.143738046740196,1
484,297,21,0.147152318917902,1
484,298,21,0.135344028570126,1
485,290,21,0.131977250425215,1
485,291,21,0.144885175981342,1
485,292,21,0.146017894163218,1
485,293,21,0.151011460049108,1
485,294,21,0.17124112950224,1
485,295,21,0.206536959102306,1
485,296,21,0.187885367563659,1
485,297,21,0.133553844848305,1
486,289,21,0.144272895581569,1
486,290,21,0.205345146654167,1
486,291,21,0.225727537642535,1
486,292,21,0.193129966963427,1
486,293,21,0.168062676686056,1
486,294,21,0.177462011243125,1
486,295,21,0.212815250844787,1
486,296,21,0.186643651803466,1
486,297,21,0.108189521669727,1
487,289,21,0.15163396873166,1
487,290,21,0.20517018390207,1
487,291,21,0.226849994079419,1
487,292,21,0.203209186742432,1
487,293,21,0.181106246895264,1
487,294,21,0.157046013039912,1
487,295,21,0.131449495572771,1
488,288,21,0.11632903740995,1
488,289,21,0.144656350222113,1
488,290,21,0.167471789793775,1
488,291,21,0.170245204842723,1
488,292,21,0.165053988825049,1
488,293,21,0.165954546180574,1
488,294,21,0.139437505571458,1
489,288,21,0.144908354140137,1
489,289,21,0.135120991773561,1
489,290,21,0.137551764926444,1
489,291,21,0.14440104469918,1
489,292,21,0.149793837081503,1
489,293,21,0.125875404926227,1
490,288,21,0.161488489757574,1
490,289,21,0.143422074227039,1
490,290,21,0.142016973640076,1
490,291,21,0.160322476674831,1
490,292,21,0.172974572466703,1
490,293,21,0.117923634503056,1
491,287,21,0.146416484877623,1
491,288,21,0.141670405511146,1
491,289,21,0.152025443148996,1
491,290,21,0.154488953499215,1
491,291,21,0.14512476541874,1
491,292,21,0.132123647602397,1
492,287,21,0.112222989771003,1
492,288,21,0.12012452226,1
492,289,21,0.14325470739705,1
492,290,21,0.137284535701994,1
492,291,21,0.110428712505257,1
493,288,21,0.137657706289406,1
493,289,21,0.161247372212497,1
493,290,21,0.128785825424874,1
493,315,21,0.10435259944724,1
494,290,21,0.164846288875617,1
494,291,21,0.104363920828942,1
494,315,21,0.122467590955423,1
495,291,21,0.134404119653374,1
496,291,21,0.142167107430922,1
497,290,21,0.159416598827609,1
497,291,21,0.108210212470769,1
498,290,21,0.110551217663122,1
475,311,22,0.133691173766054,1
475,312,22,0.189681485251062,1
475,313,22,0.174391663679607,1
476,311,22,0.117473612368918,1
476,312,22,0.165914737302451,1
476,313,22,0.166648898232133,1
476,314,22,0.135618864870754,1
477,312,22,0.113005403210284,1
477,313,22,0.139048094657191,1
477,314,22,0.121403938778965,1
478,316,22,0.144217749856313,1
480,299,22,0.129759241169835,1
480,300,22,0.110235713620932,1
480,315,22,0.104188288832607,1
480,316,22,0.1837087704279,1
481,298,22,0.145393210436891,1
481,299,22,0.196862409006207,1
481,300,22,0.154309439886296,1
481,315,22,0.106299430937162,1
481,316,22,0.187740409261591,1
482,297,22,0.125977141204556,1
482,298,22,0.161313694316537,1
482,299,22,0.167487829347359,1
482,300,22,0.124062823830556,1
482,316,22,0.150079002051546,1
483,296,22,0.126072385813771,1
483,297,22,0.176895830617317,1
483,298,22,0.200093743271307,1
483,299,22,0.131563334017747,1
484,292,22,0.10525740650368,1
484,293,22,0.119657490168133,1
484,294,22,0.130117465302586,1
484,295,22,0.155618158148838,1
484,296,22,0.171563649454865,1
484,297,22,0.192199003611331,1
484,298,22,0.204544529771598,1
484,299,22,0.116133149621328,1
485,290,22,0.124790794251031,1
485,291,22,0.14336548962667,1
485,292,22,0.144891768037091,1
485,293,22,0.146937134587069,1
485,294,22,0.180453031056234,1
485,295,22,0.260352003730635,1
485,296,22,0.25368314105054,1
485,297,22,0.166297868474947,1
485,298,22,0.119806330086785,1
486,289,22,0.129198514884572,1
486,290,22,0.217702875367716,1
486,291,22,0.247175231609815,1
486,292,22,0.206451697386316,1
486,293,22,0.176784669149295,1
486,294,22,0.191587292069161,1
486,295,22,0.257879235501783,1
486,296,22,0.241981249382622,1
486,297,22,0.129046852986047,1
487,289,22,0.140794019026703,1
487,290,22,0.22390273168544,1
487,291,22,0.251144630729322,1
487,292,22,0.214669325083247,1
487,293,22,0.197822372941974,1
487,294,22,0.179917914517166,1
487,295,22,0.150151291583379,1
487,296,22,0.118641120097128,1
488,289,22,0.136053516695547,1
488,290,22,0.17057054677522,1
488,291,22,0.178529366571036,1
488,292,22,0.172931316980752,1
488,293,22,0.188161408503917,1
488,294,22,0.170867323132802,1
489,288,22,0.122500428539394,1
489,289,22,0.121420681038999,1
489,290,22,0.128820592663067,1
489,291,22,0.145404096809838,1
489,292,22,0.16030805446149,1
489,293,22,0.138768562492822,1
489,294,22,0.105861577894095,1
490,288,22,0.1351048295252,1
490,289,22,0.130055091739554,1
490,290,22,0.133664392842442,1
490,291,22,0.163549260079108,1
490,292,22,0.190809875653528,1
490,293,22,0.12847824077284,1
491,288,22,0.125813589066726,1
491,289,22,0.15072273693053,1
491,290,22,0.153598010952584,1
491,291,22,0.143237463203836,1
491,292,22,0.140568104479912,1
492,288,22,0.107085848687804,1
492,289,22,0.140304299555149,1
492,290,22,0.142225387450029,1
492,291,22,0.113248383485158,1
493,288,22,0.117801553199875,1
493,289,22,0.148787249130451,1
493,290,22,0.135470080722455,1
493,291,22,0.103083065434865,1
494,291,22,0.12069977114524,1
497,291,22,0.138855274237996,1
498,290,22,0.126256171435746,1
503,299,22,0.112494122920179,1
503,300,22,0.11502591849087,1
504,299,22,0.104947144874691,1
504,300,22,0.116679275228121,1
476,312,23,0.113121996710709,1
476,313,23,0.116796761054197,1
477,313,23,0.108042801024497,1
479,316,23,0.146040670775469,1
480,299,23,0.108719206176393,1
480,316,23,0.165435413424736,1
481,298,23,0.118313569658643,1
481,299,23,0.173535432600814,1
481,300,23,0.152646557572717,1
481,316,23,0.148502039544125,1
482,297,23,0.112254812334546,1
482,298,23,0.148268975238052,1
482,299,23,0.162383737775473,1
482,300,23,0.136999515734869,1
482,316,23,0.115605417077025,1
483,296,23,0.121949919382839,1
483,297,23,0.184620638011056,1
483,298,23,0.236020580955754,1
483,299,23,0.154070687004196,1
484,293,23,0.106792329318849,1
484,294,23,0.121719587824074,1
484,295,23,0.154368299917076,1
484,296,23,0.178209746676778,1
484,297,23,0.213841916122995,1
484,298,23,0.259479599249411,1
484,299,23,0.149688854968616,1
485,290,23,0.110735282136863,1
485,291,23,0.135032127292753,1
485,292,23,0.146194161941579,1
485,293,23,0.146591414167508,1
485,294,23,0.177424410870989,1
485,295,23,0.2721786871409,1
485,296,23,0.279660056942869,1
485,297,23,0.18025605016869,1
485,298,23,0.139591688289948,1
486,289,23,0.111969747751139,1
486,290,23,0.209570665543764,1
486,291,23,0.242070995035011,1
486,292,23,0.205987911129005,1
486,293,23,0.178961564500287,1
486,294,23,0.193994028199811,1
486,295,23,0.265262940261207,1
486,296,23,0.260114533566659,1
486,297,23,0.137183156353925,1
487,289,23,0.129434724638566,1
487,290,23,0.232544303299347,1
487,291,23,0.258084827331863,1
487,292,23,0.211541723675122,1
487,293,23,0.197745409854541,1
487,294,23,0.188672488020751,1
487,295,23,0.158565744010866,1
487,296,23,0.128318637176018,1
488,289,23,0.122565278306109,1
488,290,23,0.170536716478962,1
488,291,23,0.18705211387039,1
488,292,23,0.182429331600794,1
488,293,23,0.197911404733841,1
488,294,23,0.185277534693398,1
488,295,23,0.108471596962202,1
489,289,23,0.107657015183189,1
489,290,23,0.122716036724911,1
489,291,23,0.149848068172966,1
489,292,23,0.173763644886158,1
489,293,23,0.153134235849344,1
489,294,23,0.12243055944089,1
490,289,23,0.116009874832589,1
490,290,23,0.126414626163291,1
490,291,23,0.162842125462593,1
490,292,23,0.198209619966536,1
490,293,23,0.135985766870465,1
491,289,23,0.14302169886133,1
491,290,23,0.147027248323789,1
491,291,23,0.14030432186329,1
491,292,23,0.147959527856221,1
492,289,23,0.134337697162699,1
492,290,23,0.142193932970817,1
492,291,23,0.116517585820089,1
493,289,23,0.131550841458628,1
493,290,23,0.139389888843886,1
493,291,23,0.114709745204441,1
494,291,23,0.138205337695735,1
495,292,23,0.108940636786785,1
496,292,23,0.124997657645165,1
497,292,23,0.133410347729491,1
498,291,23,0.145218136144088,1
498,292,23,0.114370047983027,1
502,298,23,0.108939220219814,1
502,299,23,0.131162690954343,1
502,300,23,0.122894379160413,1
503,298,23,0.108980077580577,1
503,299,23,0.162854606867642,1
503,300,23,0.172400561683305,1
503,301,23,0.112636147701668,1
504,299,23,0.125608454553542,1
504,300,23,0.153828297895066,1
504,301,23,0.12865118463815,1
505,300,23,0.108740465835037,1
505,301,23,0.11963781438752,1
481,299,24,0.131340598381089,1
481,300,24,0.127145162020015,1
482,298,24,0.125218842866004,1
482,299,24,0.137608249140177,1
482,300,24,0.126788644460072,1
483,296,24,0.107470072959222,1
483,297,24,0.165320292261636,1
483,298,24,0.224117425237165,1
483,299,24,0.150265799272594,1
484,294,24,0.107245775752674,1
484,295,24,0.138202526869933,1
484,296,24,0.16433846634741,1
484,297,24,0.199324134705123,1
484,298,24,0.253627995325284,1
484,299,24,0.152003770789738,1
485,291,24,0.117899062085431,1
485,292,24,0.136456725195198,1
485,293,24,0.138984371451611,1
485,294,24,0.163546438099236,1
485,295,24,0.244886996325671,1
485,296,24,0.26039253762335,1
485,297,24,0.173444448846584,1
485,298,24,0.138571113134311,1
486,290,24,0.17769234280189,1
486,291,24,0.211976375499914,1
486,292,24,0.188032556679856,1
486,293,24,0.169563523815413,1
486,294,24,0.18732645939191,1
486,295,24,0.249700870133512,1
486,296,24,0.248588474668347,1
486,297,24,0.13662916712733,1
487,289,24,0.115185678244681,1
487,290,24,0.214469444137336,1
487,291,24,0.240378989442984,1
487,292,24,0.198022566201863,1
487,293,24,0.184782372035371,1
487,294,24,0.184747593643108,1
487,295,24,0.167523912765887,1
487,296,24,0.138655370983943,1
488,289,24,0.107040819704621,1
488,290,24,0.160559489521911,1
488,291,24,0.188820390997469,1
488,292,24,0.190861742082015,1
488,293,24,0.19730991032038,1
488,294,24,0.181471910793134,1
488,295,24,0.11708314181794,1
489,290,24,0.115949832470321,1
489,291,24,0.15320276645937,1
489,292,24,0.185304884474613,1
489,293,24,0.174224308003688,1
489,294,24,0.142454179747045,1
490,290,24,0.118325437589807,1
490,291,24,0.156298389146964,1
490,292,24,0.188926354668572,1
490,293,24,0.14258135846051,1
491,290,24,0.133117218753009,1
491,291,24,0.137604445602088,1
491,292,24,0.151111266673216,1
491,293,24,0.110853738367085,1
492,290,24,0.132970933116534,1
492,291,24,0.116247300380282,1
492,292,24,0.105396296991319,1
493,290,24,0.135300159610289,1
493,291,24,0.11931103357991,1
494,291,24,0.148991736707538,1
494,292,24,0.108121091446336,1
495,292,24,0.130819469046606,1
496,293,24,0.107844481648475,1
497,303,24,0.107597229364545,1
497,304,24,0.104552145771032,1
498,303,24,0.10904367809138,1
499,302,24,0.10399578072739,1
499,303,24,0.106674854646844,1
500,301,24,0.104385437031211,1
500,302,24,0.105558599873236,1
501,299,24,0.121972316756689,1
501,300,24,0.109750667704977,1
501,301,24,0.104540233223586,1
502,300,24,0.160756983496705,1
504,300,24,0.174189250759659,1
482,299,25,0.105921017936549,1
483,297,25,0.129952585830351,1
483,298,25,0.173489823605958,1
483,299,25,0.129130876600196,1
484,295,25,0.114911020409183,1
484,296,25,0.137383070762049,1
484,297,25,0.16446921436348,1
484,298,25,0.203008235005739,1
484,299,25,0.134851487118699,1
485,293,25,0.125934867276821,1
485,294,25,0.144219367196556,1
485,295,25,0.194509279339065,1
485,296,25,0.209911199320476,1
485,297,25,0.157601898458516,1
485,298,25,0.127926839290633,1
486,291,25,0.167895722556681,1
486,292,25,0.160430370000154,1
486,293,25,0.152704826437753,1
486,294,25,0.17627131420205,1
486,295,25,0.228881886512061,1
486,296,25,0.227285426689157,1
486,297,25,0.137330869711442,1
487,290,25,0.171230845449108,1
487,291,25,0.201348375445304,1
487,292,25,0.178661642694784,1
487,293,25,0.16456818443229,1
487,294,25,0.178122309917013,1
487,295,25,0.192237373614341,1
487,296,25,0.165574950848472,1
488,290,25,0.142080551842737,1
488,291,25,0.179658961613132,1
488,292,25,0.192870389431438,1
488,293,25,0.187588401586876,1
488,294,25,0.171100610520287,1
488,295,25,0.130991185964146,1
489,291,25,0.146262904478948,1
489,292,25,0.184120422559028,1
489,293,25,0.18713407398147,1
489,294,25,0.160137687186498,1
490,291,25,0.13802676102475,1
490,292,25,0.167140803901533,1
490,293,25,0.146463633134229,1
491,291,25,0.131722368756966,1
491,292,25,0.148893826275439,1
491,293,25,0.115382235277541,1
492,291,25,0.117752452980908,1
493,291,25,0.119276043260305,1
485,295,26,0.132542014484052,1
485,296,26,0.145011841607557,1
486,294,26,0.141781823522793,1
486,295,26,0.185624772066566,1
486,296,26,0.184261053081687,1
487,291,26,0.135804847844645,1
487,292,26,0.135964451441467,1
487,293,26,0.129080638666023,1
487,294,26,0.152430347067385,1
488,291,26,0.140216227013357,1
488,292,26,0.161061601165948,1
488,293,26,0.155006926231706,1
489,292,26,0.151862805644959,1
489,293,26,0.169661735407419,1
490,292,26,0.12714194964767,1
