x,y,z,signal,mito.p
719,777,16,0.171673327431491,1
720,777,16,0.159763590811223,1
720,778,16,0.146111030653082,1
722,767,16,0.130487100049604,1
723,767,16,0.130138557650171,1
723,782,16,0.107476408471347,1
724,767,16,0.134138987394205,1
725,766,16,0.168782236937267,1
725,767,16,0.12713883766196,1
725,768,16,0.131185802188714,1
726,766,16,0.132656076010441,1
726,767,16,0.121091602492837,1
726,768,16,0.128733055516665,1
727,766,16,0.113786567393653,1
727,767,16,0.117730680235014,1
727,768,16,0.124600371957025,1
727,769,16,0.128739513723567,1
727,787,16,0.16764741063604,1
728,767,16,0.105325769802647,1
728,768,16,0.106587607506279,1
728,769,16,0.106545556659957,1
728,787,16,0.193021014001393,1
731,784,16,0.159370499053644,1
731,785,16,0.141397476556597,1
732,785,16,0.170240542441194,1
733,785,16,0.161299216332843,1
734,784,16,0.122923089738246,1
718,778,17,0.146271705040685,1
718,779,17,0.151165865849011,1
719,777,17,0.135012618823199,1
719,778,17,0.157444916068295,1
720,776,17,0.122171651153139,1
720,777,17,0.11578348066076,1
720,778,17,0.119744860003475,1
720,779,17,0.130914524036621,1
721,776,17,0.111878161677094,1
722,768,17,0.139802310605888,1
723,768,17,0.149977968479667,1
723,771,17,0.12435667782163,1
723,780,17,0.140012743302628,1
723,782,17,0.115639001983729,1
724,768,17,0.129494889695611,1
725,767,17,0.123182143028916,1
725,768,17,0.113228941940028,1
725,769,17,0.131381266122651,1
725,770,17,0.118621343929879,1
726,766,17,0.141251927088785,1
726,767,17,0.122873052577344,1
726,768,17,0.123375208837665,1
726,769,17,0.119466867100854,1
726,786,17,0.119723778809961,1
726,787,17,0.150620086018408,1
727,765,17,0.113055128057208,1
727,766,17,0.116007130931211,1
727,767,17,0.120676526062021,1
727,768,17,0.126400761653483,1
727,769,17,0.115326063377786,1
727,786,17,0.170072450596613,1
727,787,17,0.227882660247633,1
727,788,17,0.152478276108935,1
728,767,17,0.106338079791938,1
728,768,17,0.10594430763605,1
728,786,17,0.188310136881863,1
728,787,17,0.264299384714694,1
728,788,17,0.17321500961347,1
729,766,17,0.114144981145605,1
729,767,17,0.115358086714601,1
729,786,17,0.144847352527793,1
729,787,17,0.192288481566024,1
730,766,17,0.117875337377175,1
730,767,17,0.114036385113831,1
731,783,17,0.117568455431591,1
731,784,17,0.126314685690336,1
731,785,17,0.113840441554856,1
732,784,17,0.14924476680006,1
732,785,17,0.145206915149022,1
732,786,17,0.114291902564107,1
733,784,17,0.125467924417519,1
733,785,17,0.148427496890022,1
733,786,17,0.143981685105238,1
734,781,17,0.112820546797528,1
734,782,17,0.122727882347934,1
734,783,17,0.109048184335919,1
734,785,17,0.129493763134476,1
735,781,17,0.121269610306218,1
735,784,17,0.108035361259378,1
735,785,17,0.110536862374206,1
737,777,17,0.106302141376328,1
717,779,18,0.129039926308178,1
718,778,18,0.12492255728753,1
718,779,18,0.125367827787574,1
718,780,18,0.142316426974612,1
719,778,18,0.122504287847836,1
719,779,18,0.129639669532549,1
719,780,18,0.138502582524284,1
719,781,18,0.154969861254961,1
720,775,18,0.114453380044797,1
720,780,18,0.136938302195184,1
722,768,18,0.124258332380776,1
722,769,18,0.140389639349634,1
722,771,18,0.118484650794156,1
722,780,18,0.130806786868286,1
723,768,18,0.129767194022203,1
723,769,18,0.136602386203717,1
723,770,18,0.112070469009039,1
723,780,18,0.106523248518672,1
723,781,18,0.130349971905127,1
724,768,18,0.111326492497192,1
724,769,18,0.113211664284603,1
726,764,18,0.120275392219509,1
726,767,18,0.120301816212861,1
726,768,18,0.109897778742679,1
726,786,18,0.131905072434089,1
726,787,18,0.183760503007539,1
727,764,18,0.105113931693007,1
727,765,18,0.112549257491364,1
727,766,18,0.111896755512855,1
727,767,18,0.112859619506988,1
727,768,18,0.11185535160263,1
727,786,18,0.181029607275881,1
727,787,18,0.283952232558625,1
727,788,18,0.195511717975838,1
728,764,18,0.10454933494523,1
728,786,18,0.195523764372132,1
728,787,18,0.322899659497455,1
728,788,18,0.217648532735547,1
728,789,18,0.108563227652529,1
729,766,18,0.116383435812473,1
729,767,18,0.111471930424298,1
729,786,18,0.149370183170363,1
729,787,18,0.23200607477457,1
729,788,18,0.161391438188914,1
730,766,18,0.115943262722712,1
730,767,18,0.110629195770983,1
730,787,18,0.122313653626487,1
732,785,18,0.10660689289442,1
733,785,18,0.116252520485343,1
733,786,18,0.11670304455266,1
734,785,18,0.111581909560832,1
734,786,18,0.14077260321107,1
735,786,18,0.128005754340428,1
736,785,18,0.10998495895882,1
717,780,19,0.192306194230204,1
718,778,19,0.110284378831144,1
718,779,19,0.116259703706837,1
718,780,19,0.142573706768049,1
718,781,19,0.173857684855744,1
719,780,19,0.110667989628677,1
719,781,19,0.140763211483589,1
719,782,19,0.149309281944656,1
720,773,19,0.126050267291687,1
720,781,19,0.147854902673595,1
720,782,19,0.165795031816317,1
720,783,19,0.112850718558616,1
721,770,19,0.126477501659503,1
721,771,19,0.12067737377139,1
721,783,19,0.119957534668413,1
722,768,19,0.111548146188998,1
722,769,19,0.116220229450833,1
722,770,19,0.105742218184151,1
722,781,19,0.141240862250708,1
722,782,19,0.148690063712944,1
723,768,19,0.113010679085698,1
723,769,19,0.108561811085558,1
724,768,19,0.103623134381298,1
725,787,19,0.105125465002051,1
726,764,19,0.11317322735717,1
726,767,19,0.115809659264558,1
726,786,19,0.127237216565026,1
726,787,19,0.197766602588762,1
726,788,19,0.169071595837872,1
727,763,19,0.131618200891237,1
727,764,19,0.110887390198213,1
727,765,19,0.106924326590831,1
727,766,19,0.103614623825398,1
727,767,19,0.103466564691691,1
727,786,19,0.164286599918923,1
727,787,19,0.305027068252472,1
727,788,19,0.250825579692667,1
727,789,19,0.130218967345432,1
728,763,19,0.159090989197416,1
728,764,19,0.113730863964865,1
728,786,19,0.174624516058337,1
728,787,19,0.340687301340425,2
728,788,19,0.266619141402474,1
728,789,19,0.123323688185367,1
729,763,19,0.127865893448643,1
729,766,19,0.103491850969838,1
729,786,19,0.138752277549684,1
729,787,19,0.254755181088122,1
729,788,19,0.19843281292009,1
730,787,19,0.13209800439399,1
730,788,19,0.110717268312775,1
732,765,19,0.109324849904133,1
734,786,19,0.112430221249468,1
735,786,19,0.113178492078513,1
717,781,20,0.206362085582775,1
718,779,20,0.108021217897804,1
718,780,20,0.135597359822556,1
718,781,20,0.167777154785752,1
718,782,20,0.170310299998992,1
719,773,20,0.120341446625853,1
719,781,20,0.120580087967247,1
719,782,20,0.154538299107737,1
719,783,20,0.122783094997613,1
720,781,20,0.105163712310284,1
720,782,20,0.139579641893654,1
720,783,20,0.117832293818566,1
721,782,20,0.134941868553114,1
721,783,20,0.107853683756755,1
723,767,20,0.119562279021129,1
724,767,20,0.115467697766803,1
725,764,20,0.116492734550698,1
725,767,20,0.12114287775558,1
725,787,20,0.105166701601216,1
726,764,20,0.103664080974627,1
726,765,20,0.138749912886708,1
726,766,20,0.13197854429741,1
726,767,20,0.115755941260344,1
726,786,20,0.118137123415152,1
726,787,20,0.199009032209476,1
726,788,20,0.203798835532871,1
726,789,20,0.128223381412732,1
727,763,20,0.162305871208319,1
727,764,20,0.114268289396557,1
727,766,20,0.105300762376267,1
727,767,20,0.10561491677591,1
727,786,20,0.145124798880952,1
727,787,20,0.306717869204869,2
727,788,20,0.318087904963035,3
727,789,20,0.164145088224683,1
728,762,20,0.188636772686554,1
728,763,20,0.192662053699979,1
728,764,20,0.119366569697638,1
728,786,20,0.150571063877935,2
728,787,20,0.331874693207287,2
728,788,20,0.32180064891706,2
728,789,20,0.148582728091152,1
729,763,20,0.136780974028773,1
729,786,20,0.123715575303317,1
729,787,20,0.255868625035927,2
729,788,20,0.235948191037285,1
729,789,20,0.112828644652814,1
730,787,20,0.133113002514306,1
730,788,20,0.121374904733083,1
732,765,20,0.109844016122183,1
733,764,20,0.104154871236962,1
733,765,20,0.106352568929703,1
734,764,20,0.11165566027592,1
734,765,20,0.105297985012677,1
717,781,21,0.197849968112743,1
717,782,21,0.142023878009803,1
718,780,21,0.122246595353785,1
718,781,21,0.150107444931684,1
718,782,21,0.162867991752412,1
718,783,21,0.114698814215212,1
719,772,21,0.109906891618394,1
719,781,21,0.106424200371368,1
719,782,21,0.155351442011638,1
719,783,21,0.136847340749095,1
720,782,21,0.11991077680428,1
720,783,21,0.118738896680379,1
722,767,21,0.111278630380066,1
723,766,21,0.135319433844359,1
723,767,21,0.108305412463701,1
724,764,21,0.1050627568169,1
724,766,21,0.120224540811451,1
724,767,21,0.117488714980568,1
725,765,21,0.127469845862344,1
725,766,21,0.133310451872818,1
725,767,21,0.134299527932961,1
725,768,21,0.103374833614728,1
726,765,21,0.11120960899093,1
726,766,21,0.123220100331312,1
726,767,21,0.123980127550813,1
726,786,21,0.104973981568657,1
726,787,21,0.179754920082869,1
726,788,21,0.217040881275091,3
726,789,21,0.13995028050703,1
727,763,21,0.163316117694541,1
727,764,21,0.105683659313279,1
727,766,21,0.113683057618092,1
727,767,21,0.12106388462729,1
727,786,21,0.125279799862064,1
727,787,21,0.282392358087428,3
727,788,21,0.362004001902081,3
727,789,21,0.196708862069744,3
728,762,21,0.188677016573432,1
728,763,21,0.187533679716305,1
728,764,21,0.110437122674521,1
728,766,21,0.10459585857388,1
728,767,21,0.116284175737826,1
728,786,21,0.124948869740175,1
728,787,21,0.296847542860855,2
728,788,21,0.360871060638793,3
728,789,21,0.17751522731416,3
729,763,21,0.126685413536277,1
729,786,21,0.104454781888395,1
729,787,21,0.230513548581912,1
729,788,21,0.256839854583043,3
729,789,21,0.125242377955059,1
730,787,21,0.125842623112609,1
730,788,21,0.128067871359836,1
733,764,21,0.110185631843747,1
733,765,21,0.105417590112175,1
734,764,21,0.113545059456104,1
734,765,21,0.106304104492761,1
735,766,21,0.103814281689897,1
735,767,21,0.112588296738612,1
717,781,22,0.179045275800458,1
717,782,22,0.129084966445432,1
718,781,22,0.12297803469023,1
718,782,22,0.133261150880578,1
719,782,22,0.1316106161232,1
719,783,22,0.122959496624823,1
720,770,22,0.10538676026092,1
721,769,22,0.109510509409976,1
722,766,22,0.123110522741321,1
722,767,22,0.104437381538193,1
723,764,22,0.122829841707676,1
723,765,22,0.132496684340961,1
723,766,22,0.106639663553967,1
723,767,22,0.104210675052386,1
724,767,22,0.123968393468497,1
724,768,22,0.105899367885432,1
725,766,22,0.117450746524102,1
725,767,22,0.144686577753554,1
725,768,22,0.107930624536046,1
726,766,22,0.128472094879916,1
726,767,22,0.137401051123924,1
726,787,22,0.151952194367087,1
726,788,22,0.201112645316348,3
726,789,22,0.145906587692277,1
727,763,22,0.141903815593409,1
727,765,22,0.109726976458932,1
727,766,22,0.146732524315205,1
727,767,22,0.153277844508864,1
727,786,22,0.104695408654363,1
727,787,22,0.245915758569159,3
727,788,22,0.359577656915243,3
727,789,22,0.220980833648101,3
728,763,22,0.157352259203469,1
728,766,22,0.133705562517183,1
728,767,22,0.151707619060112,1
728,787,22,0.256531243756509,3
728,788,22,0.371505753135788,3
728,789,22,0.212549360108814,3
729,763,22,0.109261360934037,1
729,766,22,0.106606257112393,1
729,767,22,0.111859210911073,1
729,787,22,0.193351196800549,1
729,788,22,0.257366081327809,3
729,789,22,0.143933477211921,1
730,765,22,0.104148334951566,1
730,787,22,0.111394721947312,1
730,788,22,0.128247674978591,1
733,764,22,0.113357782610019,1
733,765,22,0.105941452193966,1
734,764,22,0.104493051504769,1
735,767,22,0.112017788333395,1
717,781,23,0.159113832734092,1
717,782,23,0.116971088024267,1
718,782,23,0.108507055752774,1
719,782,23,0.107774980634303,1
720,770,23,0.110491576847397,1
721,766,23,0.112622193959294,1
721,769,23,0.114578885647665,1
722,765,23,0.121424127646828,1
722,767,23,0.104272658222946,1
722,768,23,0.109288465325698,1
723,764,23,0.104791489818877,1
723,765,23,0.104561671347361,1
723,767,23,0.109977162263441,1
724,767,23,0.137934104159924,1
724,768,23,0.110832779868348,1
725,766,23,0.112487742791771,1
725,767,23,0.154198423421193,1
725,768,23,0.109813877823307,1
726,766,23,0.144299040723155,1
726,767,23,0.152900346142043,1
726,787,23,0.128611833076924,1
726,788,23,0.173494697934828,1
726,789,23,0.152477908024604,1
727,763,23,0.108696083787951,1
727,765,23,0.127334736604653,1
727,766,23,0.195473169507698,1
727,767,23,0.190195464826263,1
727,787,23,0.202962793321942,1
727,788,23,0.317290344295822,3
727,789,23,0.236800295109939,1
727,790,23,0.113420156173051,1
728,763,23,0.118978118033446,1
728,765,23,0.114514247808292,1
728,766,23,0.174891901439776,1
728,767,23,0.186378831858274,1
728,768,23,0.104531365737425,1
728,787,23,0.215006691103897,3
728,788,23,0.35572466167696,3
728,789,23,0.254832902652358,3
728,790,23,0.106884729640051,1
729,765,23,0.103050919403273,1
729,766,23,0.119443532785071,1
729,767,23,0.120368762944857,1
729,787,23,0.157307720999394,1
729,788,23,0.244374132157534,3
729,789,23,0.16989875940857,1
730,765,23,0.115177747700454,1
730,766,23,0.103610630668108,1
730,788,23,0.126856438901436,1
731,765,23,0.105397780482714,1
733,764,23,0.109068105506087,1
717,774,24,0.120692030220214,1
717,775,24,0.11065066735697,1
720,766,24,0.116046928655263,1
720,770,24,0.108296433436834,1
721,765,24,0.103856511001349,1
721,767,24,0.110622559098951,1
721,769,24,0.113420256559687,1
722,768,24,0.106658703552554,1
723,767,24,0.108959866404573,1
724,767,24,0.139454537837329,1
725,766,24,0.116544924447233,1
725,767,24,0.150681567255789,1
726,765,24,0.105254885683715,1
726,766,24,0.160835184685979,1
726,767,24,0.156436074994974,1
726,787,24,0.108122931867992,1
726,788,24,0.14594917393399,1
726,789,24,0.153788042854118,1
727,765,24,0.142437482103294,1
727,766,24,0.235130374577785,1
727,767,24,0.207669409586486,1
727,787,24,0.154773003062194,1
727,788,24,0.249057101792316,1
727,789,24,0.228602633199458,1
727,790,24,0.122753938256954,1
728,765,24,0.120839052025352,1
728,766,24,0.203086246575812,1
728,767,24,0.19534177455553,1
728,787,24,0.165569797667836,1
728,788,24,0.300983873801595,3
728,789,24,0.266002008981972,1
728,790,24,0.118362859496812,1
729,766,24,0.121861277983444,1
729,767,24,0.11320327642348,1
729,787,24,0.120100931400592,1
729,788,24,0.209121000339887,1
729,789,24,0.178526053812055,1
730,765,24,0.109736067026506,1
730,788,24,0.116685019574502,1
745,781,24,0.105840407468016,1
716,782,25,0.116128911074484,1
717,774,25,0.111982151077693,1
717,781,25,0.124572397547853,1
718,766,25,0.113149669959973,1
719,766,25,0.108722663938292,1
719,771,25,0.10498254789491,1
720,767,25,0.123829603367494,1
721,767,25,0.110299693370136,1
721,768,25,0.144798542314662,1
721,769,25,0.110267937731018,1
722,768,25,0.104108715692644,1
723,767,25,0.11475799771404,1
724,766,25,0.120414595021126,1
724,767,25,0.148027132678384,1
725,766,25,0.14241988097982,1
725,767,25,0.15850330352341,1
725,789,25,0.112510385555175,1
726,765,25,0.117121723748292,1
726,766,25,0.187744513959587,1
726,767,25,0.168033809951234,1
726,788,25,0.129350132166814,1
726,789,25,0.149182449007381,1
727,765,25,0.150415208048849,1
727,766,25,0.256381377663358,1
727,767,25,0.209759414727175,1
727,787,25,0.112948651298856,1
727,788,25,0.189601800570392,1
727,789,25,0.205674704825367,1
727,790,25,0.124064128856821,1
728,765,25,0.123865742556376,1
728,766,25,0.207777314065881,1
728,767,25,0.179076864128518,1
728,787,25,0.118616859993481,1
728,788,25,0.233519882934013,1
728,789,25,0.245123150309311,1
728,790,25,0.121625369389357,1
729,766,25,0.118020619147292,1
729,788,25,0.172262663907953,1
729,789,25,0.17507705901244,1
730,788,25,0.106359975232609,1
745,783,25,0.103040066492538,1
717,781,26,0.111454842388074,1
718,767,26,0.108918830578679,1
719,767,26,0.113178335921524,1
720,767,26,0.121553492558138,1
720,768,26,0.169856641637824,1
720,769,26,0.145603420052217,1
721,767,26,0.125413302933583,1
721,768,26,0.15200728432199,1
721,769,26,0.103845368084777,1
722,767,26,0.114848881081634,1
722,768,26,0.106906134301614,1
722,788,26,0.168966379489502,1
722,789,26,0.18902234660052,1
723,766,26,0.108433394270252,1
723,767,26,0.124653878033896,1
724,766,26,0.143625792173251,1
724,767,26,0.151893925502051,1
725,766,26,0.160566795438181,1
725,767,26,0.154986402741724,1
725,789,26,0.107172850438815,1
726,765,26,0.119919499287523,1
726,766,26,0.200851238516773,1
726,767,26,0.166998243724653,1
726,788,26,0.116976653905518,1
726,789,26,0.139551321708293,1
727,765,26,0.14426109457483,1
727,766,26,0.247948320246039,1
727,767,26,0.191318077420137,1
727,788,26,0.149148618711123,1
727,789,26,0.178774176113495,1
727,790,26,0.120492561974917,1
728,765,26,0.124570925210529,1
728,766,26,0.19130163632001,1
728,767,26,0.146485740502242,1
728,788,26,0.172949018490861,1
728,789,26,0.207471023286041,1
728,790,26,0.126538302498574,1
729,765,26,0.108506141118982,1
729,766,26,0.120728359028297,1
729,788,26,0.137043607776118,1
729,789,26,0.163034142788701,1
729,790,26,0.106642117449508,1
719,767,27,0.107140804793859,1
719,768,27,0.149733393172692,1
720,767,27,0.148579538026948,1
720,768,27,0.180384667757267,1
720,769,27,0.135709971319761,1
721,766,27,0.120540078315853,1
721,767,27,0.180373201372647,1
721,768,27,0.177775317933399,1
721,769,27,0.103769297322996,1
721,789,27,0.222912049439124,1
722,766,27,0.12390888650162,1
722,767,27,0.164699813619941,1
722,768,27,0.128895614942207,1
722,787,27,0.109256319294106,1
722,788,27,0.198848859755051,1
722,789,27,0.252198199625919,1
722,790,27,0.172963295701284,1
723,766,27,0.144065652949034,1
723,767,27,0.158211368032487,1
723,788,27,0.126749582904682,1
723,789,27,0.166875035860337,1
723,790,27,0.16726767030102,1
724,765,27,0.105561176463555,1
724,766,27,0.175590347035261,1
724,767,27,0.164802910694889,1
724,789,27,0.108740566221673,1
725,765,27,0.10408972031034,1
725,766,27,0.16754271852899,1
725,767,27,0.145627468228522,1
725,789,27,0.107979702446873,1
726,765,27,0.114650929789944,1
726,766,27,0.192196616640214,1
726,767,27,0.152540850445239,1
726,788,27,0.115267504506914,1
726,789,27,0.133657622321562,1
727,765,27,0.132403971705781,1
727,766,27,0.218303232065972,1
727,767,27,0.160069156576471,1
727,788,27,0.124583395461507,1
727,789,27,0.15731927661658,1
727,790,27,0.117934565492286,1
728,765,27,0.13074191479343,1
728,766,27,0.170441549948241,1
728,767,27,0.114505346859919,1
728,788,27,0.126495905876063,1
728,789,27,0.173573791449753,1
728,790,27,0.138733549865076,1
729,765,27,0.125338291808513,1
729,766,27,0.127540841521983,1
729,788,27,0.106382829923355,1
729,789,27,0.150722268459563,1
729,790,27,0.132914192359176,1
730,789,27,0.103136047270416,1
731,765,27,0.107140838256071,1
732,765,27,0.115735150072667,1
732,766,27,0.115880811081185,1
733,766,27,0.107852456808985,1
716,767,28,0.106073895628773,1
718,768,28,0.139532772488815,1
719,767,28,0.107885573244722,1
719,768,28,0.142047792337261,1
719,769,28,0.146774686702233,1
719,770,28,0.114001896727405,1
720,766,28,0.114176101002697,1
720,767,28,0.172962927616952,1
720,768,28,0.175152917846879,1
720,769,28,0.114627093540981,1
721,766,28,0.156637985981742,1
721,767,28,0.234097529944441,1
721,768,28,0.186593726183271,1
721,788,28,0.163397631642796,1
721,789,28,0.201893452569456,1
721,790,28,0.130520093790565,1
722,766,28,0.15924663309916,1
722,767,28,0.210943129320027,1
722,768,28,0.138880259356235,1
722,787,28,0.115503167711446,1
722,788,28,0.210213943105852,1
722,789,28,0.301815075145866,1
722,790,28,0.222328847701516,1
722,791,28,0.131601570171909,1
723,766,28,0.173312317725755,1
723,767,28,0.178722655461198,1
723,788,28,0.163217716483334,1
723,789,28,0.257681607678141,4
723,790,28,0.240008763530222,1
723,791,28,0.159156887446772,1
724,765,28,0.11839825136296,1
724,766,28,0.18831600392302,1
724,767,28,0.15792909196674,1
724,788,28,0.111176124470862,1
724,789,28,0.151906183825687,1
724,790,28,0.173185540558833,1
725,765,28,0.105949672744029,1
725,766,28,0.154769032213045,1
725,767,28,0.12285561876493,1
725,788,28,0.10965418499392,1
725,789,28,0.115953022534524,1
726,765,28,0.10636711383782,1
726,766,28,0.162601387155918,1
726,767,28,0.12560789685001,1
726,788,28,0.110713922091583,1
726,789,28,0.123594988645602,1
726,790,28,0.105544735363428,1
727,765,28,0.118007345803227,1
727,766,28,0.174936328103145,1
727,767,28,0.124027208882995,1
727,789,28,0.132077469749937,1
727,790,28,0.114376673500989,1
728,765,28,0.129202173419743,1
728,766,28,0.146691053480556,1
728,789,28,0.140056099175214,1
728,790,28,0.144486161412252,1
729,765,28,0.129006151782273,1
729,766,28,0.124894850576054,1
729,789,28,0.126508576900312,1
729,790,28,0.144919597443344,1
730,765,28,0.102915910532218,1
731,765,28,0.112115877230625,1
731,766,28,0.106842812642577,1
732,765,28,0.124199450041855,1
732,766,28,0.137093946096927,1
732,789,28,0.10469222974423,1
733,766,28,0.119340915335161,1
716,767,29,0.109468703953208,1
716,781,29,0.118848886970984,1
717,768,29,0.128909747149711,1
717,779,29,0.107884480145799,1
717,780,29,0.107928561032978,1
718,768,29,0.137246857251364,1
718,769,29,0.184168173135448,1
719,767,29,0.11037406871318,1
719,768,29,0.135359688885308,1
719,769,29,0.13415419039249,1
720,766,29,0.123778551186164,1
720,767,29,0.190840861661773,1
720,768,29,0.16593763660948,1
721,766,29,0.184542068737451,1
721,767,29,0.277860749191263,1
721,768,29,0.186131434571426,1
721,788,29,0.130843171446721,1
721,789,29,0.153682391496993,1
721,790,29,0.115083518111668,1
722,766,29,0.197996153362582,1
722,767,29,0.258433168958025,1
722,768,29,0.145832993134179,1
722,787,29,0.129549332714416,1
722,788,29,0.207593561906118,1
722,789,29,0.304779648657483,4
722,790,29,0.245790721437258,1
722,791,29,0.127873266289338,1
723,765,29,0.113954614621952,1
723,766,29,0.200769166864986,1
723,767,29,0.200852710854098,1
723,787,29,0.116913544173823,1
723,788,29,0.214063770588072,4
723,789,29,0.349562461501725,4
723,790,29,0.31532182929257,4
723,791,29,0.166194626397081,1
724,765,29,0.124653498795494,1
724,766,29,0.186239562132234,1
724,767,29,0.148181605402711,1
724,788,29,0.158010628223136,1
724,789,29,0.2161086240508,4
724,790,29,0.207153109964592,1
724,791,29,0.138429266817952,1
725,765,29,0.107448054823774,1
725,766,29,0.139145101609568,1
725,767,29,0.106389065048845,1
725,788,29,0.13276545282716,1
725,789,29,0.136134930257166,1
725,790,29,0.127220887005606,1
726,766,29,0.133248033693503,1
726,767,29,0.103706254515726,1
726,788,29,0.110721283778207,1
726,789,29,0.121588415953319,1
726,790,29,0.109467577392073,1
727,765,29,0.108938840981412,1
727,766,29,0.136645273605337,1
727,789,29,0.116942042824314,1
727,790,29,0.114164076914545,1
728,765,29,0.123530852739409,1
728,766,29,0.125927003657018,1
728,789,29,0.119391632894372,1
728,790,29,0.141826830197835,1
729,765,29,0.121773573525983,1
729,766,29,0.112540713473252,1
729,789,29,0.108798188150611,1
729,790,29,0.145186949362572,1
729,791,29,0.10678348414083,1
730,790,29,0.112129987129987,1
731,764,29,0.105078093664033,1
731,765,29,0.10830486591424,1
731,766,29,0.106375892091416,1
731,790,29,0.107082669777671,1
732,765,29,0.11817790269742,1
732,766,29,0.143051067529331,1
732,790,29,0.119397053772704,1
733,766,29,0.117960610247236,1
733,790,29,0.111271112536453,1
734,790,29,0.108029460756009,1
735,789,29,0.105297884626041,1
735,790,29,0.104173398148299,1
737,768,29,0.109585286299562,1
716,767,30,0.108618752616187,1
716,768,30,0.117942540652795,1
717,768,30,0.120529381562107,1
717,769,30,0.154947686962524,1
718,768,30,0.126459833611605,1
718,769,30,0.161407299277368,1
718,770,30,0.135964194897843,1
719,767,30,0.109365796497461,1
719,768,30,0.123920832511278,1
719,769,30,0.121997458031917,1
720,766,30,0.123251097493627,1
720,767,30,0.18622526261367,1
720,768,30,0.148461751040965,1
721,766,30,0.182611254492971,1
721,767,30,0.271842659608728,1
721,768,30,0.168604452205298,1
721,787,30,0.106702762131591,1
721,788,30,0.11271224077159,1
721,789,30,0.116811640584434,1
722,765,30,0.105797151982065,1
722,766,30,0.207329611978437,1
722,767,30,0.261569582081958,1
722,768,30,0.137699121353701,1
722,787,30,0.148570559000081,1
722,788,30,0.214251203591147,1
722,789,30,0.277167702165969,4
722,790,30,0.231823014167187,4
722,791,30,0.118474310970671,1
723,765,30,0.11980415504301,1
723,766,30,0.198766988876536,1
723,767,30,0.194357383205057,1
723,787,30,0.152196390435661,1
723,788,30,0.290009093690713,4
723,789,30,0.409444562082709,4
723,790,30,0.343808857242262,4
723,791,30,0.163728271758848,4
724,765,30,0.121093721766259,1
724,766,30,0.162483332472239,1
724,767,30,0.129278500725148,1
724,787,30,0.122689802350761,1
724,788,30,0.232900876629643,1
724,789,30,0.284826131685315,4
724,790,30,0.231930606332603,4
724,791,30,0.136603501610782,1
725,765,30,0.10618565941661,1
725,766,30,0.121192959532764,1
725,788,30,0.156902170144907,1
725,789,30,0.15984932099818,1
725,790,30,0.135759751937038,1
726,766,30,0.108330364119728,1
726,788,30,0.103967705931583,1
726,789,30,0.117381256664,1
726,790,30,0.113019524263718,1
727,766,30,0.106929323614479,1
727,789,30,0.104648695406513,1
727,790,30,0.111106790767749,1
728,765,30,0.110713342079909,1
728,766,30,0.104923531707141,1
728,790,30,0.129779363113274,1
728,791,30,0.105886038771014,1
729,765,30,0.106008108920124,1
729,790,30,0.132672762500122,1
729,791,30,0.126001144764578,1
730,790,30,0.114289682904049,1
730,791,30,0.11239031198471,1
731,763,30,0.104490742612146,1
731,764,30,0.104903398609632,1
731,790,30,0.122934411119948,1
731,791,30,0.110357873002607,1
732,765,30,0.10488670096588,1
732,766,30,0.134297152115914,1
732,790,30,0.133285912917404,1
732,791,30,0.110140469011716,1
733,766,30,0.106024070395214,1
733,790,30,0.122631187709535,1
734,790,30,0.133546762013447,1
735,789,30,0.109361992959372,1
735,790,30,0.13954257691691,1
736,790,30,0.107017764240603,1
741,768,30,0.107300977248284,1
741,769,30,0.106849583163457,1
749,777,30,0.106098624203387,1
716,767,31,0.105903651048558,1
716,768,31,0.118328783811,1
717,768,31,0.111985028827919,1
717,769,31,0.135545381853362,1
717,773,31,0.105756629243421,1
718,768,31,0.114063121421161,1
718,769,31,0.14007303105445,1
718,770,31,0.117180092999964,1
719,767,31,0.108083067219516,1
719,768,31,0.11380907630821,1
719,769,31,0.113587712622241,1
720,766,31,0.12023981073416,1
720,767,31,0.166560312603092,1
720,768,31,0.131432229071416,1
721,766,31,0.16559174887886,1
721,767,31,0.230267422859117,1
721,768,31,0.145904803040974,1
721,787,31,0.113870769472933,1
721,788,31,0.110784304277336,1
722,765,31,0.114268746713453,1
722,766,31,0.195582412475569,1
722,767,31,0.230974546321562,1
722,768,31,0.124910008958057,1
722,787,31,0.175482632175068,1
722,788,31,0.242044649120154,4
722,789,31,0.244969335675153,4
722,790,31,0.187816859261774,1
723,765,31,0.123422323632058,1
723,766,31,0.184152869750526,1
723,767,31,0.176484100407695,1
723,787,31,0.205337651118695,4
723,788,31,0.383433224728378,4
723,789,31,0.427176322031761,4
723,790,31,0.307029759328172,4
723,791,31,0.145719667776452,1
724,765,31,0.114609514725649,1
724,766,31,0.140166312547232,1
724,767,31,0.116806989336976,1
724,787,31,0.157971332432263,1
724,788,31,0.319818972110451,4
724,789,31,0.347354334752934,4
724,790,31,0.240130186743235,4
724,791,31,0.133976818361135,1
725,765,31,0.104157247054009,1
725,766,31,0.110488464861688,1
725,788,31,0.178296480730094,1
725,789,31,0.191506603522134,4
725,790,31,0.148976098700497,1
726,789,31,0.11902228815319,1
726,790,31,0.116083681318029,1
726,791,31,0.116803174644816,1
727,790,31,0.104796129912264,1
728,765,31,0.104315891400756,1
728,790,31,0.111627395860912,1
728,791,31,0.112217479660106,1
729,790,31,0.116973988082634,1
729,791,31,0.138939141695156,1
730,790,31,0.113748152774361,1
730,791,31,0.124551729054953,1
731,790,31,0.135044597543731,1
731,791,31,0.134005395090121,1
732,766,31,0.113686359223002,1
732,790,31,0.135745954351654,1
732,791,31,0.130785928756185,1
733,790,31,0.118840856040121,1
733,791,31,0.106009715106297,1
734,790,31,0.144986823027106,1
734,791,31,0.116480197375295,1
735,789,31,0.103578250401033,1
735,790,31,0.172020698653507,1
735,791,31,0.133661682403276,1
736,790,31,0.140610043785527,1
736,791,31,0.111859065908154,1
741,768,31,0.107661242575962,1
712,778,32,0.134278223658034,1
715,781,32,0.1265253749307,1
716,768,32,0.112466940450023,1
716,776,32,0.117290139060922,1
716,777,32,0.106330662334961,1
716,778,32,0.111227957437137,1
716,779,32,0.10472087339764,1
717,769,32,0.115052732876695,1
717,773,32,0.112583098941693,1
718,769,32,0.113732470151038,1
720,766,32,0.109813453968623,1
720,767,32,0.131408894755633,1
720,768,32,0.109513130616576,1
721,766,32,0.137367700452704,1
721,767,32,0.166125716548652,1
721,768,32,0.116534383850476,1
721,787,32,0.115252491127829,1
721,788,32,0.113868003263413,1
722,765,32,0.116292764372221,1
722,766,32,0.161846568887406,1
722,767,32,0.175041053672406,1
722,768,32,0.105865426048467,1
722,787,32,0.194288339507781,1
722,788,32,0.270900586802272,4
722,789,32,0.220064705209959,4
722,790,32,0.14186893681451,1
723,765,32,0.118774667784929,1
723,766,32,0.155236164691548,1
723,767,32,0.148793584642576,1
723,787,32,0.252605100122954,4
723,788,32,0.451288165771976,4
723,789,32,0.407126076958983,4
723,790,32,0.241841488877473,4
723,791,32,0.119718536396759,1
724,765,32,0.105521267198796,1
724,766,32,0.120714382977782,1
724,767,32,0.11026085489616,1
724,787,32,0.183077840422013,4
724,788,32,0.371725912182128,4
724,789,32,0.375998010470728,4
724,790,32,0.238194040852988,4
724,791,32,0.133656350757509,1
725,788,32,0.189836816838828,4
725,789,32,0.224216651849599,4
725,790,32,0.174953761915559,1
725,791,32,0.137963740525621,1
726,789,32,0.12679920736497,1
726,790,32,0.126378899675024,1
726,791,32,0.130114788325632,1
727,765,32,0.107902962440853,1
727,790,32,0.104857611149645,1
727,791,32,0.112099291127579,1
728,765,32,0.104704923076621,1
728,791,32,0.121994234505501,1
728,792,32,0.11196335646866,1
729,790,32,0.105545326529172,1
729,791,32,0.138272005575965,1
729,792,32,0.130832363152269,1
730,790,32,0.108482628338068,1
730,791,32,0.12612132987575,1
730,792,32,0.11078124806198,1
731,790,32,0.129923964485082,1
731,791,32,0.141442293612439,1
731,792,32,0.107804048142397,1
732,790,32,0.118386751516128,1
732,791,32,0.129219205685614,1
733,791,32,0.10356654978093,1
734,790,32,0.129076210499978,1
734,791,32,0.125580892844985,1
735,790,32,0.171124379844826,1
735,791,32,0.157516413661113,1
736,790,32,0.153684477308203,1
736,791,32,0.136018124829398,1
737,790,32,0.109432531302115,1
740,768,32,0.11026520498371,1
741,768,32,0.103638571615067,1
741,769,32,0.110842004284769,1
712,777,33,0.147415041897812,1
712,778,33,0.137370923979119,1
712,779,33,0.129020373222342,1
713,777,33,0.138602857619359,1
713,778,33,0.151733028033035,1
713,781,33,0.127461770315199,1
714,777,33,0.146850701693661,1
714,781,33,0.132244423879313,1
715,776,33,0.165613187002634,1
715,777,33,0.140215301225493,1
715,778,33,0.155469585927882,1
715,779,33,0.159849756006936,1
715,780,33,0.144877914681354,1
715,781,33,0.111030296151283,1
716,768,33,0.106135287633589,1
716,775,33,0.134043040078539,1
717,769,33,0.103077979178652,1
717,773,33,0.122044773599582,1
720,767,33,0.104408113256827,1
721,766,33,0.112150677931029,1
721,767,33,0.112119903850126,1
721,787,33,0.11354585139512,1
721,788,33,0.117689800566109,1
722,765,33,0.110230348512953,1
722,766,33,0.123390356065597,1
722,767,33,0.119042711256536,1
722,787,33,0.206805883745494,1
722,788,33,0.296229919661245,4
722,789,33,0.211448386411986,4
722,790,33,0.112255213881089,1
723,765,33,0.106412789757101,1
723,766,33,0.120982192213905,1
723,767,33,0.116733115927112,1
723,787,33,0.288961481067839,4
723,788,33,0.486290665622289,4
723,789,33,0.379255757575109,4
723,790,33,0.188591710241159,4
724,767,33,0.103873955967834,1
724,787,33,0.202606175375363,4
724,788,33,0.382914649676072,4
724,789,33,0.371787995739323,4
724,790,33,0.231492028274944,4
724,791,33,0.128883602008125,1
725,788,33,0.194043819971158,4
725,789,33,0.253178107039994,4
725,790,33,0.206375938938513,1
725,791,33,0.143973063008631,1
726,789,33,0.137025660876455,1
726,790,33,0.134894586447661,1
726,791,33,0.127497708730809,1
726,792,33,0.11594461236526,1
727,764,33,0.112386608833257,1
727,765,33,0.114684146612317,1
727,791,33,0.118279315507701,1
727,792,33,0.109611866449903,1
728,764,33,0.110945369057412,1
728,765,33,0.108594894059083,1
728,791,33,0.121129314405679,1
728,792,33,0.109855014035836,1
729,791,33,0.120064357202955,1
729,792,33,0.111078425966105,1
730,791,33,0.120558594073119,1
730,792,33,0.107537253926701,1
731,790,33,0.115452383227811,1
731,791,33,0.138883728272205,1
731,792,33,0.118341276370119,1
732,791,33,0.118402344906886,1
732,792,33,0.10692013266027,1
734,791,33,0.120123429161077,1
735,790,33,0.142144977754768,1
735,791,33,0.155325308024122,1
736,790,33,0.140841814219406,1
736,791,33,0.141089702285362,1
737,790,33,0.107794054095101,1
737,791,33,0.103903280019553,1
741,769,33,0.104114091954694,1
712,777,34,0.141379172726673,1
712,778,34,0.137389060497984,1
712,779,34,0.124817497096149,1
712,780,34,0.111324005139439,1
713,777,34,0.12065219903395,1
713,778,34,0.124947754333111,1
713,779,34,0.136665674400542,1
713,780,34,0.13666164778104,1
714,777,34,0.118599571183985,1
714,778,34,0.12258145170854,1
714,779,34,0.136219712348118,1
714,780,34,0.133457317520966,1
715,776,34,0.141824722078483,1
715,777,34,0.106505111999808,1
715,778,34,0.106139637721139,1
715,779,34,0.109751448489922,1
715,780,34,0.106157506542309,1
716,769,34,0.125353784812635,1
716,775,34,0.122467936731613,1
717,773,34,0.118855534797086,1
721,788,34,0.108776337326223,1
722,787,34,0.183495839219336,1
722,788,34,0.272003345150402,4
722,789,34,0.187608701995445,4
723,787,34,0.262546031734134,4
723,788,34,0.433013381047771,4
723,789,34,0.321419380474362,4
723,790,34,0.152324082236375,4
724,787,34,0.185155185692522,4
724,788,34,0.33102479764062,4
724,789,34,0.320993518057236,4
724,790,34,0.209226294766751,4
724,791,34,0.115604591675797,1
725,788,34,0.172850081884263,4
725,789,34,0.244889985616603,4
725,790,34,0.213736666312413,1
725,791,34,0.136475140565829,1
726,789,34,0.129904322166681,1
726,790,34,0.132542839885279,1
726,791,34,0.117890339602189,1
726,792,34,0.103506016639553,1
727,765,34,0.107914473441756,1
727,791,34,0.124632796840382,1
727,792,34,0.113402510433295,1
728,791,34,0.121966282404471,1
728,792,34,0.108699976558605,1
730,791,34,0.106204554412278,1
731,791,34,0.119884508967917,1
731,792,34,0.11579529282157,1
732,792,34,0.103207466784739,1
735,791,34,0.123454592358427,1
736,790,34,0.105422609443964,1
736,791,34,0.117396147348307,1
737,766,34,0.11015268271907,1
711,778,35,0.153221650300968,1
712,777,35,0.129713342169142,1
712,778,35,0.135594236682776,1
712,779,35,0.127883461109905,1
712,780,35,0.104790485952519,1
713,777,35,0.105964507657983,1
713,778,35,0.108251326375156,1
713,779,35,0.116544478284408,1
713,780,35,0.112615200357002,1
715,776,35,0.122160430158073,1
716,769,35,0.105449769605978,1
716,770,35,0.127146132424161,1
716,775,35,0.112418375626446,1
717,771,35,0.10780150501429,1
717,773,35,0.112561404274293,1
722,787,35,0.148418462092802,1
722,788,35,0.218096926375371,1
722,789,35,0.152910306727127,1
723,787,35,0.206476615580131,1
723,788,35,0.342255028277354,4
723,789,35,0.262478125752063,4
723,790,35,0.131058478472331,1
724,787,35,0.152453190604061,1
724,788,35,0.269792742197928,4
724,789,35,0.273659300786112,4
724,790,35,0.187311356780261,1
724,791,35,0.106599932754339,1
725,768,35,0.112623186671582,1
725,788,35,0.148507728120153,1
725,789,35,0.218323822480378,1
725,790,35,0.198748316962281,1
725,791,35,0.125250163496367,1
726,789,35,0.121339423634369,1
726,790,35,0.131041635825661,1
726,791,35,0.112834734775385,1
727,791,35,0.126767752885759,1
727,792,35,0.109953827947657,1
728,791,35,0.121669572971313,1
728,792,35,0.106997519602387,1
731,791,35,0.104751368626776,1
731,792,35,0.109704378311811,1
734,768,35,0.117375255773994,1
735,768,35,0.113898141562289,1
737,767,35,0.11393114645732,1
711,779,36,0.122950272208402,1
712,778,36,0.129544090301214,1
712,779,36,0.130488103915962,1
713,776,36,0.109400318346099,1
713,779,36,0.110971157268738,1
714,776,36,0.117740083116565,1
717,772,36,0.104595735879103,1
722,787,36,0.108375839265737,1
722,788,36,0.152445516603459,1
722,789,36,0.11480261399661,1
723,787,36,0.141146900359616,1
723,788,36,0.235443067794174,1
723,789,36,0.198189431098673,1
723,790,36,0.110113844245093,1
724,787,36,0.11374656889633,1
724,788,36,0.204775285185047,1
724,789,36,0.221096724442076,1
724,790,36,0.154605457767075,1
725,768,36,0.108243953534462,1
725,788,36,0.120480504424552,1
725,789,36,0.172116322501125,1
725,790,36,0.156574619706423,1
725,791,36,0.105701383131529,1
726,789,36,0.104554923134622,1
726,790,36,0.117005754875824,1
727,791,36,0.108609282810212,1
731,793,36,0.10665725352337,1
734,768,36,0.126346407867243,1
734,769,36,0.10385686793161,1
735,768,36,0.117981535283761,1
752,779,36,0.105735871517956,1
711,779,37,0.119576857391459,1
712,778,37,0.121948882054269,1
712,779,37,0.128924113592698,1
713,776,37,0.103148684832454,1
713,779,37,0.109246347554952,1
716,771,37,0.10670674413481,1
723,788,37,0.148444384152975,1
723,789,37,0.142155362194536,1
724,788,37,0.147671295516751,1
724,789,37,0.168183229881559,1
724,790,37,0.117912301967284,1
725,789,37,0.125784566174915,1
725,790,37,0.113399509988292,1
726,790,37,0.105013924295627,1
727,790,37,0.106607818682283,1
731,793,37,0.108490781963707,1
734,768,37,0.118120291922552,1
734,769,37,0.103914066005864,1
735,768,37,0.113139229749852,1
754,784,37,0.107381531946463,1
755,783,37,0.118891495520838,1
755,784,37,0.121135560685238,1
756,783,37,0.106562243149638,1
712,779,38,0.123458786288988,1
713,776,38,0.104416478809809,1
724,789,38,0.11415027932916,1
727,790,38,0.110694313235393,1
731,793,38,0.104179867509272,1
731,794,38,0.160147926623348,1
734,768,38,0.104300320318139,1
734,769,38,0.102936668257683,1
735,768,38,0.10291628977062,1
743,771,38,0.105122631868108,1
754,783,38,0.11062809151799,1
754,784,38,0.114967995402024,1
755,783,38,0.143789567392493,1
755,784,38,0.138619811806735,1
756,783,38,0.11716075184147,1
756,784,38,0.10755859166384,1
712,779,39,0.122352436330111,1
728,793,39,0.104090991874393,1
729,792,39,0.110477868494578,1
729,793,39,0.109950448264253,1
730,793,39,0.106955747607831,1
730,794,39,0.126523021421794,1
731,794,39,0.154098851032568,1
732,769,39,0.10927409888271,1
733,769,39,0.109625396337592,1
754,783,39,0.126512413900613,1
754,784,39,0.121326217214729,1
755,783,39,0.162506811790941,1
755,784,39,0.148727965244987,1
756,783,39,0.120074362404321,1
756,784,39,0.110042926663949,1
712,779,40,0.12733139038346,1
713,778,40,0.105415682766095,1
714,776,40,0.106484053114435,1
727,770,40,0.116797430298436,1
727,771,40,0.103598416960755,1
728,770,40,0.121290959197428,1
728,771,40,0.118985613568918,1
728,793,40,0.116660837549349,1
728,794,40,0.116026494397846,1
729,770,40,0.112714438123507,1
729,771,40,0.113719352963962,1
729,792,40,0.115633770724598,1
729,793,40,0.129810616819214,1
729,794,40,0.129859125872438,1
730,770,40,0.112137951136426,1
730,771,40,0.104042337818251,1
730,793,40,0.117106319976735,1
730,794,40,0.138609115052989,1
731,769,40,0.109733925444943,1
731,770,40,0.116971099178338,1
732,768,40,0.112726082973258,1
732,769,40,0.118748098788659,1
732,770,40,0.111188895881748,1
732,794,40,0.117917957081099,1
733,769,40,0.105424304862702,1
733,770,40,0.106748683440426,1
734,770,40,0.113231183908228,1
735,770,40,0.107564023696243,1
744,772,40,0.105551873968639,1
754,783,40,0.121058552981523,1
754,784,40,0.109259453587957,1
755,783,40,0.150310415555164,1
755,784,40,0.133595215296318,1
756,783,40,0.111166654664887,1
711,780,41,0.105021486755523,1
712,780,41,0.104776431823509,1
713,779,41,0.106458052975768,1
726,770,41,0.103815988262705,1
727,769,41,0.103807700788218,1
727,770,41,0.127856390180456,1
727,771,41,0.117006870282888,1
728,770,41,0.133517281804739,1
728,771,41,0.156671258574469,1
728,772,41,0.112866568492999,1
728,793,41,0.124378327872747,1
728,794,41,0.132334604540456,1
729,770,41,0.124137801493414,1
729,771,41,0.151859749429603,1
729,772,41,0.112381098722359,1
729,792,41,0.115565585890761,1
729,793,41,0.149124202450487,1
729,794,41,0.156435216131535,1
730,770,41,0.122997833165621,1
730,771,41,0.125051944506982,1
730,793,41,0.12986211516337,1
730,794,41,0.147882107451892,1
731,768,41,0.10971113767862,1
731,769,41,0.120770030636217,1
731,770,41,0.127623883577915,1
731,771,41,0.120404188273217,1
731,794,41,0.128459267698677,1
731,796,41,0.2130748953012,1
732,768,41,0.127522615770553,1
732,769,41,0.117461889440673,1
732,770,41,0.112239297022283,1
732,771,41,0.111645911618178,1
732,795,41,0.165246151154076,1
732,796,41,0.208642557633752,1
733,770,41,0.107469492947549,1
733,771,41,0.112553429113784,1
734,770,41,0.122661727554954,1
734,771,41,0.127808650758106,1
735,770,41,0.120407333721138,1
735,771,41,0.11813449105448,1
744,771,41,0.107367488971524,1
744,772,41,0.106040433416846,1
745,772,41,0.110033244930631,1
754,783,41,0.103167914450241,1
755,783,41,0.124384908774426,1
755,784,41,0.110788130123567,1
712,780,42,0.129833248428548,1
713,779,42,0.124649661795193,1
713,780,42,0.111712066411158,1
715,772,42,0.10416229984801,1
715,773,42,0.112424119972827,1
715,783,42,0.107925181349573,1
726,770,42,0.103511972913276,1
727,770,42,0.122333887110633,1
727,771,42,0.117948430002094,1
728,770,42,0.129055765088491,1
728,771,42,0.169926510736328,1
728,772,42,0.136045296145483,1
728,793,42,0.126877877025211,1
728,794,42,0.141435534245629,1
729,770,42,0.124790002312016,1
729,771,42,0.170086861655883,1
729,772,42,0.140078518857206,1
729,792,42,0.104415709178935,1
729,793,42,0.156181026015665,1
729,794,42,0.170595576509741,1
730,769,42,0.108770157971087,1
730,770,42,0.124715771971891,1
730,771,42,0.133264575180265,1
730,793,42,0.133766073350418,1
730,794,42,0.148960471847527,1
730,795,42,0.153831688732542,1
730,796,42,0.159431634514835,1
731,768,42,0.115009834321004,1
731,769,42,0.126598422939337,1
731,770,42,0.127938472986313,1
731,771,42,0.130695190391509,1
731,794,42,0.115226100596689,1
731,795,42,0.185404691098721,1
731,796,42,0.235231296608957,1
731,797,42,0.188685984446228,1
732,768,42,0.124557439939122,1
732,769,42,0.113697691758775,1
732,770,42,0.113808641299455,1
732,771,42,0.137610959579343,1
732,772,42,0.110994915439206,1
732,795,42,0.154931279324609,1
732,796,42,0.233382799405818,1
732,797,42,0.202524438345696,1
733,770,42,0.10852607344322,1
733,771,42,0.137240477122957,1
733,772,42,0.106067002413116,1
733,795,42,0.105174040979699,1
733,796,42,0.174637845172755,1
734,770,42,0.123611463207941,1
734,771,42,0.14860630779649,1
735,770,42,0.12867167466592,1
735,771,42,0.14945971689541,1
736,770,42,0.104175985892688,1
736,771,42,0.113766568144992,1
754,789,42,0.114528826178622,1
754,790,42,0.119352515568629,1
755,789,42,0.11250126152539,1
757,787,42,0.11322028638121,1
758,780,42,0.105651245583992,1
758,781,42,0.106322107162778,1
759,781,42,0.106731271936153,1
712,781,43,0.106094407964685,1
713,780,43,0.124636511145906,1
713,781,43,0.106409209300425,1
714,774,43,0.113801391153537,1
714,782,43,0.121377135547211,1
714,783,43,0.117405472151364,1
715,782,43,0.106065875851981,1
715,783,43,0.124980814998495,1
715,784,43,0.10866029037526,1
727,770,43,0.104810964826218,1
727,771,43,0.10594899234572,1
728,770,43,0.111642331161502,1
728,771,43,0.153037150818472,1
728,772,43,0.137868239372781,1
728,793,43,0.122353049803996,1
728,794,43,0.139028095408529,1
729,770,43,0.115891362832013,1
729,771,43,0.164314429325176,1
729,772,43,0.149317279413307,1
729,793,43,0.145319705111357,1
729,794,43,0.166269503673303,1
729,795,43,0.143472646783331,1
730,769,43,0.106069545541223,1
730,770,43,0.114910239624238,1
730,771,43,0.131329700854072,1
730,772,43,0.114302164309098,1
730,793,43,0.126406182531815,1
730,794,43,0.146308714247077,1
730,795,43,0.158737449774335,1
730,796,43,0.175028048026037,1
730,797,43,0.160913664727018,1
731,769,43,0.117958334816825,1
731,770,43,0.11214289238972,1
731,771,43,0.123677004527036,1
731,772,43,0.109229147978021,1
731,794,43,0.110507170238155,1
731,795,43,0.166548533904493,1
731,796,43,0.242074385872486,1
731,797,43,0.219205596380941,1
731,798,43,0.162230045836092,1
732,770,43,0.10374123368126,1
732,771,43,0.143171330718998,1
732,772,43,0.136287384094706,1
732,795,43,0.140666773388815,1
732,796,43,0.237113992192686,1
732,797,43,0.232675006699135,1
732,798,43,0.15669160359932,1
733,771,43,0.144810744867945,1
733,772,43,0.131960876249512,1
733,796,43,0.171284384988191,1
733,797,43,0.196968015747049,1
734,770,43,0.110177377831472,1
734,771,43,0.146561811264023,1
734,772,43,0.115530930193275,1
735,770,43,0.118838859461476,1
735,771,43,0.156584145282752,1
735,772,43,0.114956160933073,1
736,771,43,0.13290801300404,1
736,772,43,0.105895240879294,1
750,774,43,0.103268100312751,1
753,789,43,0.103105072416242,1
753,790,43,0.122024785504991,1
754,789,43,0.111019264775418,1
754,790,43,0.120458742832729,1
755,789,43,0.111131898580765,1
755,790,43,0.112632344163579,1
756,787,43,0.108014848923467,1
756,788,43,0.103464579267117,1
757,786,43,0.107175917808241,1
757,787,43,0.114937667483948,1
758,780,43,0.124683837867642,1
758,781,43,0.118688201429309,1
711,780,44,0.170866096185031,1
711,781,44,0.112682403632622,1
712,781,44,0.130702585540345,1
713,780,44,0.135170393152436,1
713,781,44,0.113670631983396,1
713,782,44,0.108974567469679,1
713,783,44,0.112176611145272,1
714,782,44,0.137049854055678,1
714,783,44,0.16414311395418,1
714,784,44,0.133927829682874,1
715,782,44,0.113741326483128,1
715,783,44,0.153135875497728,1
715,784,44,0.13957678645157,1
728,771,44,0.122507109827709,1
728,772,44,0.122316531376713,1
728,793,44,0.11024957813074,1
728,794,44,0.128003501218158,1
728,795,44,0.118918744915417,1
729,770,44,0.10345993917373,1
729,771,44,0.142400450588761,1
729,772,44,0.139986553544759,1
729,793,44,0.120453589652092,1
729,794,44,0.148859862130333,1
729,795,44,0.159352496383627,1
730,770,44,0.104235604400272,1
730,771,44,0.125534982690221,1
730,772,44,0.121047532759729,1
730,793,44,0.105765652886571,1
730,794,44,0.137295143223175,1
730,795,44,0.167938409185029,1
730,796,44,0.190947851507375,1
730,797,44,0.160561441484273,1
731,771,44,0.114221509224283,1
731,772,44,0.117316975754887,1
731,794,44,0.106667225262524,1
731,795,44,0.148387766090394,1
731,796,44,0.224787316411805,1
731,797,44,0.235359791502758,1
731,798,44,0.177821663096918,1
732,771,44,0.134735317472959,1
732,772,44,0.14869034256471,1
732,795,44,0.118809078092861,1
732,796,44,0.211899256255493,1
732,797,44,0.254160245268198,1
732,798,44,0.191610090989554,1
733,771,44,0.139859731761555,1
733,772,44,0.14808296995602,1
733,796,44,0.153192850490569,1
733,797,44,0.189804470033965,1
734,771,44,0.132495513163543,1
734,772,44,0.123794724588595,1
735,771,44,0.14358810256855,1
735,772,44,0.130623860109751,1
736,771,44,0.136636763049437,1
736,772,44,0.136054185939785,1
754,789,44,0.111872093862664,1
754,790,44,0.127945433126394,1
755,789,44,0.110363751197836,1
755,790,44,0.120335992285309,1
756,787,44,0.111127526185073,1
756,788,44,0.106526003574121,1
757,787,44,0.107540544377541,1
758,780,44,0.123154826709912,1
758,781,44,0.117101378723441,1
761,784,44,0.147537658596384,1
761,785,44,0.156621779117099,1
761,786,44,0.165815811849924,1
762,784,44,0.164658353939363,1
762,785,44,0.148810962684637,1
712,781,45,0.159427094808084,1
712,782,45,0.117295002235722,1
713,780,45,0.143586931391133,1
713,781,45,0.123818460450922,1
713,782,45,0.123084355291594,1
713,783,45,0.137854720639162,1
713,784,45,0.114355581153404,1
714,779,45,0.11577253851746,1
714,782,45,0.141820048522884,1
714,783,45,0.198726008820996,1
714,784,45,0.172888150727366,1
715,782,45,0.117237804161468,1
715,783,45,0.17698669167677,1
715,784,45,0.170975618004669,1
715,785,45,0.108626326230153,1
716,784,45,0.105717601150243,1
728,794,45,0.107275278269524,1
728,795,45,0.118635676910654,1
729,771,45,0.111666892425056,1
729,772,45,0.116355361016666,1
729,794,45,0.121848651575477,1
729,795,45,0.162195914379926,1
730,771,45,0.110846845151428,1
730,772,45,0.117539053301377,1
730,794,45,0.120231344794542,1
730,795,45,0.169406942971735,1
730,796,45,0.198819256851566,1
730,797,45,0.161669955332855,1
731,772,45,0.118617317310377,1
731,795,45,0.13311845685485,1
731,796,45,0.189874606830164,1
731,797,45,0.224216741082164,1
731,798,45,0.189638787468643,1
732,771,45,0.114258061113778,1
732,772,45,0.143244423343917,1
732,773,45,0.112264750611488,1
732,796,45,0.169564918074243,1
732,797,45,0.249284957147399,1
732,798,45,0.224864792586487,1
732,799,45,0.156294697149582,1
733,771,45,0.121872242434885,1
733,772,45,0.145992340187376,1
733,773,45,0.106355156674092,1
733,796,45,0.132778715017154,1
733,797,45,0.17820768317371,1
733,798,45,0.161508622855083,1
734,771,45,0.111352068781175,1
734,772,45,0.123805410188271,1
735,771,45,0.115996512255959,1
735,772,45,0.139663219344978,1
735,773,45,0.106682985964342,1
736,771,45,0.121135449144532,1
736,772,45,0.160192699062906,1
736,773,45,0.123145200746948,1
737,772,45,0.109127935941012,1
754,789,45,0.114270553672897,1
754,790,45,0.137283331062365,1
755,789,45,0.109971339838566,1
755,790,45,0.128051865268464,1
756,787,45,0.108405297166304,1
756,788,45,0.108609026266587,1
758,780,45,0.114727658641893,1
758,781,45,0.112058522999381,1
758,785,45,0.117888030709566,1
759,785,45,0.107522274009829,1
760,784,45,0.116304018829499,1
760,785,45,0.120965996503333,1
760,786,45,0.131909890992606,1
761,783,45,0.130065108094991,1
761,784,45,0.153434614971743,1
761,785,45,0.160431184247311,1
761,786,45,0.170086303952351,1
761,787,45,0.138324942795233,1
762,783,45,0.149517149205148,1
762,784,45,0.17389251901836,1
762,785,45,0.166641324618167,1
762,786,45,0.160217907262558,1
763,784,45,0.152352101261829,1
763,785,45,0.148860720993772,1
712,780,46,0.199641378782334,1
712,782,46,0.1633477060226,1
712,783,46,0.127206687873678,1
713,780,46,0.15001222263061,1
713,781,46,0.144422627825873,1
713,782,46,0.150630113527916,1
713,783,46,0.159683816897989,1
713,784,46,0.128315870966498,1
714,776,46,0.103698212430792,1
714,777,46,0.155653828866753,1
714,779,46,0.131644100643269,1
714,782,46,0.147694540599969,1
714,783,46,0.213107732885172,1
714,784,46,0.19241967574492,1
715,782,46,0.119753404021587,1
715,783,46,0.186764606545512,1
715,784,46,0.187579366789656,1
715,785,46,0.122876131100842,1
716,784,46,0.107877754241202,1
716,785,46,0.112327793418759,1
728,795,46,0.114053584690761,1
729,795,46,0.152238519360477,1
729,796,46,0.17442001732718,1
730,772,46,0.107817834573711,1
730,773,46,0.108219749201168,1
730,795,46,0.156116800876906,1
730,796,46,0.190119260215634,1
731,772,46,0.113926405977297,1
731,773,46,0.114766039798973,1
731,795,46,0.115448747000782,1
731,796,46,0.155014321380542,1
731,797,46,0.19264869112335,1
731,798,46,0.19061282784156,1
732,772,46,0.129033033092521,1
732,773,46,0.125452353334902,1
732,796,46,0.133287262559952,1
732,797,46,0.222418392580633,1
732,798,46,0.245445792956713,1
732,799,46,0.178727842104047,1
733,772,46,0.133393761626446,1
733,773,46,0.120533809728152,1
733,796,46,0.119163643690441,1
733,797,46,0.168050674906045,1
733,798,46,0.170178090799667,1
734,772,46,0.118461171475454,1
735,772,46,0.135915172757369,1
735,773,46,0.110969417233717,1
736,772,46,0.157656631483159,1
736,773,46,0.127242938603266,1
737,772,46,0.106921839233078,1
754,790,46,0.126457045093944,1
755,790,46,0.117326668642276,1
758,781,46,0.105769188726965,1
758,784,46,0.108112391271235,1
758,785,46,0.11778184395705,1
758,786,46,0.11055726316941,1
759,784,46,0.10926698258564,1
759,785,46,0.115318077063206,1
759,786,46,0.119742573418993,1
760,783,46,0.113746256582352,1
760,784,46,0.122574168100411,1
760,785,46,0.127390027332827,1
760,786,46,0.135284945457933,1
761,783,46,0.134294530909313,1
761,784,46,0.151992560948742,1
761,785,46,0.158567394813321,1
761,786,46,0.161682793668164,1
761,787,46,0.13171375781443,1
762,783,46,0.145804461021476,1
762,784,46,0.177252838956368,1
762,785,46,0.180179600168507,1
762,786,46,0.161671795754511,1
762,787,46,0.125003223526416,1
763,783,46,0.13985547090657,1
763,784,46,0.178945067629807,1
763,785,46,0.181262214265057,1
763,786,46,0.146705564926462,1
764,784,46,0.139728002187269,1
764,785,46,0.141563259508555,1
712,779,47,0.139499711823431,1
712,780,47,0.175587357744329,1
712,781,47,0.211266530444233,1
712,782,47,0.208633701301662,1
712,783,47,0.157368555300678,1
713,777,47,0.132362233173438,1
713,779,47,0.150837266927886,1
713,780,47,0.144708283575024,1
713,781,47,0.163043601440606,1
713,782,47,0.186998574331307,1
713,783,47,0.184171329737439,1
713,784,47,0.138738089571827,1
714,777,47,0.12488383035426,1
714,778,47,0.158664691771535,1
714,779,47,0.133375279331391,1
714,781,47,0.110104653290884,1
714,782,47,0.159385557049011,1
714,783,47,0.212913942061831,1
714,784,47,0.191606945541633,1
714,785,47,0.119947641007753,1
715,778,47,0.103922286555927,1
715,782,47,0.12298184938239,1
715,783,47,0.180799588031093,1
715,784,47,0.182495386007138,1
715,785,47,0.138059096675543,1
716,784,47,0.105565928097648,1
716,785,47,0.118179910430136,1
716,786,47,0.109401835299707,1
729,795,47,0.128539744318362,1
729,796,47,0.154203520831476,1
730,773,47,0.114323535508448,1
730,795,47,0.130250432978714,1
730,796,47,0.16207860701898,1
731,773,47,0.116233614335604,1
731,796,47,0.127343682169308,1
731,797,47,0.160106255015428,1
731,798,47,0.178842795956087,1
732,773,47,0.119510591057773,1
732,796,47,0.111441948282411,1
732,797,47,0.185063488077771,1
732,798,47,0.236031199631005,1
732,799,47,0.189245160315673,1
733,772,47,0.110854184529911,1
733,773,47,0.126997738668334,1
733,796,47,0.112761352144629,1
733,797,47,0.159443692065199,1
733,798,47,0.173631145680997,1
734,772,47,0.108242325040148,1
734,773,47,0.111526518446022,1
735,772,47,0.119948934879948,1
735,773,47,0.108275642249157,1
736,772,47,0.132285169699369,1
736,773,47,0.113990296493937,1
754,790,47,0.113564043684338,1
755,790,47,0.108766644438835,1
758,784,47,0.103758410950049,1
758,785,47,0.104934920013267,1
758,788,47,0.113730272799121,1
759,784,47,0.109314766624272,1
759,785,47,0.111037066672163,1
759,786,47,0.113322100738034,1
759,787,47,0.114816601201195,1
759,788,47,0.122717654065155,1
760,782,47,0.106800549868913,1
760,783,47,0.11340381545956,1
760,784,47,0.119072760322847,1
760,785,47,0.120618759130165,1
760,786,47,0.122142025941513,1
760,787,47,0.113161760972549,1
760,788,47,0.113552220369457,1
761,783,47,0.132607198872886,1
761,784,47,0.140533281471366,1
761,785,47,0.140988691021625,1
761,786,47,0.136993592923358,1
761,787,47,0.118251619950296,1
762,783,47,0.14074621267993,1
762,784,47,0.170846487328842,1
762,785,47,0.175761372400421,1
762,786,47,0.151381217490903,1
762,787,47,0.122087426765718,1
763,783,47,0.139970748226659,1
763,784,47,0.193384502855487,1
763,785,47,0.199294665650486,1
763,786,47,0.152206172555614,1
764,784,47,0.149874826788437,1
764,785,47,0.147253776344465,1
711,782,48,0.165372381771536,1
712,780,48,0.146692905056283,1
712,781,48,0.204176356207834,1
712,782,48,0.235983995604047,1
712,783,48,0.181597594861132,1
713,778,48,0.111594591739153,1
713,779,48,0.122875640321733,1
713,780,48,0.134261358703222,1
713,781,48,0.175103505313933,1
713,782,48,0.229854142233675,1
713,783,48,0.21738623361032,1
713,784,48,0.147082639438599,1
714,778,48,0.124727706827478,1
714,779,48,0.127572630623314,1
714,780,48,0.109357241325278,1
714,781,48,0.121686170228429,1
714,782,48,0.175075162820431,1
714,783,48,0.207366063481296,1
714,784,48,0.176411242018259,1
714,785,48,0.134635477386639,1
715,778,48,0.104285619253032,1
715,782,48,0.122299945273668,1
715,783,48,0.160002767548008,1
715,784,48,0.159620104846479,1
715,785,48,0.14619157419719,1
715,786,48,0.110538613563296,1
716,785,48,0.115318891310363,1
716,786,48,0.123179655671162,1
717,786,48,0.107936101184732,1
717,787,48,0.104000498899272,1
729,796,48,0.119099162008058,1
730,773,48,0.11144886380621,1
730,796,48,0.12144796389579,1
730,797,48,0.122093371885371,1
731,773,48,0.110048559469623,1
731,797,48,0.129514576630295,1
732,773,48,0.105361016665877,1
732,798,48,0.198238999788608,1
733,773,48,0.126789202163604,1
733,797,48,0.137322403771825,1
734,773,48,0.123313783370637,1
735,773,48,0.104259217567822,1
754,790,48,0.106177316171769,1
754,791,48,0.117799790856714,1
755,790,48,0.105045267234132,1
755,791,48,0.11535980444148,1
758,787,48,0.106171794906801,1
758,788,48,0.116635841277039,1
758,789,48,0.112753410446331,1
759,784,48,0.106564128187577,1
759,785,48,0.109483014625842,1
759,786,48,0.109450567434343,1
759,787,48,0.114535987091974,1
759,788,48,0.127619154251963,1
759,789,48,0.128604114460039,1
760,782,48,0.106068831680702,1
760,783,48,0.110919770465288,1
760,784,48,0.115615801516793,1
760,785,48,0.117193210187039,1
760,786,48,0.114764667848284,1
760,787,48,0.110848908654497,1
760,788,48,0.11637870648652,1
760,789,48,0.118554319119389,1
761,782,48,0.120530329658112,1
761,783,48,0.127298563953559,1
761,784,48,0.129400135865504,1
761,785,48,0.126337373070022,1
761,786,48,0.120633025186516,1
761,787,48,0.111767647145169,1
761,788,48,0.102980682220438,1
762,783,48,0.136200538500684,1
762,784,48,0.159499640883542,1
762,785,48,0.163806907956877,1
762,786,48,0.141757262259238,1
762,787,48,0.119061784717335,1
763,783,48,0.134612466538903,1
763,784,48,0.185344079878851,1
763,785,48,0.195714119741715,1
763,786,48,0.153745255839134,1
764,784,48,0.144561261769887,1
764,785,48,0.142662850100623,1
711,782,49,0.166205858546218,1
712,781,49,0.186045670922257,1
712,782,49,0.245412843832035,1
712,783,49,0.199004057493969,1
713,779,49,0.104310916685249,1
713,780,49,0.127919031441184,1
713,781,49,0.186901556224859,1
713,782,49,0.274147715231401,1
713,783,49,0.253836821835851,1
713,784,49,0.155952824884393,1
713,785,49,0.109900199176009,1
714,779,49,0.122205927612223,1
714,780,49,0.122588724162599,1
714,781,49,0.14450384061422,1
714,782,49,0.201425360840878,1
714,783,49,0.208856024237706,1
714,784,49,0.162383983165027,1
714,785,49,0.141427704088038,1
715,778,49,0.10345734027527,1
715,779,49,0.120676771451576,1
715,780,49,0.104290950898799,1
715,782,49,0.123714827980584,1
715,783,49,0.138752087930484,1
715,784,49,0.133933038633864,1
715,785,49,0.141988329986666,1
715,786,49,0.120828344117535,1
716,785,49,0.106562042376367,1
716,786,49,0.130558976880824,1
716,787,49,0.118311026530537,1
717,786,49,0.109789807338861,1
717,787,49,0.11979895724609,1
731,797,49,0.10746534363327,1
732,797,49,0.11095297613359,1
733,773,49,0.106248802610517,1
733,797,49,0.114637009509782,1
733,798,49,0.157995034832378,1
734,773,49,0.114206395458562,1
754,791,49,0.121647197905605,1
754,792,49,0.114242835807351,1
755,792,49,0.119963647099125,1
758,782,49,0.104196899775143,1
758,788,49,0.103063568119382,1
758,789,49,0.104955186959624,1
759,782,49,0.106437685642775,1
759,783,49,0.106032034401652,1
759,784,49,0.107129383025521,1
759,785,49,0.113256860578846,1
759,786,49,0.108541555293271,1
759,787,49,0.108140566453677,1
759,788,49,0.116493872265903,1
759,789,49,0.116912294917911,1
760,782,49,0.106840291822612,1
760,783,49,0.111240617307316,1
760,784,49,0.114364080555234,1
760,785,49,0.119289182755521,1
760,786,49,0.11405339507156,1
760,787,49,0.108888558430956,1
760,788,49,0.108863617929,1
760,789,49,0.10385357748077,1
761,782,49,0.11714808081722,1
761,783,49,0.121992505624552,1
761,784,49,0.122008667872912,1
761,785,49,0.121638006951395,1
761,786,49,0.116695504400905,1
761,787,49,0.10848024136695,1
762,783,49,0.128568644515396,1
762,784,49,0.143622925577096,1
762,785,49,0.15118963517355,1
762,786,49,0.134688392297766,1
762,787,49,0.114504911851164,1
763,784,49,0.160432500427647,1
763,785,49,0.177363186177233,1
763,786,49,0.148445923414723,1
764,785,49,0.133970917857765,1
711,782,50,0.15509988425644,1
712,781,50,0.160917267491836,1
712,782,50,0.227154054045131,1
712,783,50,0.194885528449974,1
713,780,50,0.118000084503239,1
713,781,50,0.186606096047613,1
713,782,50,0.286255503529996,1
713,783,50,0.259057841530281,1
713,784,50,0.15815134797836,1
713,785,50,0.119311624745654,1
714,779,50,0.112036482555792,1
714,780,50,0.130788739581986,1
714,781,50,0.162526086025011,1
714,782,50,0.216729705012309,1
714,783,50,0.203391845803272,1
714,784,50,0.153856383844944,1
714,785,50,0.142401164449282,1
714,786,50,0.11034263654211,1
715,779,50,0.135154186287792,1
715,780,50,0.133718456622845,1
715,781,50,0.117123653402514,1
715,782,50,0.122246483813079,1
715,783,50,0.121632753384123,1
715,784,50,0.118386751516128,1
715,785,50,0.133781967901083,1
715,786,50,0.12603694933134,1
716,779,50,0.107556695471831,1
716,786,50,0.130918126801438,1
716,787,50,0.124320516324607,1
717,786,50,0.105474698953864,1
717,787,50,0.12527955447251,1
754,791,50,0.10609901459586,1
754,792,50,0.118654594214464,1
755,791,50,0.108699530395779,1
755,792,50,0.129534497800462,1
756,792,50,0.108519001762432,1
759,782,50,0.107019024650585,1
759,783,50,0.105479260968757,1
759,785,50,0.103162950888805,1
759,787,50,0.10462954386722,1
759,788,50,0.109706943748059,1
759,789,50,0.106572884133031,1
760,782,50,0.104392932566683,1
760,783,50,0.106362875290976,1
760,784,50,0.105141125317233,1
760,785,50,0.10877628155587,1
760,786,50,0.108374054614435,1
760,787,50,0.111658660720922,1
760,788,50,0.109742536387478,1
761,782,50,0.109795730150372,1
761,783,50,0.111955983627966,1
761,784,50,0.110812881006322,1
761,785,50,0.112997561898623,1
761,786,50,0.110151165765462,1
761,787,50,0.105648457066331,1
762,783,50,0.115625081703567,1
762,784,50,0.125418333419443,1
762,785,50,0.136609948663613,1
762,786,50,0.122718858704784,1
762,787,50,0.103922487329199,1
763,785,50,0.156836037660069,1
763,786,50,0.135684461960202,1
712,782,51,0.202501728657868,1
712,783,51,0.181628201630975,1
713,780,51,0.11285947450407,1
713,781,51,0.184056888972649,1
713,782,51,0.270077126383027,1
713,783,51,0.238077235425221,1
713,784,51,0.155569426014202,1
713,785,51,0.122439884243947,1
714,779,51,0.103124859737562,1
714,780,51,0.136596251464864,1
714,781,51,0.179529150538996,1
714,782,51,0.224617863770606,1
714,783,51,0.197239728907898,1
714,784,51,0.151898342514026,1
714,785,51,0.139103865010403,1
714,786,51,0.116102587467768,1
715,779,51,0.138531426950965,1
715,780,51,0.155959182704659,1
715,781,51,0.137056111489308,1
715,782,51,0.12756804630028,1
715,783,51,0.116788083187237,1
715,784,51,0.115998006901425,1
715,785,51,0.130056530614667,1
715,786,51,0.131557009659693,1
715,787,51,0.103855797140828,1
716,779,51,0.117192897873062,1
716,780,51,0.115578881542967,1
716,786,51,0.125132867289492,1
716,787,51,0.11944005271503,1
717,776,51,0.11824752640637,1
717,787,51,0.121099711502194,1
717,788,51,0.107020441217557,1
718,788,51,0.116243485688123,1
734,799,51,0.117423664440582,1
754,792,51,0.117225980846587,1
754,793,51,0.106240793987795,1
755,792,51,0.129776318051989,1
755,793,51,0.110055686920764,1
756,792,51,0.111325477476764,1
759,782,51,0.103258240114303,1
759,783,51,0.104829212885789,1
760,782,51,0.103750190399986,1
760,783,51,0.106830699321859,1
760,784,51,0.104709050082759,1
760,785,51,0.108172667868986,1
760,786,51,0.109181754331862,1
760,787,51,0.113105444069876,1
760,788,51,0.108560026434255,1
761,782,51,0.105047687667462,1
761,783,51,0.107208588081153,1
761,784,51,0.110199719434969,1
761,785,51,0.117668518599324,1
761,786,51,0.114807064470796,1
761,787,51,0.107982702891876,1
762,783,51,0.104684678438405,1
762,784,51,0.113677569815336,1
762,785,51,0.126865808320776,1
762,786,51,0.116502628211357,1
763,785,51,0.132367330583721,1
712,782,52,0.171985897953103,1
713,781,52,0.17236262668905,1
713,782,52,0.229654796683154,1
713,783,52,0.199634842496938,1
713,784,52,0.146341027589728,1
713,785,52,0.118239607016214,1
714,780,52,0.13580127854204,1
714,781,52,0.180092799190768,1
714,782,52,0.21157520819519,1
714,783,52,0.179683310949344,1
714,784,52,0.144261741510927,1
714,785,52,0.131136980821512,1
714,786,52,0.11833346852067,1
715,779,52,0.131014308352587,1
715,780,52,0.157497619052081,1
715,781,52,0.145725757899023,1
715,782,52,0.12981401881076,1
715,783,52,0.112614051487725,1
715,784,52,0.114499412894338,1
715,785,52,0.127552374831027,1
715,786,52,0.135797575390587,1
715,787,52,0.116330933601959,1
716,777,52,0.108812331512186,1
716,779,52,0.114342263193057,1
716,780,52,0.121011839733673,1
716,786,52,0.113810860959512,1
716,787,52,0.109456802559832,1
717,776,52,0.166120061434836,1
717,787,52,0.109395354784664,1
717,788,52,0.130569785175276,1
718,775,52,0.12015663482938,1
718,776,52,0.104227841167105,1
718,788,52,0.143262158316239,1
718,789,52,0.106794972833592,1
734,799,52,0.114152543605501,1
746,797,52,0.108352281868541,1
755,792,52,0.114291300244292,1
755,793,52,0.104300153007079,1
759,783,52,0.105576747546171,1
760,783,52,0.109241250144668,1
760,784,52,0.107179397878282,1
760,785,52,0.103427023511264,1
761,783,52,0.104366017794223,1
761,784,52,0.109585275145491,1
761,785,52,0.113949182589549,1
761,786,52,0.107902928978641,1
762,785,52,0.112542520432696,1
762,786,52,0.104643386068887,1
713,782,53,0.188850663145193,1
713,783,53,0.163918772131349,1
713,784,53,0.138442551316087,1
713,785,53,0.114759536975789,1
714,780,53,0.132545661865152,1
714,781,53,0.168401771587655,1
714,782,53,0.187564621108267,1
714,783,53,0.160464635305168,1
714,784,53,0.139236899610955,1
714,785,53,0.129438227016747,1
714,786,53,0.125241396396843,1
714,787,53,0.108291536799822,1
715,779,53,0.114471014630482,1
715,780,53,0.137196864706745,1
715,781,53,0.138621417992908,1
715,782,53,0.128284617260558,1
715,783,53,0.109675466960706,1
715,784,53,0.114528826178622,1
715,785,53,0.129621488397402,1
715,786,53,0.144185191124108,1
715,787,53,0.128168927239856,1
716,780,53,0.112042059591113,1
716,786,53,0.108302110858791,1
716,787,53,0.106042363071067,1
717,777,53,0.110799596508187,1
717,788,53,0.145463659547068,1
717,789,53,0.107992819633948,1
718,776,53,0.118043618840956,1
718,788,53,0.151331079943366,1
718,789,53,0.12416621091134,1
734,799,53,0.106192541478196,1
755,792,53,0.103308567281042,1
760,783,53,0.106449018178547,1
760,784,53,0.105335083451633,1
761,784,53,0.105985276537519,1
761,785,53,0.109883758075882,1
761,786,53,0.104437136148639,1
713,783,54,0.143214151196194,1
713,784,54,0.139159412282202,1
713,785,54,0.123979424844363,1
714,781,54,0.154724895555513,1
714,782,54,0.164109495585263,1
714,783,54,0.147331207902864,1
714,784,54,0.142949375867285,1
714,785,54,0.146432089422452,1
714,786,54,0.139304816747096,1
714,787,54,0.118727921074867,1
715,780,54,0.114638950318074,1
715,781,54,0.125186897607684,1
715,782,54,0.12564071212584,1
715,783,54,0.112990010592798,1
715,784,54,0.119487368282695,1
715,785,54,0.140389895893259,1
715,786,54,0.151197498793353,1
715,787,54,0.131959838920943,1
716,786,54,0.108097154810737,1
716,787,54,0.10803400046276,1
716,788,54,0.109900333024856,1
717,777,54,0.12051918674154,1
717,788,54,0.144370114461288,1
717,789,54,0.119444369340369,1
718,788,54,0.137181137467139,1
718,789,54,0.127447258869293,1
734,800,54,0.112205344031247,1
741,798,54,0.113758001818738,1
742,798,54,0.131474793004988,1
743,798,54,0.111071075433552,1
743,799,54,0.106645039816017,1
761,787,54,0.105937570577382,1
761,788,54,0.112184820541265,1
762,788,54,0.103740341355609,1
713,784,55,0.144233811718038,1
713,785,55,0.135000170880362,1
713,786,55,0.111195421013073,1
714,781,55,0.152829908185937,1
714,782,55,0.152406845440542,1
714,783,55,0.139800024021407,1
714,784,55,0.145045627287533,1
714,785,55,0.16113507302927,1
714,786,55,0.147991428498258,1
714,787,55,0.124636477683694,1
715,780,55,0.105448074187241,1
715,781,55,0.118399690238073,1
715,782,55,0.123899918628824,1
715,783,55,0.116644920690542,1
715,784,55,0.119749321631732,1
715,785,55,0.143433830617496,1
715,786,55,0.147053304232809,1
715,787,55,0.126731156379981,1
715,788,55,0.104545988724038,1
716,786,55,0.105156841402768,1
716,787,55,0.107890815657924,1
716,788,55,0.116943504007568,1
717,788,55,0.127382676800274,1
717,789,55,0.11944924366924,1
718,788,55,0.106934276021844,1
718,789,55,0.113603038315303,1
734,800,55,0.116648378452441,1
742,798,55,0.123537946728337,1
742,799,55,0.106980877728988,1
743,798,55,0.117155252884643,1
761,787,55,0.108516302477337,1
761,788,55,0.123573740141028,1
761,789,55,0.107727854685838,1
762,787,55,0.103003871533304,1
762,788,55,0.111983221868475,1
713,784,56,0.157588881658077,1
713,785,56,0.148566431993944,1
713,786,56,0.128560435119403,1
714,782,56,0.144615504015421,1
714,783,56,0.134541772039172,1
714,784,56,0.145037384429328,1
714,785,56,0.169498651740557,1
714,786,56,0.15541364826361,1
714,787,56,0.129298778825576,1
715,781,56,0.11613457734237,1
715,782,56,0.122102752458781,1
715,783,56,0.119879846566389,1
715,784,56,0.119655103197015,1
715,785,56,0.144584629547883,1
715,786,56,0.143267378421299,1
715,787,56,0.121567546687147,1
715,788,56,0.105075896312116,1
716,787,56,0.105620270729818,1
716,788,56,0.117286792839729,1
716,789,56,0.109404802282498,1
717,788,56,0.10943210744743,1
717,789,56,0.115836250568969,1
718,780,56,0.106263090975009,1
718,781,56,0.10597296244353,1
721,776,56,0.109755943580391,1
722,775,56,0.105114199390702,1
722,776,56,0.106140808898557,1
734,800,56,0.110148812256557,1
743,798,56,0.108406903352476,1
761,788,56,0.115827461161303,1
761,789,56,0.106585577465422,1
762,788,56,0.107370076715913,1
714,783,57,0.140168242201453,1
714,784,57,0.148613691791255,1
714,785,57,0.164406104631786,1
714,786,57,0.156766012404576,1
714,787,57,0.128966822529188,1
715,782,57,0.13159411925272,1
715,783,57,0.127945232353123,1
715,784,57,0.123883432912414,1
715,785,57,0.140232288875082,1
715,786,57,0.137883754685044,1
715,787,57,0.114979049086031,1
716,782,57,0.11358596143315,1
716,783,57,0.116724125746174,1
716,788,57,0.11084097811027,1
716,789,57,0.108931557373282,1
717,789,57,0.112879752604498,1
718,780,57,0.111157631021737,1
718,781,57,0.114552562040949,1
720,777,57,0.110151712314924,1
721,776,57,0.121738650130802,1
721,777,57,0.107733643648502,1
722,776,57,0.120153121297127,1
722,777,57,0.103781611416985,1
723,776,57,0.1211689336646,1
723,794,57,0.112214780375011,1
723,795,57,0.104314285214583,1
724,776,57,0.103379886408729,1
724,795,57,0.107774077154581,1
744,779,57,0.107207561906654,1
744,780,57,0.121929050116667,1
714,783,58,0.147241205706851,1
714,784,58,0.151141293431386,1
714,785,58,0.153896438112621,1
714,786,58,0.152315750145605,1
715,782,58,0.135201312236256,1
715,783,58,0.133139192272174,1
715,784,58,0.126408034107542,1
715,785,58,0.130301897860658,1
715,786,58,0.12662556079321,1
715,787,58,0.106226728704715,1
716,781,58,0.103083087743006,1
716,782,58,0.125045352451232,1
716,783,58,0.127015116710395,1
716,784,58,0.108533535516479,1
717,781,58,0.103985853604518,1
717,782,58,0.108570712033931,1
717,789,58,0.106177806950878,1
717,790,58,0.110122555574265,1
718,779,58,0.105322010880841,1
718,780,58,0.116102933243958,1
718,781,58,0.121445599232814,1
718,790,58,0.108990272401144,1
719,780,58,0.104199810987581,1
719,781,58,0.10932428104653,1
719,791,58,0.104611128496589,1
719,792,58,0.102922993367076,1
720,777,58,0.125483517808277,1
720,778,58,0.106634276137847,1
720,792,58,0.108870343833597,1
720,793,58,0.106496869141603,1
721,777,58,0.125280379873738,1
721,778,58,0.134563500168783,1
721,793,58,0.10768742117976,1
722,776,58,0.127969514764911,1
722,777,58,0.121550291339864,1
722,778,58,0.12847303182185,1
722,794,58,0.118047355454622,1
723,777,58,0.105726424020122,1
723,794,58,0.134078197709204,1
723,795,58,0.135465485245351,1
724,776,58,0.106014578281097,1
724,794,58,0.10970297289891,1
724,795,58,0.136753802712688,1
724,796,58,0.116910164490418,1
725,795,58,0.108991833971034,1
744,779,58,0.110719454510621,1
744,780,58,0.12871681518981,1
714,784,59,0.156583409114089,1
714,785,59,0.145699222364965,1
715,782,59,0.135419842788282,1
715,783,59,0.139845566091839,1
715,784,59,0.129980147538908,1
715,785,59,0.120277355335942,1
715,786,59,0.112614776502317,1
716,781,59,0.112069186290915,1
716,782,59,0.124643303974927,1
716,783,59,0.132516382429715,1
716,784,59,0.126963908372076,1
716,785,59,0.108424203316043,1
717,780,59,0.11179283303668,1
717,781,59,0.111802492461856,1
717,782,59,0.11386725594068,1
717,783,59,0.118715896986714,1
717,784,59,0.113308448155567,1
717,790,59,0.111158668350307,1
717,791,59,0.104069174512217,1
718,779,59,0.121018710641189,1
718,780,59,0.121863006864394,1
718,781,59,0.121889575860664,1
718,782,59,0.104650580444451,1
718,790,59,0.115140493104509,1
718,791,59,0.123110578511674,1
718,792,59,0.105568281606554,1
719,778,59,0.116458513861967,1
719,779,59,0.107724999243754,1
719,780,59,0.108728062508483,1
719,781,59,0.11062236947975,1
719,791,59,0.127677333884434,1
719,792,59,0.137118072351727,1
719,793,59,0.125440128473478,1
720,778,59,0.121758682841675,1
720,791,59,0.1059995314398,1
720,792,59,0.144993961632317,1
720,793,59,0.149424258104838,1
720,794,59,0.104659325235835,1
721,777,59,0.136994440632727,1
721,778,59,0.155613629596158,1
721,779,59,0.10906086651424,1
721,792,59,0.106494069469872,1
721,793,59,0.129066160682329,1
721,794,59,0.112440639151448,1
722,777,59,0.129140759106786,1
722,778,59,0.150091650767654,1
722,793,59,0.104422089307342,1
722,794,59,0.129611516658248,1
722,795,59,0.113973018838511,1
723,777,59,0.104324915043906,1
723,794,59,0.144801130059051,1
723,795,59,0.161009121263576,1
723,796,59,0.114878149363,1
724,794,59,0.115603576655369,1
724,795,59,0.157858709780987,1
724,796,59,0.136226951339965,1
725,795,59,0.110669395041578,1
725,796,59,0.113147974541235,1
744,779,59,0.113226119960156,1
744,780,59,0.128516700008415,1
714,784,60,0.154755981950394,1
714,785,60,0.138091053087933,1
715,783,60,0.142699100830211,1
715,784,60,0.132269821698165,1
715,785,60,0.112782890655039,1
716,782,60,0.117131148937985,1
716,783,60,0.135261488447372,1
716,784,60,0.147565789162544,1
716,785,60,0.120760683525018,1
717,781,60,0.112765211453071,1
717,782,60,0.112710902283113,1
717,783,60,0.141272104802577,1
717,784,60,0.152042653879997,1
717,785,60,0.116869965219823,1
717,790,60,0.104520100126077,1
717,791,60,0.108172723639339,1
718,780,60,0.118814075116509,1
718,781,60,0.110550158026411,1
718,782,60,0.106498564560341,1
718,783,60,0.118590703697824,1
718,784,60,0.108518589061819,1
718,790,60,0.1151847970731,1
718,791,60,0.138513178891394,1
718,792,60,0.128289257353946,1
718,793,60,0.106398032921641,1
719,779,60,0.121872967449477,1
719,780,60,0.106623757849231,1
719,781,60,0.103510389035245,1
719,790,60,0.105947408467689,1
719,791,60,0.148039770240422,1
719,792,60,0.167201772051665,1
719,793,60,0.150090591130943,1
720,779,60,0.109523570826698,1
720,791,60,0.120025619115614,1
720,792,60,0.170539895389095,1
720,793,60,0.179274056943405,1
720,794,60,0.117052635434733,1
721,778,60,0.158269380353898,1
721,779,60,0.113101116290467,1
721,792,60,0.110130619967339,1
721,793,60,0.135716831073206,1
721,794,60,0.117664380439115,1
722,777,60,0.13230810246861,1
722,778,60,0.148238758860682,1
722,794,60,0.129509378833375,1
722,795,60,0.123913470824654,1
723,794,60,0.141128005363948,1
723,795,60,0.169928897707446,1
723,796,60,0.125397207609646,1
724,794,60,0.113382433106138,1
724,795,60,0.160671331388242,1
724,796,60,0.143653197724819,1
725,795,60,0.106106454360978,1
725,796,60,0.115322906775795,1
725,797,60,0.103138445395604,1
744,779,60,0.113452525286055,1
744,780,60,0.117938781730989,1
715,784,61,0.137263621819539,1
715,785,61,0.114384459042297,1
716,782,61,0.119618495537167,1
716,783,61,0.143249420367565,1
716,784,61,0.166635011414184,1
716,785,61,0.134806402365163,1
717,781,61,0.116915730371669,1
717,782,61,0.115469839348367,1
717,783,61,0.163009782298419,1
717,784,61,0.183229390779831,1
717,785,61,0.142244784378876,1
717,786,61,0.116056030376907,1
718,780,61,0.113573357333324,1
718,782,61,0.114359730467683,1
718,783,61,0.150178150585486,1
718,784,61,0.133455332096392,1
718,785,61,0.103411630893777,1
718,786,61,0.105116352126336,1
718,790,61,0.106702472125754,1
718,791,61,0.143517831923503,1
718,792,61,0.152442348847396,1
718,793,61,0.127020526434657,1
719,780,61,0.103265345257303,1
719,782,61,0.115360049831034,1
719,783,61,0.12270576382585,1
719,790,61,0.109834869784256,1
719,791,61,0.165731375535161,1
719,792,61,0.199914720437497,1
719,793,61,0.173193683030402,1
720,781,61,0.103122138144325,1
720,782,61,0.116909629095027,1
720,791,61,0.135034112717327,1
720,792,61,0.1848731661704,1
720,793,61,0.186106772921236,1
720,794,61,0.119530266838386,1
721,779,61,0.104801495020243,1
721,792,61,0.107402033128304,1
721,793,61,0.126214109435353,1
721,794,61,0.113322747674131,1
722,778,61,0.127033688238015,1
722,794,61,0.116759640307099,1
722,795,61,0.12092513914257,1
723,794,61,0.124617270374048,1
723,795,61,0.155201386299285,1
723,796,61,0.124855655171817,1
724,795,61,0.141522346377439,1
724,796,61,0.134274832820558,1
725,796,61,0.107194489335861,1
744,779,61,0.106187421759771,1
715,785,62,0.121166769774896,1
716,783,62,0.159145989919754,1
716,784,62,0.18026316646576,1
716,785,62,0.144929680723205,1
716,786,62,0.105437511282342,1
717,782,62,0.131554711921141,1
717,783,62,0.178470629235033,1
717,784,62,0.198724670332519,1
717,785,62,0.162967575295108,1
717,786,62,0.130919219900361,1
717,792,62,0.116240764094886,1
717,793,62,0.104501974761283,1
718,782,62,0.126639748771067,1
718,783,62,0.17093326599844,1
718,784,62,0.157625422393501,1
718,785,62,0.132866430628685,1
718,786,62,0.127099720336218,1
718,791,62,0.150597967496324,1
718,792,62,0.189076555383842,1
718,793,62,0.148818324371261,1
719,782,62,0.131926120165391,1
719,783,62,0.14594032875597,1
719,784,62,0.113519159704073,1
719,790,62,0.114227844736407,1
719,791,62,0.190773781080929,1
719,792,62,0.248168546216802,1
719,793,62,0.192663749118717,1
719,794,62,0.104307726621046,1
720,781,62,0.108592295160624,1
720,782,62,0.136332736545938,1
720,783,62,0.112795695528137,1
720,790,62,0.106536811868574,1
720,791,62,0.151772346132049,1
720,792,62,0.194972708666115,1
720,793,62,0.171473836878052,1
720,794,62,0.111215888732702,1
721,782,62,0.114275974551229,1
721,793,62,0.10816716891216,1
722,795,62,0.109399158322753,1
723,794,62,0.105942299903334,1
723,795,62,0.128836186053825,1
723,796,62,0.114499345969914,1
724,795,62,0.114805502900906,1
724,796,62,0.115197624254339,1
716,784,63,0.181993497444513,1
716,785,63,0.144760451163419,1
716,786,63,0.109247295650956,1
716,791,63,0.103210723773367,1
717,783,63,0.187168763141168,1
717,784,63,0.191086563529883,1
717,785,63,0.169792081876946,1
717,786,63,0.138128017678042,1
717,791,63,0.114245390089528,1
717,792,63,0.14070785383099,1
717,793,63,0.112696368529066,1
718,782,63,0.15498789738719,1
718,783,63,0.180807418188684,1
718,784,63,0.178963259919025,1
718,785,63,0.17107720928008,1
718,786,63,0.145759655119705,1
718,787,63,0.103627897169463,1
718,791,63,0.163565734641447,1
718,792,63,0.223981925587001,1
718,793,63,0.157101281459945,1
719,781,63,0.10968785913319,1
719,782,63,0.149943178933334,1
719,783,63,0.162680045662088,1
719,784,63,0.153565976461699,1
719,785,63,0.145662793170247,1
719,786,63,0.120407980657235,1
719,790,63,0.118978965742815,1
719,791,63,0.216809724315098,1
719,792,63,0.29528717761055,1
719,793,63,0.1971904502238,1
720,781,63,0.108926705352553,1
720,782,63,0.140144182871077,1
720,783,63,0.123015679678649,1
720,784,63,0.106433725947697,1
720,788,63,0.104842296610653,1
720,789,63,0.117430490731815,1
720,790,63,0.119777541430457,1
720,791,63,0.165484714416975,1
720,792,63,0.204265008761299,1
720,793,63,0.150658980262738,1
721,782,63,0.11036903822732,1
721,789,63,0.104114259265753,1
723,795,63,0.103847219660504,1
739,780,63,0.117446586055752,1
739,781,63,0.109684970228893,1
716,784,64,0.174153379268473,1
716,785,64,0.134944166291667,1
716,786,64,0.11139417539785,1
716,790,64,0.10690277692635,1
716,791,64,0.132406749069371,1
716,792,64,0.152424167712249,1
717,783,64,0.185774314691669,1
717,784,64,0.171824755094533,1
717,785,64,0.16665387294764,1
717,786,64,0.140480991188195,1
717,790,64,0.107886855962846,1
717,791,64,0.14245338780803,1
717,792,64,0.164276750874546,1
717,793,64,0.119381906544771,1
718,782,64,0.17536686407587,1
718,783,64,0.175419533597444,1
718,784,64,0.19434874995438,1
718,785,64,0.21025142078321,1
718,786,64,0.162589630765461,1
718,787,64,0.103766631500113,1
718,790,64,0.104935856955201,1
718,791,64,0.178691134057563,1
718,792,64,0.241352918275195,1
718,793,64,0.151646728988475,1
719,781,64,0.125116760811485,1
719,782,64,0.148121942278844,1
719,783,64,0.158915836826119,1
719,784,64,0.191638355404562,1
719,785,64,0.200404183365426,1
719,786,64,0.146983959375625,1
719,787,64,0.107681275286836,1
719,788,64,0.106996716509301,1
719,790,64,0.120940676762974,1
719,791,64,0.22708128488826,1
719,792,64,0.313043298049885,1
719,793,64,0.186227917282483,1
720,782,64,0.117648006263412,1
720,783,64,0.118248820278564,1
720,784,64,0.133137463391225,1
720,785,64,0.134074461095539,1
720,786,64,0.112603064728143,1
720,787,64,0.111084772632301,1
720,788,64,0.131773889409263,1
720,789,64,0.133870386219065,1
720,790,64,0.125689031559863,1
720,791,64,0.165993808509235,1
720,792,64,0.202574319349609,1
720,793,64,0.132858834706578,1
721,787,64,0.109443886146029,1
721,788,64,0.13113815199893,1
721,789,64,0.130540516893911,1
721,790,64,0.109030003200772,1
739,780,64,0.134058109227977,1
739,781,64,0.115405725750314,1
746,780,64,0.110556170070487,1
717,784,65,0.155475307966121,1
717,785,65,0.157434442395962,1
717,786,65,0.138673741738291,1
717,790,65,0.148932720519769,1
717,791,65,0.189789478963021,1
717,792,65,0.181940035983924,1
718,783,65,0.159523499440646,1
718,784,65,0.195163242500828,1
718,785,65,0.221854866623639,1
718,786,65,0.167376957885174,1
718,787,65,0.10468284917082,1
718,790,65,0.132314683370289,1
718,791,65,0.209596766069067,1
718,792,65,0.244146366035016,1
718,793,65,0.145142031920095,1
719,782,65,0.127069147028587,1
719,783,65,0.139121019971051,1
719,784,65,0.211643828037782,1
719,785,65,0.227039345582644,1
719,786,65,0.164123025472953,1
719,787,65,0.127966692785038,1
719,788,65,0.121456206753995,1
719,789,65,0.105629082445625,1
719,790,65,0.122030663700219,1
719,791,65,0.221497980979365,1
719,792,65,0.295292888494719,1
719,793,65,0.176514952567092,1
720,783,65,0.103892047870416,1
720,784,65,0.159297417582795,1
720,785,65,0.160059809465273,1
720,786,65,0.13885394690359,1
720,787,65,0.156511063811903,1
720,788,65,0.169390925726293,1
720,789,65,0.140343896505929,1
720,790,65,0.12197042056468,1
720,791,65,0.1564292263956,1
720,792,65,0.192889039037552,1
720,793,65,0.132336444962112,1
721,786,65,0.106625085183638,1
721,787,65,0.141676261398233,1
721,788,65,0.163218408035714,1
721,789,65,0.143507670565148,1
721,790,65,0.114887786480035,1
728,801,65,0.108322243956301,1
729,801,65,0.119478545412817,1
729,802,65,0.109291209227076,1
739,780,65,0.12600724604122,1
739,781,65,0.1043140509791,1
717,785,66,0.15045829622374,1
718,784,66,0.188089598597121,1
718,785,66,0.208583753373326,1
718,786,66,0.160273398764004,1
718,787,66,0.110601344056589,1
718,790,66,0.15105767136378,1
718,791,66,0.223329613227693,1
718,792,66,0.223997608210324,1
718,793,66,0.136394719716497,1
719,783,66,0.128497068844084,1
719,784,66,0.218595334867955,1
719,785,66,0.230315675368716,1
719,786,66,0.176538141879957,1
719,787,66,0.156635454007707,1
719,788,66,0.138061617495508,1
719,789,66,0.103381793754809,1
719,790,66,0.115799709833545,1
719,791,66,0.188629812546473,1
719,792,66,0.232170820397958,1
719,793,66,0.155046344717356,1
720,784,66,0.178961586808429,1
720,785,66,0.178032508494271,1
720,786,66,0.164494879880029,1
720,787,66,0.207222086737444,1
720,788,66,0.208239248747465,1
720,789,66,0.136772195775177,1
720,790,66,0.106520091916681,1
720,791,66,0.129880017446751,1
720,792,66,0.158234601961635,1
720,793,66,0.125087425605695,1
721,784,66,0.110751444385224,1
721,785,66,0.108160967248882,1
721,786,66,0.114642653469527,1
721,787,66,0.160569862807608,1
721,788,66,0.178539472159038,1
721,789,66,0.136425025326433,1
721,790,66,0.105034648558881,1
729,801,66,0.134443326211682,1
729,802,66,0.122755499826844,1
730,801,66,0.128535494617447,1
730,802,66,0.128146875642196,1
759,797,66,0.113134065415144,1
759,798,66,0.115683774423288,1
760,796,66,0.136308398363796,1
760,797,66,0.145836640515279,1
760,798,66,0.114550955854776,1
718,785,67,0.195293722819203,1
718,786,67,0.166162893066103,1
719,784,67,0.214962253286458,1
719,785,67,0.233476783605051,1
719,786,67,0.207434973329725,1
719,787,67,0.20047648405133,1
719,788,67,0.16010525114907,1
719,789,67,0.109344715303947,1
719,790,67,0.121911962080443,1
719,791,67,0.170670197242339,1
719,792,67,0.183555156567013,1
719,793,67,0.13867025051418,1
720,784,67,0.185092678280642,1
720,785,67,0.196072120793053,1
720,786,67,0.196491692314337,1
720,787,67,0.242588878534937,1
720,788,67,0.22596255391097,1
720,789,67,0.13295210504529,1
720,791,67,0.11534678764104,1
720,792,67,0.130891267799331,1
720,793,67,0.117131505868246,1
721,784,67,0.116144236767547,1
721,785,67,0.118135606461544,1
721,786,67,0.122333162096041,1
721,787,67,0.15927319094136,1
721,788,67,0.169881403674651,1
721,789,67,0.12045372350094,1
729,801,67,0.130197551529799,1
729,802,67,0.130495119826396,1
730,801,67,0.138679218386977,1
730,802,67,0.150333337170334,1
730,803,67,0.105879301712346,1
732,804,67,0.110220889861048,1
732,805,67,0.107518158157762,1
756,801,67,0.121535177574143,1
758,798,67,0.119799637644399,1
758,799,67,0.119489119471786,1
759,797,67,0.132403068226059,1
759,798,67,0.14505859947169,1
759,799,67,0.111773960349153,1
760,796,67,0.133140809612417,1
760,797,67,0.160788081045656,1
760,798,67,0.133932994017581,1
761,797,67,0.109448648934193,1
718,786,68,0.177102359389332,1
718,787,68,0.174366109703765,1
719,785,68,0.217963189068368,1
719,786,68,0.233906036859653,1
719,787,68,0.239209641293119,1
719,788,68,0.182737998197681,1
720,785,68,0.191535827187217,1
720,786,68,0.216558713109361,1
720,787,68,0.246977224547772,1
720,788,68,0.216079690391553,1
720,789,68,0.138547031495794,1
720,791,68,0.110985044086687,1
720,792,68,0.109378344826934,1
721,785,68,0.118443971898524,1
721,786,68,0.128393079443485,1
721,787,68,0.149532318741221,1
721,788,68,0.151411868877029,1
721,789,68,0.112303689472101,1
729,801,68,0.118882628034677,1
729,802,68,0.133067181592107,1
730,801,68,0.130759593995398,1
730,802,68,0.157698883102752,1
730,803,68,0.106497560693983,1
732,804,68,0.111510300427308,1
732,805,68,0.114727134400573,1
732,806,68,0.103025198116372,1
733,805,68,0.10642163493512,1
739,808,68,0.132738805752395,1
739,809,68,0.113469211775736,1
740,808,68,0.126420225506754,1
740,809,68,0.114357544269837,1
758,798,68,0.124212689923707,1
758,799,68,0.123381421655012,1
759,797,68,0.135615117103018,1
759,798,68,0.151142899617558,1
759,799,68,0.115467106601059,1
760,796,68,0.111119350251292,1
760,797,68,0.145101118788978,1
760,798,68,0.13041445358751,1
718,786,69,0.192455881858225,1
718,787,69,0.205853147647504,1
719,785,69,0.191949843981321,1
719,786,69,0.243489324349756,1
719,787,69,0.252019823728206,1
719,788,69,0.196858237383787,1
720,786,69,0.217655916730312,1
720,787,69,0.225430415508763,1
720,788,69,0.19115404565727,1
721,787,69,0.137139644324349,1
721,788,69,0.132822673209555,1
721,789,69,0.112276953164771,1
729,801,69,0.106517883410694,1
729,802,69,0.125649534995718,1
730,801,69,0.110584479101778,1
730,802,69,0.141726086631793,1
730,803,69,0.10627003996102,1
732,804,69,0.10550379992417,1
732,805,69,0.119181311738339,1
732,806,69,0.108146890811732,1
733,805,69,0.116975326571111,1
733,806,69,0.113060861249518,1
734,807,69,0.104282908813866,1
735,807,69,0.103865925036971,1
738,808,69,0.116713741306406,1
738,809,69,0.108101404511652,1
739,808,69,0.162873925717994,1
739,809,69,0.147076270464262,1
740,808,69,0.149992011454606,1
740,809,69,0.136813265063282,1
758,797,69,0.104362905808514,1
758,798,69,0.113535745807118,1
758,799,69,0.107516250811682,1
758,800,69,0.103766352648347,1
759,797,69,0.127891681659968,1
759,798,69,0.136450166601661,1
759,799,69,0.105683358153371,1
760,797,69,0.119544019807488,1
760,798,69,0.115111715602252,1
719,786,70,0.221600531504851,1
719,787,70,0.232248541962194,1
720,787,70,0.19052272525891,1
729,802,70,0.108715536487151,1
730,802,70,0.112358902121781,1
732,805,70,0.112820479873104,1
733,805,70,0.116056989626982,1
733,806,70,0.121377447861189,1
734,806,70,0.114323278964824,1
735,807,70,0.127107003944347,1
736,807,70,0.109074898335108,1
738,808,70,0.130772186941153,1
739,808,70,0.165566105670453,1
740,808,70,0.150499131276362,1
741,808,70,0.106192117623512,1
758,797,70,0.113902737039394,1
758,798,70,0.108950006206125,1
758,800,70,0.10332417182587,1
759,797,70,0.12126130052359,1
759,798,70,0.121194130710181,1
