x,y,z,signal,mito.p
635,825,1,0.22080301545392,1
635,826,1,0.247510656822173,1
635,827,1,0.201695043960869,1
636,825,1,0.250595270442043,1
636,826,1,0.290357435316875,1
637,826,1,0.204961312775221,1
634,825,2,0.161299985963718,1
634,826,2,0.182145984744265,1
634,827,2,0.173993507973956,1
635,824,2,0.189930778729919,1
635,825,2,0.23767281113187,1
635,826,2,0.302138632427061,1
636,824,2,0.165915774631021,1
636,825,2,0.262767216954973,1
636,826,2,0.355857395117605,1
637,825,2,0.179880637613079,1
637,826,2,0.235387230516538,1
638,826,2,0.114067884209325,1
633,826,3,0.129127095370249,1
634,825,3,0.169110155460083,1
634,826,3,0.192873111024674,1
635,824,3,0.215140071480639,1
635,825,3,0.224749972583294,1
635,826,3,0.311946875213879,1
636,824,3,0.157096830985758,1
636,825,3,0.226125046412088,1
636,826,3,0.347029528215828,1
637,825,3,0.154229543278285,1
637,826,3,0.219045022379974,1
638,826,3,0.103476670279693,1
633,826,4,0.124125163931376,1
633,827,4,0.121783522956996,1
634,825,4,0.17330911650748,1
634,826,4,0.205433442277372,1
635,824,4,0.224955207483114,1
635,825,4,0.217021183186336,1
635,826,4,0.327803524347239,1
636,824,4,0.149935527240873,1
636,825,4,0.196687713951806,1
636,826,4,0.327994147414518,1
637,825,4,0.136449854287683,1
637,826,4,0.194312499224792,1
633,826,5,0.114803740557745,1
633,827,5,0.126173653621133,1
634,825,5,0.162835366095783,1
634,826,5,0.1912584031422,1
635,824,5,0.20623265374704,1
635,825,5,0.196985527637958,1
635,826,5,0.304041494570511,1
636,825,5,0.170041174582532,1
636,826,5,0.287859503504654,1
637,826,5,0.164030212451137,1
633,827,6,0.129708055139657,1
634,826,6,0.164414570571403,1
635,825,6,0.17013611803184,1
635,826,6,0.243610323708084,1
636,825,6,0.143108377144292,1
636,826,6,0.230600416484075,1
637,826,6,0.132880384371059,1
634,827,7,0.17934013365789,1
635,826,7,0.187334824944892,1
636,826,7,0.179402083366238,1
635,827,8,0.175633680599707,1
642,827,15,0.17666771871861,1
644,826,16,0.209698312728196,1
674,864,18,0.155768459250744,1
675,864,18,0.185619239647528,1
673,864,19,0.127231003747679,1
674,863,19,0.147567607276059,1
674,864,19,0.193743396232476,1
674,865,19,0.176643324766115,1
675,863,19,0.158448514728415,1
675,864,19,0.239852495000522,1
675,865,19,0.204154137299114,1
676,864,19,0.158418008345208,1
673,863,20,0.153114805458285,1
673,864,20,0.142731994184535,1
674,862,20,0.122699941400974,1
674,863,20,0.179891825145933,1
674,864,20,0.219147706754307,1
674,865,20,0.180042583564736,1
675,862,20,0.11893981495486,1
675,863,20,0.199967501499776,1
675,864,20,0.270524159226232,1
675,865,20,0.204281650634698,1
676,863,20,0.17328080747619,1
676,864,20,0.179571904091768,1
673,863,21,0.171077198126009,1
673,864,21,0.156455471923821,1
674,862,21,0.123041479044044,1
674,863,21,0.202106986097834,1
674,864,21,0.232171511950337,1
674,865,21,0.166613127127583,1
675,862,21,0.129825094802908,1
675,863,21,0.233791083007612,1
675,864,21,0.272122827555123,1
675,865,21,0.173538990749349,1
676,863,21,0.202396902701971,1
676,864,21,0.184171195888592,1
673,863,22,0.176904854260467,1
673,864,22,0.166564774231348,1
674,862,22,0.121108233212164,1
674,863,22,0.216250927684055,1
674,864,22,0.238694747084125,1
674,865,22,0.15154334190769,1
675,862,22,0.131485891305277,1
675,863,22,0.247787344698528,1
675,864,22,0.255980768062166,1
675,865,22,0.140535991910533,1
676,863,22,0.202439979722792,1
676,864,22,0.170014270964143,1
708,888,22,0.214340034609743,1
673,863,23,0.171602142152652,1
673,864,23,0.161371015085568,1
673,865,23,0.108014235449582,1
674,862,23,0.119554437709468,1
674,863,23,0.221187273187551,1
674,864,23,0.230629394759603,1
674,865,23,0.133366356074877,1
675,862,23,0.124427149239948,1
675,863,23,0.23393985600184,1
675,864,23,0.221416333182263,1
675,865,23,0.112509359380676,1
676,863,23,0.174628754605181,1
676,864,23,0.142302227842684,1
679,885,23,0.127762863298119,1
680,884,23,0.106947616290333,1
681,884,23,0.129388591402389,1
686,864,23,0.114388117577468,1
707,888,23,0.169327336369561,1
708,887,23,0.17524461546163,1
708,888,23,0.244497942341664,1
708,889,23,0.176807244988275,1
709,888,23,0.168300191466315,1
672,864,24,0.106303959489843,1
673,863,24,0.157176961829253,1
673,864,24,0.140204069076356,1
673,880,24,0.124096698743097,1
674,862,24,0.113875086098271,1
674,863,24,0.200996821446797,1
674,864,24,0.1977078875609,1
674,865,24,0.107776408355345,1
674,881,24,0.117600010297438,1
675,862,24,0.107950266854448,1
675,863,24,0.190852171889404,1
675,864,24,0.173777554012249,1
676,863,24,0.130302511334544,1
676,864,24,0.108089759661901,1
679,885,24,0.110908393313233,1
680,884,24,0.117409019145828,1
681,884,24,0.131304414575925,1
682,862,24,0.108416395466593,1
707,888,24,0.185406643061084,1
707,889,24,0.149879121105634,1
708,887,24,0.168610475403445,1
708,888,24,0.29441622315851,1
708,889,24,0.234574901859794,1
708,890,24,0.105111923960291,1
709,888,24,0.195580783981255,1
709,889,24,0.157376452382692,1
667,868,25,0.110616446668239,1
667,869,25,0.138934021976732,1
667,870,25,0.118035309058328,1
668,868,25,0.109522343878927,1
668,869,25,0.132412526877964,1
668,870,25,0.108042611405296,1
673,863,25,0.147090090357788,1
673,864,25,0.122433548731822,1
673,881,25,0.147076917400359,1
674,862,25,0.108433617351665,1
674,863,25,0.169476008977153,1
674,864,25,0.158814033623366,1
675,863,25,0.142807161466594,1
675,864,25,0.130025522298281,1
680,884,25,0.11513165908056,1
681,884,25,0.110862572391034,1
682,861,25,0.110626797645795,1
707,888,25,0.182007484649099,1
707,889,25,0.155893663693705,1
708,887,25,0.155293786620487,1
708,888,25,0.310406431133742,1
708,889,25,0.263775433400338,1
708,890,25,0.115955052575381,1
709,888,25,0.209723520927847,1
709,889,25,0.180895368035699,1
666,869,26,0.118146793994399,1
667,868,26,0.158874154064128,1
667,869,26,0.18945590532639,1
667,870,26,0.13144062808661,1
668,868,26,0.140561110877619,1
668,869,26,0.163775118855546,1
668,870,26,0.112685504464261,1
672,881,26,0.11519086488753,1
673,863,26,0.127364183351149,1
673,881,26,0.109615971147899,1
673,882,26,0.12965479445234,1
674,863,26,0.126906888762952,1
674,864,26,0.114507778447319,1
681,860,26,0.112069632453741,1
681,862,26,0.11890230381529,1
703,873,26,0.11705830170262,1
707,883,26,0.173062667316637,1
707,884,26,0.159056300037719,1
707,888,26,0.161975576868456,1
707,889,26,0.148173317928223,1
708,887,26,0.132635463287893,1
708,888,26,0.279962309949137,1
708,889,26,0.254413777293899,1
708,890,26,0.12042820298731,1
709,888,26,0.194239216980672,1
709,889,26,0.179948699752139,1
666,868,27,0.128295815947483,1
666,869,27,0.146819236060379,1
667,868,27,0.213382658418365,1
667,869,27,0.25108192254417,1
667,870,27,0.149822190729076,1
668,868,27,0.165472199549715,1
668,869,27,0.187562903381388,1
668,870,27,0.115261113224436,1
671,877,27,0.103670639568164,1
672,878,27,0.112649220272461,1
672,881,27,0.107381520792392,1
672,882,27,0.113570803051147,1
673,863,27,0.106859175664209,1
677,860,27,0.119227656901858,1
677,861,27,0.11092484556743,1
681,859,27,0.109715465458029,1
681,862,27,0.114976795963761,1
682,860,27,0.11465971919761,1
683,860,27,0.104914162287802,1
684,897,27,0.110597038585321,1
687,864,27,0.124719687050686,1
703,872,27,0.122617088964243,1
703,873,27,0.139266881752842,1
703,874,27,0.104955354270684,1
704,873,27,0.130961237284471,1
704,874,27,0.118494031367567,1
704,875,27,0.109474615610648,1
706,883,27,0.103633775364691,1
707,882,27,0.137260900226303,1
707,883,27,0.205941220189296,1
707,884,27,0.195929928700503,1
707,885,27,0.11729948617212,1
707,888,27,0.131803559237172,1
707,889,27,0.132776138426835,1
708,883,27,0.172551866651569,1
708,884,27,0.167161160080456,1
708,887,27,0.107614060857145,1
708,888,27,0.219536158418499,1
708,889,27,0.222932862934943,1
708,890,27,0.126635621764929,1
709,888,27,0.164434670206701,1
709,889,27,0.165868470217427,1
666,868,28,0.14859066978945,1
666,869,28,0.177373001759398,1
666,870,28,0.107533461542683,1
667,867,28,0.107009365225409,1
667,868,28,0.247663936060941,1
667,869,28,0.301815989779659,1
667,870,28,0.164959346535648,1
668,868,28,0.168539457435665,1
668,869,28,0.192237730544602,1
668,870,28,0.110158750533499,1
669,878,28,0.106436302538015,1
672,878,28,0.120940721379257,1
673,879,28,0.105177811055576,1
673,880,28,0.10432777048599,1
677,860,28,0.11053659467651,1
678,859,28,0.118104743148077,1
678,861,28,0.125999170494074,1
680,892,28,0.102948268491151,1
681,861,28,0.117430858816146,1
684,897,28,0.113823900068093,1
687,863,28,0.122258452130878,1
687,864,28,0.103924550832268,1
689,901,28,0.113144617165972,1
700,868,28,0.126491254628605,1
700,869,28,0.111087873463939,1
701,868,28,0.115375040901977,1
701,869,28,0.137497544989052,1
701,870,28,0.116078751218805,1
702,870,28,0.137879928838814,1
702,871,28,0.112606466719689,1
703,871,28,0.113443211637069,1
703,872,28,0.133599699232716,1
703,873,28,0.155451627874147,1
703,874,28,0.117462759458183,1
704,873,28,0.132046762593459,1
704,874,28,0.116216950154064,1
704,875,28,0.110242874534284,1
705,875,28,0.10762596225052,1
707,882,28,0.126716243387532,1
707,883,28,0.205606932692144,1
707,884,28,0.210641991720824,1
707,885,28,0.11633042051471,1
707,888,28,0.103806429224165,1
707,889,28,0.113617449374573,1
708,882,28,0.11470365508187,1
708,883,28,0.167539729238058,1
708,884,28,0.171380856545177,1
708,885,28,0.104818794983809,1
708,888,28,0.161479109184164,1
708,889,28,0.182778744017737,1
708,890,28,0.131707444610447,1
666,868,29,0.151228284028326,1
666,869,29,0.187347852899403,1
666,870,29,0.110271116641151,1
667,867,29,0.105367642183839,1
667,868,29,0.246979165356063,1
667,869,29,0.312738457299228,1
667,870,29,0.168317826052001,1
668,868,29,0.15586561120604,1
668,869,29,0.181092148149972,1
669,878,29,0.102979176420901,1
669,879,29,0.104787675126717,1
673,880,29,0.121925926976887,1
677,860,29,0.107640395617931,1
678,859,29,0.13041478820963,1
678,861,29,0.106514838349408,1
680,893,29,0.105160801097846,1
684,897,29,0.123469494196805,1
687,863,29,0.106584752064195,1
689,901,29,0.10432724624467,1
691,862,29,0.102973677464075,1
700,868,29,0.140711043895194,1
700,869,29,0.143374970586716,1
701,870,29,0.141552484676315,1
702,871,29,0.130291056103994,1
703,873,29,0.152404793091543,1
703,874,29,0.129763401638185,1
703,875,29,0.109682014400173,1
704,874,29,0.121818680587661,1
704,875,29,0.112528165143779,1
706,884,29,0.103094107964801,1
707,882,29,0.109447243521292,1
707,883,29,0.181114802067447,1
707,884,29,0.202459856276677,1
707,885,29,0.111820539748155,1
708,883,29,0.149360289509704,1
708,884,29,0.160624796605522,1
708,889,29,0.141831849529624,1
708,890,29,0.128138231237448,1
708,891,29,0.104679525257768,1
709,890,29,0.107953746924488,1
666,868,30,0.144527141467792,1
666,869,30,0.175724441272524,1
666,870,30,0.107460748156165,1
667,867,30,0.105592352091,1
667,868,30,0.21753190577291,1
667,869,30,0.272762335041334,1
667,870,30,0.151212634867214,1
668,868,30,0.13360602359077,1
668,869,30,0.153063061724575,1
670,880,30,0.108680166929144,1
671,878,30,0.115671772643276,1
671,880,30,0.114833332307159,1
671,881,30,0.105295040338027,1
673,880,30,0.119964494808494,1
678,859,30,0.134119322767662,1
678,860,30,0.134822263453616,1
689,902,30,0.106816801349839,1
703,874,30,0.135642823814494,1
703,875,30,0.124594716843209,1
704,875,30,0.120422425178717,1
707,883,30,0.147671529752234,1
707,884,30,0.173542749671156,1
707,885,30,0.104462835127399,1
708,884,30,0.138998548275398,1
708,888,30,0.108499827914998,1
708,889,30,0.105515355541356,1
708,890,30,0.113078808149182,1
708,891,30,0.112108961706826,1
709,890,30,0.111896409736665,1
709,891,30,0.116375382573469,1
666,868,31,0.135371824514167,1
666,869,31,0.150728269349569,1
666,870,31,0.105767314843097,1
667,867,31,0.11151572130564,1
667,868,31,0.178669818628565,1
667,869,31,0.204085785154218,1
667,870,31,0.127008680811634,1
668,868,31,0.112737259352041,1
668,869,31,0.118804493769827,1
670,881,31,0.123671539032421,1
670,882,31,0.12211661696859,1
671,879,31,0.131074718799187,1
672,878,31,0.117233967161167,1
672,880,31,0.114201744211104,1
673,879,31,0.126174690949703,1
673,880,31,0.104655086688991,1
678,860,31,0.11606354822052,1
689,903,31,0.118777244375248,1
702,874,31,0.10743722422118,1
702,875,31,0.104170364241085,1
703,874,31,0.138119194808164,1
703,875,31,0.132773539528376,1
703,876,31,0.116980959376785,1
703,877,31,0.130848201932581,1
703,878,31,0.103335459745361,1
704,877,31,0.106451416303736,1
707,884,31,0.130267666017857,1
708,887,31,0.150722023070009,1
708,891,31,0.105018687083791,1
709,891,31,0.135724382379031,1
663,873,32,0.122733481691396,1
663,874,32,0.106414429405485,1
666,868,32,0.119049347928569,1
666,869,32,0.122617523972998,1
667,867,32,0.11111966256527,1
667,868,32,0.132506142992866,1
667,869,32,0.131508110213997,1
671,879,32,0.106203673240697,1
672,879,32,0.132357459231203,1
673,879,32,0.108605278498851,1
681,894,32,0.107716745231479,1
702,874,32,0.125037366136652,1
702,875,32,0.13431287935552,1
702,876,32,0.112531924065586,1
702,877,32,0.108159160289438,1
703,875,32,0.134526702889734,1
703,876,32,0.123553328191753,1
703,877,32,0.158389197380739,1
703,878,32,0.145159175726672,1
704,877,32,0.115548297081265,1
704,878,32,0.11997224688759,1
708,887,32,0.164874330209212,1
709,890,32,0.11815741266965,1
709,891,32,0.137709583871963,1
710,891,32,0.125105405967571,1
663,868,33,0.116879390409516,1
663,872,33,0.11060447835044,1
665,868,33,0.106212351107657,1
665,869,33,0.115823501466225,1
665,870,33,0.118748756878827,1
666,868,33,0.113684351490286,1
666,869,33,0.114857057015415,1
666,870,33,0.113725900403429,1
666,874,33,0.111295573413371,1
666,875,33,0.108420489010519,1
667,867,33,0.117851501128212,1
668,866,33,0.107017284615565,1
679,893,33,0.10614746787873,1
680,894,33,0.108284799741154,1
682,894,33,0.122341761884506,1
701,875,33,0.118580609263893,1
701,876,33,0.104088749906194,1
702,874,33,0.140880886928866,1
702,875,33,0.162635228606247,1
702,876,33,0.139108683568921,1
702,877,33,0.130674365741619,1
702,878,33,0.108768786020398,1
703,876,33,0.121473361714643,1
703,877,33,0.157123132284333,1
703,878,33,0.168198287876926,1
703,879,33,0.111882232912878,1
704,877,33,0.112321000589738,1
704,878,33,0.131200570178245,1
704,879,33,0.103182905521185,1
708,887,33,0.147368551731375,1
709,891,33,0.118327534555088,1
710,891,33,0.119101035891925,1
663,876,34,0.105559213347122,1
664,871,34,0.123110455816897,1
664,872,34,0.110687710025573,1
665,871,34,0.141152087002465,1
665,872,34,0.108930196576664,1
665,873,34,0.121899246439911,1
666,869,34,0.132474755438078,1
666,870,34,0.138944027178098,1
666,871,34,0.104573918516926,1
666,874,34,0.136305498305429,1
666,875,34,0.144004350176783,1
666,876,34,0.107673735135082,1
667,877,34,0.104318724534699,1
669,881,34,0.124500331097433,1
678,892,34,0.123480246720904,1
679,892,34,0.113634437024162,1
682,894,34,0.129948358437577,1
701,874,34,0.105122107626788,1
701,875,34,0.125909168298061,1
701,876,34,0.121222027040858,1
701,877,34,0.115617106543058,1
702,876,34,0.151471665849743,1
702,877,34,0.151675026865695,1
702,878,34,0.133129365535938,1
703,877,34,0.141556890534218,1
703,878,34,0.165142819843645,1
703,879,34,0.122728328510759,1
704,878,34,0.12203780230543,1
704,879,34,0.106351676604051,1
707,886,34,0.105357536595837,1
708,886,34,0.160800763223976,1
708,887,34,0.119171172688125,1
664,878,35,0.112502399240595,1
665,872,35,0.127212543760765,1
665,877,35,0.106161098153055,1
665,879,35,0.109459869929259,1
666,871,35,0.10886188904805,1
667,876,35,0.109057877223307,1
667,877,35,0.127202482789046,1
667,878,35,0.115167184795556,1
669,880,35,0.119599834776982,1
678,891,35,0.109144198576009,1
701,876,35,0.127650196030561,1
701,877,35,0.139383653718397,1
701,878,35,0.113793516379664,1
702,877,35,0.1628774950206,1
702,878,35,0.149556422687879,1
703,878,35,0.143210938823849,1
703,879,35,0.115398219060772,1
707,886,35,0.117158889111673,1
708,886,35,0.140799239131764,1
663,878,36,0.105311592978861,1
664,879,36,0.114396282357178,1
701,876,36,0.122020524650005,1
701,877,36,0.143728989634834,1
701,878,36,0.133566883956886,1
702,877,36,0.153192638563227,1
702,878,36,0.14954670749235,1
702,879,36,0.104817188797637,1
703,878,36,0.114787522539031,1
707,886,36,0.118604623977986,1
708,886,36,0.118998619215287,1
658,825,37,0.268903985849143,2
659,825,37,0.319922838816273,2
659,826,37,0.282482996065469,1
663,878,37,0.103295918564933,1
673,887,37,0.110451277190166,1
673,888,37,0.105905814938263,1
674,887,37,0.106648687197117,1
674,888,37,0.115620118142132,1
677,890,37,0.112086698181824,1
697,876,37,0.106216321956806,1
697,877,37,0.116544333281489,1
698,874,37,0.103909749380525,1
698,875,37,0.114460440571513,1
698,876,37,0.112586779785005,1
698,877,37,0.113715058646765,1
700,877,37,0.106603702830216,1
700,878,37,0.110644978780942,1
700,879,37,0.112881224941823,1
701,876,37,0.112137069964845,1
701,877,37,0.131069130609795,1
701,878,37,0.140214107739935,1
701,879,37,0.12770730487225,1
702,877,37,0.130099172626733,1
702,878,37,0.136000534859995,1
702,879,37,0.112983597002178,1
704,881,37,0.130310497649123,1
704,882,37,0.117171047048673,1
705,882,37,0.121249744906404,1
657,825,38,0.239740775828968,2
658,824,38,0.267532280549683,2
658,825,38,0.304403868017541,2
658,826,38,0.251140526031325,2
658,827,38,0.211554707013349,1
659,824,38,0.257278968036092,2
659,825,38,0.340180348829728,2
659,826,38,0.303347265213729,2
659,827,38,0.229693568232707,1
660,825,38,0.222577918098961,2
660,826,38,0.222170482206536,1
672,888,38,0.103352168543183,1
673,886,38,0.1100182873219,1
674,887,38,0.135398806211051,1
676,890,38,0.11508269271044,1
696,877,38,0.107862930481318,1
697,875,38,0.109312323882802,1
697,876,38,0.129733954891689,1
697,877,38,0.150731169407936,1
697,878,38,0.103911467107404,1
698,874,38,0.13560333840442,1
698,875,38,0.134324401510493,1
698,876,38,0.127784078340481,1
698,877,38,0.129438751258068,1
699,874,38,0.125114853465405,1
699,875,38,0.120354519196646,1
699,876,38,0.107728479313794,1
699,879,38,0.105319356212028,1
700,874,38,0.105372605745274,1
700,876,38,0.105602825763333,1
700,877,38,0.106981558127298,1
700,878,38,0.129310490599751,1
700,879,38,0.162672929365018,1
700,880,38,0.113564590233799,1
701,877,38,0.117861238631883,1
701,878,38,0.14211150438877,1
701,879,38,0.163913942418761,1
701,880,38,0.115461228405831,1
702,878,38,0.120324838214667,1
702,879,38,0.117476545889497,1
703,881,38,0.117712677564997,1
703,882,38,0.114396550054874,1
704,880,38,0.122455544559129,1
708,887,38,0.103160273911851,1
708,888,38,0.108200486121168,1
709,888,38,0.122054354946264,1
709,889,38,0.106215106163106,1
657,824,39,0.248829447210505,2
657,825,39,0.256943074352767,2
657,826,39,0.221813618870403,1
658,823,39,0.235388412848026,2
658,824,39,0.31803746625559,2
658,825,39,0.329913584506942,2
658,826,39,0.295291282308546,2
659,824,39,0.290083825964017,2
659,825,39,0.333019457785457,2
659,826,39,0.335984165145921,2
660,825,39,0.188552046365955,2
660,826,39,0.20700324387144,1
660,827,39,0.184986636531045,1
670,867,39,0.108229430934485,1
687,904,39,0.111195086390954,1
688,904,39,0.109586368244414,1
688,905,39,0.113780834201343,1
689,905,39,0.10425606096583,1
689,906,39,0.107276181749246,1
690,872,39,0.118831620469629,1
690,906,39,0.10373827785254,1
691,872,39,0.110131869223251,1
696,876,39,0.112958768040928,1
696,877,39,0.122346546980812,1
697,874,39,0.121244959810099,1
697,875,39,0.135883350193827,1
697,876,39,0.158700329027237,1
697,877,39,0.170911816720594,1
697,878,39,0.115095285656195,1
698,873,39,0.134962960900699,1
698,874,39,0.172013749667497,1
698,875,39,0.160345375981859,1
698,876,39,0.149110996030846,1
698,877,39,0.139685705951393,1
699,873,39,0.133388017280065,1
699,874,39,0.165141224811543,1
699,875,39,0.145138574158196,1
699,876,39,0.121993766034534,1
699,877,39,0.106745816844271,1
699,878,39,0.110740948404749,1
699,879,39,0.134284771097501,1
700,873,39,0.11636393849699,1
700,874,39,0.14164079145359,1
700,875,39,0.12809172991694,1
700,877,39,0.106358692514485,1
700,878,39,0.14963318500204,1
700,879,39,0.225420042223065,1
700,880,39,0.16406949708794,1
701,873,39,0.112514434482818,1
701,874,39,0.127759037451889,1
701,875,39,0.116882078540541,1
701,878,39,0.146120924313741,1
701,879,39,0.210748468479176,1
701,880,39,0.162955261201119,1
702,879,39,0.125660410214595,1
702,880,39,0.115281893258042,1
702,881,39,0.113032920302559,1
702,882,39,0.114890385378495,1
708,887,39,0.127958639546035,1
708,888,39,0.141571915067374,1
708,889,39,0.112967457061959,1
709,888,39,0.153601468714483,1
709,889,39,0.131599305895569,1
656,825,40,0.284345480473193,1
656,826,40,0.263548559603472,1
657,824,40,0.255433259350614,2
657,825,40,0.277294546257314,2
657,826,40,0.264091740535615,2
658,823,40,0.271426657390049,2
658,824,40,0.337751973802033,2
658,825,40,0.350041015748566,2
658,826,40,0.353527555149964,2
659,824,40,0.304565312036019,2
659,825,40,0.312833356132254,2
659,826,40,0.361459660946592,2
660,825,40,0.16339337078781,2
660,826,40,0.192568203349594,1
667,873,40,0.103601238940627,1
685,887,40,0.140630076496401,1
685,888,40,0.11997397576854,1
686,887,40,0.124170527536679,1
686,888,40,0.10905670604589,1
686,903,40,0.10561943417452,1
687,903,40,0.104677617911688,1
687,904,40,0.134188199153879,1
688,876,40,0.103749721929019,1
688,877,40,0.109234323466799,1
688,904,40,0.13832628128371,1
688,905,40,0.135526821479813,1
689,903,40,0.1033363186088,1
689,904,40,0.1359966197812,1
689,905,40,0.143522951641928,1
689,906,40,0.126470764600835,1
690,871,40,0.107761149586706,1
690,872,40,0.136159190360813,1
690,873,40,0.107259863343896,1
690,904,40,0.123028495705817,1
690,905,40,0.130493346329164,1
691,872,40,0.13895153386764,1
691,873,40,0.129599068715411,1
692,872,40,0.13721882707184,1
692,873,40,0.140345413459537,1
696,875,40,0.12202320162696,1
696,876,40,0.13554360835613,1
696,877,40,0.127793358527256,1
697,873,40,0.119717644071107,1
697,874,40,0.146360391056363,1
697,875,40,0.177067201758667,1
697,876,40,0.194141150391584,1
697,877,40,0.171566549513232,1
697,878,40,0.1185069366273,1
698,872,40,0.119198366312351,1
698,873,40,0.164922828108365,1
698,874,40,0.200322758649736,1
698,875,40,0.196372656072441,1
698,876,40,0.179424012269121,1
698,877,40,0.145507093498149,1
698,878,40,0.111908411516676,1
699,872,40,0.112051841711067,1
699,873,40,0.158219900896529,1
699,874,40,0.197344599480078,1
699,875,40,0.17712593909467,1
699,876,40,0.141214583260274,1
699,877,40,0.113557752788495,1
699,878,40,0.120143361485315,1
699,879,40,0.146719797520602,1
699,880,40,0.117722470839021,1
700,873,40,0.135647586602658,1
700,874,40,0.172743225887509,1
700,875,40,0.1571223849616,1
700,876,40,0.124432837815976,1
700,878,40,0.149954422236541,1
700,879,40,0.240715663911254,1
700,880,40,0.192737700607076,1
700,881,40,0.104784473908443,1
701,873,40,0.125543448629838,1
701,874,40,0.147728995524184,1
701,875,40,0.136691998007258,1
701,876,40,0.12283408025452,1
701,878,40,0.136150579418277,1
701,879,40,0.220347661674015,1
701,880,40,0.195430114795018,1
701,881,40,0.123423494809476,1
702,874,40,0.106814447840933,1
702,875,40,0.110205430319138,1
702,879,40,0.119397990714638,1
702,880,40,0.126895545073109,1
702,883,40,0.112403183782231,1
705,887,40,0.127799415187615,1
705,888,40,0.112097986101314,1
706,887,40,0.107414983004319,1
707,888,40,0.105431588470831,1
708,887,40,0.145665280528,1
708,888,40,0.163382551339287,1
708,889,40,0.125055881893918,1
709,887,40,0.149562189342402,1
709,888,40,0.178930712340891,1
709,889,40,0.147628084647082,1
709,890,40,0.109616763086915,1
710,888,40,0.1137186167953,1
710,889,40,0.10711494965811,1
710,903,40,0.105925836495066,1
712,896,40,0.10615422724554,1
712,897,40,0.106619519302387,1
653,824,41,0.288426085677004,2
653,825,41,0.303031025002876,2
654,824,41,0.245599897596708,2
654,825,41,0.290487179466587,2
655,826,41,0.270681119308312,1
656,825,41,0.265497711140088,2
656,826,41,0.279816236240004,1
657,824,41,0.247946803292432,2
657,825,41,0.303352463010648,2
657,826,41,0.317695683222966,2
658,823,41,0.271854036760783,2
658,824,41,0.319654561109182,2
658,825,41,0.368379445599857,2
658,826,41,0.401665980914404,2
659,823,41,0.320542447440458,1
659,824,41,0.292667688736468,2
659,825,41,0.287074680786114,2
659,826,41,0.345192675862439,2
660,824,41,0.166257747282846,1
660,825,41,0.14677047046353,2
660,826,41,0.170742721009656,1
684,887,41,0.113621587534782,1
685,886,41,0.111875852784471,1
685,887,41,0.171809474017752,1
685,888,41,0.141387460201161,1
685,895,41,0.103084950472803,1
685,896,41,0.10818576274792,1
686,887,41,0.148635330688302,1
686,888,41,0.127777787444639,1
686,895,41,0.107387242830632,1
686,896,41,0.114444702177837,1
686,897,41,0.115927212015058,1
686,903,41,0.117557446363867,1
687,877,41,0.11568937376675,1
687,897,41,0.106469842828437,1
687,898,41,0.107054617290005,1
687,903,41,0.11118824894565,1
688,875,41,0.104962214024129,1
688,877,41,0.138939699398689,1
688,878,41,0.102941799130179,1
688,902,41,0.103545970520594,1
688,903,41,0.116928122544152,1
688,904,41,0.148710687589562,1
688,905,41,0.143436630289227,1
689,872,41,0.103808459265022,1
689,876,41,0.104872780685718,1
689,877,41,0.118133353339274,1
689,902,41,0.129767350179192,1
689,903,41,0.14345162136017,1
689,904,41,0.185005397677865,1
689,905,41,0.181280629635688,1
690,871,41,0.104741954591154,1
690,872,41,0.133907852742353,1
690,873,41,0.114257871494577,1
690,902,41,0.128371864401123,1
690,903,41,0.145917563297789,1
690,904,41,0.189853793334345,1
690,905,41,0.181827145634953,1
691,872,41,0.141405117094987,1
691,873,41,0.147311275578626,1
691,874,41,0.10781000441612,1
691,904,41,0.125498999658329,1
691,905,41,0.123020799397073,1
691,906,41,0.108572307066032,1
692,872,41,0.150343933537444,1
692,873,41,0.180241661417561,1
692,874,41,0.134230896936298,1
693,873,41,0.130519223773054,1
693,874,41,0.123545163412043,1
693,875,41,0.107452795303797,1
694,874,41,0.111798242760941,1
694,875,41,0.112535404135626,1
694,906,41,0.105418103199425,1
694,907,41,0.10334448338851,1
695,874,41,0.103153637239819,1
695,875,41,0.116512421485381,1
695,876,41,0.107861625455053,1
695,906,41,0.110756430254801,1
695,907,41,0.112600175823846,1
695,908,41,0.107530394173256,1
696,874,41,0.111929515018331,1
696,875,41,0.141076529327933,1
696,876,41,0.148525530016898,1
696,877,41,0.125143151342624,1
696,883,41,0.119571280356138,1
696,884,41,0.108201400754961,1
696,906,41,0.103476726050046,1
697,872,41,0.117182814593201,1
697,873,41,0.146265949540234,1
697,874,41,0.163353762682959,1
697,875,41,0.205278021457041,1
697,876,41,0.210341322592588,1
697,877,41,0.154904699174269,1
697,878,41,0.115463492682171,1
698,872,41,0.137773719778157,1
698,873,41,0.183329476255705,1
698,874,41,0.206964249240475,1
698,875,41,0.218575837552472,1
698,876,41,0.194464016120398,1
698,877,41,0.141786552848745,1
698,878,41,0.122532853422751,1
698,879,41,0.120255649514472,1
698,880,41,0.115835625941013,1
699,872,41,0.119557159302705,1
699,873,41,0.170259069352531,1
699,874,41,0.211217921004373,1
699,875,41,0.202675932933161,1
699,876,41,0.155849426649538,1
699,877,41,0.121389672722613,1
699,878,41,0.132267189337494,1
699,879,41,0.158771324686876,1
699,880,41,0.145777122394331,1
699,881,41,0.111522525288732,1
700,873,41,0.147446440606671,1
700,874,41,0.19955379701965,1
700,875,41,0.196404400557489,1
700,876,41,0.143254975094745,1
700,877,41,0.108151486288836,1
700,878,41,0.141609738520922,1
700,879,41,0.220433949564505,1
700,880,41,0.201474081821444,1
700,881,41,0.126045671814583,1
701,873,41,0.12850551247556,1
701,874,41,0.164996065736203,1
701,875,41,0.167640216260476,1
701,876,41,0.134581067830045,1
701,878,41,0.121719822059557,1
701,879,41,0.203860874473784,1
701,880,41,0.207341435293318,1
701,881,41,0.139252080301099,1
701,882,41,0.103260180922595,1
701,884,41,0.10653449182188,1
701,885,41,0.113599000541731,1
702,874,41,0.110112260367062,1
702,875,41,0.118239763173203,1
702,879,41,0.113781737681065,1
702,880,41,0.134801784579917,1
702,883,41,0.138610375462972,1
702,884,41,0.11606112778719,1
702,885,41,0.10403780926557,1
703,884,41,0.108237038010663,1
704,886,41,0.106917332988539,1
704,887,41,0.129483713316827,1
704,888,41,0.117918827098609,1
705,886,41,0.113078986614312,1
705,887,41,0.162617348631007,1
705,888,41,0.156541960587582,1
706,887,41,0.116398348804922,1
706,888,41,0.116842938906657,1
707,888,41,0.105116296355983,1
708,887,41,0.143175279260005,1
708,888,41,0.159337036841717,1
708,889,41,0.120775685750032,1
709,887,41,0.146342957243949,1
709,888,41,0.178555757102176,1
709,889,41,0.147295236025043,1
709,890,41,0.113701327985804,1
710,888,41,0.11050047779577,1
710,889,41,0.106039173006863,1
711,895,41,0.104191780056718,1
711,896,41,0.111139695276144,1
711,897,41,0.103685128705929,1
652,824,42,0.254618432182046,2
652,825,42,0.266967884575179,2
653,823,42,0.260884811377081,2
653,824,42,0.347807256945439,2
653,825,42,0.379539918678794,2
653,826,42,0.234501329609837,2
654,823,42,0.223758509552034,2
654,824,42,0.299622787177387,2
654,825,42,0.349748355243051,2
654,826,42,0.265114903435641,2
655,824,42,0.224411022684613,2
655,825,42,0.282769811837967,2
655,826,42,0.287582815628299,1
656,825,42,0.251697917249467,2
656,826,42,0.297750888734041,2
657,824,42,0.240388046548346,2
657,825,42,0.33923684830223,2
657,826,42,0.384146282156405,2
658,823,42,0.254703225427069,2
658,824,42,0.296472453773293,2
658,825,42,0.386261272415332,2
658,826,42,0.434977300573917,2
659,824,42,0.27029005759159,2
659,825,42,0.262736454028141,2
659,826,42,0.302610025760549,2
660,825,42,0.132928648034729,1
660,826,42,0.143637024322388,1
681,885,42,0.121569264414026,1
681,886,42,0.114302922785901,1
682,884,42,0.109944458528318,1
682,887,42,0.115896638707427,1
683,884,42,0.106500906915176,1
683,888,42,0.105060325229499,1
684,885,42,0.115488031637584,1
684,888,42,0.124154978762203,1
685,886,42,0.130179548859782,1
685,887,42,0.182774583549388,1
685,888,42,0.148745934452792,1
685,894,42,0.107203914525554,1
685,895,42,0.123059214016366,1
685,896,42,0.116970943021349,1
685,897,42,0.106610038342341,1
686,877,42,0.113446490933838,1
686,886,42,0.109041960364501,1
686,887,42,0.151906217287899,1
686,888,42,0.127176069949765,1
686,894,42,0.131163070192745,1
686,895,42,0.155314008950562,1
686,896,42,0.143512143347476,1
686,897,42,0.143380090305141,1
686,898,42,0.127230178346451,1
687,894,42,0.106654766165617,1
687,895,42,0.122154328881431,1
687,896,42,0.117714027207545,1
687,897,42,0.142185957810308,1
687,898,42,0.146825326182949,1
687,899,42,0.106302386765883,1
687,904,42,0.139531077070077,1
688,878,42,0.111694498749896,1
688,885,42,0.107558814745253,1
688,886,42,0.11168830824069,1
688,901,42,0.112530474036402,1
688,902,42,0.123549323880392,1
688,903,42,0.129878199333236,1
688,904,42,0.153735518335463,1
688,905,42,0.142630257906206,1
689,877,42,0.121944442734154,1
689,878,42,0.107588138796972,1
689,885,42,0.114544129563543,1
689,886,42,0.118031260130685,1
689,901,42,0.142693122248347,1
689,902,42,0.171093962694185,1
689,903,42,0.175964967651857,1
689,904,42,0.221899772912045,1
689,905,42,0.198331823964494,1
689,906,42,0.13884178896659,1
690,872,42,0.115649721045616,1
690,873,42,0.112311207315714,1
690,901,42,0.134254409717212,1
690,902,42,0.170582782790715,1
690,903,42,0.181984429185081,1
690,904,42,0.238958451622252,1
690,905,42,0.209773513472467,1
690,906,42,0.137079178107397,1
691,872,42,0.125814894092992,1
691,873,42,0.14909040561644,1
691,874,42,0.120915903572078,1
691,902,42,0.105754788821765,1
691,903,42,0.118436465208981,1
691,904,42,0.150607861156984,1
691,905,42,0.140015085657462,1
692,872,42,0.139806828004498,1
692,873,42,0.20478991932573,1
692,874,42,0.174405751270828,1
692,875,42,0.115528788611712,1
692,905,42,0.106033261349423,1
692,906,42,0.103491014414539,1
693,873,42,0.157973819790016,1
693,874,42,0.161412831696407,1
693,875,42,0.12099163971174,1
693,905,42,0.109374965143529,1
693,906,42,0.10884156633134,1
693,907,42,0.103308957673514,1
694,874,42,0.124257573903972,1
694,875,42,0.118070176683156,1
694,905,42,0.121031917060829,1
694,906,42,0.127703679799291,1
695,874,42,0.110693800148144,1
695,875,42,0.124798222862079,1
695,876,42,0.1134012165611,1
695,883,42,0.115342638326761,1
695,884,42,0.104181852933846,1
695,905,42,0.129961386392087,1
696,874,42,0.129886687580995,1
696,875,42,0.160447926507345,1
696,876,42,0.15818086164928,1
696,877,42,0.123221483436071,1
696,878,42,0.105037671312025,1
696,882,42,0.106398401005972,1
696,883,42,0.140907913242032,1
696,884,42,0.133595639151002,1
696,905,42,0.11772714439462,1
696,906,42,0.121236170402433,1
697,872,42,0.121811218514401,1
697,873,42,0.155510231361303,1
697,874,42,0.175820132044565,1
697,875,42,0.223757349528687,1
697,876,42,0.21574105280685,1
697,877,42,0.143660715568432,1
697,878,42,0.115950825182608,1
697,879,42,0.124078049136983,1
697,880,42,0.127530356695579,1
697,881,42,0.109787554216591,1
697,883,42,0.118463391135512,1
697,884,42,0.127710762634149,1
697,885,42,0.113862816620565,1
698,872,42,0.138933018110374,1
698,873,42,0.177029880238297,1
698,874,42,0.196869703768407,1
698,875,42,0.226489382975551,1
698,876,42,0.20418775566803,1
698,877,42,0.143358105631904,1
698,878,42,0.131922918947116,1
698,879,42,0.155001527661515,1
698,880,42,0.166249526732783,1
698,881,42,0.134697360170563,1
698,884,42,0.113466735572053,1
698,885,42,0.116249263496715,1
699,872,42,0.116316656391537,1
699,873,42,0.162425197456051,1
699,874,42,0.201984425169615,1
699,875,42,0.215338056234541,1
699,876,42,0.17400729440527,1
699,877,42,0.134970456436171,1
699,878,42,0.141075402766798,1
699,879,42,0.175622872305255,1
699,880,42,0.191116300282216,1
699,881,42,0.154659053076511,1
699,885,42,0.105614013296188,1
700,873,42,0.144299408807486,1
700,874,42,0.205976801674645,1
700,875,42,0.228450424751472,1
700,876,42,0.165378773054014,1
700,877,42,0.11630768851874,1
700,878,42,0.130759326297703,1
700,879,42,0.188885419229314,1
700,880,42,0.204945607843757,1
700,881,42,0.154388098392466,1
700,884,42,0.111095290920917,1
700,885,42,0.129793383780072,1
700,886,42,0.106205346351294,1
701,873,42,0.121676867733513,1
701,874,42,0.173093608708599,1
701,875,42,0.200025837289236,1
701,876,42,0.147362149294826,1
701,878,42,0.108958360605036,1
701,879,42,0.171820148463357,1
701,880,42,0.196725793948979,1
701,881,42,0.149075247234437,1
701,882,42,0.110693510142307,1
701,883,42,0.119521633587709,1
701,886,42,0.117217302979627,1
702,874,42,0.118141361961996,1
702,875,42,0.131335500970806,1
702,879,42,0.108984762290247,1
702,880,42,0.139349232256394,1
702,886,42,0.104283600366246,1
702,907,42,0.116382543486821,1
703,885,42,0.123781451244531,1
703,886,42,0.105882692549821,1
704,885,42,0.110092974978921,1
704,886,42,0.118760401728578,1
704,887,42,0.142795929317457,1
704,888,42,0.134587492574735,1
705,884,42,0.115288853398123,1
705,886,42,0.109900600722552,1
705,887,42,0.158947224380907,1
705,888,42,0.166204977374637,1
705,889,42,0.10545639512394,1
706,887,42,0.115562841989383,1
706,888,42,0.1234466618142,1
706,896,42,0.108031089250322,1
707,887,42,0.108928657314915,1
707,888,42,0.111174194816641,1
708,887,42,0.131844706603772,1
708,888,42,0.144567429970952,1
708,889,42,0.114224453898932,1
709,887,42,0.126680550361477,1
709,888,42,0.157372180373636,1
709,889,42,0.136153747174339,1
709,890,42,0.111196804117833,1
710,888,42,0.103881116881186,1
710,890,42,0.105583038442014,1
711,895,42,0.11343334028455,1
652,824,43,0.255306638340681,2
652,825,43,0.276800867090682,2
653,823,43,0.272479222420289,2
653,824,43,0.361085843423083,2
653,825,43,0.393407060847954,2
653,826,43,0.259870571733568,2
654,823,43,0.261217224990365,2
654,824,43,0.334364861786341,2
654,825,43,0.363136028531577,2
654,826,43,0.300021902133113,2
655,824,43,0.232958141628321,2
655,825,43,0.261298672014196,2
655,826,43,0.290201032938328,2
656,825,43,0.239123576484042,2
656,826,43,0.295334180864237,2
657,824,43,0.238567836068356,2
657,825,43,0.347027542791254,2
657,826,43,0.405367481565221,2
658,824,43,0.279702152405473,2
658,825,43,0.37151880339844,2
658,826,43,0.415493771522337,2
659,825,43,0.24163047616906,2
659,826,43,0.2529017760939,2
660,826,43,0.122701313351663,1
681,884,43,0.120039862863825,1
681,887,43,0.112409954303111,1
682,888,43,0.113754465978345,1
684,889,43,0.107709640088479,1
684,897,43,0.109303634861771,1
685,878,43,0.104620854846189,1
685,879,43,0.104539965525891,1
685,885,43,0.125780394552495,1
685,888,43,0.150260043772142,1
685,894,43,0.122769342028511,1
685,895,43,0.130634601479779,1
685,896,43,0.115984967792844,1
685,897,43,0.109422593025172,1
686,878,43,0.109509126305216,1
686,879,43,0.106058670322346,1
686,885,43,0.112748580733743,1
686,886,43,0.133969724372207,1
686,887,43,0.146182862868019,1
686,888,43,0.117208915118504,1
686,893,43,0.111338873515605,1
686,894,43,0.18312987416156,1
686,896,43,0.157115558670367,1
686,897,43,0.151746725231784,1
686,898,43,0.136257379644678,1
686,899,43,0.10521034747964,1
687,879,43,0.106245802165514,1
687,885,43,0.116055082280902,1
687,886,43,0.128307538875729,1
687,887,43,0.116413808346832,1
687,894,43,0.156105892195818,1
687,895,43,0.164796195944362,1
687,896,43,0.136226482868998,1
687,897,43,0.158282118302572,1
687,898,43,0.164113466434412,1
687,899,43,0.120519978680556,1
687,901,43,0.106302208300752,1
687,904,43,0.138665331569027,1
688,879,43,0.112969810570864,1
688,885,43,0.131046632849309,1
688,886,43,0.136703620548868,1
688,887,43,0.104888809085231,1
688,898,43,0.109800504092607,1
688,899,43,0.10424738309887,1
688,900,43,0.114136604438553,1
688,901,43,0.131780581851649,1
688,902,43,0.142106841987241,1
688,903,43,0.156254988658095,1
688,904,43,0.165661305663386,1
688,905,43,0.136956360635554,1
689,878,43,0.116916098456,1
689,879,43,0.114428361464346,1
689,880,43,0.107349787461415,1
689,885,43,0.131297298278856,1
689,886,43,0.136309870701121,1
689,900,43,0.120706831671957,1
689,901,43,0.180238672126629,1
689,902,43,0.198720944872924,1
689,903,43,0.211337314176529,1
689,904,43,0.24592358872675,1
689,905,43,0.192024799336038,1
689,906,43,0.129615543277749,1
690,886,43,0.109820882579671,1
690,901,43,0.168912416095734,1
690,902,43,0.195614803896715,1
690,903,43,0.204614354253819,1
690,904,43,0.25257812958014,1
690,905,43,0.202045036389486,1
690,906,43,0.128392254042258,1
691,873,43,0.119740309142653,1
691,874,43,0.115267593739479,1
691,887,43,0.105901955629821,1
691,902,43,0.124542750028086,1
691,903,43,0.134660819435138,1
691,904,43,0.161772505858341,1
691,905,43,0.144523393700056,1
692,872,43,0.104482031282974,1
692,873,43,0.172510708130898,1
692,874,43,0.175660439215178,1
692,875,43,0.118488766646223,1
692,887,43,0.104551141904674,1
692,904,43,0.121898443346824,1
692,905,43,0.123712162157701,1
693,873,43,0.143430941713199,1
693,874,43,0.162968423004477,1
693,875,43,0.119463097024977,1
693,904,43,0.116565213701732,1
693,905,43,0.126879538981737,1
693,906,43,0.111629905526806,1
694,874,43,0.115360417915365,1
694,875,43,0.110122812117889,1
694,883,43,0.105277271903494,1
694,884,43,0.10689704373404,1
694,904,43,0.117341458939947,1
694,905,43,0.144951241541757,1
695,874,43,0.111467602644889,1
695,875,43,0.127116585291029,1
695,876,43,0.116281152984682,1
695,877,43,0.102993230549911,1
695,880,43,0.106499122263873,1
695,881,43,0.105887410721703,1
695,882,43,0.112055924100922,1
695,883,43,0.13184970362742,1
695,884,43,0.126538079417161,1
695,885,43,0.106515819907625,1
695,904,43,0.125820816904503,1
696,873,43,0.105594549442917,1
696,874,43,0.151106448114699,1
696,875,43,0.182292080761539,1
696,876,43,0.163217694175193,1
696,877,43,0.123480782116295,1
696,878,43,0.112881325328458,1
696,879,43,0.122032693741076,1
696,880,43,0.12719978350395,1
696,881,43,0.116634915489176,1
696,882,43,0.120555727476964,1
696,883,43,0.150911274186598,1
696,884,43,0.148030289280376,1
696,885,43,0.126240667277553,1
696,904,43,0.11833556548595,1
696,905,43,0.142687400210107,1
697,872,43,0.112087032803943,1
697,873,43,0.150156533996581,1
697,874,43,0.185997775342919,1
697,875,43,0.229624926081974,1
697,876,43,0.204917075731053,1
697,877,43,0.137293180106742,1
697,878,43,0.123380462404937,1
697,879,43,0.153051784959155,1
697,880,43,0.16703379174779,1
697,881,43,0.133700677034241,1
697,882,43,0.113070911067167,1
697,883,43,0.133141880403199,1
697,901,43,0.104978365118419,1
697,902,43,0.103288512262027,1
698,872,43,0.128158308564604,1
698,873,43,0.160681135816337,1
698,874,43,0.180567973754204,1
698,875,43,0.215063108393206,1
698,876,43,0.200507425443292,1
698,877,43,0.14679355938976,1
698,878,43,0.138830199887192,1
698,879,43,0.186983594414434,1
698,880,43,0.218016973997006,1
698,881,43,0.162470951453826,1
698,882,43,0.110061107799096,1
698,883,43,0.113750874367598,1
698,886,43,0.11853610452203,1
699,872,43,0.108336086157968,1
699,873,43,0.148365457949109,1
699,874,43,0.183208499205518,1
699,875,43,0.21741592574637,1
699,876,43,0.197454846314307,1
699,877,43,0.153817578833179,1
699,878,43,0.143000539589321,1
699,879,43,0.193973214703992,1
699,880,43,0.246875923278197,1
699,881,43,0.195316387890748,1
699,882,43,0.117967849239083,1
699,884,43,0.11626340685829,1
699,885,43,0.12813288843761,1
699,886,43,0.108468942293389,1
700,873,43,0.132110742342664,1
700,874,43,0.19708557965162,1
700,875,43,0.248507317650353,1
700,876,43,0.193572716643506,1
700,877,43,0.130761869425809,1
700,878,43,0.119387416655669,1
700,879,43,0.165224021477922,1
700,880,43,0.214718402994074,1
700,881,43,0.179729533418086,1
700,882,43,0.117338603497863,1
700,883,43,0.103709020725245,1
700,886,43,0.121536549524832,1
701,873,43,0.110382423112091,1
701,874,43,0.171788058202119,1
701,875,43,0.217756102592822,1
701,876,43,0.156083628670816,1
701,879,43,0.135947318788961,1
701,880,43,0.170475201779369,1
701,881,43,0.14661663352123,1
701,882,43,0.115027959685798,1
702,874,43,0.128786896215656,1
702,875,43,0.140138159672931,1
702,880,43,0.134993645749036,1
703,886,43,0.12906911651105,1
703,887,43,0.109851511657655,1
704,885,43,0.120454325820754,1
704,886,43,0.126061399054188,1
704,887,43,0.140909831742183,1
704,888,43,0.132127283829426,1
705,887,43,0.138462874032797,1
705,888,43,0.152478655347337,1
705,889,43,0.10632613378228,1
705,895,43,0.105203365031417,1
705,896,43,0.135005736761613,1
705,897,43,0.133611388698749,1
705,898,43,0.116656409383304,1
705,899,43,0.108061238703269,1
705,900,43,0.106098434584187,1
705,901,43,0.104883176279557,1
706,887,43,0.1207763438402,1
706,888,43,0.140671123476365,1
706,889,43,0.10857608829598,1
706,895,43,0.118436420592699,1
706,896,43,0.150231968976336,1
706,897,43,0.147737751469638,1
706,898,43,0.131122971308786,1
706,899,43,0.119455266867386,1
706,900,43,0.114856978936921,1
707,888,43,0.138351266401949,1
707,889,43,0.109955378363477,1
707,895,43,0.104190530800806,1
707,896,43,0.118959468427332,1
707,897,43,0.117388952972743,1
707,898,43,0.111761200092338,1
707,899,43,0.105690730994066,1
707,900,43,0.10438142156578,1
707,901,43,0.108870934999341,1
708,888,43,0.131979782399251,1
708,889,43,0.111666892425056,1
709,888,43,0.122916765380192,1
709,890,43,0.103385318441132,1
711,895,43,0.114987983496616,1
652,823,44,0.232992920020584,2
652,824,44,0.257722810815094,2
652,825,44,0.275933548865671,2
652,826,44,0.209223684714221,2
653,822,44,0.275280388796994,2
653,823,44,0.285215141053039,2
653,824,44,0.35412304867342,2
653,825,44,0.364515229366509,2
653,826,44,0.286614419215126,2
653,827,44,0.261696560022151,2
654,822,44,0.272248712396393,2
654,823,44,0.303739643110786,2
654,824,44,0.358855497765572,2
654,825,44,0.347263228303927,2
654,826,44,0.321862375543995,2
654,827,44,0.305212270441418,2
655,823,44,0.240665626750353,2
655,824,44,0.252763599466782,2
655,825,44,0.253095410760252,2
655,826,44,0.292083817754621,2
655,827,44,0.292679757440903,2
656,825,44,0.232411413701714,2
656,826,44,0.280648798380893,2
656,827,44,0.269326591277642,2
657,824,44,0.23458681440724,2
657,825,44,0.323662910243372,2
657,826,44,0.369672403160582,2
658,824,44,0.266741278476008,2
658,825,44,0.3368036993323,2
658,826,44,0.360381307705027,2
659,825,44,0.234316618199999,2
659,826,44,0.219950621375429,1
683,896,44,0.106524118536183,1
684,897,44,0.116559346660574,1
685,893,44,0.10492819410867,1
685,894,44,0.130142896583651,1
685,896,44,0.115452305149317,1
685,897,44,0.113880529284745,1
685,898,44,0.110043261286068,1
686,888,44,0.12484112141777,1
686,893,44,0.133136526449291,1
686,897,44,0.143391645922326,1
686,898,44,0.129702756956102,1
686,899,44,0.111896733204714,1
687,879,44,0.120057999382689,1
687,894,44,0.180950625301662,1
687,896,44,0.144043077110053,1
687,897,44,0.156717759894977,1
687,898,44,0.157777954309536,1
687,899,44,0.132452257677592,1
687,900,44,0.122835887213964,1
687,904,44,0.134670311549255,1
688,879,44,0.125596999322993,1
688,898,44,0.116847813235527,1
688,899,44,0.124123602361486,1
688,900,44,0.144767344379076,1
688,901,44,0.14760529688076,1
688,902,44,0.148989706666681,1
688,903,44,0.176689346461585,1
688,904,44,0.172855179294547,1
688,905,44,0.125510031034194,1
689,900,44,0.147036138118091,1
689,901,44,0.195905925140481,1
689,902,44,0.194774166208681,1
689,903,44,0.228638906237187,1
689,904,44,0.249420456797563,1
689,905,44,0.169997149465707,1
689,906,44,0.115070925165912,1
690,877,44,0.107634004335453,1
690,901,44,0.181234786405347,1
690,902,44,0.190964939543599,1
690,903,44,0.205983583349596,1
690,904,44,0.232190250789017,1
690,905,44,0.170804358404026,1
690,906,44,0.1144142069487,1
691,874,44,0.10354189928481,1
691,879,44,0.103676171987203,1
691,880,44,0.107764384267192,1
691,902,44,0.136506093111862,1
691,903,44,0.149063100451508,1
691,904,44,0.163379394737295,1
691,905,44,0.140554217661962,1
692,873,44,0.128317254071258,1
692,874,44,0.151740088559752,1
692,875,44,0.113423178926195,1
692,881,44,0.105304409757367,1
692,903,44,0.115727598766842,1
692,904,44,0.137188398767127,1
693,873,44,0.115304725640647,1
693,874,44,0.141996662077436,1
693,875,44,0.110934404605971,1
693,881,44,0.108062064104496,1
694,880,44,0.10655340912569,1
694,881,44,0.111522212974754,1
694,882,44,0.108351266848112,1
694,883,44,0.122497071164131,1
694,904,44,0.145911361634512,1
695,875,44,0.118159520789001,1
695,876,44,0.109640030478275,1
695,879,44,0.104968248376347,1
695,880,44,0.11078437120176,1
695,881,44,0.110576057778443,1
695,882,44,0.115380551012874,1
695,883,44,0.137207583768632,1
696,874,44,0.15012108636008,1
696,875,44,0.182544419301682,1
696,876,44,0.152749487336605,1
696,877,44,0.113027990203335,1
696,879,44,0.119770090511268,1
696,880,44,0.129692941373937,1
696,881,44,0.119078961986124,1
696,882,44,0.122019375780729,1
696,883,44,0.147018168910286,1
696,904,44,0.143612117282644,1
697,873,44,0.127608992893608,1
697,874,44,0.172505923034593,1
697,875,44,0.21053078563652,1
697,876,44,0.176855029026907,1
697,877,44,0.122045543230456,1
697,878,44,0.116308513919968,1
697,879,44,0.152122115479253,1
697,880,44,0.177506359827999,1
697,881,44,0.141588066161664,1
697,882,44,0.12110190885411,1
697,904,44,0.106206963691537,1
698,873,44,0.134742299921181,1
698,874,44,0.152757975584364,1
698,875,44,0.178642625004339,1
698,876,44,0.170037638742139,1
698,877,44,0.132305425491656,1
698,878,44,0.127279724728244,1
698,879,44,0.181126201527644,1
698,880,44,0.232055598848222,1
698,881,44,0.171728194304981,1
698,882,44,0.125564585593706,1
699,873,44,0.128342997666301,1
699,874,44,0.155058346497367,1
699,875,44,0.190184667685881,1
699,876,44,0.186646295318208,1
699,877,44,0.147580724463134,1
699,878,44,0.129499117088384,1
699,879,44,0.191658365807295,1
699,880,44,0.279376208153162,1
699,881,44,0.214811294094384,1
699,882,44,0.136749965712387,1
699,883,44,0.123344501681186,1
699,886,44,0.12084214170292,1
700,873,44,0.114268211318062,1
700,874,44,0.171667560776969,1
700,875,44,0.226625797259507,1
700,876,44,0.186796574111973,1
700,877,44,0.125411897520682,1
700,878,44,0.104836239950294,1
700,879,44,0.152413381725938,1
700,880,44,0.231774226262197,1
700,881,44,0.192592675380584,1
700,882,44,0.127976954530029,1
700,883,44,0.121618018856804,1
701,874,44,0.160907831148072,1
701,875,44,0.202430788768583,1
701,876,44,0.144307774360468,1
701,879,44,0.112163070103512,1
701,880,44,0.151418750938615,1
701,881,44,0.13702088693422,1
702,875,44,0.136011923166121,1
702,880,44,0.132549889257925,1
703,887,44,0.1200069695095,1
704,886,44,0.132973208546945,1
704,887,44,0.132458883195554,1
704,888,44,0.118213696110112,1
705,886,44,0.105787213705123,1
705,887,44,0.131809125118423,1
705,888,44,0.140590011074654,1
705,889,44,0.108023984107323,1
705,895,44,0.119877180743505,1
705,896,44,0.155251033067715,1
705,897,44,0.153714046749476,1
705,898,44,0.139420317148598,1
705,899,44,0.139520279929695,1
706,887,44,0.140095216500957,1
706,888,44,0.169810575326071,1
706,889,44,0.128234412788597,1
706,894,44,0.112813887817355,1
707,887,44,0.140515468420551,1
707,888,44,0.171715790978427,1
707,889,44,0.133116292965145,1
707,897,44,0.141846918679062,1
707,898,44,0.138913375791972,1
707,899,44,0.134982759376089,1
708,888,44,0.124655227676444,1
708,897,44,0.105850981526985,1
708,900,44,0.104788656684933,1
708,901,44,0.107174021616232,1
651,824,45,0.245826659852868,2
652,822,45,0.281707364301138,2
652,823,45,0.254999611392179,2
652,824,45,0.267952476698923,2
652,825,45,0.273632977179396,2
652,826,45,0.246081864989166,2
652,827,45,0.244430437906136,2
653,822,45,0.288998289500959,2
653,823,45,0.311620127868481,2
653,824,45,0.338499541924627,2
653,825,45,0.322159519985908,2
653,826,45,0.30908157293098,2
653,827,45,0.307119125742158,2
653,828,45,0.27112801830267,2
654,822,45,0.280899028801684,2
654,823,45,0.341286364166486,2
654,824,45,0.366145017552492,2
654,825,45,0.323544833251552,2
654,826,45,0.32643737377496,2
654,827,45,0.309869161859039,2
654,828,45,0.233772076471238,2
655,823,45,0.276009865017006,2
655,824,45,0.285985820410004,2
655,825,45,0.278102123279964,2
655,826,45,0.300774868825898,2
655,827,45,0.267147911275347,2
656,824,45,0.232277564854005,2
656,825,45,0.258338314741282,2
656,826,45,0.272783594699978,2
656,827,45,0.239776669628295,1
657,825,45,0.292111256768402,2
657,826,45,0.304020636458409,2
657,827,45,0.29000382896937,2
658,825,45,0.28970240136433,2
658,826,45,0.291653917563922,2
659,826,45,0.200511017054039,1
659,827,45,0.255701938604247,1
688,902,45,0.14241744939242,1
688,903,45,0.177287706581196,1
688,904,45,0.163260180030269,1
689,901,45,0.178993755148161,1
689,902,45,0.16634097895798,1
689,903,45,0.21223952233451,1
689,904,45,0.219062868893001,1
689,905,45,0.140934337235384,1
690,902,45,0.166943823013989,1
690,903,45,0.187180341066495,1
690,904,45,0.190996728644929,1
690,905,45,0.136315871591126,1
691,903,45,0.163929256957753,1
691,904,45,0.160220093460404,1
692,874,45,0.112775004727095,1
693,874,45,0.10711442541679,1
695,875,45,0.106943199278358,1
696,874,45,0.134788210075945,1
696,875,45,0.160732678776775,1
696,876,45,0.131614575818278,1
696,880,45,0.126985536115051,1
697,874,45,0.144856911566334,1
697,875,45,0.171769798988477,1
697,876,45,0.141086947229913,1
697,879,45,0.141281663841117,1
697,880,45,0.16897883858641,1
697,881,45,0.141594992839533,1
698,874,45,0.128315458265885,1
698,875,45,0.141286627402553,1
698,876,45,0.13388227645837,1
698,878,45,0.11669263780475,1
698,879,45,0.160483206832787,1
698,880,45,0.21385902646736,1
698,881,45,0.173506119703166,1
698,882,45,0.148470819300397,1
699,874,45,0.134094293033141,1
699,875,45,0.158551645265574,1
699,876,45,0.158356025174648,1
699,878,45,0.118304434474787,1
699,879,45,0.17492062317168,1
699,880,45,0.268789723549482,1
699,881,45,0.212489239668051,1
699,882,45,0.159093576941805,1
700,874,45,0.150147276117948,1
700,875,45,0.190562366825974,1
700,876,45,0.163427535706188,1
700,879,45,0.14894490076491,1
700,880,45,0.237203603996227,1
700,881,45,0.189574584638025,1
700,882,45,0.134532837628587,1
701,875,45,0.174489406800646,1
701,879,45,0.106663979427968,1
701,880,45,0.146082130456047,1
701,881,45,0.130058449114817,1
702,880,45,0.135089369983289,1
705,887,45,0.14748131938557,1
705,888,45,0.139813921993427,1
706,886,45,0.114821319373077,1
706,887,45,0.176646269440764,1
706,888,45,0.197216907679363,1
706,889,45,0.142329454929122,1
707,887,45,0.152693906602594,1
707,888,45,0.191702959781723,1
707,889,45,0.150078399731731,1
708,888,45,0.122639642495082,1
650,824,46,0.229575959711854,2
651,821,46,0.288179959954209,2
651,822,46,0.286891307864753,2
651,823,46,0.283032200195758,2
651,824,46,0.308791187855876,2
651,825,46,0.28699646844277,2
652,821,46,0.289908952444486,2
652,822,46,0.289125111284163,2
652,823,46,0.289929944405435,2
652,824,46,0.289472694433521,2
652,825,46,0.283176333096599,2
652,826,46,0.28539088459008,2
652,827,46,0.273596637217243,2
653,821,46,0.24252590265209,2
653,822,46,0.287328391276946,2
653,823,46,0.342341249243419,2
653,824,46,0.323098848890986,2
653,825,46,0.292257531250806,2
653,826,46,0.327851196845165,2
653,827,46,0.332322529143579,2
653,828,46,0.287977357415061,2
654,822,46,0.277757284031984,2
654,823,46,0.369258118668782,2
654,824,46,0.359419046030708,2
654,825,46,0.311006029355194,2
654,826,46,0.328181915039712,2
654,827,46,0.304996729180325,2
654,828,46,0.22696494793146,2
655,822,46,0.245267372442717,2
655,823,46,0.300996344052574,2
655,824,46,0.317546040211228,2
655,825,46,0.326057064582337,2
655,826,46,0.314643550256807,2
655,827,46,0.243298812823184,2
656,823,46,0.278962369824188,2
656,824,46,0.28125680677161,2
656,825,46,0.308266768070554,2
656,826,46,0.269125862622361,2
657,825,46,0.266527410325511,2
657,826,46,0.24075691166449,2
657,827,46,0.237265932942977,1
658,826,46,0.224815647751237,1
658,827,46,0.265896335316706,1
688,903,46,0.15972446233141,1
689,902,46,0.141383712433425,1
689,903,46,0.175963026843565,1
689,904,46,0.169384735217086,1
690,903,46,0.160023625660109,1
690,904,46,0.148954303646462,1
696,875,46,0.122658782880304,1
697,875,46,0.12709211326004,1
697,880,46,0.133861842200953,1
697,881,46,0.121118662268215,1
698,879,46,0.126909599202118,1
698,880,46,0.165181557930986,1
698,881,46,0.151642100049158,1
698,882,46,0.147909434924966,1
699,875,46,0.124394300501906,1
699,879,46,0.140383080756096,1
699,880,46,0.208822829723475,1
699,881,46,0.177393112548767,1
699,882,46,0.15480922032957,1
700,875,46,0.144134038556142,1
700,879,46,0.130078303360561,1
700,880,46,0.198824566189192,1
700,881,46,0.158197615063385,1
700,882,46,0.122563672119936,1
701,880,46,0.126295021063793,1
701,881,46,0.111790802995823,1
704,887,46,0.123020654394155,1
705,886,46,0.145099356445817,1
705,887,46,0.165645266109802,1
705,888,46,0.137578043916878,1
706,886,46,0.139977552209751,1
706,887,46,0.206112078243396,1
706,888,46,0.197770171891367,1
706,889,46,0.135642701119717,1
707,887,46,0.155903903130555,1
707,888,46,0.180791802489785,1
707,889,46,0.143690597323683,1
708,888,46,0.11517471379324,1
650,821,47,0.235904534004791,2
650,822,47,0.22958162597974,2
650,823,47,0.23586511551914,2
650,824,47,0.25452023174411,2
650,825,47,0.244768450862883,2
651,820,47,0.269898237398064,2
651,821,47,0.322474332475719,2
651,822,47,0.314792501716165,2
651,823,47,0.336242738811553,2
651,824,47,0.364314054548402,2
651,825,47,0.334111017446662,2
651,826,47,0.273710051807535,2
651,827,47,0.234115264916763,2
652,821,47,0.281588216518536,2
652,822,47,0.292794912066215,2
652,823,47,0.332322038364471,2
652,824,47,0.325179640769324,2
652,825,47,0.30261056115594,2
652,826,47,0.309738324610404,2
652,827,47,0.289236875072,2
652,828,47,0.275747008188248,2
653,822,47,0.276554005199225,2
653,823,47,0.354718564505017,2
653,824,47,0.307262857096456,2
653,825,47,0.270092541308654,2
653,826,47,0.328784234854401,2
653,827,47,0.335877219916601,2
653,828,47,0.291547195416016,2
654,821,47,0.222700189021343,2
654,822,47,0.282451407737409,2
654,823,47,0.380524823116517,2
654,824,47,0.336267143918118,2
654,825,47,0.291611465171058,2
654,826,47,0.321391963768723,2
654,827,47,0.292079021504245,2
655,822,47,0.261228267520301,2
655,823,47,0.320354702123405,2
655,824,47,0.330524158333907,2
655,825,47,0.340370592658605,2
655,826,47,0.302437316130722,2
655,827,47,0.214208773506423,2
656,822,47,0.276298130818688,2
656,823,47,0.287143791407814,2
656,824,47,0.314931882982913,2
656,825,47,0.323026035117833,2
656,826,47,0.240720036306946,2
657,823,47,0.252508907417734,2
657,824,47,0.250730703167783,2
657,825,47,0.228659184337615,2
698,880,47,0.11857656033625,1
698,881,47,0.123961221401074,1
699,880,47,0.143194363874874,1
699,881,47,0.138448005656631,1
699,882,47,0.141189921610084,1
700,880,47,0.142441821036774,1
700,881,47,0.123350413338627,1
705,887,47,0.171692512432996,1
705,888,47,0.12825339701683,1
706,886,47,0.163577256796421,1
706,887,47,0.217355470683488,1
706,888,47,0.174357632610077,1
706,889,47,0.116648947310044,1
707,887,47,0.159984530642507,1
707,888,47,0.154311191075387,1
707,889,47,0.122657723243593,1
708,888,47,0.10798278097037,1
650,821,48,0.279639734226159,2
650,822,48,0.268066002829922,2
650,823,48,0.264195384160024,2
650,824,48,0.268490883688831,2
650,825,48,0.264929076618739,2
650,826,48,0.26361173625959,2
651,820,48,0.286154403033693,2
651,821,48,0.33236040836748,2
651,822,48,0.332461865794044,2
651,823,48,0.37635520842898,2
651,824,48,0.407464893008816,2
651,825,48,0.365428078507882,2
651,826,48,0.309033855816772,2
651,827,48,0.268412292107085,2
652,821,48,0.258983577727944,2
652,822,48,0.292893424818128,2
652,823,48,0.369535788103354,2
652,824,48,0.379676399887174,2
652,825,48,0.327763280460362,2
652,826,48,0.307287329127446,2
652,827,48,0.298575888415034,2
652,828,48,0.289468255113405,2
653,822,48,0.26613150774213,2
653,823,48,0.339739986120767,2
653,824,48,0.297848821474281,2
653,825,48,0.25766440810121,2
653,826,48,0.303471588485109,2
653,827,48,0.317188306857585,2
653,828,48,0.274403210373536,2
654,821,48,0.242355334603827,2
654,822,48,0.300684543161836,2
654,823,48,0.370979704856152,2
654,824,48,0.312142294531534,2
654,825,48,0.274005523138852,2
654,826,48,0.305282117231781,2
654,827,48,0.268669393435392,2
655,822,48,0.28314162162876,2
655,823,48,0.33260695794496,2
655,824,48,0.334032961260306,2
655,825,48,0.324032556144461,2
655,826,48,0.275578314023852,2
656,823,48,0.281108502248348,2
656,824,48,0.322193339128096,2
656,825,48,0.298904777341996,2
657,824,48,0.23407928188487,2
705,887,48,0.157226831679095,1
706,886,48,0.174769920523231,1
706,887,48,0.206843651428689,1
706,888,48,0.145196876485443,1
707,887,48,0.168016889226069,1
707,888,48,0.132036824316516,1
649,821,49,0.25762619425519,2
649,822,49,0.265254842405921,2
649,823,49,0.244027039787284,2
649,824,49,0.22644144277993,2
649,825,49,0.233218767642951,2
650,820,49,0.255787088779531,2
650,821,49,0.311615353926246,2
650,822,49,0.314296881741241,2
650,823,49,0.290346861257906,2
650,824,49,0.281242886491448,2
650,825,49,0.279771352259739,2
650,826,49,0.286322227180578,2
650,827,49,0.264263870153768,2
651,821,49,0.314235110498024,2
651,822,49,0.335506525532872,2
651,823,49,0.378696403240534,2
651,824,49,0.414531442923594,2
651,825,49,0.368373288552863,2
651,826,49,0.328955182141066,2
651,827,49,0.297415329672835,2
651,828,49,0.285389702258592,2
652,821,49,0.248010894582343,2
652,822,49,0.293028277532195,2
652,823,49,0.374471330513763,2
652,824,49,0.415026014415878,2
652,825,49,0.341566688269871,2
652,826,49,0.300634171378815,2
652,827,49,0.308311339736841,2
652,828,49,0.296768995895391,2
653,822,49,0.274753916662674,2
653,823,49,0.312289193641894,2
653,824,49,0.296958548171888,2
653,825,49,0.254042012119389,2
653,826,49,0.268935440328354,2
653,827,49,0.278190998914843,2
654,821,49,0.259071047949922,2
654,822,49,0.325259191601145,2
654,823,49,0.340787041040109,2
654,824,49,0.296108831070351,2
654,825,49,0.266971966965034,2
654,826,49,0.27695084472454,2
655,821,49,0.250845880101236,2
655,822,49,0.300571373961099,2
655,823,49,0.325071490900375,2
655,824,49,0.322710865697762,2
655,825,49,0.288780495117596,2
656,822,49,0.229940162426469,2
656,823,49,0.259549669121187,2
656,824,49,0.284977693197204,2
705,887,49,0.136944035387494,1
706,886,49,0.178901031358911,1
706,887,49,0.186492023367153,1
706,888,49,0.119562067093787,1
707,887,49,0.18264128125114,1
648,821,50,0.256876640708021,2
648,822,50,0.267013906270649,2
648,826,50,0.283692610410353,1
649,820,50,0.259291430077674,2
649,821,50,0.309230301308926,2
649,822,50,0.313914252501925,2
649,823,50,0.268625044850518,2
649,824,50,0.236528291943254,2
649,825,50,0.232656736331423,2
650,820,50,0.274439996498514,2
650,821,50,0.340605229688638,2
650,822,50,0.370874209656016,2
650,823,50,0.326170568405194,2
650,824,50,0.301631836073353,2
650,825,50,0.291955032854984,2
650,826,50,0.286646520630435,2
650,827,50,0.252520931505886,2
651,821,50,0.288171728250075,2
651,822,50,0.330635632115907,2
651,823,50,0.357378118800846,2
651,824,50,0.396503297009433,2
651,825,50,0.363445866305882,2
651,826,50,0.348027549840626,2
651,827,50,0.31863407518611,2
651,828,50,0.288031276192546,2
652,821,50,0.244706166532416,2
652,822,50,0.293185728393383,2
652,823,50,0.348544474090477,2
652,824,50,0.405251880777084,2
652,825,50,0.343196677229125,2
652,826,50,0.3208237754102,2
652,827,50,0.322197153820256,2
652,828,50,0.279232253717451,2
653,821,50,0.235502652839545,2
653,822,50,0.303764115141776,2
653,823,50,0.289349196563368,2
653,824,50,0.286989642151536,2
653,825,50,0.253136056193673,2
653,826,50,0.250305019215787,2
653,827,50,0.239187734698377,2
654,821,50,0.25797868519563,2
654,822,50,0.339480787827179,2
654,823,50,0.299904784391368,2
654,824,50,0.272642696479624,2
655,822,50,0.295423034190974,2
655,823,50,0.289332688538818,2
655,824,50,0.286471937116741,2
706,887,50,0.156274229429953,1
647,822,51,0.274592561876761,2
647,827,51,0.251284658932166,1
648,821,51,0.27346965927705,2
648,822,51,0.289218493163581,2
648,823,51,0.268092125663366,2
648,826,51,0.263837316184262,1
649,820,51,0.298722118281156,2
649,821,51,0.349954504776664,2
649,822,51,0.356312793513792,2
649,823,51,0.290124895252123,2
649,824,51,0.235486791751092,2
649,827,51,0.253893729904269,1
650,819,51,0.297302316629086,2
650,820,51,0.29712179914981,2
650,821,51,0.346981855717902,2
650,822,51,0.389942338808733,2
650,823,51,0.339121314438516,2
650,824,51,0.301502761167879,2
650,825,51,0.275149172309957,2
650,826,51,0.247483217808393,2
651,820,51,0.248181841869008,2
651,821,51,0.256993869990473,2
651,822,51,0.301408219265115,2
651,823,51,0.313912847089024,2
651,824,51,0.34379127842693,2
651,825,51,0.329698489408675,2
651,826,51,0.324485790650944,2
651,827,51,0.297075799762481,2
652,822,51,0.282499749479573,2
652,823,51,0.301322288304886,2
652,824,51,0.342648499273335,2
652,825,51,0.317940648922414,2
652,826,51,0.322767483760342,2
652,827,51,0.301355995906367,2
653,821,51,0.244586104116022,2
653,822,51,0.317645936067901,2
653,823,51,0.272769072100002,2
653,824,51,0.263009929532151,2
653,825,51,0.252887208877641,2
653,826,51,0.241772980575588,2
654,822,51,0.3116930308742,2
654,823,51,0.257260273813695,2
647,822,52,0.246550536729418,2
648,820,52,0.230781513975024,2
648,821,52,0.277103454719069,2
648,822,52,0.316465924626501,2
648,823,52,0.290537484325185,2
648,827,52,0.294012891964081,1
649,819,52,0.254130486207724,2
649,820,52,0.304478622598986,2
649,821,52,0.362529380937479,2
649,822,52,0.398563543089647,2
649,823,52,0.325492668607832,2
649,824,52,0.225199481630183,2
650,818,52,0.263803920896759,2
650,819,52,0.317925345537493,2
650,820,52,0.310286881804597,2
650,821,52,0.329399203385198,2
650,822,52,0.365928070878497,2
650,823,52,0.320290700066059,2
650,824,52,0.265965468246547,2
651,819,52,0.272322507727763,2
651,820,52,0.234379727931694,2
651,821,52,0.227409950733808,2
651,822,52,0.252075326383723,2
651,823,52,0.256051618718886,2
651,824,52,0.268782361862858,2
651,825,52,0.268701316385571,2
651,826,52,0.267219208094893,2
652,823,52,0.23893705811476,2
652,824,52,0.25460564961709,2
652,825,52,0.267482265696923,2
652,826,52,0.285959452187005,2
653,822,52,0.290465585185824,2
647,822,53,0.213404029617716,2
647,823,53,0.227541501842965,2
648,821,53,0.273550013201958,2
648,822,53,0.335050368659881,2
648,823,53,0.317841065379719,2
648,824,53,0.211386927482747,2
649,820,53,0.278486782560138,2
649,821,53,0.339876199631452,2
649,822,53,0.413153825966694,2
649,823,53,0.359917610680281,2
649,824,53,0.212159079177037,2
650,819,53,0.299223939919357,2
650,820,53,0.296044873629287,2
650,821,53,0.29038598973772,2
650,822,53,0.310965049299654,2
650,823,53,0.281172392764988,2
651,821,53,0.205439398551095,2
651,822,53,0.205678675674516,2
647,822,54,0.186228017669119,2
648,821,54,0.254554474740982,2
648,822,54,0.31850314870491,2
648,823,54,0.314633556209511,2
649,821,54,0.291339372771807,2
649,822,54,0.375307573497964,2
649,823,54,0.352925726114383,2
649,824,54,0.197656645760369,2
650,821,54,0.243777790924709,2
650,822,54,0.255441602595454,2
650,823,54,0.23658274611613,2
648,822,55,0.26954099482353,2
649,822,55,0.299807654744214,2
649,823,55,0.300274965687848,2
