x,y,z,signal,mito.p
783,530,32,0.158761854880901,1
783,531,32,0.160022554869327,1
784,526,32,0.172201260749066,1
782,530,33,0.155875594099265,1
782,531,33,0.162787325513527,1
783,526,33,0.205539874419442,1
783,529,33,0.195359197213874,1
783,530,33,0.207303957615959,1
783,531,33,0.209353562712781,1
783,532,33,0.201489362898224,1
784,525,33,0.18566493787495,1
784,526,33,0.23261189696744,1
784,527,33,0.217675793284197,1
784,529,33,0.199075287389092,1
784,530,33,0.209104581547901,1
784,531,33,0.195819548017426,1
785,525,33,0.185465213086027,1
785,526,33,0.210969207537189,1
781,531,34,0.147247920457378,1
782,529,34,0.157876065514906,1
782,530,34,0.195092860315075,1
782,531,34,0.21186621789825,1
782,532,34,0.187347339812153,1
783,526,34,0.21379129895042,1
783,527,34,0.194686049050606,1
783,528,34,0.17526649974823,1
783,529,34,0.22383727959891,1
783,530,34,0.281235792502519,2
783,531,34,0.276493371671213,1
783,532,34,0.221077584056853,1
784,524,34,0.165368489000882,1
784,525,34,0.248878525121332,1
784,526,34,0.308466537475759,3
784,527,34,0.25061552623433,1
784,528,34,0.188528533585041,1
784,529,34,0.22518607443727,1
784,530,34,0.266933083874774,1
784,531,34,0.242299408093626,1
784,532,34,0.188065773502229,1
785,524,34,0.185013941695977,1
785,525,34,0.272140027132054,1
785,526,34,0.289674181565605,3
785,527,34,0.20778893660749,1
785,529,34,0.152453157141849,1
785,530,34,0.156679914133287,1
785,531,34,0.139079303746849,1
786,525,34,0.17489648576281,1
786,526,34,0.167777589794507,1
781,530,35,0.137805497725417,1
781,531,35,0.166413413492731,1
781,532,35,0.164151323350172,1
782,526,35,0.170480700736195,1
782,529,35,0.168672335879228,1
782,530,35,0.229854209158099,2
782,531,35,0.253579385885425,1
782,532,35,0.214680769159726,1
782,533,35,0.171997676651701,1
783,525,35,0.197730619556869,1
783,526,35,0.228688921089947,3
783,527,35,0.200902658782434,1
783,528,35,0.177954541540481,1
783,529,35,0.237708147227665,2
783,530,35,0.332892033682438,2
783,531,35,0.311467116327409,2
783,532,35,0.220367627460465,1
783,533,35,0.171796713760938,1
784,524,35,0.185041481096393,1
784,525,35,0.294965360364376,3
784,526,35,0.349905359941413,3
784,527,35,0.260129703102732,3
784,528,35,0.187749310209963,1
784,529,35,0.226035679998101,1
784,530,35,0.29561881043889,2
784,531,35,0.2594009184351,1
784,532,35,0.186054817260184,1
785,524,35,0.216524447804348,1
785,525,35,0.332069978676094,3
785,526,35,0.33735776663739,3
785,527,35,0.219842783820458,3
785,528,35,0.156713186726013,1
785,529,35,0.152861964984963,1
785,530,35,0.161827986205716,1
785,531,35,0.140720078692415,1
786,524,35,0.168475600381237,1
786,525,35,0.204436246053801,1
786,526,35,0.187069235368826,3
786,527,35,0.137447273592666,1
781,530,36,0.131335032499839,1
781,531,36,0.167736107805788,1
781,532,36,0.184583115717415,1
782,525,36,0.171041382405176,1
782,526,36,0.153280097631134,1
782,529,36,0.172837087391965,1
782,530,36,0.237840345272918,1
782,531,36,0.257641586872676,1
782,532,36,0.219813381690245,1
782,533,36,0.184297370735698,1
783,524,36,0.174253799366467,1
783,525,36,0.218595022553977,3
783,526,36,0.237932388663859,3
783,527,36,0.197771131141442,1
783,528,36,0.170671357265686,1
783,529,36,0.228552863736251,1
783,530,36,0.330165577270895,2
783,531,36,0.29536704075635,1
783,532,36,0.197641944695262,1
783,533,36,0.154040303315766,1
783,534,36,0.159600507144361,1
783,536,36,0.169102593000187,1
783,537,36,0.13927292725913,1
783,538,36,0.114179737229727,1
784,524,36,0.198858273790673,3
784,525,36,0.314793148652263,3
784,526,36,0.345024673250424,3
784,527,36,0.244700031793563,3
784,528,36,0.174910327964478,1
784,529,36,0.204811513606494,1
784,530,36,0.279627286283322,1
784,531,36,0.238217999796728,1
784,532,36,0.165047396769299,1
785,523,36,0.180514110747072,1
785,524,36,0.22999002112224,3
785,525,36,0.338234855828283,3
785,526,36,0.327420025090413,3
785,527,36,0.210298446345039,3
785,528,36,0.151215111070897,1
785,530,36,0.154169065907262,1
785,531,36,0.131331496659445,1
786,524,36,0.204841741137935,1
786,525,36,0.229359280735555,3
786,526,36,0.198243751422702,3
786,527,36,0.141145439176362,1
787,525,36,0.156689774331735,1
789,526,36,0.127437465595269,1
789,527,36,0.119093796900079,1
790,525,36,0.182384235693187,1
790,527,36,0.189210671929246,1
790,528,36,0.129899258218609,1
791,528,36,0.139155173735358,1
792,525,36,0.158460773052051,1
792,527,36,0.160168182415634,1
801,550,36,0.211261868042704,1
802,550,36,0.17755638583483,1
803,550,36,0.179120119614469,1
804,549,36,0.257152101636606,1
806,533,36,0.171212084302287,1
806,549,36,0.180685660353552,1
781,530,37,0.12924606468772,1
781,531,37,0.159836226119246,1
781,533,37,0.217760251907101,1
781,534,37,0.195436361074578,1
781,535,37,0.146701404458112,1
781,536,37,0.116703602256192,1
781,537,37,0.123671137485878,1
781,538,37,0.140588349118128,1
782,525,37,0.152577647724289,1
782,526,37,0.145513295161427,1
782,529,37,0.172051952359447,1
782,530,37,0.222006918914636,1
782,531,37,0.232561101329735,1
782,532,37,0.20889671428741,1
782,533,37,0.194694816150131,1
782,534,37,0.176560650794513,1
782,535,37,0.15805150789204,1
782,536,37,0.142247874056444,1
782,537,37,0.138339588089987,1
782,538,37,0.133242590507029,1
782,539,37,0.112940319208086,1
782,540,37,0.110582805991182,1
782,541,37,0.116150984980285,1
783,524,37,0.191448624662935,1
783,525,37,0.237517301078973,1
783,526,37,0.243353557001896,1
783,527,37,0.199166973849772,1
783,529,37,0.205622459158478,1
783,530,37,0.27407893923182,1
783,531,37,0.23948035058761,1
783,532,37,0.165926203687072,1
783,533,37,0.136131059794653,1
783,534,37,0.138927117607004,1
783,535,37,0.152956149957467,1
783,536,37,0.146449657083714,1
783,537,37,0.125333227860441,1
783,538,37,0.103502246563676,1
783,542,37,0.113353900993435,1
784,523,37,0.155503126218303,1
784,524,37,0.213677995900834,1
784,525,37,0.307014723640946,3
784,526,37,0.308131290728531,3
784,527,37,0.222568280981926,1
784,528,37,0.161350948912483,1
784,529,37,0.176584498197547,1
784,530,37,0.223698768349673,1
784,531,37,0.187611401280541,1
784,532,37,0.132721438864405,1
784,533,37,0.112464486554482,1
784,534,37,0.116033253764655,1
784,535,37,0.123517267081366,1
784,536,37,0.111489464623348,1
784,543,37,0.125986778321591,1
785,523,37,0.184681003841373,1
785,524,37,0.234687223351163,1
785,525,37,0.302493666495608,3
785,526,37,0.28219218713568,3
785,527,37,0.19789453977903,1
785,528,37,0.141786709005734,1
785,529,37,0.126804829016574,1
785,530,37,0.132430038768873,1
785,531,37,0.112200648167507,1
785,543,37,0.106791370068774,1
786,523,37,0.209857102077861,1
786,524,37,0.24596508186954,1
786,525,37,0.246934682922342,1
786,526,37,0.205636357130498,1
786,527,37,0.153672899382877,1
786,528,37,0.116342823841264,1
787,524,37,0.212118634516887,1
787,525,37,0.182640634315043,1
787,526,37,0.131269156558625,1
788,525,37,0.154671857949609,1
788,526,37,0.1045817932908,1
789,524,37,0.202641176849039,1
789,525,37,0.168766442773237,1
789,526,37,0.12976053504203,1
789,527,37,0.122492397608532,1
789,528,37,0.104723739993795,1
790,523,37,0.227252187558643,1
790,524,37,0.211197531363239,1
790,525,37,0.177083520164017,1
790,526,37,0.186561892465657,1
790,527,37,0.213260030565723,1
790,528,37,0.141933463113176,1
791,523,37,0.165901809734577,1
791,524,37,0.157701325844223,1
791,525,37,0.166813822320652,1
791,527,37,0.237670290311904,1
791,528,37,0.146429200518156,1
792,523,37,0.115485745053103,1
792,524,37,0.11109534669127,1
792,525,37,0.133173223341704,1
792,526,37,0.147130613096432,1
792,527,37,0.140579236242413,1
800,549,37,0.106073092535687,1
801,549,37,0.108244087383309,1
801,550,37,0.191681120111405,1
802,549,37,0.105665857416533,1
802,550,37,0.147972745429932,1
802,551,37,0.165885636332145,1
803,549,37,0.150205522674843,1
803,550,37,0.156417860397615,1
803,551,37,0.141487846836942,1
804,548,37,0.12831572596358,1
804,549,37,0.236180931875309,1
804,550,37,0.243412093564628,1
804,551,37,0.167433040552364,1
805,532,37,0.110354080618589,1
805,533,37,0.118626999043695,1
805,548,37,0.122028109418042,1
805,549,37,0.220564184493325,1
806,532,37,0.134882015810047,1
806,533,37,0.146404193091775,1
806,534,37,0.131682169486371,1
806,535,37,0.11084618706126,1
806,548,37,0.10838179553946,1
806,549,37,0.155489228246283,1
806,550,37,0.18290590042306,1
807,533,37,0.16255870052757,1
807,534,37,0.141021417064889,1
807,535,37,0.133515664464496,1
807,536,37,0.129345927082182,1
807,548,37,0.11532230445598,1
807,549,37,0.143770248542141,1
808,536,37,0.132145331115726,1
808,546,37,0.103866906595188,1
808,547,37,0.127661729339605,1
808,548,37,0.130365743761015,1
809,546,37,0.133477974859796,1
809,547,37,0.158243859840268,1
810,541,37,0.105627353564676,1
810,545,37,0.107418953853468,1
780,533,38,0.151215278381957,1
780,534,38,0.161903008484857,1
780,535,38,0.120597744861074,1
780,538,38,0.143019066500658,1
781,530,38,0.124361496380147,1
781,531,38,0.13904233915674,1
781,532,38,0.178741695459785,1
781,533,38,0.238610645391482,1
781,534,38,0.241845928197589,1
781,535,38,0.170408466974715,1
781,536,38,0.114273531809759,1
781,537,38,0.12481767556128,1
781,538,38,0.166961758759582,1
781,539,38,0.162789232859607,1
781,540,38,0.146896834929838,1
782,529,38,0.157512822050366,1
782,530,38,0.186302593785434,1
782,531,38,0.187322198536925,1
782,532,38,0.179984437394477,1
782,533,38,0.189831083646517,1
782,534,38,0.1838445600839,1
782,535,38,0.15670843509192,1
782,536,38,0.130187100165607,1
782,537,38,0.126329721377562,1
782,538,38,0.131334943267274,1
782,539,38,0.113206879188298,1
782,540,38,0.106899073774897,1
782,541,38,0.109191224137837,1
782,542,38,0.123704053148344,1
783,524,38,0.199597141738166,1
783,525,38,0.237093803324823,1
783,526,38,0.229527551045266,1
783,528,38,0.155164154011481,1
783,529,38,0.173842113773127,1
783,530,38,0.202155394764422,1
783,531,38,0.175874441214523,1
783,532,38,0.133363065624038,1
783,533,38,0.115581502749568,1
783,534,38,0.115961823096261,1
783,535,38,0.125009536730399,1
783,536,38,0.121012542440123,1
783,537,38,0.105488318074119,1
783,543,38,0.130128753222076,1
784,523,38,0.163622821174995,1
784,524,38,0.227070420823454,1
784,525,38,0.284273179787289,1
784,526,38,0.260340515037873,1
784,527,38,0.192876903408693,1
784,528,38,0.144225658092399,1
784,529,38,0.149441156521861,1
784,530,38,0.162715270217177,1
784,531,38,0.133657867711116,1
784,544,38,0.131904079721801,1
785,523,38,0.191965950459329,1
785,524,38,0.237230909161159,1
785,525,38,0.259274922053124,1
785,526,38,0.228151004879147,1
785,527,38,0.176168473670727,1
785,528,38,0.123071862732474,1
785,529,38,0.106600044295045,1
785,530,38,0.103284552566949,1
785,544,38,0.103656473898449,1
786,522,38,0.162756384121565,1
786,523,38,0.234727021075215,1
786,524,38,0.270316001959904,1
786,525,38,0.243542194644601,1
786,526,38,0.191275446562141,1
786,527,38,0.15506932210288,1
786,528,38,0.105170583217799,1
787,523,38,0.195268046148584,1
787,524,38,0.224282973953639,1
787,525,38,0.191664768243843,1
787,526,38,0.129867714506833,1
788,523,38,0.162021397790655,1
788,524,38,0.180421052335703,1
788,525,38,0.155946935535093,1
789,523,38,0.201539489291691,1
789,524,38,0.216305917252322,1
789,525,38,0.175847057971096,1
789,526,38,0.121106482023074,1
789,527,38,0.109556319178104,1
790,522,38,0.191407220752711,1
790,523,38,0.225714866618285,1
790,524,38,0.218031965067949,1
790,525,38,0.172232681766066,1
790,526,38,0.163759135072315,1
790,527,38,0.194675341142789,1
790,528,38,0.131302986854883,1
791,522,38,0.18871813047782,1
791,523,38,0.165301876891005,1
791,524,38,0.142919661423093,1
791,525,38,0.132203979219163,1
791,526,38,0.164769626948092,1
791,527,38,0.207160605500063,1
791,528,38,0.1317366794296,1
792,521,38,0.186743458427574,1
792,522,38,0.166651887523066,1
792,523,38,0.114674665652271,1
792,526,38,0.106598828501345,1
792,527,38,0.111497004775102,1
793,521,38,0.127759773620552,1
793,522,38,0.108454118533506,1
800,550,38,0.133342464055561,1
801,550,38,0.146654367742214,1
801,551,38,0.169420517475707,1
802,550,38,0.115167129025203,1
802,551,38,0.131139133557146,1
803,549,38,0.121140992717641,1
803,550,38,0.12426187937524,1
803,551,38,0.115987232069185,1
804,548,38,0.105876892433087,1
804,549,38,0.179751674248312,1
804,550,38,0.182204911699469,1
804,551,38,0.137613290780108,1
804,552,38,0.151595520650156,1
805,533,38,0.10685693369601,1
805,549,38,0.165109893027109,1
805,550,38,0.181763690127068,1
805,551,38,0.149306716508408,1
806,532,38,0.125525468267963,1
806,533,38,0.137206691442981,1
806,534,38,0.117953605490872,1
806,535,38,0.105284388200564,1
806,549,38,0.126792961085411,1
806,550,38,0.15346651561378,1
806,551,38,0.160194394481644,1
807,531,38,0.109134985313658,1
807,532,38,0.140014427567295,1
807,533,38,0.136845946490265,1
807,534,38,0.113872007574774,1
807,535,38,0.120650492461142,1
807,536,38,0.127286573327619,1
807,549,38,0.125491347965868,1
807,550,38,0.162939165877182,1
808,533,38,0.12256372789029,1
808,536,38,0.110470584886448,1
808,548,38,0.11718714237261,1
808,549,38,0.145496363282191,1
809,546,38,0.112962393113887,1
809,547,38,0.138311992919218,1
809,548,38,0.138918740899951,1
810,536,38,0.142047691950625,1
810,545,38,0.112549781732684,1
810,546,38,0.144217426388265,1
810,547,38,0.141202068393013,1
811,538,38,0.106564842048098,1
811,543,38,0.109829370827429,1
811,545,38,0.155756524395157,1
779,538,39,0.111224488521167,1
780,533,39,0.149433281747987,1
780,534,39,0.180134303487628,1
780,535,39,0.131783080363473,1
780,538,39,0.155828468150801,1
781,529,39,0.122313140539238,1
781,530,39,0.117000032837584,1
781,531,39,0.114322219328113,1
781,532,39,0.15326596542363,1
781,533,39,0.239812184189221,1
781,534,39,0.275721331517629,1
781,535,39,0.188032088208889,1
781,536,39,0.112949119769823,1
781,537,39,0.116778289913213,1
781,538,39,0.169053548551573,1
781,539,39,0.174390425577765,1
782,528,39,0.120386319452048,1
782,529,39,0.133945676195902,1
782,530,39,0.141228626235213,1
782,531,39,0.137603285578741,1
782,532,39,0.149842970762682,1
782,533,39,0.184354769583224,1
782,534,39,0.194389529236648,1
782,535,39,0.153662637637886,1
782,536,39,0.11537335663731,1
782,537,39,0.106125427435141,1
782,538,39,0.115689764159223,1
782,539,39,0.109634364210389,1
782,540,39,0.103259165902167,1
782,541,39,0.105711410641037,1
782,542,39,0.116035506886925,1
783,524,39,0.19044962147992,1
783,525,39,0.208700558801093,1
783,526,39,0.193783483962365,1
783,527,39,0.159319603029303,1
783,528,39,0.134895891473927,1
783,529,39,0.136252672626867,1
783,530,39,0.135473493868072,1
783,531,39,0.120234902943077,1
783,532,39,0.107410443297568,1
783,533,39,0.103412311292087,1
783,543,39,0.114624862726853,1
784,523,39,0.18957536542297,1
784,524,39,0.240973032937257,1
784,525,39,0.249959689188698,1
784,526,39,0.208317081852407,1
784,527,39,0.15800497310932,1
784,528,39,0.127688086408533,1
784,529,39,0.125047683651996,1
784,530,39,0.112855637503769,1
784,544,39,0.111626737770744,1
784,545,39,0.149917446492362,1
785,523,39,0.211252164001245,1
785,524,39,0.252665064406727,1
785,525,39,0.231229974539272,1
785,526,39,0.183910335638478,1
785,527,39,0.147123876037764,1
785,528,39,0.106661402837649,1
785,545,39,0.117567295408244,1
786,522,39,0.166806884488712,1
786,523,39,0.234932769062284,1
786,524,39,0.262455750686355,1
786,525,39,0.216234375043222,1
786,526,39,0.160823997153124,1
786,527,39,0.137328549664749,1
787,523,39,0.198333854005351,1
787,524,39,0.215640532322221,1
787,525,39,0.177039595433827,1
787,526,39,0.118121340405193,1
788,522,39,0.164702691370167,1
788,523,39,0.172592188616941,1
788,524,39,0.182818363276659,1
788,525,39,0.151770862640654,1
789,522,39,0.17162138292451,1
789,523,39,0.193255450258154,1
789,524,39,0.212264931307433,1
789,525,39,0.170655964648199,1
789,526,39,0.111292639892792,1
790,521,39,0.195780642619026,1
790,522,39,0.192737566758228,1
790,523,39,0.200637058052298,1
790,524,39,0.206634490296003,1
790,525,39,0.163521586829844,1
790,526,39,0.134653413132232,1
790,527,39,0.147621213739566,1
790,528,39,0.105133919787598,1
791,521,39,0.232175081252943,1
791,522,39,0.204855081406423,1
791,523,39,0.157633787946483,1
791,524,39,0.131121052808635,1
791,525,39,0.109815707090893,1
791,526,39,0.11959770434949,1
791,527,39,0.149583013992291,1
792,520,39,0.164916068741556,1
792,521,39,0.192672538526383,1
792,522,39,0.166267585173153,1
792,523,39,0.111123544181854,1
793,520,39,0.139179244219804,1
793,521,39,0.120388416417329,1
794,520,39,0.120414327323431,1
797,520,39,0.108809687997444,1
801,522,39,0.125323468048629,1
801,551,39,0.121715683899349,1
802,523,39,0.105655394898271,1
802,552,39,0.127356174728427,1
803,552,39,0.130359107088983,1
804,549,39,0.11963348660811,1
804,550,39,0.120945618016269,1
804,551,39,0.108111766643279,1
804,552,39,0.132629005080991,1
805,549,39,0.116324854633459,1
805,550,39,0.123123952242374,1
805,551,39,0.114912135816247,1
805,552,39,0.122746420413341,1
806,532,39,0.154526130016666,1
806,533,39,0.146379163357254,1
806,534,39,0.106535841464428,1
806,550,39,0.124055517914285,1
806,551,39,0.136524374633645,1
806,552,39,0.137461561957159,1
807,531,39,0.105808930680663,1
807,532,39,0.152040300371091,1
807,533,39,0.135733205248909,1
807,534,39,0.104180960608195,1
807,535,39,0.108407594904856,1
807,536,39,0.1104509983384,1
807,549,39,0.108850389201218,1
807,550,39,0.150670524725853,1
808,532,39,0.111282143912318,1
808,548,39,0.103987716334316,1
808,549,39,0.137819284156731,1
809,547,39,0.111486174172509,1
809,548,39,0.132805763638461,1
809,549,39,0.166430735764439,1
810,536,39,0.106724356412355,1
810,545,39,0.111706946692733,1
810,546,39,0.138201456079151,1
810,547,39,0.130556266441658,1
810,548,39,0.124738983592897,1
811,535,39,0.141076272784309,1
811,536,39,0.162939913199915,1
811,537,39,0.139813364289895,1
811,538,39,0.109747957265811,1
811,543,39,0.113120067056488,1
811,544,39,0.146936331493982,1
811,545,39,0.163850453448665,1
811,546,39,0.162177956326192,1
812,538,39,0.119073518799651,1
812,540,39,0.108503921458924,1
812,543,39,0.135386581349626,1
812,545,39,0.174213477401094,1
779,538,40,0.106756000510767,1
780,534,40,0.17353083712371,1
780,535,40,0.132669773209189,1
780,538,40,0.152293464312462,1
780,543,40,0.180225543785483,1
781,532,40,0.125103621316268,1
781,533,40,0.218091951659864,1
781,534,40,0.274809731632168,1
781,535,40,0.194863844936645,1
781,536,40,0.117949790798713,1
781,537,40,0.107499441627224,1
781,538,40,0.149411352845104,1
781,539,40,0.164306041464053,1
781,542,40,0.132389203716251,1
782,526,40,0.120635144459938,1
782,527,40,0.108805137136622,1
782,528,40,0.105640124975561,1
782,529,40,0.108336755402206,1
782,532,40,0.120044201797304,1
782,533,40,0.17025158497113,1
782,534,40,0.19664680082069,1
782,535,40,0.151735325771587,1
782,536,40,0.106053126749237,1
782,542,40,0.1070427270507,1
782,543,40,0.141651443591054,1
783,524,40,0.165749210894118,1
783,525,40,0.168807690526473,1
783,526,40,0.150599149827812,1
783,527,40,0.125326490801773,1
783,528,40,0.110269867385239,1
783,544,40,0.127642310102617,1
784,523,40,0.209175766826741,1
784,524,40,0.237911575168041,1
784,525,40,0.20911359403698,1
784,526,40,0.161213006520848,1
784,527,40,0.12543930307225,1
784,528,40,0.109610371804437,1
784,545,40,0.13412918296611,1
785,522,40,0.142637162275934,1
785,523,40,0.218264348975713,1
785,524,40,0.256146852174031,1
785,525,40,0.206916777515821,1
785,526,40,0.148610267491568,1
785,527,40,0.115139678857352,1
785,545,40,0.104426874403648,1
786,523,40,0.204020154602558,1
786,524,40,0.22295086560496,1
786,525,40,0.173700390151545,1
786,526,40,0.12398232490273,1
786,546,40,0.110414223367492,1
787,522,40,0.182936997972011,1
787,523,40,0.185819633680689,1
787,524,40,0.183307904283083,1
787,525,40,0.141639408348831,1
788,521,40,0.142124253491514,1
788,522,40,0.185598247686579,1
788,523,40,0.178479507875265,1
788,524,40,0.171879789279082,1
788,525,40,0.131858548805439,1
789,521,40,0.155550921411006,1
789,522,40,0.175887982256283,1
789,523,40,0.175814610779597,1
789,524,40,0.181316244583249,1
789,525,40,0.141935604694739,1
790,520,40,0.160730325267869,1
790,521,40,0.21322837531324,1
790,522,40,0.203330833036858,1
790,523,40,0.175254364119371,1
790,524,40,0.167857464094377,1
790,525,40,0.13323791695143,1
791,520,40,0.181383012850114,1
791,521,40,0.258496033300166,1
791,522,40,0.221308027156325,1
791,523,40,0.148102701506986,1
791,524,40,0.110842037746981,1
792,519,40,0.137418674555539,1
792,520,40,0.153998486704928,1
792,521,40,0.184236235274507,1
792,522,40,0.151585939303474,1
793,519,40,0.156541480962545,1
793,520,40,0.128325742319017,1
793,521,40,0.104812816401945,1
794,519,40,0.15334392122335,1
794,520,40,0.106731483863495,1
795,519,40,0.124749892273986,1
796,519,40,0.116294035936274,1
796,520,40,0.116447538256455,1
797,519,40,0.118247927952913,1
797,520,40,0.126023519830287,1
798,519,40,0.10789352609709,1
798,520,40,0.107741094567691,1
799,519,40,0.103141981235998,1
800,521,40,0.103460151101072,1
801,521,40,0.139691751457681,1
801,522,40,0.154730160276857,1
802,522,40,0.153939057816545,1
802,523,40,0.112647201385675,1
803,523,40,0.120529236559189,1
804,524,40,0.111142305328674,1
804,552,40,0.105629651303228,1
805,552,40,0.105157856423196,1
805,553,40,0.142187095525513,1
806,532,40,0.156421507778715,1
806,533,40,0.129565271881364,1
806,551,40,0.112989084804934,1
806,552,40,0.125146151787627,1
807,532,40,0.143858588781628,1
807,533,40,0.118573392580187,1
807,550,40,0.127237060408037,1
807,551,40,0.16112588207506,1
808,549,40,0.12026046807299,1
808,550,40,0.159390877540708,1
809,530,40,0.104397383040869,1
809,531,40,0.106225702530216,1
809,548,40,0.115366206878028,1
809,549,40,0.151038988295454,1
810,531,40,0.130328266083657,1
810,532,40,0.104961466701396,1
810,546,40,0.120384289411191,1
810,547,40,0.114672702535838,1
810,548,40,0.118397191726249,1
811,532,40,0.11861093718197,1
811,533,40,0.111480530212763,1
811,535,40,0.10434531583911,1
811,536,40,0.120357028862541,1
811,537,40,0.113924175163168,1
811,538,40,0.104996334326224,1
811,539,40,0.107761763060591,1
811,543,40,0.106478855317516,1
811,544,40,0.135962566403529,1
811,545,40,0.152738757120647,1
811,546,40,0.153944646005937,1
811,547,40,0.126192336689459,1
812,536,40,0.123663061938733,1
812,537,40,0.122406633959362,1
812,538,40,0.132068446106788,1
812,539,40,0.149077009577599,1
812,540,40,0.124333310043634,1
812,543,40,0.129048514942573,1
812,544,40,0.161106139370023,1
812,545,40,0.153737459143755,1
813,540,40,0.110879604656905,1
780,535,41,0.125719125242456,1
780,538,41,0.129063383318739,1
780,539,41,0.165250679706757,1
780,542,41,0.14279926438458,1
780,543,41,0.15371828529632,1
780,544,41,0.152277157061183,1
781,534,41,0.237125993972697,1
781,535,41,0.19427218841349,1
781,536,41,0.129360639301359,1
781,538,41,0.118311818469553,1
781,539,41,0.135754766067461,1
781,540,41,0.121173662990553,1
781,541,41,0.111316197289989,1
781,542,41,0.119227277663456,1
781,543,41,0.155775095922777,1
781,544,41,0.160642587348196,1
781,545,41,0.154702018556626,1
782,533,41,0.150558727475804,1
782,534,41,0.186508743319046,1
782,535,41,0.156014785746811,1
782,536,41,0.107694727096031,1
782,543,41,0.125198051678326,1
782,544,41,0.132668445874783,1
783,524,41,0.137165666771158,1
783,526,41,0.11444493641332,1
783,544,41,0.105426279133206,1
783,545,41,0.133715534256337,1
784,523,41,0.199393758414073,1
784,524,41,0.208480466679177,1
784,525,41,0.170555801093831,1
784,526,41,0.126670210537991,1
784,545,41,0.124367129185822,1
785,522,41,0.139975332549693,1
785,523,41,0.199557634019951,1
785,524,41,0.22916316986552,1
785,525,41,0.182258741244389,1
785,526,41,0.12535108552754,1
786,522,41,0.146685108360904,1
786,523,41,0.163395523523444,1
786,524,41,0.173092638304453,1
786,525,41,0.137456129924756,1
787,521,41,0.128200928268529,1
787,522,41,0.179997008032091,1
787,523,41,0.160731106052814,1
787,524,41,0.141103678335877,1
787,525,41,0.106868723548679,1
788,521,41,0.136180539252022,1
788,522,41,0.185454204018303,1
788,523,41,0.166884338355253,1
788,524,41,0.143178447016067,1
788,525,41,0.103704916027248,1
789,520,41,0.115895088291608,1
789,521,41,0.147996637449248,1
789,522,41,0.169428336479227,1
789,523,41,0.15103389088517,1
789,524,41,0.136697496964085,1
789,525,41,0.104057808514232,1
790,519,41,0.106796802101177,1
790,520,41,0.142315133102417,1
790,521,41,0.212337365842185,1
790,522,41,0.206083724595823,1
790,523,41,0.14590489227354,1
790,524,41,0.117922775639617,1
791,519,41,0.110573637345113,1
791,520,41,0.162787715905999,1
791,521,41,0.247567988745275,1
791,522,41,0.21487130299444,1
791,523,41,0.12533737717472,1
792,519,41,0.123327625572304,1
792,520,41,0.139439714077445,1
792,521,41,0.160802625953773,1
792,522,41,0.127751207294298,1
793,518,41,0.14012756330582,1
793,519,41,0.13766836958094,1
793,520,41,0.11568763373173,1
794,518,41,0.151463099523489,1
794,519,41,0.125967872171852,1
795,518,41,0.136773645804361,1
795,519,41,0.116632952372743,1
796,518,41,0.116611101548355,1
796,519,41,0.129199541059071,1
796,520,41,0.131073190691509,1
797,519,41,0.121888281988469,1
797,520,41,0.130425339960457,1
798,518,41,0.104155897411461,1
798,519,41,0.104039114291836,1
798,520,41,0.106148516361371,1
799,518,41,0.120037966671815,1
800,519,41,0.104786961266196,1
800,520,41,0.104268776606362,1
800,521,41,0.11267073647473,1
801,520,41,0.115106930505946,1
801,521,41,0.156282014971261,1
801,522,41,0.16004778537712,1
801,553,41,0.111241587711462,1
801,554,41,0.161703718704689,1
802,521,41,0.146762696076292,1
802,522,41,0.169870952310459,1
802,523,41,0.11358944150319,1
802,553,41,0.122416895704353,1
803,522,41,0.134474133754797,1
803,523,41,0.124729346475862,1
804,523,41,0.138979865207072,1
804,524,41,0.114777561953947,1
804,553,41,0.132570435056048,1
805,524,41,0.122992456903571,1
805,553,41,0.135764559341485,1
805,554,41,0.16557074576384,1
806,525,41,0.107711447047924,1
806,532,41,0.131407009717694,1
806,533,41,0.103408563524351,1
806,552,41,0.120598559108231,1
806,553,41,0.152930986374098,1
807,526,41,0.107147965707211,1
807,532,41,0.124863440713125,1
807,550,41,0.10406280553788,1
807,551,41,0.137233963145701,1
807,552,41,0.158132832221094,1
808,550,41,0.133402640266677,1
808,551,41,0.163941749516873,1
809,530,41,0.118564647788804,1
809,531,41,0.108717109211112,1
809,549,41,0.131065583615331,1
809,550,41,0.155671184600672,1
810,530,41,0.123904815265836,1
810,531,41,0.137052029099453,1
810,548,41,0.112918535308121,1
810,549,41,0.141162348747456,1
811,531,41,0.130774540450059,1
811,532,41,0.127791941960284,1
811,533,41,0.118754612765914,1
811,544,41,0.110815245669298,1
811,545,41,0.125680621390599,1
811,546,41,0.132346171311712,1
811,547,41,0.122634690087717,1
811,548,41,0.124736920089829,1
812,532,41,0.11893720490233,1
812,533,41,0.124101639996391,1
812,536,41,0.104890972974936,1
812,537,41,0.110235880931991,1
812,538,41,0.129980716396511,1
812,539,41,0.149611668799771,1
812,540,41,0.121040494541153,1
812,543,41,0.113091434557149,1
812,544,41,0.130924629624623,1
812,545,41,0.132317516504232,1
812,546,41,0.130103098859599,1
813,536,41,0.107796742226126,1
813,537,41,0.107140314014751,1
813,538,41,0.110597830524337,1
813,539,41,0.123548364630317,1
813,540,41,0.114966467294346,1
813,543,41,0.116045166312101,1
813,544,41,0.129589621217577,1
779,539,42,0.120045105277027,1
780,539,42,0.135176684048278,1
780,540,42,0.159191877766377,1
780,542,42,0.139393101216231,1
780,543,42,0.131616260082945,1
780,544,42,0.138228593933024,1
781,533,42,0.135863150171893,1
781,535,42,0.188924436168421,1
781,536,42,0.141059474753921,1
781,539,42,0.105508785793747,1
781,540,42,0.112516263750404,1
781,541,42,0.1135041797872,1
781,542,42,0.111115903643464,1
781,543,42,0.126007167962725,1
781,544,42,0.132495881247875,1
781,545,42,0.134470742917321,1
781,546,42,0.162707428905515,1
782,533,42,0.122875974943853,1
782,534,42,0.161528309789767,1
782,535,42,0.155134885730116,1
782,536,42,0.112197781571352,1
782,543,42,0.107878010784826,1
782,544,42,0.11153463860945,1
782,545,42,0.120924603747179,1
783,524,42,0.119867164388069,1
783,525,42,0.112744598730524,1
783,545,42,0.113693085127599,1
784,523,42,0.174826583202095,1
784,524,42,0.173512633680421,1
784,525,42,0.141092524265235,1
784,545,42,0.10831667807505,1
785,522,42,0.132740568095557,1
785,523,42,0.169363509020654,1
785,524,42,0.184396920816182,1
785,525,42,0.150865531342894,1
786,522,42,0.129292777935571,1
786,523,42,0.13278229547383,1
786,524,42,0.131684467224923,1
786,525,42,0.107937785449399,1
787,521,42,0.116372582901738,1
787,522,42,0.156747652804298,1
787,523,42,0.134314786701599,1
787,524,42,0.105331469532745,1
788,521,42,0.123068594589776,1
788,522,42,0.163402439047242,1
788,523,42,0.143598620857166,1
788,524,42,0.107678631772094,1
789,521,42,0.135498490140382,1
789,522,42,0.154506733087819,1
789,523,42,0.128336115604714,1
790,520,42,0.12080203166489,1
790,521,42,0.190781365848966,1
790,522,42,0.188725380623737,1
790,523,42,0.118565149721983,1
791,520,42,0.134401643449692,1
791,521,42,0.206437152478198,1
791,522,42,0.183586131421187,1
792,519,42,0.10359885196951,1
792,520,42,0.116885346683239,1
792,521,42,0.130095536399703,1
792,522,42,0.10337712019921,1
793,518,42,0.112608864844877,1
793,519,42,0.11211492913462,1
794,518,42,0.117797515426303,1
794,519,42,0.104465233252587,1
795,517,42,0.113856626111358,1
795,518,42,0.112988170171142,1
795,519,42,0.118720202457982,1
795,520,42,0.105695460320018,1
796,518,42,0.109557780361358,1
796,519,42,0.144300803066316,1
796,520,42,0.139474046306883,1
797,519,42,0.120334308020642,1
797,520,42,0.121051235911182,1
800,520,42,0.109071931352317,1
800,521,42,0.116322746514108,1
801,520,42,0.121082322306062,1
801,521,42,0.155041269615214,1
801,522,42,0.141457630459572,1
801,554,42,0.114467612638936,1
801,555,42,0.136252393775101,1
802,520,42,0.114231045954682,1
802,521,42,0.151991222460265,1
802,522,42,0.16398632118316,1
802,523,42,0.106348062685163,1
802,554,42,0.138457642773666,1
803,521,42,0.130629972540463,1
803,522,42,0.14314046740553,1
803,523,42,0.121318297824573,1
804,522,42,0.125030272147723,1
804,523,42,0.138124905692333,1
804,524,42,0.109488089727984,1
805,523,42,0.129015208887635,1
805,524,42,0.13751382993219,1
805,553,42,0.116539425490407,1
805,554,42,0.149782292618388,1
806,523,42,0.117143083793573,1
806,524,42,0.145269355636478,1
806,525,42,0.110619960200491,1
806,552,42,0.105422029432291,1
806,553,42,0.140884512001825,1
807,525,42,0.107831587542813,1
807,551,42,0.104973903490162,1
807,552,42,0.134402279231718,1
808,550,42,0.103812586271159,1
808,551,42,0.131604849468678,1
809,527,42,0.110632653532882,1
809,530,42,0.120673971779844,1
809,550,42,0.125223215261695,1
810,530,42,0.124721951327027,1
810,531,42,0.127189945613644,1
810,549,42,0.122209273833416,1
811,531,42,0.127871202786269,1
811,532,42,0.124970954800047,1
811,533,42,0.110743603073562,1
811,546,42,0.103318550174267,1
811,547,42,0.110912821479278,1
811,548,42,0.125706097287946,1
812,532,42,0.121130072882482,1
812,533,42,0.127483464982598,1
812,538,42,0.111505225325166,1
812,539,42,0.122106132142186,1
812,545,42,0.109380029091601,1
812,546,42,0.119475935360287,1
812,547,42,0.134267928450831,1
813,536,42,0.106713135417289,1
813,537,42,0.105345032882646,1
813,538,42,0.108141168773492,1
813,539,42,0.117080855233459,1
813,540,42,0.106222690931143,1
813,543,42,0.108644485057159,1
813,544,42,0.115221393578878,1
813,545,42,0.125293385520107,1
814,537,42,0.129752470648955,1
814,538,42,0.114033775061301,1
814,539,42,0.115161596606164,1
814,540,42,0.118164963975475,1
779,539,43,0.104382949673458,1
779,542,43,0.12754009419925,1
780,539,43,0.109033806738861,1
780,540,43,0.1441871319324,1
780,541,43,0.162195713606654,1
780,542,43,0.139650369855598,1
780,543,43,0.124612585664378,1
780,544,43,0.134923397412131,1
780,545,43,0.158823269193858,1
781,536,43,0.146449891319197,1
781,540,43,0.103854547884916,1
781,541,43,0.118159208475023,1
781,542,43,0.114747825201614,1
781,543,43,0.115109663253253,1
781,544,43,0.116063760147862,1
781,545,43,0.121981585789393,1
781,546,43,0.137903285462739,1
782,534,43,0.127563584672023,1
782,535,43,0.141741334246361,1
782,536,43,0.114271022143864,1
782,545,43,0.105115035946,1
782,546,43,0.130522770767519,1
782,548,43,0.159672183202309,1
783,523,43,0.124628814837163,1
783,524,43,0.115546110883419,1
783,525,43,0.104632878934342,1
783,546,43,0.145586845103243,1
784,522,43,0.123949275391416,1
784,523,43,0.148730787224859,1
784,524,43,0.142224428199953,1
784,525,43,0.120501931394256,1
785,522,43,0.117117094808976,1
785,523,43,0.137077772694496,1
785,524,43,0.137744786118911,1
785,525,43,0.118619637357071,1
785,546,43,0.131734839007944,1
786,522,43,0.110701094910344,1
786,523,43,0.111392346130265,1
786,547,43,0.112210218360118,1
786,548,43,0.133322732504595,1
787,522,43,0.121760389414484,1
787,523,43,0.108250021348891,1
788,521,43,0.10643795334047,1
788,522,43,0.128427690524688,1
788,523,43,0.11347240183994,1
789,521,43,0.121024923458536,1
789,522,43,0.133037567534552,1
789,523,43,0.107006141698993,1
790,521,43,0.153932398836372,1
790,522,43,0.150943933305439,1
791,520,43,0.108177174113526,1
791,521,43,0.152361827611429,1
791,522,43,0.13480757354258,1
795,519,43,0.118322794075065,1
795,520,43,0.109288989567018,1
796,519,43,0.14605457990156,1
796,520,43,0.133667471365939,1
797,519,43,0.112555871855255,1
800,520,43,0.11270685335547,1
800,521,43,0.114087571144009,1
801,520,43,0.123904291024516,1
801,521,43,0.139097261800583,1
801,522,43,0.111570097400022,1
801,555,43,0.107884000520761,1
802,520,43,0.119563450198547,1
802,521,43,0.142689653332377,1
802,522,43,0.138553601243402,1
803,521,43,0.142314965791358,1
803,522,43,0.13690906737603,1
803,523,43,0.103645096746393,1
803,554,43,0.106639128158576,1
804,522,43,0.128416904538377,1
804,523,43,0.118516752209465,1
804,554,43,0.111053005839111,1
805,522,43,0.117089990417315,1
805,523,43,0.133368642659359,1
805,524,43,0.1277793601686,1
805,554,43,0.132173227446402,1
806,522,43,0.11600868134703,1
806,523,43,0.147077263176549,1
806,524,43,0.164230271862179,1
806,525,43,0.106806327677506,1
806,553,43,0.125156480457042,1
807,523,43,0.13564119532018,1
807,524,43,0.156285082340688,1
807,525,43,0.116939667007267,1
807,552,43,0.113377569931338,1
808,525,43,0.119575641597759,1
808,526,43,0.113264512271307,1
808,551,43,0.107121407865012,1
809,526,43,0.156917897384513,1
809,527,43,0.122407615517579,1
810,526,43,0.204019998445569,1
810,527,43,0.141488616467816,1
810,530,43,0.103445862736579,1
810,549,43,0.108544511121992,1
811,531,43,0.104933536908507,1
811,547,43,0.10350162193572,1
811,548,43,0.129530315023971,1
812,532,43,0.107355375650807,1
812,533,43,0.110379991524691,1
812,546,43,0.116253267808076,1
812,547,43,0.141996918621061,1
813,544,43,0.106805781128044,1
813,545,43,0.123963552601839,1
813,546,43,0.149456147592804,1
814,535,43,0.111382564010311,1
814,536,43,0.150183794545231,1
814,537,43,0.131486750168716,1
814,538,43,0.108572474377092,1
814,539,43,0.10934564109181,1
814,540,43,0.111498198260661,1
779,542,44,0.104780871143625,1
780,540,44,0.123809191418219,1
780,541,44,0.146202471724208,1
780,542,44,0.139612747175321,1
780,543,44,0.126567671166576,1
780,544,44,0.132695282568749,1
780,545,44,0.171067706011892,1
781,534,44,0.111085609187599,1
781,536,44,0.139096581402274,1
781,541,44,0.117446920677871,1
781,542,44,0.126477936668258,1
781,543,44,0.119064495156501,1
781,544,44,0.10595577402067,1
781,545,44,0.112953826787634,1
781,546,44,0.126592622822603,1
781,547,44,0.129180512214555,1
782,535,44,0.115766158389052,1
782,536,44,0.103865835804406,1
782,546,44,0.107383238519271,1
782,547,44,0.124884399211862,1
782,548,44,0.142683139355122,1
783,522,44,0.108422708670577,1
783,523,44,0.137534821893138,1
783,524,44,0.125656885528272,1
783,546,44,0.124962131930169,1
783,547,44,0.161745903399859,1
783,548,44,0.175426081036911,1
783,549,44,0.16407071288164,1
784,522,44,0.105083269152811,1
784,523,44,0.13238416207632,1
784,524,44,0.123147208479664,1
784,546,44,0.137107977917796,1
785,523,44,0.107833483734822,1
785,546,44,0.106168682921092,1
785,547,44,0.153050056078206,1
785,548,44,0.155429977823031,1
786,548,44,0.103256410846718,1
790,521,44,0.10705504114469,1
795,519,44,0.105291772195329,1
796,519,44,0.126293258720632,1
796,520,44,0.114186161974417,1
800,520,44,0.106900613036646,1
801,520,44,0.118697459307943,1
801,521,44,0.119259044456646,1
802,520,44,0.120975209765683,1
802,521,44,0.129057817437489,1
802,522,44,0.110808352453641,1
803,519,44,0.120952734313339,1
803,520,44,0.151463322604902,1
803,521,44,0.146817964496325,1
803,522,44,0.120710490207128,1
804,521,44,0.16346438875559,1
804,522,44,0.127470035481545,1
805,521,44,0.137791454750479,1
805,522,44,0.131501406617541,1
805,523,44,0.128205847213682,1
805,554,44,0.109001604936917,1
806,521,44,0.11505490792047,1
806,522,44,0.12976592245815,1
806,523,44,0.1618174679171,1
806,524,44,0.150719357247125,1
806,553,44,0.105044966074225,1
807,522,44,0.121728856856778,1
807,523,44,0.149152645330625,1
807,524,44,0.171230934681673,1
807,525,44,0.118185476311386,1
808,523,44,0.141010798389638,1
808,524,44,0.150270037819438,1
808,525,44,0.132300908093046,1
808,526,44,0.11666189718606,1
809,525,44,0.156969819583354,1
809,526,44,0.186954103051656,1
809,527,44,0.13160036553228,1
810,525,44,0.202973211223922,1
810,526,44,0.228707637620485,1
810,527,44,0.148864290296378,1
811,526,44,0.197161338099423,1
811,527,44,0.159903697092562,1
811,528,44,0.132552967781422,1
811,548,44,0.125931476439346,1
812,529,44,0.111508471159723,1
812,546,44,0.11071560635625,1
812,547,44,0.146286406105792,1
813,545,44,0.11974894239333,1
813,546,44,0.157491383926592,1
814,535,44,0.115106395110555,1
814,538,44,0.107574999301755,1
814,540,44,0.104245208055095,1
814,541,44,0.112349053077404,1
814,542,44,0.111995045183356,1
814,543,44,0.110880061973801,1
814,544,44,0.121820587933741,1
779,543,45,0.109225634445769,1
780,540,45,0.103175844994468,1
780,541,45,0.124698672781596,1
780,542,45,0.13598064715204,1
780,543,45,0.132603339564443,1
780,544,45,0.137727095762872,1
780,545,45,0.183770262819351,1
781,536,45,0.126491533480371,1
781,541,45,0.11221824929098,1
781,542,45,0.144010161447588,1
781,543,45,0.137265384162701,1
781,544,45,0.108980445664908,1
781,545,45,0.117545979979246,1
781,546,45,0.136327516440877,1
781,547,45,0.13610375462972,1
782,547,45,0.118004713442556,1
782,548,45,0.140118249656834,1
783,522,45,0.105887265718785,1
783,523,45,0.156336870690681,1
783,524,45,0.146670440758009,1
783,525,45,0.103709399963647,1
783,546,45,0.109477292587603,1
783,547,45,0.14923243039793,1
784,523,45,0.130490624735927,1
784,524,45,0.121906429661404,1
784,546,45,0.117529081562223,1
785,547,45,0.129419131247808,1
787,550,45,0.119643915664161,1
800,556,45,0.106013786342081,1
800,557,45,0.127482617273229,1
801,520,45,0.106976494179226,1
801,556,45,0.118086840864696,1
802,520,45,0.112020978397599,1
802,521,45,0.109925128523894,1
803,519,45,0.103263326370516,1
803,520,45,0.135484212929959,1
803,521,45,0.133800271731007,1
804,519,45,0.120696726083955,1
804,520,45,0.158216476596841,1
804,521,45,0.156284156552825,1
804,522,45,0.123761875850554,1
805,520,45,0.139107055074607,1
805,521,45,0.142487474647913,1
805,522,45,0.146591648402991,1
805,523,45,0.120353805336125,1
806,521,45,0.122160285155154,1
806,522,45,0.146523307412165,1
806,523,45,0.161180313939795,1
806,524,45,0.121475369447359,1
807,522,45,0.129012063439714,1
807,523,45,0.155853241341697,1
807,524,45,0.162479785477775,1
807,525,45,0.112778596337842,1
808,523,45,0.152714184703022,1
808,524,45,0.164041790376464,1
808,525,45,0.143062756995365,1
808,526,45,0.116607777635303,1
809,523,45,0.156917339680981,1
809,524,45,0.130639687735992,1
809,525,45,0.156583855276915,1
809,526,45,0.193442570947251,1
809,527,45,0.13545990821003,1
810,525,45,0.181882559057904,1
810,526,45,0.238928045625681,1
810,527,45,0.170126893615419,1
811,526,45,0.190209965118098,1
811,527,45,0.168209040401025,1
811,528,45,0.13555298892954,1
811,548,45,0.117673894861373,1
812,527,45,0.16336698025667,1
812,528,45,0.161089620191402,1
812,529,45,0.104729863578577,1
812,546,45,0.105913009313827,1
812,547,45,0.144917065469308,1
813,529,45,0.116152189619915,1
813,545,45,0.115781774087952,1
813,546,45,0.16307283625976,1
814,535,45,0.11312946993804,1
814,538,45,0.106036841806099,1
814,541,45,0.105692850267488,1
814,542,45,0.105004800265842,1
814,543,45,0.1057534837955,1
814,544,45,0.119058304647294,1
815,542,45,0.159611984683052,1
780,536,46,0.114923022189194,1
780,542,46,0.124250847999375,1
780,543,46,0.13838027813969,1
780,544,46,0.155582844361185,1
780,545,46,0.191725468696279,1
780,546,46,0.197253269949658,1
781,535,46,0.12405473712934,1
781,536,46,0.119646603795186,1
781,542,46,0.151673643760935,1
781,543,46,0.155750556967363,1
781,544,46,0.126394559990206,1
781,545,46,0.128157907018061,1
781,546,46,0.139393212756937,1
781,547,46,0.135664585406317,1
782,547,46,0.112265163312102,1
783,523,46,0.162319144552383,1
783,524,46,0.163797672386385,1
783,525,46,0.105969270446148,1
783,547,46,0.138815610362792,1
784,523,46,0.125632803889755,1
784,524,46,0.124700078194497,1
785,547,46,0.112681567077324,1
789,551,46,0.117044827585284,1
789,552,46,0.132182518787247,1
790,552,46,0.111862133277581,1
795,554,46,0.128585141385876,1
800,556,46,0.118271128419849,1
801,556,46,0.116868782888335,1
803,520,46,0.116551672659972,1
803,521,46,0.113641653707867,1
804,520,46,0.127139796912036,1
804,521,46,0.136806840318592,1
804,522,46,0.113315330217154,1
805,520,46,0.123984578025,1
805,521,46,0.143559681996554,1
805,522,46,0.150757426090228,1
805,523,46,0.108321095087025,1
806,521,46,0.137517756165056,1
806,522,46,0.163675624545416,1
806,523,46,0.148750262232201,1
807,522,46,0.149814204414496,1
807,523,46,0.160766241375338,1
807,524,46,0.139339383212017,1
808,523,46,0.171690593932846,1
808,524,46,0.164167128668273,1
808,525,46,0.142389787297227,1
808,526,46,0.107939135091947,1
809,524,46,0.144372211426569,1
809,525,46,0.146331647016317,1
809,526,46,0.162991277695223,1
809,527,46,0.122134876182231,1
810,524,46,0.133020211800632,1
810,525,46,0.153287938942796,1
810,526,46,0.212786629499519,1
810,527,46,0.179672067646137,1
810,528,46,0.104041434338529,1
811,525,46,0.152753435877613,1
811,526,46,0.191777357432908,1
811,527,46,0.182336206265001,1
811,528,46,0.126772415287287,1
811,549,46,0.129138015205408,1
812,527,46,0.145427999983224,1
812,528,46,0.133134864492765,1
812,547,46,0.133345899509319,1
813,528,46,0.123656837967314,1
813,529,46,0.106737930916327,1
813,545,46,0.106271389603567,1
813,546,46,0.156910769933373,1
814,537,46,0.110484315547409,1
814,544,46,0.113593880823306,1
815,541,46,0.143742552984736,1
815,542,46,0.137951850286316,1
815,543,46,0.141471405736815,1
816,542,46,0.164800367566782,1
780,542,47,0.109033048262057,1
781,535,47,0.128973247273878,1
781,536,47,0.125385361986624,1
781,542,47,0.140185174080688,1
781,543,47,0.171481354721665,1
781,544,47,0.167006096190385,1
781,545,47,0.151663861640982,1
781,546,47,0.140978652358046,1
781,547,47,0.132351703730751,1
782,543,47,0.113423725475656,1
782,547,47,0.112033627113708,1
783,523,47,0.145525207708873,1
783,524,47,0.159739765716331,1
783,547,47,0.130347997634623,1
784,523,47,0.109115833774365,1
784,524,47,0.117999158715376,1
789,551,47,0.126417593146082,1
790,552,47,0.133274279221724,1
791,553,47,0.118699032031903,1
795,554,47,0.124207670591918,1
803,520,47,0.107603497952246,1
804,520,47,0.106891812474909,1
804,521,47,0.115982881981634,1
805,520,47,0.112675911963508,1
805,521,47,0.137640283631062,1
805,522,47,0.137422043084873,1
806,521,47,0.154677189595376,1
806,522,47,0.173882011883815,1
806,523,47,0.129022570574259,1
807,522,47,0.183985804080445,1
807,523,47,0.163902208336445,1
807,524,47,0.108611881708672,1
808,524,47,0.151754187305044,1
808,525,47,0.123721821582877,1
809,525,47,0.13567001743872,1
809,526,47,0.122093405347583,1
810,525,47,0.140033367179245,1
810,526,47,0.16692665689927,1
810,527,47,0.160323235151634,1
811,525,47,0.158164387086941,1
811,526,47,0.196463650980742,1
811,527,47,0.188071640543387,1
811,528,47,0.117348731394006,1
811,549,47,0.117138376775762,1
812,526,47,0.161194836539772,1
812,527,47,0.146772400117751,1
812,528,47,0.113746825439954,1
812,547,47,0.11797265664353,1
813,527,47,0.11041053137011,1
813,528,47,0.108098281371872,1
813,546,47,0.144508134931417,1
814,529,47,0.11796519457027,1
814,530,47,0.117475698180129,1
814,536,47,0.105248594787872,1
814,537,47,0.107534989650361,1
814,538,47,0.105484503381959,1
814,544,47,0.108219492657543,1
814,545,47,0.141998234801396,1
815,541,47,0.141967483028635,1
815,542,47,0.132108834996584,1
815,543,47,0.143282681806221,1
816,542,47,0.145791734226873,1
781,542,48,0.118874385176472,1
781,543,48,0.180528934506956,1
781,546,48,0.134404253502222,1
781,547,48,0.126179186040172,1
781,548,48,0.131168937233903,1
782,543,48,0.118618020016827,1
782,544,48,0.118790049248345,1
782,547,48,0.111260148085011,1
783,523,48,0.11210728859623,1
783,524,48,0.132361251615221,1
783,547,48,0.120774179950496,1
784,547,48,0.125510555275514,1
785,548,48,0.139702425903286,1
789,551,48,0.124701929770223,1
790,552,48,0.1415445875943,1
795,554,48,0.113650588118452,1
805,521,48,0.121639456980579,1
805,522,48,0.112965203939689,1
806,520,48,0.117746898253728,1
806,521,48,0.15996495524853,1
806,522,48,0.169612980964642,1
806,523,48,0.109719659388591,1
807,521,48,0.164969730975416,1
807,522,48,0.209441679870855,1
807,523,48,0.160514817468988,1
808,522,48,0.183534588460748,1
808,524,48,0.135477565103856,1
809,525,48,0.133020579884963,1
810,526,48,0.126833037661229,1
810,527,48,0.120100396005201,1
811,526,48,0.181479964032138,1
811,527,48,0.1684970050428,1
811,528,48,0.104334663701647,1
812,526,48,0.181663125026156,1
812,527,48,0.154634190653049,1
812,528,48,0.103821855303863,1
812,548,48,0.128549336819114,1
813,526,48,0.139459501398765,1
813,527,48,0.115787919980876,1
813,546,48,0.129907277995401,1
814,528,48,0.103869438569224,1
814,529,48,0.107645548798568,1
814,530,48,0.117867328754453,1
814,537,48,0.108018250915013,1
814,538,48,0.114274903760448,1
814,539,48,0.115194668425619,1
814,540,48,0.109149351756646,1
814,544,48,0.104551788840772,1
814,545,48,0.134565976372466,1
815,529,48,0.114314523019369,1
815,541,48,0.144485001388905,1
815,542,48,0.126006253328932,1
815,543,48,0.141903168657311,1
815,544,48,0.155730479640207,1
816,542,48,0.136871533928318,1
816,543,48,0.158650336482618,1
781,546,49,0.128501642013047,1
781,547,49,0.126628148537599,1
781,548,49,0.134442199650547,1
782,543,49,0.121193974553192,1
782,545,49,0.105543240717962,1
782,547,49,0.110160735958074,1
783,547,49,0.11132437322377,1
784,547,49,0.105664663930975,1
785,548,49,0.123562809151799,1
789,551,49,0.118030680119011,1
803,556,49,0.126158718320543,1
804,556,49,0.140190115333983,1
805,521,49,0.105385220999171,1
805,555,49,0.123952766615527,1
806,520,49,0.113365947389729,1
806,521,49,0.150648584668899,1
806,522,49,0.151319903564582,1
807,520,49,0.127171786786638,1
807,521,49,0.172203023092228,1
807,522,49,0.210674137752416,1
807,523,49,0.147781631583545,1
807,554,49,0.118490506681244,1
808,521,49,0.151725242491727,1
808,522,49,0.179957121075474,1
808,524,49,0.120246190862567,1
809,525,49,0.136127702419389,1
810,526,49,0.110429270208789,1
811,526,49,0.156505888323125,1
811,527,49,0.135612283969075,1
811,550,49,0.111184133093583,1
812,527,49,0.158669733411465,1
812,528,49,0.104614497025923,1
812,548,49,0.106577591150842,1
812,549,49,0.132468631853295,1
813,527,49,0.136907026181102,1
813,528,49,0.107031104509091,1
813,546,49,0.112625004785096,1
814,527,49,0.137832568654866,1
814,528,49,0.114255127593199,1
814,529,49,0.109400452194947,1
814,530,49,0.116719318341727,1
814,531,49,0.110870380240484,1
814,532,49,0.103404960759533,1
814,537,49,0.115195304207646,1
814,540,49,0.116012953356086,1
814,545,49,0.124566798204391,1
815,529,49,0.116455736498377,1
815,530,49,0.135583852243008,1
815,541,49,0.142911530105595,1
815,542,49,0.118680761664191,1
815,543,49,0.135132658931453,1
816,542,49,0.138619343335769,1
781,546,50,0.126146348456201,1
781,547,50,0.138531360026541,1
782,543,50,0.121517152595985,1
782,545,50,0.112073625611031,1
782,547,50,0.113212032368935,1
783,547,50,0.104936336580239,1
785,548,50,0.105055863601243,1
801,556,50,0.129165554605824,1
802,556,50,0.127831572373277,1
803,556,50,0.122282344150194,1
803,557,50,0.160049090403386,1
804,556,50,0.129549176557427,1
805,555,50,0.12737827094237,1
805,556,50,0.159636657487313,1
806,520,50,0.109830787394401,1
806,521,50,0.134902137753486,1
806,522,50,0.127144570854271,1
806,555,50,0.158030928631705,1
807,520,50,0.134811165153327,1
807,521,50,0.169315245356984,1
807,522,50,0.184600538375759,1
807,523,50,0.12489894411998,1
807,554,50,0.108301106992433,1
808,521,50,0.152110916792328,1
808,522,50,0.162404963971906,1
808,523,50,0.143978985820142,1
809,525,50,0.132345647070392,1
811,526,50,0.131805176577415,1
812,527,50,0.146661160571235,1
812,549,50,0.114339418905043,1
813,528,50,0.116738458726949,1
813,546,50,0.104540233223586,1
813,547,50,0.125040879668904,1
814,528,50,0.12588536551131,1
814,529,50,0.10950016958649,1
814,530,50,0.108437063959493,1
814,531,50,0.107152148483702,1
814,532,50,0.106532472935094,1
814,533,50,0.109214168061149,1
814,534,50,0.110339156472069,1
814,537,50,0.118087309335663,1
814,540,50,0.117226471625695,1
814,545,50,0.119797942225662,1
815,528,50,0.144750635581253,1
815,529,50,0.126724854330068,1
815,530,50,0.123816084633876,1
815,531,50,0.13543959664739,1
815,535,50,0.160450826565713,1
815,541,50,0.140171499190081,1
815,542,50,0.119998470107671,1
815,543,50,0.130358080914484,1
780,535,51,0.161219520498103,1
782,543,51,0.125089790268671,1
782,545,51,0.124939589553401,1
782,546,51,0.113630354634307,1
782,547,51,0.132770773318856,1
783,547,51,0.109549002107762,1
786,550,51,0.105806934102018,1
787,550,51,0.105810626099401,1
795,554,51,0.106940633842111,1
796,555,51,0.116944117481454,1
799,555,51,0.114670181715873,1
801,556,51,0.146961606618058,1
802,556,51,0.129555723996894,1
803,556,51,0.12205620652199,1
804,555,51,0.115048349326932,1
804,556,51,0.133164422779967,1
805,555,51,0.147050236863383,1
805,556,51,0.14933001736198,1
806,520,51,0.108758936976021,1
806,521,51,0.121987017821796,1
806,522,51,0.107992373471123,1
806,554,51,0.110476485389818,1
806,555,51,0.161313817011314,1
807,519,51,0.110422800847816,1
807,520,51,0.146944998206872,1
807,521,51,0.163910696584204,1
807,522,51,0.150293807143977,1
807,554,51,0.108975370562766,1
807,555,51,0.146168752968656,1
808,522,51,0.141295762586409,1
808,523,51,0.112719435147155,1
808,554,51,0.120689074391494,1
809,525,51,0.11761861528727,1
811,526,51,0.119998748959437,1
812,527,51,0.132051737308965,1
813,528,51,0.125944772091552,1
814,528,51,0.138461267846625,1
814,529,51,0.113067408688985,1
814,531,51,0.108508985406996,1
814,532,51,0.123942672181596,1
814,533,51,0.135638295261813,1
814,534,51,0.126976523625972,1
814,537,51,0.11792820767202,1
814,540,51,0.117179189520242,1
814,544,51,0.103355548226588,1
815,529,51,0.140568662183444,1
815,530,51,0.121383504521548,1
815,531,51,0.123421241687206,1
815,532,51,0.153426595194951,1
815,533,51,0.190129678117614,1
815,534,51,0.187758434239749,1
815,535,51,0.143842381916985,1
815,536,51,0.143310154282213,1
816,535,51,0.161037329908231,1
780,535,52,0.120875536990423,1
780,536,52,0.132355339957781,1
782,545,52,0.143528428290614,1
782,546,52,0.13162068824899,1
793,553,52,0.115975163364749,1
795,554,52,0.121171666411908,1
796,555,52,0.131240579829639,1
797,555,52,0.134925304758211,1
798,555,52,0.139530073203719,1
799,555,52,0.121836114400075,1
800,555,52,0.110882761258897,1
802,556,52,0.131584114051354,1
803,556,52,0.120629980125231,1
804,555,52,0.130920123380083,1
804,556,52,0.136588309766567,1
805,554,52,0.116940135478234,1
805,555,52,0.166771202616727,1
805,556,52,0.147138610565082,1
806,521,52,0.107630033486305,1
806,554,52,0.121973253698623,1
806,555,52,0.164432952479822,1
807,519,52,0.116286306165319,1
807,520,52,0.150757794174559,1
807,521,52,0.154662477376199,1
807,522,52,0.120787899457386,1
807,554,52,0.110780991518355,1
807,555,52,0.133434239748807,1
808,519,52,0.136506383117698,1
808,522,52,0.126719132291829,1
808,554,52,0.107195883594691,1
809,523,52,0.11567981472821,1
809,524,52,0.11214062811338,1
810,525,52,0.148604233139351,1
811,526,52,0.109526883585679,1
812,527,52,0.12196539007882,1
813,528,52,0.12727322190506,1
813,546,52,0.104520312053419,1
814,528,52,0.145780368228888,1
814,529,52,0.120366900215059,1
814,531,52,0.110909319101096,1
814,532,52,0.142373725435502,1
814,533,52,0.164036592579545,1
814,534,52,0.145708368702891,1
814,537,52,0.115134559138927,1
814,540,52,0.119662085645238,1
814,544,52,0.107702836105388,1
815,529,52,0.159295465620433,1
815,530,52,0.124927230843129,1
815,531,52,0.117960353703611,1
815,532,52,0.156791042139097,1
815,533,52,0.199078990540545,1
815,534,52,0.181151710887203,1
815,535,52,0.132098272091685,1
815,536,52,0.140062579690258,1
816,531,52,0.130739683979301,1
816,534,52,0.161749126926275,1
783,546,53,0.116528628350025,1
789,551,53,0.137081152377901,1
791,552,53,0.117238752257472,1
792,553,53,0.151706314033846,1
793,553,53,0.114364415177353,1
795,554,53,0.13057296408541,1
797,555,53,0.136405951865634,1
798,555,53,0.135002647084045,1
799,555,53,0.132927488011382,1
800,555,53,0.126372140308215,1
801,555,53,0.106349100013733,1
802,556,53,0.131612612701845,1
803,555,53,0.103756916304583,1
803,556,53,0.121496361408308,1
803,557,53,0.130200886596921,1
804,555,53,0.141346781305528,1
804,556,53,0.137720715634465,1
805,554,53,0.129839316242977,1
805,555,53,0.180024402429589,1
805,556,53,0.14628395221025,1
806,554,53,0.137292856638693,1
806,555,53,0.170518691500803,1
807,519,53,0.117733580293381,1
807,520,53,0.151121818424044,1
807,521,53,0.152017367601851,1
807,522,53,0.109934375248457,1
807,554,53,0.122087192530235,1
807,555,53,0.135509588440671,1
808,522,53,0.131475674176569,1
808,554,53,0.109706363736385,1
809,523,53,0.112392732418039,1
810,525,53,0.123419345495197,1
812,527,53,0.11803535367461,1
813,528,53,0.127293589238053,1
814,529,53,0.134026197431869,1
814,530,53,0.110804236601574,1
814,531,53,0.116899356195966,1
814,532,53,0.153618701753625,1
814,533,53,0.177781731524018,1
814,534,53,0.155171348387046,1
814,535,53,0.103052469819093,1
814,537,53,0.112175729973692,1
814,540,53,0.120589647005788,1
815,529,53,0.180288586592754,1
815,531,53,0.127353040434577,1
815,532,53,0.161711470783786,1
815,533,53,0.193766998245955,1
815,534,53,0.166384457525344,1
815,535,53,0.123483804869439,1
816,532,53,0.148599570737822,1
816,533,53,0.163258328454543,1
816,534,53,0.146885301620794,1
783,544,54,0.110469670252656,1
783,545,54,0.117905977609229,1
787,551,54,0.111795554629916,1
788,551,54,0.132054971989452,1
789,551,54,0.125866526285995,1
790,552,54,0.149857192202751,1
791,552,54,0.119059486978783,1
791,553,54,0.172297397683933,1
792,553,54,0.136201720832172,1
793,553,54,0.109735353165985,1
796,554,54,0.1116152044617,1
797,555,54,0.148778705112339,1
798,555,54,0.147237926410082,1
801,555,54,0.120348719079912,1
802,555,54,0.106882364977075,1
802,556,54,0.139555214478947,1
803,555,54,0.11439161995565,1
803,556,54,0.126776519985284,1
803,557,54,0.124879904121393,1
804,555,54,0.143838422221907,1
804,556,54,0.134181830179542,1
805,554,54,0.133270107599304,1
805,555,54,0.17762931114869,1
805,556,54,0.138780887740882,1
806,554,54,0.143915530312258,1
806,555,54,0.165144582186806,1
807,519,54,0.107145601044235,1
807,520,54,0.139116368723593,1
807,522,54,0.103542992383733,1
807,553,54,0.104035288445605,1
807,554,54,0.12973519299353,1
809,523,54,0.114847787982711,1
810,524,54,0.146901586563931,1
810,525,54,0.107691659726604,1
812,527,54,0.113174141990962,1
812,548,54,0.107385413563047,1
812,549,54,0.120545376499408,1
813,528,54,0.123763169722748,1
813,532,54,0.107045281332878,1
813,533,54,0.112674640399455,1
813,539,54,0.102957649064562,1
813,546,54,0.108873533897801,1
814,529,54,0.142888374254942,1
814,530,54,0.124535209876332,1
814,531,54,0.128206036832883,1
814,532,54,0.163789529914816,1
814,533,54,0.183505119406111,1
814,534,54,0.156441930882061,1
814,535,54,0.107015165342143,1
814,537,54,0.113259682558719,1
814,539,54,0.149423332316974,1
814,540,54,0.120958411735296,1
815,529,54,0.192373163270341,1
815,530,54,0.161603666691027,1
815,531,54,0.152116583060215,1
815,532,54,0.17123730365601,1
815,533,54,0.180205109528066,1
815,534,54,0.150328641306593,1
815,535,54,0.11963208119521,1
815,536,54,0.132193840168949,1
815,540,54,0.130740598613094,1
816,532,54,0.173129937516681,1
816,533,54,0.160280871991334,1
816,534,54,0.136529572430564,1
816,535,54,0.143105477085925,1
783,544,55,0.119341618041611,1
783,545,55,0.141126789570248,1
784,546,55,0.107357461462017,1
787,551,55,0.114910295394591,1
788,551,55,0.116854137593582,1
789,551,55,0.11315950785028,1
790,552,55,0.145497132913066,1
791,552,55,0.125049178297462,1
791,553,55,0.148117726040142,1
791,554,55,0.151834373918892,1
792,553,55,0.12468711716441,1
792,554,55,0.142593828711488,1
793,553,55,0.103837682930105,1
797,554,55,0.10528050658398,1
798,554,55,0.105107239250621,1
798,555,55,0.16415040871638,1
799,554,55,0.119167112606411,1
800,554,55,0.106949902874814,1
801,555,55,0.136247497138089,1
802,555,55,0.118754177757159,1
802,556,55,0.150994204701824,1
803,555,55,0.120633114419081,1
803,556,55,0.13508382641018,1
803,557,55,0.125311064722075,1
804,554,55,0.103781009097171,1
804,555,55,0.1379097213615,1
804,556,55,0.131123696323377,1
805,554,55,0.130718881637553,1
805,555,55,0.163327651003585,1
805,556,55,0.132432715745827,1
806,553,55,0.106112232169571,1
806,554,55,0.142326108707929,1
806,555,55,0.150698242591399,1
807,520,55,0.124614961481425,1
807,522,55,0.10312881943264,1
807,553,55,0.12145560443418,1
807,554,55,0.131953983033855,1
808,552,55,0.10684581308758,1
808,553,55,0.116689905057443,1
809,523,55,0.121612765289532,1
809,550,55,0.107370422492103,1
810,524,55,0.13215809137254,1
810,549,55,0.105817820474965,1
811,525,55,0.139300857052018,1
811,550,55,0.105935964391209,1
812,527,55,0.107560432085496,1
812,547,55,0.103681592865535,1
812,548,55,0.115727587612771,1
813,528,55,0.124852007790717,1
813,531,55,0.104818125739571,1
813,532,55,0.136140094591873,1
813,533,55,0.14759331740889,1
813,534,55,0.117360030467567,1
813,545,55,0.105281209290431,1
814,529,55,0.148651693709934,1
814,530,55,0.139812884664857,1
814,531,55,0.143287076510054,1
814,532,55,0.177145614875283,1
814,533,55,0.191237478105675,1
814,534,55,0.154970084336374,1
814,535,55,0.112246078697233,1
814,537,55,0.116932695713116,1
814,538,55,0.144794638389938,1
814,539,55,0.140701373315947,1
814,540,55,0.118892265151712,1
815,529,55,0.188393747795398,1
815,530,55,0.180091025693536,1
815,531,55,0.174919362761698,1
815,532,55,0.178577150609668,1
815,533,55,0.165772656750609,1
815,534,55,0.137217711664775,1
815,535,55,0.120604816541862,1
815,536,55,0.131438664970177,1
815,540,55,0.122367851255739,1
816,533,55,0.15953121805753,1
816,534,55,0.128007215523682,1
782,543,56,0.106588477523789,1
782,544,56,0.142533228645688,1
783,544,56,0.114702138128263,1
787,551,56,0.127676720410548,1
788,551,56,0.111869160342086,1
789,551,56,0.105199338411916,1
790,552,56,0.140597395069419,1
791,552,56,0.128215584717353,1
791,553,56,0.134886388205739,1
792,553,56,0.116884565898294,1
797,554,56,0.11813552838305,1
798,554,56,0.117476445502862,1
800,554,56,0.135949649989725,1
801,555,56,0.154218288821007,1
802,555,56,0.121266230622814,1
802,556,56,0.152399807221966,1
803,555,56,0.115078431855455,1
803,556,56,0.131826536622696,1
803,557,56,0.120966833058631,1
804,555,56,0.122944594786445,1
804,556,56,0.120455351995254,1
805,554,56,0.120737304592952,1
805,555,56,0.138068990336202,1
805,556,56,0.119954054598373,1
806,553,56,0.116399241130573,1
806,554,56,0.129459832451582,1
806,555,56,0.127021407606237,1
807,520,56,0.109433334395201,1
807,521,56,0.119741168006092,1
807,522,56,0.103776435928207,1
807,552,56,0.114727179016855,1
807,553,56,0.134281469492591,1
807,554,56,0.125522969756139,1
808,523,56,0.109369064640159,1
808,550,56,0.109453322489792,1
808,551,56,0.112782098716024,1
808,552,56,0.122411753677787,1
808,553,56,0.122288222345423,1
809,549,56,0.127943369623325,1
809,550,56,0.149632147673471,1
809,551,56,0.129170585091683,1
809,552,56,0.112121409649663,1
810,524,56,0.125811280174103,1
810,549,56,0.124590857534767,1
810,550,56,0.12335533228378,1
810,551,56,0.11184336097669,1
811,525,56,0.121391044673302,1
811,548,56,0.106131205243734,1
811,549,56,0.108404616767995,1
811,550,56,0.109097529944441,1
812,525,56,0.143057023803054,1
812,526,56,0.12600951031756,1
812,527,56,0.104931640716498,1
812,547,56,0.109200035853645,1
812,548,56,0.123649900135375,1
812,549,56,0.126199720684225,1
813,528,56,0.126606933495237,1
813,529,56,0.106407881966018,1
813,530,56,0.103574524941439,1
813,531,56,0.11223386498988,1
813,532,56,0.146098716559092,1
813,533,56,0.161420907243552,1
813,534,56,0.120762758182158,1
813,545,56,0.106458019513556,1
813,547,56,0.126390276827079,1
814,529,56,0.151876792849545,1
814,530,56,0.151740858190626,1
814,531,56,0.152180239341371,1
814,532,56,0.17329800705312,1
814,533,56,0.180110813014855,1
814,534,56,0.141518330912008,1
814,535,56,0.111892963128836,1
814,536,56,0.104258236009605,1
814,537,56,0.113611270019438,1
814,538,56,0.129645179643446,1
814,539,56,0.123502064083081,1
814,540,56,0.11166678088435,1
815,529,56,0.172207897421099,1
815,530,56,0.183615031618221,1
815,531,56,0.180487775986285,1
815,532,56,0.17093969074313,1
815,533,56,0.145799876698441,1
815,534,56,0.123999189857541,1
815,535,56,0.120356895013693,1
815,536,56,0.129659534932363,1
815,537,56,0.14203614748751,1
815,538,56,0.150167063439268,1
815,539,56,0.131866880896209,1
815,540,56,0.112977361876689,1
816,534,56,0.120086866117512,1
816,536,56,0.147910751105301,1
782,543,57,0.110721294932277,1
782,544,57,0.129090197704564,1
783,544,57,0.107322348447634,1
784,545,57,0.112091695205472,1
786,548,57,0.109072868294251,1
788,551,57,0.119737509470921,1
789,551,57,0.105773940361058,1
790,552,57,0.137369641260995,1
791,552,57,0.126157547143126,1
791,553,57,0.134169192617504,1
792,553,57,0.120442747895428,1
793,553,57,0.106806383447859,1
794,553,57,0.103851904370174,1
795,553,57,0.103775710913616,1
801,554,57,0.121360181359835,1
802,555,57,0.121018253324292,1
803,555,57,0.107059156996757,1
803,556,57,0.126682680788969,1
804,555,57,0.11084340969767,1
804,556,57,0.112476811802542,1
805,553,57,0.108232565228336,1
805,554,57,0.115177312691699,1
805,555,57,0.117325542081141,1
805,556,57,0.110180088270638,1
806,552,57,0.116383547353179,1
806,553,57,0.128631308084265,1
806,554,57,0.119422920062523,1
806,555,57,0.109769228078526,1
807,521,57,0.113498078510559,1
807,522,57,0.109610271417801,1
807,551,57,0.107565674498698,1
807,552,57,0.134832246346841,1
807,553,57,0.140073711452759,1
807,554,57,0.117992365886355,1
808,523,57,0.12796638047106,1
808,550,57,0.129153742445013,1
808,551,57,0.136321325931671,1
808,552,57,0.129741840819633,1
808,553,57,0.121007913500807,1
809,524,57,0.121981820024876,1
809,549,57,0.135506844539293,1
809,550,57,0.171472007610467,1
809,551,57,0.14637440056909,1
809,552,57,0.114569103527711,1
810,525,57,0.106434986357679,1
810,548,57,0.110187338416556,1
810,549,57,0.12839004553627,1
810,550,57,0.131751625884261,1
810,551,57,0.11659174923579,1
811,525,57,0.115665392514869,1
811,547,57,0.107220322163469,1
811,548,57,0.119808828598609,1
811,549,57,0.11350973451438,1
811,550,57,0.106589637547136,1
812,525,57,0.126209469341966,1
812,526,57,0.122777964125118,1
812,527,57,0.117136636740741,1
812,547,57,0.115455227515825,1
812,548,57,0.131014085271175,1
813,528,57,0.137230315764601,1
813,529,57,0.122355347542549,1
813,530,57,0.116215678590011,1
813,531,57,0.116093630749042,1
813,532,57,0.141385039767831,1
813,533,57,0.155385740778863,1
813,534,57,0.117309234829862,1
813,544,57,0.103601138553992,1
813,545,57,0.110283140729303,1
814,529,57,0.162564701417575,1
814,530,57,0.161597163867843,1
814,531,57,0.156687521209465,1
814,532,57,0.163147546224923,1
814,533,57,0.160908723473724,1
814,534,57,0.126785264776667,1
814,535,57,0.107403695084829,1
814,536,57,0.103951487912869,1
814,537,57,0.105868036100997,1
814,538,57,0.110259672564672,1
814,539,57,0.105329941425067,1
814,540,57,0.103638348533655,1
814,541,57,0.106298717076641,1
814,542,57,0.10502387372664,1
814,544,57,0.118680973591533,1
815,529,57,0.154631825990073,1
815,530,57,0.171710615489649,1
815,531,57,0.173662031302605,1
815,532,57,0.16073206530289,1
815,533,57,0.131738765240811,1
815,534,57,0.11361269774048,1
815,535,57,0.115849133520561,1
815,536,57,0.126789626018289,1
815,537,57,0.130682965530085,1
815,538,57,0.124294270796385,1
815,539,57,0.110192569675687,1
815,540,57,0.107414034908315,1
815,541,57,0.120470409990621,1
816,534,57,0.113084184411231,1
816,535,57,0.117147433881123,1
816,536,57,0.129995317074981,1
816,537,57,0.129572098172597,1
782,543,58,0.112795070900181,1
782,544,58,0.121679522402326,1
784,545,58,0.120629288572851,1
789,551,58,0.110390755202861,1
790,552,58,0.13517081700712,1
791,552,58,0.120049923835544,1
791,553,58,0.133455097860908,1
792,552,58,0.105578889127735,1
792,553,58,0.125169675722612,1
793,553,58,0.121813895491355,1
796,553,58,0.113848070939175,1
797,553,58,0.128831110951682,1
798,553,58,0.132892999624956,1
799,553,58,0.114731205636357,1
800,553,58,0.107418474228431,1
804,552,58,0.104463002438458,1
804,553,58,0.104963050579427,1
804,554,58,0.102977737545789,1
804,556,58,0.105362009378164,1
805,552,58,0.108229910559523,1
805,553,58,0.116868024411531,1
805,554,58,0.11043119986301,1
805,555,58,0.103133972613277,1
806,552,58,0.128556832354586,1
806,553,58,0.132398205051259,1
806,554,58,0.110793829853665,1
807,521,58,0.106498754179542,1
807,522,58,0.113328871258914,1
807,523,58,0.10577570270422,1
807,551,58,0.12405751449293,1
807,552,58,0.142739958190974,1
807,553,58,0.135301654255755,1
807,554,58,0.109185044782701,1
808,523,58,0.14358289361756,1
808,524,58,0.120663018482474,1
808,550,58,0.135381863177745,1
808,551,58,0.148627377835934,1
808,552,58,0.130025578068634,1
808,553,58,0.117009881881961,1
809,524,58,0.15288795396956,1
809,525,58,0.11347343916851,1
809,549,58,0.130658649656084,1
809,550,58,0.167252110372474,1
809,551,58,0.14828578442251,1
809,552,58,0.113675461695984,1
810,525,58,0.119835029510548,1
810,548,58,0.116514194982613,1
810,549,58,0.124470337801476,1
810,550,58,0.129684843518651,1
810,551,58,0.115923363860686,1
811,525,58,0.116366481625096,1
811,526,58,0.115323286014196,1
811,527,58,0.108949983897984,1
811,547,58,0.113223108361082,1
811,548,58,0.127328735714647,1
811,549,58,0.116319266444067,1
811,550,58,0.104546479503146,1
812,525,58,0.121343349867235,1
812,526,58,0.13074625372691,1
812,527,58,0.133338827828532,1
812,528,58,0.105775200771041,1
812,547,58,0.117904449501551,1
812,548,58,0.133562935415879,1
813,526,58,0.143795902904618,1
813,527,58,0.150833218000243,1
813,528,58,0.143014337174706,1
813,529,58,0.135745976659795,1
813,530,58,0.123852904221066,1
813,531,58,0.115774858564153,1
813,532,58,0.128165659097157,1
813,533,58,0.136114830621868,1
813,534,58,0.110773808296862,1
813,544,58,0.106013284408903,1
813,545,58,0.113031414503022,1
814,528,58,0.183143549052167,1
814,529,58,0.169871019234883,1
814,530,58,0.161149104850138,1
814,531,58,0.151789913793311,1
814,532,58,0.148880173692973,1
814,533,58,0.140314695148988,1
814,534,58,0.116375271032763,1
814,535,58,0.105052907772522,1
814,536,58,0.105884622204043,1
814,537,58,0.104815571457394,1
814,541,58,0.109793622031021,1
814,542,58,0.116393396397556,1
814,544,58,0.112053581746087,1
815,530,58,0.152459280726631,1
815,531,58,0.157862134080674,1
815,532,58,0.146641919799377,1
815,533,58,0.121986716661888,1
815,534,58,0.10811665212622,1
815,535,58,0.113120513219314,1
815,536,58,0.125763540751754,1
815,537,58,0.124432659350846,1
815,538,58,0.108726668249652,1
815,541,58,0.121695528493698,1
816,534,58,0.105716374202473,1
816,535,58,0.10960347858878,1
816,536,58,0.117577177914833,1
816,537,58,0.112031809000193,1
782,543,59,0.114369267198082,1
782,544,59,0.12161152718769,1
783,544,59,0.106512997927752,1
784,545,59,0.129614305175908,1
785,546,59,0.105960402959987,1
786,547,59,0.111098425214767,1
787,548,59,0.113841356188649,1
788,550,59,0.10587693704937,1
789,551,59,0.118728534548752,1
791,552,59,0.115265842550388,1
792,552,59,0.108174541752854,1
793,552,59,0.109943365429395,1
799,553,59,0.142342192877796,1
800,553,59,0.12399569863343,1
801,553,59,0.113224959936809,1
802,554,59,0.116531037629283,1
803,553,59,0.106656283119224,1
804,552,59,0.104988370319785,1
804,553,59,0.115464998481708,1
804,554,59,0.107138897447779,1
805,552,59,0.11211944653323,1
805,553,59,0.12260437332371,1
805,554,59,0.110737412564356,1
806,551,59,0.105868036100997,1
806,552,59,0.130844922635812,1
806,553,59,0.129594807860425,1
806,554,59,0.108810234546905,1
807,521,59,0.109065171985508,1
807,522,59,0.123999669482579,1
807,523,59,0.11873213731357,1
807,551,59,0.131354474044968,1
807,552,59,0.13945732635499,1
807,553,59,0.124676966960126,1
807,554,59,0.104822297361991,1
808,524,59,0.143383447680404,1
808,525,59,0.105707305943041,1
808,550,59,0.12814470059842,1
808,551,59,0.145476040565481,1
808,552,59,0.125920656990823,1
808,553,59,0.112667490640173,1
809,525,59,0.133799212094296,1
809,549,59,0.115982179275184,1
809,550,59,0.139207408248176,1
809,551,59,0.133739392813441,1
809,552,59,0.111196090257312,1
810,525,59,0.136843057585968,1
810,526,59,0.117540168708442,1
810,547,59,0.110100983601642,1
810,548,59,0.115686808330502,1
810,549,59,0.112589902924785,1
810,550,59,0.114565110370421,1
811,525,59,0.130515899860003,1
811,526,59,0.139808512269165,1
811,527,59,0.133391430425681,1
811,547,59,0.113383001963741,1
811,548,59,0.126593593226749,1
811,549,59,0.117058268240408,1
812,525,59,0.136405784554575,1
812,526,59,0.148793350407092,1
812,527,59,0.145867983453784,1
812,528,59,0.11288326613675,1
812,547,59,0.116914771121594,1
812,548,59,0.132773249522539,1
813,526,59,0.139899139093135,1
813,527,59,0.137798236425429,1
813,528,59,0.138445049827911,1
813,529,59,0.139380508270476,1
813,530,59,0.122967683712674,1
813,531,59,0.106796277859857,1
813,532,59,0.10666749296022,1
813,533,59,0.110210248877655,1
813,542,59,0.116052929545268,1
813,543,59,0.106876832558036,1
813,544,59,0.106028052398433,1
813,545,59,0.115844872665576,1
813,546,59,0.11464251962068,1
814,528,59,0.170544981645308,1
814,529,59,0.167904679275407,1
814,530,59,0.147915335428335,1
814,531,59,0.131309143901878,1
814,532,59,0.124426346146862,1
814,533,59,0.118351839275018,1
814,534,59,0.107387789380093,1
814,541,59,0.110829768269275,1
814,542,59,0.128957241182506,1
814,543,59,0.113136720083957,1
814,544,59,0.107290224724184,1
815,530,59,0.131607180669442,1
815,531,59,0.132216962557391,1
815,532,59,0.124734588889064,1
815,533,59,0.110370744800128,1
815,534,59,0.103711809242905,1
815,535,59,0.110721272624136,1
815,536,59,0.120145391526172,1
815,537,59,0.113761281115507,1
815,541,59,0.118677482367422,1
816,535,59,0.107152081559278,1
816,536,59,0.111700388099196,1
781,542,60,0.107704854992174,1
782,543,60,0.110806991657023,1
782,544,60,0.119213513540283,1
783,544,60,0.108396764302262,1
784,545,60,0.133000457941524,1
785,546,60,0.117862365193018,1
788,550,60,0.121759775940598,1
791,552,60,0.113792835981354,1
792,552,60,0.112451893608726,1
794,552,60,0.120266970896174,1
797,552,60,0.113413675658008,1
798,552,60,0.122656663606882,1
799,552,60,0.111010408443328,1
800,553,60,0.135358908100363,1
802,553,60,0.112768847680101,1
803,553,60,0.116183119857806,1
803,556,60,0.105988143133675,1
804,553,60,0.117392388426501,1
804,554,60,0.108559435268511,1
805,552,60,0.105672717169978,1
805,553,60,0.116790079765882,1
805,554,60,0.105677123027882,1
806,552,60,0.118895734067682,1
806,553,60,0.115464139618268,1
807,522,60,0.132012976913483,1
807,523,60,0.131370033973515,1
807,524,60,0.114074420494721,1
807,551,60,0.123339482349397,1
807,552,60,0.124600516959943,1
807,553,60,0.107963863666561,1
808,525,60,0.123562273756408,1
808,526,60,0.103803540319868,1
808,550,60,0.112350335795528,1
808,551,60,0.12563497893353,1
808,552,60,0.114124981896943,1
809,526,60,0.126041076337478,1
809,550,60,0.108223485814833,1
809,551,60,0.109565197818335,1
810,525,60,0.149505627050174,1
810,526,60,0.147952456175433,1
810,527,60,0.129814520743939,1
810,547,60,0.109224106338091,1
810,548,60,0.10865022940354,1
811,525,60,0.144703442708365,1
811,526,60,0.163272482970188,1
811,527,60,0.15741148731858,1
811,528,60,0.111938293271927,1
811,547,60,0.109296931265315,1
811,548,60,0.119732300519931,1
811,549,60,0.115134135284243,1
812,526,60,0.152966579013518,1
812,527,60,0.144017478517929,1
812,528,60,0.115758395155885,1
812,543,60,0.106610752202862,1
812,546,60,0.105109893919434,1
812,547,60,0.113605336053856,1
812,548,60,0.127001352587222,1
813,527,60,0.117763172042795,1
813,528,60,0.124402476435687,1
813,529,60,0.1314421896565,1
813,530,60,0.115199130053876,1
813,542,60,0.13742788781789,1
813,543,60,0.130956507958519,1
813,544,60,0.113679164847438,1
813,545,60,0.115875892136032,1
813,546,60,0.116447058631417,1
813,547,60,0.114018348981602,1
814,529,60,0.15439215847418,1
814,530,60,0.131794468669599,1
814,531,60,0.109125838975732,1
814,541,60,0.105085555737293,1
814,542,60,0.135426111375983,1
814,543,60,0.122793066736768,1
814,544,60,0.108577371014104,1
815,531,60,0.112659738561077,1
815,534,60,0.105632584823807,1
815,535,60,0.109982270827795,1
815,536,60,0.111245681255388,1
815,541,60,0.109453857885183,1
815,542,60,0.119194685469039,1
816,535,60,0.105807804119528,1
816,536,60,0.103601841260442,1
781,542,61,0.108714287231239,1
782,543,61,0.110069908360833,1
782,544,61,0.118115618366953,1
783,544,61,0.109466751990845,1
784,545,61,0.130536702201751,1
787,547,61,0.108188640498146,1
788,549,61,0.108885167593481,1
790,551,61,0.104340229582898,1
795,552,61,0.111654544868855,1
796,552,61,0.104104677919072,1
797,552,61,0.127204167053713,1
799,552,61,0.138604921122428,1
800,552,61,0.108075248215996,1
800,553,61,0.149627239882388,1
804,553,61,0.110605080670254,1
805,553,61,0.106961413875717,1
806,522,61,0.106591109884461,1
806,523,61,0.106643165932149,1
806,552,61,0.106521285402239,1
806,553,61,0.103313508534336,1
807,524,61,0.126775538427067,1
807,525,61,0.104794423339456,1
807,551,61,0.112448179303203,1
807,552,61,0.109568856353506,1
808,525,61,0.141545546844375,1
808,526,61,0.126574787463646,1
808,551,61,0.107122467501723,1
809,526,61,0.155003055769193,1
809,527,61,0.121408969264825,1
810,525,61,0.156936022749307,1
810,526,61,0.181910332693804,1
810,527,61,0.169337107335443,1
810,528,61,0.111313921859578,1
810,547,61,0.102991044352065,1
811,525,61,0.160966233861956,1
811,526,61,0.183301658003523,1
811,527,61,0.179796156682033,1
811,528,61,0.135515734333595,1
811,547,61,0.105920147919039,1
811,548,61,0.112213832279006,1
811,549,61,0.110023897819433,1
812,526,61,0.147641436069641,1
812,527,61,0.135662834217226,1
812,528,61,0.119853957968428,1
812,529,61,0.104073703064898,1
812,542,61,0.104557232027245,1
812,543,61,0.111766844052083,1
812,546,61,0.106614109578125,1
812,547,61,0.112422391091877,1
812,548,61,0.120448403009243,1
812,549,61,0.118136431862772,1
813,527,61,0.102957805221551,1
813,528,61,0.110747350841298,1
813,529,61,0.11768964440912,1
813,530,61,0.105038318248122,1
813,542,61,0.14623758473859,1
813,543,61,0.145622761210711,1
813,544,61,0.112666431003462,1
813,545,61,0.107659078686258,1
813,546,61,0.116114544631497,1
813,547,61,0.110635787826733,1
813,548,61,0.107436488052518,1
814,529,61,0.138327184763432,1
814,530,61,0.119026426313399,1
814,542,61,0.131411370959315,1
814,543,61,0.1260965009145,1
814,544,61,0.105143434209856,1
814,545,61,0.103208660270298,1
814,546,61,0.105895397036283,1
815,535,61,0.104198461345033,1
815,542,61,0.103770423884131,1
782,543,62,0.10585383696907,1
782,544,62,0.116047943675691,1
783,544,62,0.108229821326958,1
784,545,62,0.122443353159917,1
786,546,62,0.105834707737918,1
787,547,62,0.117203695013443,1
788,549,62,0.11685498530295,1
789,550,62,0.109739357477345,1
790,551,62,0.108053810092221,1
794,551,62,0.104305518115058,1
795,552,62,0.127150270584369,1
796,552,62,0.116759986083289,1
798,551,62,0.103522981981,1
800,552,62,0.117461710975543,1
806,522,62,0.107115440437218,1
806,523,62,0.109065305834355,1
807,524,62,0.133751037663192,1
807,525,62,0.119333341721194,1
807,526,62,0.105149011245177,1
808,525,62,0.158788557726019,1
808,526,62,0.14925361197808,1
809,525,62,0.154773739230856,1
809,526,62,0.174795864891545,1
809,527,62,0.14350874135593,1
809,543,62,0.102927611152322,1
810,525,62,0.155955178393298,1
810,526,62,0.204187532586617,1
810,527,62,0.202543556422777,1
810,528,62,0.131536854254042,1
811,526,62,0.189007020907458,1
811,527,62,0.191184228572428,1
811,528,62,0.153343787374502,1
811,529,62,0.103258095111385,1
811,547,62,0.107266388475222,1
811,548,62,0.108334747669491,1
811,549,62,0.10311476530363,1
812,526,62,0.136064414222564,1
812,527,62,0.12433516161936,1
812,528,62,0.123074974718183,1
812,529,62,0.106592727224704,1
812,543,62,0.113713697850147,1
812,546,62,0.105350453760979,1
812,547,62,0.113503265153407,1
812,548,62,0.114585700784827,1
813,529,62,0.105636812216581,1
813,542,62,0.134231387715406,1
813,543,62,0.150264918101013,1
813,544,62,0.115864938838661,1
813,546,62,0.108883349479966,1
814,542,62,0.115813072410174,1
814,543,62,0.123657373362705,1
814,544,62,0.102934515522049,1
780,539,63,0.106958826131328,1
782,542,63,0.103223863268584,1
782,543,63,0.104215114372502,1
782,544,63,0.116476706151184,1
783,544,63,0.109618480813794,1
784,545,63,0.114158243335599,1
786,546,63,0.115961912328826,1
787,547,63,0.119419651919825,1
788,549,63,0.120694417191332,1
789,550,63,0.12961729446684,1
790,550,63,0.103630507221993,1
790,551,63,0.119249262336692,1
791,551,63,0.103799179078247,1
793,551,63,0.105247836311069,1
794,549,63,0.114940868702222,1
794,550,63,0.112068628587383,1
794,551,63,0.111480005971443,1
795,549,63,0.109573150670703,1
795,550,63,0.10812360111223,1
795,551,63,0.107748645873516,1
796,551,63,0.110665658427913,1
797,551,63,0.117746351704266,1
798,551,63,0.110809579401412,1
800,552,63,0.117116191329254,1
801,553,63,0.116338696835126,1
806,522,63,0.106953483331491,1
806,523,63,0.109888833178024,1
806,524,63,0.10507874060013,1
807,524,63,0.137684531829301,1
807,525,63,0.135648412003886,1
807,526,63,0.12290179661739,1
808,525,63,0.164864001539797,1
808,526,63,0.15852517665594,1
808,527,63,0.106915592953518,1
808,543,63,0.110233783966711,1
809,525,63,0.146071969097692,1
809,526,63,0.171853075279894,1
809,527,63,0.148361230556336,1
809,543,63,0.120195172143449,1
810,525,63,0.148845517995487,1
810,526,63,0.203409759240724,1
810,527,63,0.21173529141705,1
810,528,63,0.142229536764308,1
811,526,63,0.180959827409942,1
811,527,63,0.190456537003719,1
811,528,63,0.162516660835319,1
811,529,63,0.109552928340629,1
811,547,63,0.112212426866105,1
812,528,63,0.128784431166044,1
812,529,63,0.107833260653409,1
812,543,63,0.110808977081597,1
813,542,63,0.113406168968465,1
813,543,63,0.142843635277595,1
813,544,63,0.120445357947958,1
814,543,63,0.115659302392298,1
782,543,64,0.103708028012958,1
782,544,64,0.116734945194697,1
783,544,64,0.111327005584442,1
783,545,64,0.134154971177435,1
783,548,64,0.126800367388317,1
784,545,64,0.106783796454808,1
784,546,64,0.12999928792413,1
786,546,64,0.12428184516169,1
787,547,64,0.11694509903967,1
787,548,64,0.11718037185173,1
789,549,64,0.107733353642665,1
790,550,64,0.114045163367426,1
793,551,64,0.107123939839048,1
794,549,64,0.136822366784927,1
794,550,64,0.120255493357483,1
794,551,64,0.111574291330583,1
795,548,64,0.104094260017092,1
795,549,64,0.140950153707555,1
795,550,64,0.123683942358975,1
795,551,64,0.114769464098661,1
796,550,64,0.108145797712809,1
796,551,64,0.128597756639773,1
797,551,64,0.133959574167922,1
798,551,64,0.114366701761835,1
799,552,64,0.153342783508144,1
800,552,64,0.109787163824119,1
800,553,64,0.139029311202229,1
800,554,64,0.132363103190948,1
801,553,64,0.1042473719448,1
801,554,64,0.106807019229885,1
806,523,64,0.112206024429556,1
806,524,64,0.110136810476546,1
806,525,64,0.113025235147886,1
807,524,64,0.140452470229562,1
807,525,64,0.148134267526904,1
807,526,64,0.135898374726982,1
808,525,64,0.15945742272616,1
808,526,64,0.152491237139022,1
808,527,64,0.10444515592543,1
808,542,64,0.104957741241801,1
808,543,64,0.117202646530803,1
809,526,64,0.153614017043955,1
809,527,64,0.139246112873306,1
809,543,64,0.122284864970159,1
809,544,64,0.10498671951733,1
810,526,64,0.181317850769421,1
810,527,64,0.194254319592321,1
810,528,64,0.137438372644294,1
811,528,64,0.1509817902212,1
811,529,64,0.106050427464142,1
813,543,64,0.124305681410653,1
813,544,64,0.119329002787715,1
783,544,65,0.110466011717485,1
783,545,65,0.121596993433643,1
783,546,65,0.133116906439031,1
783,547,65,0.128369733973631,1
784,545,65,0.104196319763469,1
784,546,65,0.123171903592066,1
784,547,65,0.133216300362525,1
784,548,65,0.126157736762327,1
785,546,65,0.126533874332529,1
786,546,65,0.127616901129693,1
786,547,65,0.144587786149874,1
786,548,65,0.129170964330085,1
787,547,65,0.106260101684077,1
787,548,65,0.104157838219753,1
791,551,65,0.106861540327185,1
792,551,65,0.107931226855861,1
793,551,65,0.114480618285305,1
794,548,65,0.111841765944588,1
794,549,65,0.139591989449855,1
794,550,65,0.118893704026825,1
794,551,65,0.115276271606439,1
795,548,65,0.127260617805234,1
795,549,65,0.160901272554535,1
795,550,65,0.135081528671628,1
796,549,65,0.115236563114952,1
796,550,65,0.122309292384866,1
797,551,65,0.144229684711901,1
798,546,65,0.110482107041422,1
798,551,65,0.11187096730153,1
798,552,65,0.147720629971202,1
799,552,65,0.128508089065879,1
807,541,65,0.109082170789167,1
808,543,65,0.112640040472322,1
812,544,65,0.103591322971826,1
813,543,65,0.107110889576396,1
813,544,65,0.115493251742645,1
783,546,66,0.116724482676434,1
784,546,66,0.12423409458527,1
784,547,66,0.121249733752334,1
785,545,66,0.106510722497341,1
785,546,66,0.133431205841592,1
785,547,66,0.126665771217876,1
786,546,66,0.130624350888859,1
786,547,66,0.12023928649284,1
786,548,66,0.103838697950533,1
792,551,66,0.112016104068728,1
793,551,66,0.116558030480238,1
794,549,66,0.124157889974641,1
794,550,66,0.113296323680779,1
794,551,66,0.124615006097707,1
795,548,66,0.136847050743258,1
795,549,66,0.155586826364404,1
795,550,66,0.13803108880416,1
796,549,66,0.119628723819946,1
796,550,66,0.12642449751581,1
798,551,66,0.103412077056603,1
812,544,66,0.105004521414076,1
813,544,66,0.10726653347814,1
813,544,67,0.106328163823137,1
