x,y,z,signal,mito.p
1,577,1,0.142090557044103,1
2,577,1,0.128357843734326,1
3,574,1,0.107547225665856,1
3,575,1,0.124360436743436,1
3,576,1,0.127492845556009,1
3,577,1,0.10591635553502,1
4,574,1,0.118589019433157,1
4,575,1,0.106703877538655,1
5,574,1,0.145651817564734,1
10,575,1,0.118185074764843,1
11,576,1,0.115326933395296,1
12,576,1,0.149850733995849,1
12,577,1,0.142678108869262,1
12,578,1,0.107640908705181,1
13,577,1,0.174471058354439,1
13,578,1,0.128367045842606,1
14,575,1,0.16345586704562,1
14,576,1,0.156819931182061,1
14,577,1,0.144551290030733,1
14,578,1,0.110187293800273,1
15,575,1,0.123482533305386,1
15,576,1,0.110812423689426,1
19,578,1,0.105497977499295,1
20,578,1,0.107688915825226,1
20,579,1,0.116826341649541,1
20,580,1,0.123103551447169,1
20,581,1,0.115098743418094,1
21,579,1,0.158061892331808,1
21,580,1,0.166225790870456,1
21,581,1,0.140662668690818,1
22,580,1,0.189565371375674,1
22,581,1,0.146668934958472,1
22,582,1,0.115056157176382,1
23,581,1,0.150647536186259,1
23,582,1,0.134949642940352,1
23,583,1,0.104924948274113,1
23,607,1,0.111978046379697,1
24,582,1,0.143346025773399,1
24,583,1,0.112388962342162,1
25,583,1,0.120950559269564,1
26,590,1,0.107934550768913,1
3,577,2,0.11675513406256,1
4,574,2,0.115783625663678,1
4,575,2,0.107860565818342,1
4,576,2,0.108366603695245,1
5,574,2,0.136940644550018,1
5,575,2,0.105746334036218,1
10,576,2,0.110108166823136,1
11,576,2,0.123529157320671,1
11,577,2,0.118290134956224,1
12,577,2,0.162994166599519,1
12,578,2,0.138257538746341,1
13,578,2,0.168771094020695,1
14,577,2,0.150766405117095,1
14,578,2,0.136085015791041,1
15,575,2,0.117905888376664,1
15,576,2,0.10618947410877,1
19,577,2,0.10611845614099,1
19,578,2,0.11737328150349,1
19,579,2,0.117129397748894,1
20,578,2,0.119350418603348,1
20,579,2,0.123439768598543,1
20,580,2,0.125632703503119,1
20,581,2,0.117497158612045,1
21,579,2,0.159308738964497,1
21,580,2,0.174540905144802,1
21,581,2,0.152002398839049,1
21,582,2,0.108263785472064,1
22,582,2,0.119812598674486,1
23,581,2,0.155856554100678,1
23,582,2,0.136247274056676,1
23,583,2,0.104834577993768,1
23,606,2,0.103130470235095,1
23,607,2,0.140477789969921,1
23,608,2,0.11280547764809,1
24,582,2,0.146980434689302,1
24,583,2,0.113522606311901,1
24,607,2,0.171115144274334,1
25,583,2,0.12290249932384,1
26,590,2,0.109146027843594,1
26,591,2,0.103354243200322,1
2,578,3,0.102926685364458,1
3,577,3,0.13239369880672,1
4,575,3,0.123280968094807,1
4,576,3,0.129512323508025,1
4,577,3,0.112390200444003,1
5,574,3,0.133371921956128,1
5,575,3,0.121765754522463,1
5,576,3,0.118814142040933,1
6,575,3,0.115129205185019,1
6,576,3,0.102950376610503,1
7,575,3,0.103795252845381,1
10,576,3,0.116877181903529,1
10,577,3,0.109700831317347,1
11,577,3,0.125538496222473,1
12,577,3,0.171448082128939,1
12,578,3,0.155887484338569,1
13,577,3,0.198421502692459,1
13,578,3,0.19588819016816,1
13,579,3,0.106076706454575,1
14,576,3,0.138194250549516,1
14,577,3,0.147723530029569,1
14,578,3,0.151416096269802,1
15,575,3,0.121305325640415,1
15,576,3,0.105125319999133,1
19,577,3,0.113059556223253,1
19,578,3,0.12585932075636,1
19,579,3,0.125924348988205,1
19,580,3,0.103428328537529,1
20,578,3,0.135716451834804,1
20,579,3,0.13052504619793,1
20,580,3,0.121773506601559,1
20,581,3,0.113000885811674,1
21,579,3,0.149774417844514,1
21,582,3,0.118082892323688,1
22,610,3,0.114859600143522,1
23,582,3,0.133496412538567,1
23,583,3,0.108489566170007,1
23,606,3,0.114762492804509,1
23,607,3,0.160839334000258,1
24,582,3,0.150889389899998,1
24,583,3,0.124100881519588,1
25,584,3,0.117464454876921,1
26,590,3,0.107187796893475,1
26,591,3,0.110555054663423,1
3,578,4,0.111804767892267,1
5,577,4,0.135593723595526,1
6,576,4,0.140218491289697,1
6,577,4,0.115867582353404,1
7,576,4,0.104883522055747,1
10,576,4,0.122873632589018,1
10,577,4,0.118086896635049,1
11,577,4,0.128674775497559,1
12,577,4,0.165340782289406,1
12,578,4,0.153890292219697,1
13,577,4,0.185198318483696,1
13,578,4,0.196484955255669,1
13,579,4,0.106564719353321,1
14,576,4,0.127431598554111,1
14,577,4,0.137147385249375,1
14,578,4,0.151632317929205,1
15,575,4,0.119864097018642,1
15,576,4,0.103809753137216,1
18,579,4,0.104121587490165,1
19,577,4,0.120962371430374,1
19,578,4,0.140288248847494,1
19,579,4,0.140237687445273,1
19,580,4,0.11158638234316,1
20,578,4,0.161846167340863,1
20,579,4,0.154112704388306,1
22,610,4,0.120598759881503,1
23,583,4,0.11401154499851,1
23,606,4,0.107909732961733,1
23,610,4,0.150017420427529,1
24,582,4,0.156678676031446,1
24,583,4,0.136911811277408,1
24,584,4,0.116624765284891,1
25,584,4,0.149457586467917,1
25,585,4,0.129459720910875,1
25,586,4,0.106617165793481,1
26,590,4,0.109870105493415,1
26,591,4,0.116792042882315,1
26,592,4,0.104567415693742,1
1,579,5,0.124071557467869,1
2,579,5,0.107534086170639,1
5,578,5,0.115182789340385,1
7,576,5,0.135521132903786,1
7,577,5,0.110800578066403,1
8,576,5,0.104813652957243,1
9,576,5,0.108780152018383,1
10,576,5,0.126012722689905,1
10,577,5,0.116213603932872,1
11,577,5,0.125803349629877,1
12,577,5,0.14545483667719,1
12,578,5,0.131770643574707,1
13,577,5,0.155406230806633,1
13,578,5,0.164813640910847,1
14,576,5,0.118885148854642,1
14,577,5,0.118762666004918,1
14,578,5,0.130876589042366,1
15,575,5,0.118639156980695,1
15,576,5,0.104166649935561,1
18,579,5,0.103747067260206,1
19,578,5,0.153845664783056,1
19,579,5,0.156767462433759,1
19,580,5,0.120431571516644,1
20,579,5,0.182896954858405,1
22,610,5,0.112234601158542,1
23,583,5,0.115982134658901,1
24,583,5,0.150575123959649,1
24,584,5,0.140046428595968,1
24,585,5,0.117625162726737,1
25,585,5,0.16972269240348,1
25,586,5,0.145751479185924,1
25,587,5,0.122431574461319,1
25,592,5,0.104047468690747,1
25,593,5,0.10946352846443,1
26,589,5,0.108641830388346,1
26,590,5,0.118115283744834,1
26,591,5,0.128390547469449,1
26,592,5,0.127838565975569,1
26,593,5,0.127516637188689,1
26,594,5,0.113940147792328,1
1,580,6,0.114970092367305,1
3,579,6,0.105595787544758,1
7,578,6,0.10485753307115,1
8,576,6,0.115161284292186,1
9,577,6,0.103524911635222,1
10,577,6,0.114243181583541,1
11,577,6,0.121426291536532,1
12,577,6,0.128244741458012,1
12,578,6,0.112356158220403,1
13,577,6,0.131327603888791,1
13,578,6,0.130368878054866,1
14,576,6,0.11678899782103,1
14,577,6,0.108274939542706,1
14,578,6,0.111619576857391,1
15,576,6,0.105529922757615,1
19,578,6,0.157217696495239,1
19,579,6,0.160485036100373,1
19,580,6,0.119007453239236,1
20,579,6,0.196145737659292,1
23,583,6,0.115905773891283,1
23,584,6,0.106081881943353,1
24,585,6,0.135981606402115,1
24,586,6,0.116174821229248,1
24,593,6,0.106217024663256,1
25,587,6,0.164907591647868,1
25,588,6,0.121043851916417,1
25,591,6,0.105740411224707,1
25,592,6,0.139142759254733,1
25,593,6,0.151627086670074,1
25,594,6,0.117233666001259,1
26,588,6,0.134618924745805,1
26,589,6,0.115601490844159,1
26,590,6,0.127732234220135,1
26,591,6,0.143252398504427,1
26,592,6,0.150965538740274,1
26,593,6,0.152466965881304,1
26,594,6,0.126429472231317,1
27,592,6,0.19060258840471,1
27,593,6,0.159217230968947,1
1,580,7,0.139764788312247,1
2,580,7,0.120389542978463,1
3,580,7,0.103081291937633,1
4,579,7,0.115828643492791,1
5,579,7,0.112665884454001,1
6,579,7,0.107162153685068,1
8,578,7,0.124457298692895,1
9,577,7,0.124226208657326,1
9,578,7,0.138107014563022,1
9,579,7,0.11893651334995,1
10,577,7,0.12936794521763,1
10,578,7,0.140015754901701,1
10,579,7,0.11794158140272,1
11,577,7,0.128361680734627,1
11,578,7,0.120175228665141,1
12,577,7,0.122504466312967,1
12,578,7,0.105176372180463,1
13,576,7,0.135942054067617,1
13,577,7,0.120332289133856,1
13,578,7,0.106030338982915,1
14,576,7,0.126739354621903,1
14,577,7,0.11540495611944,1
14,578,7,0.104979290906283,1
15,576,7,0.120756913449141,1
15,577,7,0.111609013952493,1
16,577,7,0.107638097879379,1
19,579,7,0.159643584165182,1
19,580,7,0.114289972909886,1
20,579,7,0.199249915519069,1
23,583,7,0.118434580171043,1
23,584,7,0.115529123233831,1
23,608,7,0.121728444156164,1
23,609,7,0.111821766695926,1
24,587,7,0.125019385774776,1
24,588,7,0.125081123555782,1
24,589,7,0.110872064505151,1
24,592,7,0.120545287266843,1
24,593,7,0.138976518985879,1
25,588,7,0.152316720549751,1
25,589,7,0.124420389873139,1
25,590,7,0.112962036183627,1
25,591,7,0.135640804927708,1
25,592,7,0.189877060725705,1
25,593,7,0.207674272761287,1
25,594,7,0.141650428570625,1
26,589,7,0.134457391494762,1
26,590,7,0.157788528368505,1
26,591,7,0.190839679330285,1
26,592,7,0.204803148053512,1
26,593,7,0.191910470111954,1
26,594,7,0.142993936379501,1
27,592,7,0.228697554340624,1
1,581,8,0.11145807706856,1
2,581,8,0.103708875722326,1
3,580,8,0.126161250294579,1
4,580,8,0.116448564430954,1
7,579,8,0.131606957588029,1
8,578,8,0.154094110552545,1
8,579,8,0.134345750401703,1
9,577,8,0.140039658075088,1
9,578,8,0.178916825522941,1
9,579,8,0.167167027121614,1
9,580,8,0.104514880021016,1
10,577,8,0.146565536723618,1
10,578,8,0.193577602126448,1
10,579,8,0.175973411283333,1
10,580,8,0.105618686851787,1
11,577,8,0.142988415114533,1
11,578,8,0.156587814971993,1
11,579,8,0.134055019550409,1
12,577,8,0.132512099266589,1
12,578,8,0.116841834653663,1
13,576,8,0.149105653231009,1
13,577,8,0.136152587150992,1
13,578,8,0.110047243289287,1
14,578,8,0.132880250522211,1
15,579,8,0.103384481885834,1
16,578,8,0.129916915112436,1
17,577,8,0.113861634289077,1
17,578,8,0.104182254480389,1
18,578,8,0.104882741270802,1
19,579,8,0.147674251345471,1
19,580,8,0.107453564934671,1
21,582,8,0.104286901971156,1
23,585,8,0.114444256015011,1
23,588,8,0.103687192208998,1
23,589,8,0.104783202344389,1
23,608,8,0.115096044132999,1
24,587,8,0.136413625866236,1
24,588,8,0.158810598169608,1
24,589,8,0.156556449725347,1
24,590,8,0.114031376936112,1
24,592,8,0.135648367387603,1
24,593,8,0.161182901684184,1
24,594,8,0.107036837701401,1
25,588,8,0.173726758374543,1
25,589,8,0.151476629411178,1
25,590,8,0.140182274022321,1
25,591,8,0.171593910448518,1
25,592,8,0.235864981670293,1
25,593,8,0.246980347687551,1
25,594,8,0.155391295506043,1
26,589,8,0.148382211363214,1
1,581,9,0.125830454021538,1
2,581,9,0.119768339322177,1
2,637,9,0.103762950656801,1
3,581,9,0.117132833202652,1
4,580,9,0.147570295407084,1
4,581,9,0.116420333478158,1
5,580,9,0.137317964451709,1
6,580,9,0.130580560007517,1
7,580,9,0.128832862140773,1
8,579,9,0.178592219759106,1
8,580,9,0.126783257043952,1
9,579,9,0.202138485193328,1
9,580,9,0.126038722828572,1
10,580,9,0.128481754305092,1
11,579,9,0.180024190502246,1
11,580,9,0.109011565522,1
12,577,9,0.143948524053218,1
12,578,9,0.131938378489027,1
12,579,9,0.118723124824491,1
13,578,9,0.121469457789918,1
14,579,9,0.110071559163288,1
16,579,9,0.117501452929242,1
17,578,9,0.129984553396812,1
18,578,9,0.116096731580681,1
18,579,9,0.105031670422019,1
19,579,9,0.128944927088517,1
20,580,9,0.117663811581512,1
23,588,9,0.127765451042509,1
23,589,9,0.140692516983857,1
23,590,9,0.104553250024026,1
24,588,9,0.188475819447185,1
24,589,9,0.205953578899568,1
24,590,9,0.157282958962568,1
24,591,9,0.1196360743525,1
24,592,9,0.138012907669013,1
24,593,9,0.163010206153103,1
24,594,9,0.115222073977187,1
25,589,9,0.175782230512522,1
25,590,9,0.171101335534879,1
25,594,9,0.157279601587305,1
26,589,9,0.161882005369837,1
1,582,10,0.114733302601638,1
1,637,10,0.121675205776988,1
2,582,10,0.113294360564346,1
2,637,10,0.146865993924512,1
2,638,10,0.120451314221681,1
3,581,10,0.148593837545512,1
3,582,10,0.109181810102215,1
3,637,10,0.120793454184566,1
3,638,10,0.125943221675732,1
4,581,10,0.167551797942493,1
4,582,10,0.107111614590988,1
4,638,10,0.117882509444598,1
4,639,10,0.125964637491366,1
5,581,10,0.159084742917857,1
5,639,10,0.116342020748178,1
6,581,10,0.130276299268534,1
7,581,10,0.110421696594823,1
8,580,10,0.176101906177133,1
9,580,10,0.150069242239734,1
11,580,10,0.147274679072849,1
12,579,10,0.150277611433404,1
12,580,10,0.112116345701591,1
13,579,10,0.114850688041078,1
17,579,10,0.121185218607738,1
18,579,10,0.110600563271644,1
20,580,10,0.11391413649959,1
21,582,10,0.103657678538078,1
22,583,10,0.116380446521541,1
22,584,10,0.109366778055678,1
23,586,10,0.112031474378074,1
23,587,10,0.117834558094906,1
23,588,10,0.155216355062088,1
23,589,10,0.181922278703462,1
23,590,10,0.147575560128427,1
24,590,10,0.221051104293148,1
24,591,10,0.152335325539583,1
24,593,10,0.158861694967221,1
24,594,10,0.122048833681296,1
25,594,10,0.150563936426794,1
1,582,11,0.144679327607637,1
1,583,11,0.128165625634945,1
1,636,11,0.111992992834357,1
1,637,11,0.151950610489056,1
1,638,11,0.111419495138208,1
2,582,11,0.144086722988477,1
2,583,11,0.117060855984797,1
2,636,11,0.106025152340066,1
2,637,11,0.184442474040685,1
2,638,11,0.148084040746802,1
3,582,11,0.145008885778837,1
3,637,11,0.16177093313438,1
3,638,11,0.172083395684588,1
3,639,11,0.109178541959517,1
4,582,11,0.155592816100339,1
4,637,11,0.106136927281973,1
4,638,11,0.159983861398269,1
4,639,11,0.145356190076429,1
5,582,11,0.145079658357062,1
5,639,11,0.126252635595352,1
6,581,11,0.191980584600012,1
6,582,11,0.111309225995838,1
7,581,11,0.151662768542059,1
8,581,11,0.132917070109402,1
9,581,11,0.104039627379085,1
10,581,11,0.105326840593429,1
11,581,11,0.117161989943311,1
12,580,11,0.164760848694496,1
12,581,11,0.104854108771463,1
13,580,11,0.117288912113151,1
14,580,11,0.107692340124913,1
17,580,11,0.10561544101723,1
18,579,11,0.114874758525525,1
21,582,11,0.109793120097842,1
21,583,11,0.10864640355731,1
22,583,11,0.131871454065172,1
22,584,11,0.12343295346138,1
22,585,11,0.105956521343403,1
23,587,11,0.140743156464574,1
23,590,11,0.187251905583737,1
23,591,11,0.12351784709304,1
24,593,11,0.152088006331229,1
24,594,11,0.121073733671668,1
25,594,11,0.141764278169672,1
1,582,12,0.17420697457791,1
1,583,12,0.161617230040928,1
1,584,12,0.111473860078519,1
1,636,12,0.124030677798965,1
1,637,12,0.165373508332671,1
1,638,12,0.123789504483535,1
2,582,12,0.172188589724817,1
2,583,12,0.14766868546422,1
2,584,12,0.10442691901993,1
2,636,12,0.112217457351965,1
2,637,12,0.189781738037995,1
2,638,12,0.163034689338163,1
3,582,12,0.17437834571926,1
3,583,12,0.119430270595077,1
3,637,12,0.176141837750033,1
3,638,12,0.202745065863003,1
3,639,12,0.125387068559432,1
4,583,12,0.109244484825155,1
4,637,12,0.1175618410677,1
4,638,12,0.18041666878594,1
4,639,12,0.145775315434887,1
5,638,12,0.104201729487731,1
5,639,12,0.119270008908087,1
6,582,12,0.139785780273196,1
7,582,12,0.104241036432675,1
8,581,12,0.161764597622256,1
9,581,12,0.122290542392116,1
10,581,12,0.126553773194555,1
11,581,12,0.149283571811825,1
12,581,12,0.137713967421726,1
13,580,12,0.142164921233076,1
13,581,12,0.104493709594937,1
16,581,12,0.115522419637375,1
17,581,12,0.105131499354269,1
20,581,12,0.105541400296306,1
20,582,12,0.112068148962346,1
20,583,12,0.114667214733082,1
21,582,12,0.123551075069483,1
21,583,12,0.13567209209586,1
21,584,12,0.123517702090121,1
22,585,12,0.126800356234247,1
22,586,12,0.129970878506204,1
22,587,12,0.132124194151858,1
22,588,12,0.119464580516373,1
22,589,12,0.115909610891584,1
22,590,12,0.1076509696769,1
23,591,12,0.161781529501491,1
23,592,12,0.121549075546164,1
23,593,12,0.111908734984725,1
24,593,12,0.150969163813232,1
24,594,12,0.115885350787937,1
25,594,12,0.133222078171118,1
1,582,13,0.202603609939116,1
1,583,13,0.193225758122104,1
1,584,13,0.141795598800036,1
1,636,13,0.122393360615298,1
1,637,13,0.163050293882992,1
1,638,13,0.12834923279179,1
2,583,13,0.188271476873016,1
2,584,13,0.13686844425075,1
2,636,13,0.112792672774993,1
2,637,13,0.177520246645949,1
2,638,13,0.173035150224362,1
3,583,13,0.163905521095426,1
3,584,13,0.114327405970961,1
3,637,13,0.170911370557769,1
3,638,13,0.224017930927034,1
3,639,13,0.155905420084162,1
4,583,13,0.141237237177749,1
4,637,13,0.116445865145858,1
4,638,13,0.183938131582519,1
4,639,13,0.144311734055546,1
5,583,13,0.115051974399891,1
5,591,13,0.105483923370285,1
5,638,13,0.104569233807256,1
7,582,13,0.127617447679155,1
8,582,13,0.109294354674997,1
9,581,13,0.152825134243702,1
13,581,13,0.133703175546065,1
14,581,13,0.106505190078302,1
15,581,13,0.112433824014286,1
16,582,13,0.103670650722235,1
17,581,13,0.125382919245153,1
17,582,13,0.115483871169235,1
18,580,13,0.110849042503345,1
18,581,13,0.104865352074671,1
18,582,13,0.112361701793512,1
19,580,13,0.106738734009413,1
19,582,13,0.11193122159114,1
19,583,13,0.115266768338251,1
20,581,13,0.115073077901546,1
20,582,13,0.13395017128637,1
20,583,13,0.146329561205107,1
20,584,13,0.124279525114996,1
21,584,13,0.157507390017963,1
21,585,13,0.119465372455388,1
21,586,13,0.111492888923035,1
21,587,13,0.115384265318398,1
22,590,13,0.129213439031091,1
22,591,13,0.113601621748332,1
23,592,13,0.168025009389497,1
23,593,13,0.135071255772566,1
24,593,13,0.159022101657129,1
24,594,13,0.112041200727674,1
1,583,14,0.209731618783134,1
1,584,14,0.170711701539199,1
1,585,14,0.120234389855828,1
1,636,14,0.110887959055816,1
1,637,14,0.147802143919457,1
2,584,14,0.175834085786939,1
2,585,14,0.113786388928523,1
2,636,14,0.107709372390784,1
2,637,14,0.155886023155315,1
2,638,14,0.182296966244481,1
3,584,14,0.165411956414175,1
3,590,14,0.107934383457853,1
3,591,14,0.106551992558718,1
3,637,14,0.14941179900793,1
3,638,14,0.229966999120435,1
4,583,14,0.177062985519964,1
4,584,14,0.117442537128109,1
4,590,14,0.112515917974214,1
4,591,14,0.125477818078179,1
4,638,14,0.167640160490122,1
5,583,14,0.13149618651248,1
5,590,14,0.119186476073046,1
5,591,14,0.136590908665026,1
5,592,14,0.111125228446521,1
6,583,14,0.110141762883911,1
6,590,14,0.10568384893248,1
6,591,14,0.116090920309876,1
7,582,14,0.147518986682129,1
8,582,14,0.136634019148059,1
9,582,14,0.129236817963158,1
10,582,14,0.107218983674991,1
12,582,14,0.114922709875216,1
13,581,14,0.160600859969923,1
13,582,14,0.119784557340891,1
14,581,14,0.127020080271831,1
16,582,14,0.11402334600525,1
17,582,14,0.123770732182644,1
18,581,14,0.11553831418804,1
18,582,14,0.118098731104,1
18,583,14,0.113823643524469,1
19,581,14,0.108935416681725,1
19,582,14,0.120448057233053,1
19,583,14,0.130405630717632,1
19,584,14,0.115397728281664,1
20,584,14,0.142748502209086,1
20,585,14,0.112307916864874,1
21,585,14,0.133521765741138,1
21,588,14,0.137453040247188,1
21,589,14,0.107242195295998,1
22,592,14,0.141724547370044,1
22,593,14,0.117469976141889,1
23,593,14,0.163698311925102,1
24,594,14,0.106374330521526,1
1,584,15,0.19042860721083,1
1,585,15,0.135596199799209,1
2,585,15,0.131371740546323,1
2,590,15,0.105103703410228,1
2,637,15,0.129255969502451,1
3,585,15,0.122981537068412,1
3,590,15,0.124210894118334,1
3,591,15,0.129883765214487,1
3,637,15,0.117519489061471,1
4,584,15,0.1479200982165,1
4,590,15,0.124937804902098,1
4,591,15,0.15257836158481,1
4,592,15,0.11973157550534,1
5,583,15,0.137121887043887,1
5,590,15,0.138462037477499,1
5,591,15,0.164065225078884,1
5,592,15,0.126865786012635,1
6,583,15,0.117336004599403,1
6,590,15,0.116498824673268,1
6,591,15,0.130434274371042,1
6,592,15,0.107737123718542,1
7,582,15,0.159559995559788,1
7,583,15,0.108437744357803,1
8,582,15,0.167729627290745,1
8,583,15,0.109710044579697,1
9,582,15,0.179642587437429,1
9,583,15,0.112924368887067,1
10,582,15,0.137844826978502,1
11,582,15,0.116998883968308,1
12,582,15,0.133857514421544,1
13,582,15,0.143069917908717,1
14,582,15,0.123994449377518,1
15,582,15,0.109695711598922,1
16,582,15,0.120596160983043,1
16,583,15,0.102927443841262,1
17,582,15,0.129659267234668,1
17,583,15,0.117030115366106,1
18,581,15,0.129504292577162,1
18,582,15,0.126213072106784,1
18,583,15,0.128905832070916,1
18,584,15,0.116666738052719,1
19,581,15,0.121774878552248,1
19,582,15,0.129765275522053,1
19,584,15,0.136101534969662,1
19,585,15,0.112066632008738,1
20,585,15,0.136207431716341,1
20,586,15,0.12013025545231,1
20,587,15,0.110542372485103,1
21,589,15,0.145862294877756,1
21,590,15,0.113570078036555,1
21,592,15,0.104883878986008,1
21,593,15,0.106575583418127,1
22,593,15,0.148706058650245,1
23,594,15,0.103950595587218,1
24,594,15,0.103106578215779,1
1,585,16,0.149976685761543,1
2,589,16,0.108886662238947,1
2,590,16,0.108899132489925,1
2,591,16,0.104278547572245,1
3,585,16,0.140786813497068,1
3,590,16,0.123058511309915,1
3,591,16,0.138872841899258,1
3,592,16,0.115402379529122,1
4,584,16,0.161524327786548,1
4,590,16,0.124760444024813,1
4,591,16,0.16384290214284,1
4,592,16,0.141733916789384,1
5,583,16,0.134507975205126,1
5,590,16,0.137801984193165,1
5,591,16,0.168497785827745,1
5,592,16,0.135658406051181,1
6,583,16,0.121589352895253,1
6,590,16,0.114500907539804,1
6,591,16,0.131987902562679,1
6,592,16,0.113381462701992,1
7,583,16,0.126310692533046,1
8,583,16,0.139830195782494,1
9,583,16,0.141164423404595,1
10,582,16,0.163409477265818,1
10,583,16,0.117703397378222,1
11,582,16,0.12957995063833,1
12,582,16,0.143676766276087,1
13,582,16,0.152988630611178,1
14,582,16,0.137314897082283,1
15,582,16,0.123308317876022,1
15,583,16,0.104713054394119,1
16,582,16,0.1275637073668,1
16,583,16,0.119878039606945,1
17,582,16,0.135422296683823,1
17,583,16,0.133615616091523,1
17,584,16,0.11928864736013,1
18,582,16,0.135858353921517,1
18,583,16,0.147999927900087,1
18,584,16,0.140082913561039,1
18,585,16,0.114000803628482,1
19,585,16,0.141442962856677,1
19,586,16,0.113050833740011,1
19,593,16,0.119630787323015,1
19,594,16,0.111360300485309,1
20,589,16,0.108186376221806,1
20,592,16,0.110840487331162,1
20,593,16,0.126775616505562,1
20,594,16,0.124814162029027,1
21,592,16,0.144375033406442,1
21,593,16,0.140980827401822,1
21,594,16,0.123002930575904,1
22,593,16,0.177608084952257,1
22,594,16,0.114973282431509,1
23,594,16,0.11183241883339,1
1,585,17,0.174609023054215,1
1,586,17,0.112938869178902,1
2,586,17,0.113158202824014,1
2,589,17,0.10660480708321,1
2,590,17,0.104652242400977,1
2,591,17,0.108064874930298,1
3,590,17,0.115067601252861,1
3,591,17,0.14364625989288,1
3,592,17,0.141239891846562,1
4,585,17,0.110017963853851,1
4,590,17,0.117860759006845,1
4,591,17,0.164620764721299,1
4,592,17,0.163619006482835,1
4,593,17,0.118317975516547,1
5,583,17,0.130668376005684,1
5,584,17,0.103216613122666,1
5,590,17,0.12537417445377,1
5,591,17,0.160106857335243,1
5,592,17,0.143070810234368,1
5,593,17,0.110865238213917,1
6,583,17,0.123039036302574,1
6,590,17,0.109437974488588,1
6,591,17,0.132944051806286,1
6,592,17,0.121948937824622,1
6,593,17,0.104960529759462,1
7,583,17,0.147099270157926,1
7,584,17,0.109231836109046,1
7,592,17,0.103087995534089,1
8,583,17,0.175939659065569,1
8,584,17,0.120814780767634,1
8,585,17,0.106308343039606,1
8,586,17,0.109976225321507,1
9,583,17,0.170474900619461,1
9,584,17,0.113232656245552,1
9,585,17,0.108207725113015,1
9,586,17,0.12692734532851,1
9,587,17,0.125270229669453,1
9,595,17,0.119715870573875,1
10,583,17,0.142203759707053,1
10,586,17,0.11879204582699,1
10,587,17,0.127501534577039,1
10,588,17,0.103376517879395,1
10,595,17,0.112756990903008,1
11,582,17,0.150859151214486,1
11,583,17,0.122971721486247,1
11,587,17,0.104702870727623,1
12,582,17,0.153954974675352,1
12,583,17,0.120463873705224,1
13,582,17,0.156824348194036,1
13,583,17,0.118235981943255,1
14,582,17,0.144230655116046,1
14,583,17,0.114348676783676,1
15,582,17,0.135134298579837,1
15,583,17,0.121373108927709,1
15,584,17,0.103232819987309,1
16,582,17,0.134991426088979,1
16,583,17,0.137632899636297,1
16,584,17,0.128610951905343,1
16,585,17,0.10776400502879,1
17,582,17,0.143607901043941,1
17,584,17,0.146466153954194,1
17,585,17,0.127780397497169,1
18,585,17,0.144194627467872,1
18,586,17,0.122545033667893,1
18,592,17,0.110138940904038,1
18,593,17,0.117039707866859,1
18,594,17,0.105588838558748,1
19,586,17,0.144661771100445,1
19,587,17,0.12665872184523,1
19,588,17,0.110762609609937,1
19,592,17,0.140739910630017,1
19,593,17,0.148275433444954,1
19,594,17,0.129419209326302,1
20,590,17,0.132382053956969,1
20,591,17,0.133201264675299,1
20,592,17,0.155503271221222,1
20,593,17,0.158626857163916,1
20,594,17,0.14894559231729,1
20,595,17,0.123935042797277,1
21,593,17,0.177197771309607,1
21,594,17,0.150180113701919,1
21,595,17,0.11905111027173,1
22,594,17,0.130961962299063,1
1,585,18,0.196890160333965,1
1,586,18,0.131996178883096,1
1,592,18,0.102947989639385,1
2,586,18,0.133359016696394,1
2,591,18,0.112718576283715,1
2,592,18,0.11809490525777,1
3,586,18,0.106972523330077,1
3,590,18,0.105127907743522,1
3,591,18,0.141898829723831,1
3,592,18,0.157320592796915,1
3,593,18,0.119117175832145,1
4,585,18,0.115700449758898,1
4,590,18,0.108702586611135,1
4,591,18,0.152050818659707,1
4,592,18,0.16556432101915,1
4,593,18,0.128544540568738,1
5,584,18,0.106496623752049,1
5,590,18,0.110788587440463,1
5,591,18,0.144798486544309,1
5,592,18,0.141889281839362,1
5,593,18,0.12093121811107,1
6,583,18,0.11751739209619,1
6,590,18,0.103990727933389,1
6,591,18,0.134412184046449,1
6,592,18,0.128995388104103,1
6,593,18,0.115900643018788,1
6,594,18,0.104318445682933,1
7,583,18,0.156606241496694,1
7,584,18,0.112231834949023,1
7,585,18,0.104430332165547,1
7,586,18,0.103738746323507,1
7,591,18,0.115413622832329,1
7,592,18,0.113082890539037,1
7,593,18,0.109832895513752,1
7,594,18,0.110637728635025,1
8,584,18,0.133192185261796,1
8,585,18,0.11688796788984,1
8,586,18,0.130637958855043,1
8,587,18,0.126296125316787,1
8,594,18,0.118429081214216,1
8,595,18,0.120598759881503,1
9,584,18,0.124066303900596,1
9,585,18,0.116318184499215,1
9,586,18,0.162657246741695,1
9,587,18,0.191589433650725,1
9,588,18,0.141713995619216,1
9,594,18,0.115086273167116,1
9,595,18,0.138720533064636,1
10,584,18,0.109850953954123,1
10,585,18,0.107600542123526,1
10,586,18,0.159229388905947,1
10,587,18,0.199328373251968,1
10,588,18,0.14939548060258,1
10,595,18,0.124597438436446,1
10,596,18,0.105620705738573,1
11,583,18,0.140569766436438,1
11,584,18,0.111717732679044,1
11,585,18,0.10466948659419,1
11,586,18,0.122222770258893,1
11,587,18,0.135611425105636,1
11,588,18,0.112138285758545,1
12,583,18,0.138932850799314,1
12,584,18,0.120435709676852,1
12,597,18,0.105206320860138,1
13,583,18,0.128663654889128,1
13,584,18,0.109050660539602,1
13,597,18,0.110252322032118,1
14,583,18,0.121894963276784,1
14,584,18,0.103662173628547,1
15,583,18,0.134752026270781,1
15,584,18,0.123060920589174,1
15,585,18,0.103090404813347,1
16,582,18,0.143528941377863,1
16,584,18,0.156797076491315,1
16,585,18,0.137694804728362,1
16,586,18,0.104611184266942,1
16,626,18,0.104880543918885,1
16,627,18,0.113291360119343,1
17,586,18,0.142397360911193,1
17,587,18,0.105280105037437,1
18,587,18,0.137608394143096,1
18,591,18,0.112690992267017,1
18,592,18,0.143613511541474,1
18,593,18,0.142821605988076,1
18,594,18,0.124862905317734,1
19,589,18,0.126104041066254,1
19,590,18,0.11936069150241,1
19,591,18,0.134077695776025,1
19,592,18,0.172588195459651,1
19,593,18,0.170648101028396,1
19,594,18,0.1441956424883,1
19,595,18,0.119779872631221,1
20,594,18,0.165348065897536,1
20,595,18,0.150014788066858,1
20,596,18,0.106675066574186,1
21,594,18,0.164772348541329,1
21,595,18,0.13800712986042,1
22,595,18,0.113706570399006,1
1,586,19,0.150924937923135,1
1,592,19,0.1155143552443,1
1,593,19,0.120105225717789,1
1,594,19,0.111516502090585,1
2,591,19,0.118617651932496,1
2,592,19,0.138548291905776,1
2,593,19,0.127726266792342,1
2,594,19,0.111506084188605,1
3,586,19,0.118096823757921,1
3,591,19,0.139516744089302,1
3,592,19,0.166955389785245,1
3,593,19,0.137017317631614,1
3,594,19,0.10597677713569,1
4,584,19,0.136986800094337,1
4,585,19,0.1252981371542,1
4,590,19,0.103617568500048,1
4,591,19,0.137280776780187,1
4,592,19,0.156190796981548,1
4,593,19,0.134395464094556,1
4,594,19,0.110043863605883,1
5,584,19,0.111270454446285,1
5,585,19,0.108857828966336,1
5,590,19,0.103920914605238,1
5,591,19,0.137306464604877,1
5,592,19,0.142256518461192,1
5,593,19,0.133509440493078,1
5,594,19,0.12290925869065,1
6,583,19,0.11741582312892,1
6,584,19,0.103608076385931,1
6,585,19,0.111249339790559,1
6,586,19,0.106195184992939,1
6,590,19,0.104446215562142,1
6,591,19,0.145115016760999,1
6,592,19,0.141018784704218,1
6,593,19,0.128273987431236,1
6,594,19,0.12671187099184,1
6,595,19,0.106697731645731,1
7,584,19,0.125047795192703,1
7,585,19,0.130666669432876,1
7,586,19,0.123760559670218,1
7,591,19,0.131308173497732,1
7,592,19,0.121280429754742,1
7,593,19,0.117338982736265,1
7,594,19,0.139847294972789,1
7,595,19,0.138154820909796,1
8,585,19,0.138527645721017,1
8,586,19,0.151317483131253,1
8,587,19,0.152774561687409,1
8,588,19,0.116341418428363,1
8,591,19,0.106907785104069,1
8,593,19,0.108991376654138,1
8,594,19,0.150376971894687,1
8,595,19,0.162939388958594,1
8,596,19,0.111646647786841,1
9,585,19,0.130784880273544,1
9,588,19,0.181242215016395,1
9,589,19,0.111617234502557,1
9,594,19,0.125834246405556,1
9,595,19,0.146831840160205,1
9,596,19,0.117866815667204,1
10,584,19,0.125605309105621,1
10,585,19,0.124819315209664,1
10,589,19,0.123888664171546,1
10,590,19,0.10691075208686,1
10,595,19,0.129038944749962,1
10,596,19,0.126317407283572,1
11,584,19,0.12782278296561,1
11,585,19,0.118899470681347,1
11,586,19,0.138316264928274,1
11,587,19,0.16323362218807,1
11,588,19,0.138888725295853,1
11,589,19,0.121456797919739,1
11,590,19,0.119790859390804,1
11,595,19,0.118874987496287,1
11,596,19,0.132272398288484,1
11,597,19,0.111483207189718,1
12,583,19,0.152022788480183,1
12,584,19,0.140687508806139,1
12,585,19,0.11658133133381,1
12,589,19,0.102996465230397,1
12,590,19,0.103165270935499,1
12,596,19,0.125038760395482,1
12,597,19,0.13090236609962,1
13,583,19,0.134731302007527,1
13,584,19,0.12237099670366,1
13,596,19,0.108671700989527,1
13,597,19,0.12048272408461,1
14,583,19,0.128127657178479,1
14,584,19,0.114477004366417,1
15,584,19,0.134970991831562,1
15,585,19,0.116231149285992,1
15,589,19,0.104631183515604,1
15,626,19,0.106604706696574,1
15,627,19,0.105497051711432,1
16,586,19,0.13235915464994,1
16,587,19,0.106115098765726,1
16,589,19,0.109769004997113,1
16,590,19,0.115260064741795,1
16,591,19,0.105796661202957,1
16,595,19,0.105819605126268,1
16,596,19,0.104305462344705,1
16,626,19,0.116484168224444,1
16,627,19,0.130990940574592,1
17,588,19,0.104984321392142,1
17,590,19,0.11478716560877,1
17,591,19,0.135042734813934,1
17,592,19,0.129745800514711,1
17,593,19,0.12087235808029,1
17,594,19,0.123569345437195,1
17,595,19,0.119590364971007,1
17,596,19,0.105064273770507,1
18,588,19,0.126508353818899,1
18,589,19,0.10684270110187,1
18,590,19,0.113446312468707,1
18,591,19,0.146013443689031,1
18,592,19,0.170843564962334,1
18,593,19,0.161276160868825,1
18,594,19,0.14245338780803,1
18,595,19,0.124547256272625,1
18,596,19,0.106144947058765,1
19,594,19,0.165319411090055,1
19,595,19,0.156162755647953,1
19,596,19,0.129787516738914,1
20,595,19,0.17855235511063,1
20,596,19,0.13925817042367,1
21,595,19,0.149601284360003,1
21,596,19,0.118205196708282,1
22,595,19,0.125639641335058,1
1,586,20,0.165727560843001,1
1,587,20,0.118084877748263,1
1,592,20,0.121874819025204,1
1,593,20,0.130938438364078,1
1,594,20,0.119324184229197,1
1,597,20,0.10603164400918,1
1,598,20,0.117382260530357,1
1,599,20,0.106041827675676,1
2,587,20,0.1044243089674,1
2,591,20,0.119420845405384,1
2,592,20,0.149470714809063,1
2,593,20,0.147091852700949,1
2,594,20,0.126445891023302,1
3,586,20,0.127994778734916,1
3,591,20,0.12865430777793,1
3,592,20,0.159860218525198,1
3,593,20,0.142822821781776,1
3,594,20,0.114707681701372,1
4,584,20,0.133393917783435,1
4,585,20,0.140681262526579,1
4,586,20,0.113733953642433,1
4,591,20,0.119324708470517,1
4,592,20,0.136070838967254,1
4,593,20,0.127678382367074,1
4,594,20,0.114260269619765,1
5,584,20,0.115777256689342,1
5,585,20,0.120049946143685,1
5,586,20,0.103879934549698,1
5,591,20,0.127640201983265,1
5,592,20,0.136174047582908,1
5,593,20,0.134243590268689,1
5,594,20,0.132163679561932,1
5,595,20,0.104784485062513,1
6,584,20,0.115915868325215,1
6,585,20,0.131341925715496,1
6,586,20,0.115553974503222,1
6,590,20,0.109278995519722,1
6,591,20,0.148827359168481,1
6,592,20,0.142926320403267,1
6,593,20,0.128597667407208,1
6,594,20,0.137449136322464,1
6,595,20,0.122226049555662,1
7,584,20,0.147322329262633,1
7,586,20,0.147912669605452,1
7,587,20,0.109361078325579,1
7,590,20,0.116351501708224,1
7,591,20,0.144747847063593,1
7,592,20,0.125925040540585,1
7,593,20,0.117461789054038,1
7,594,20,0.155516031478037,1
7,595,20,0.166786093301035,1
7,596,20,0.107380751161518,1
8,588,20,0.132842293219815,1
8,589,20,0.110079567786009,1
8,590,20,0.115324089107283,1
8,591,20,0.120198183742523,1
8,592,20,0.106397062517495,1
8,593,20,0.115990544828165,1
8,594,20,0.167011483606505,1
8,595,20,0.187096808231454,1
8,596,20,0.125938135419519,1
9,589,20,0.133675156520612,1
9,590,20,0.118305795271406,1
9,591,20,0.105863072539561,1
9,593,20,0.10337781175159,1
9,594,20,0.125068508301886,1
9,595,20,0.140980849709963,1
9,596,20,0.123766973260837,1
10,590,20,0.145611350596444,1
10,591,20,0.112409340829226,1
10,595,20,0.127325199874253,1
10,596,20,0.146692046192844,1
10,597,20,0.118762420615364,1
11,584,20,0.142623710466739,1
11,585,20,0.134346430800012,1
11,589,20,0.150171335448324,1
11,590,20,0.155156000385842,1
11,591,20,0.112907180464207,1
11,595,20,0.132431477643985,1
11,596,20,0.160962764945986,1
11,597,20,0.140928146726178,1
12,584,20,0.153329733245493,1
12,585,20,0.129949462690571,1
12,586,20,0.11395111224377,1
12,587,20,0.114006737594063,1
12,588,20,0.116519995099348,1
12,589,20,0.118543176202817,1
12,590,20,0.120919919037509,1
12,595,20,0.110703939198358,1
12,596,20,0.141562523339893,1
12,597,20,0.147492172296305,1
12,598,20,0.10711443657086,1
13,584,20,0.133770166894344,1
13,585,20,0.112217133883916,1
13,596,20,0.112753800838804,1
13,597,20,0.120459880547934,1
14,584,20,0.121772324270071,1
14,585,20,0.105395226200537,1
14,588,20,0.10556040683268,1
14,589,20,0.114215486026136,1
14,590,20,0.107319281078208,1
15,585,20,0.124957190676875,1
15,588,20,0.112296260861053,1
15,589,20,0.131516598461756,1
15,590,20,0.119494373039059,1
15,595,20,0.106815842099764,1
15,625,20,0.116930565285623,1
15,626,20,0.129030902665029,1
15,627,20,0.122268791954364,1
16,588,20,0.118272210364702,1
16,589,20,0.125125148672608,1
16,590,20,0.125475721112898,1
16,591,20,0.121490483213079,1
16,592,20,0.111999216805776,1
16,593,20,0.115315768170583,1
16,594,20,0.130982251553561,1
16,595,20,0.137171388809398,1
16,596,20,0.116180565575629,1
16,626,20,0.115359670592632,1
17,589,20,0.114218809939187,1
17,590,20,0.131527696762045,1
17,591,20,0.164799185235294,1
17,592,20,0.160334378068206,1
17,593,20,0.148030155431528,1
17,594,20,0.150083106749542,1
17,595,20,0.145875110904924,1
17,596,20,0.120809694511421,1
17,597,20,0.110506054831091,1
17,598,20,0.106454539443515,1
18,589,20,0.126173118225743,1
18,590,20,0.136421299866838,1
18,593,20,0.170988266720777,1
18,594,20,0.155494225269931,1
18,595,20,0.150063921748037,1
18,596,20,0.134969697959367,1
18,597,20,0.120556564032263,1
18,598,20,0.110900987010326,1
19,594,20,0.177304281530171,1
19,596,20,0.173304710649576,1
19,597,20,0.124620203894627,1
20,595,20,0.193773802229047,1
20,596,20,0.163569694336525,1
20,597,20,0.110520889745046,1
21,595,20,0.149846540065288,1
21,596,20,0.125136960833418,1
1,586,21,0.174114975803251,1
1,587,21,0.141404804781009,1
1,588,21,0.104619192889664,1
1,592,21,0.123246937025277,1
1,593,21,0.132686258925599,1
1,594,21,0.116862056983738,1
1,596,21,0.112415654033209,1
1,597,21,0.154064239951365,1
1,598,21,0.170827268865125,1
1,599,21,0.135254740234633,1
1,630,21,0.115296973561551,1
1,633,21,0.103542813918603,1
2,586,21,0.148815937400143,1
2,587,21,0.114710860611505,1
2,591,21,0.118293693104759,1
2,594,21,0.13013888111822,1
2,596,21,0.108556178279883,1
2,597,21,0.127536022963465,1
2,598,21,0.125166050649653,1
3,585,21,0.160858775545387,1
3,586,21,0.130566695497708,1
3,591,21,0.118490283599831,1
3,594,21,0.115167709036876,1
4,584,21,0.131984110178661,1
4,585,21,0.151330198771785,1
4,586,21,0.125291857412429,1
4,591,21,0.112764196432643,1
4,592,21,0.124436708278489,1
4,593,21,0.12079769273141,1
4,594,21,0.115185711706893,1
5,584,21,0.119027184790202,1
5,585,21,0.128669756165769,1
5,586,21,0.110977392394227,1
5,590,21,0.108191897486774,1
5,591,21,0.126613637091693,1
5,592,21,0.135480186310457,1
5,593,21,0.134466638219325,1
5,594,21,0.136557914924066,1
5,595,21,0.110603552562576,1
6,584,21,0.127938774146221,1
6,586,21,0.123067033019886,1
6,589,21,0.108367674486027,1
6,590,21,0.125295594026094,1
6,591,21,0.151209500573364,1
6,592,21,0.142677573473871,1
6,593,21,0.128493990320587,1
6,594,21,0.144135968210363,1
6,595,21,0.135118850191997,1
7,587,21,0.116132290757889,1
7,588,21,0.104284526154109,1
7,589,21,0.114470222691467,1
7,590,21,0.135634737113278,1
7,591,21,0.152050919046343,1
7,592,21,0.128135230792445,1
7,593,21,0.117000512462622,1
7,594,21,0.16019553219685,1
7,595,21,0.183273215123385,1
7,596,21,0.122632994668979,1
8,589,21,0.126049374966036,1
8,590,21,0.131010950977324,1
8,591,21,0.129396131554143,1
8,592,21,0.117338659268216,1
8,593,21,0.124605168207401,1
8,594,21,0.168944026731935,1
8,595,21,0.19096688035189,1
8,596,21,0.135035629670934,1
9,591,21,0.121976231835484,1
9,592,21,0.109247987203336,1
9,593,21,0.112807295761605,1
9,594,21,0.121886330026107,1
9,595,21,0.130614011065373,1
9,596,21,0.124805684935339,1
9,597,21,0.105928212312113,1
10,591,21,0.132464315227957,1
10,595,21,0.121940271111733,1
10,596,21,0.157264867059986,1
10,597,21,0.141699104934909,1
11,590,21,0.185965060453724,1
11,591,21,0.122813166372065,1
11,595,21,0.135642020721408,1
11,596,21,0.178309363681686,1
11,597,21,0.167845830398697,1
11,598,21,0.114663745817112,1
12,584,21,0.152605209432846,1
12,585,21,0.143425877765128,1
12,586,21,0.131767096580242,1
12,588,21,0.133186017060731,1
12,589,21,0.132295866453115,1
12,590,21,0.134007770907168,1
12,591,21,0.10631692051993,1
12,595,21,0.122901495457482,1
12,596,21,0.155768448096674,1
12,597,21,0.157400734794481,1
12,598,21,0.116256234790867,1
13,584,21,0.13556426569496,1
13,585,21,0.126580041030918,1
13,586,21,0.124409927354876,1
13,587,21,0.127743276750071,1
13,588,21,0.120899897480706,1
13,589,21,0.113068022162871,1
13,590,21,0.110620094049339,1
13,591,21,0.105160120699537,1
13,594,21,0.103044639661502,1
13,595,21,0.117013774652615,1
13,596,21,0.126427286033471,1
13,597,21,0.118873147074631,1
14,584,21,0.125742682639653,1
14,585,21,0.117769987179957,1
14,586,21,0.112637642347134,1
14,587,21,0.118049140105924,1
14,588,21,0.130808459978882,1
14,589,21,0.139232415674557,1
14,590,21,0.122117654297159,1
14,591,21,0.10445435803371,1
14,594,21,0.114334031488923,1
14,595,21,0.115924936584647,1
14,596,21,0.106175274976842,1
15,586,21,0.119153660797216,1
15,587,21,0.117161889556676,1
15,588,21,0.13522551656955,1
15,589,21,0.161121420446804,1
15,590,21,0.134719724082201,1
15,591,21,0.10619955738863,1
15,592,21,0.106099918075582,1
15,593,21,0.117979728324317,1
15,594,21,0.131207374161337,1
15,595,21,0.128876195705219,1
15,596,21,0.105604086173316,1
15,625,21,0.112313772751962,1
15,626,21,0.138611245480482,1
15,627,21,0.128869391722127,1
16,588,21,0.139103340769083,1
16,589,21,0.139200280797036,1
16,590,21,0.132524145662882,1
16,591,21,0.136975177552727,1
16,592,21,0.145699701990002,1
16,593,21,0.155163774773079,1
16,594,21,0.168385408566023,1
16,595,21,0.164818113693174,1
16,596,21,0.124832454704881,1
16,597,21,0.103238285481924,1
16,606,21,0.109338625181376,1
16,626,21,0.106809227735873,1
17,589,21,0.132769490600732,1
17,590,21,0.146212499233715,1
17,591,21,0.189540252408588,1
17,595,21,0.162365891262445,1
17,596,21,0.135292396377122,1
17,597,21,0.12756145424453,1
17,598,21,0.123329008677064,1
18,589,21,0.147729530919575,1
18,597,21,0.14956250165638,1
18,598,21,0.130439059467348,1
19,597,21,0.145245753622998,1
20,596,21,0.176003504965926,1
20,597,21,0.118478683366363,1
21,595,21,0.144129498849391,1
21,596,21,0.123590192395226,1
1,587,22,0.161840567997401,1
1,588,22,0.117489752309138,1
1,591,22,0.105286128235584,1
1,594,22,0.11509918958092,1
1,596,22,0.13021267644959,1
1,597,22,0.205431278387667,1
1,598,22,0.224059089447705,1
1,599,22,0.154621675785789,1
1,622,22,0.112058868775571,1
1,629,22,0.135312864096751,1
1,630,22,0.153395809959978,1
2,587,22,0.126779877360547,1
2,595,22,0.105542939558054,1
2,596,22,0.119786933157938,1
2,597,22,0.158612981500037,1
2,598,22,0.157711621051426,1
2,599,22,0.110572633478756,1
3,586,22,0.125397586848048,1
4,585,22,0.145166849727274,1
4,586,22,0.125657967473124,1
4,591,22,0.108799482022806,1
4,594,22,0.115389708504872,1
4,595,22,0.105709480986816,1
5,584,22,0.116518444683528,1
5,585,22,0.127475422897665,1
5,586,22,0.115272758074186,1
5,587,22,0.102950410072715,1
5,589,22,0.106354554354277,1
5,590,22,0.117901237129206,1
5,591,22,0.125885610900864,1
5,592,22,0.131107455996522,1
5,593,22,0.132512188499154,1
5,594,22,0.135553490862719,1
5,595,22,0.115686496016524,1
6,586,22,0.129619045655931,1
6,587,22,0.109777549015225,1
6,588,22,0.107725980801971,1
6,589,22,0.127157888814618,1
6,592,22,0.138453337302398,1
6,593,22,0.131332757069428,1
6,594,22,0.14852173763288,1
6,595,22,0.144957119736985,1
6,596,22,0.105332986486353,1
7,588,22,0.11991772579029,1
7,592,22,0.132535143576536,1
7,593,22,0.126169961623751,1
7,594,22,0.160961716463346,1
7,595,22,0.185190387939469,1
7,596,22,0.135106893028269,1
8,591,22,0.138246139286145,1
8,592,22,0.130808303821893,1
8,593,22,0.135342310843247,1
8,594,22,0.159285884273751,1
8,595,22,0.175567804658493,1
8,596,22,0.136042518781893,1
9,592,22,0.119210635790058,1
9,593,22,0.120121354503938,1
9,594,22,0.118869432769107,1
9,595,22,0.123582652243472,1
9,596,22,0.123817133116516,1
9,597,22,0.112713289254231,1
10,595,22,0.118850314692026,1
10,596,22,0.159243956122206,1
10,597,22,0.161585574788445,1
10,598,22,0.112062873086932,1
11,591,22,0.125633038125238,1
11,595,22,0.137443380822012,1
11,596,22,0.192758558719177,1
11,597,22,0.202365760536737,1
11,598,22,0.141017814300072,1
12,584,22,0.142014809750371,1
12,590,22,0.139694316893929,1
12,591,22,0.110628336907544,1
12,594,22,0.104398063439178,1
12,595,22,0.142604837779212,1
12,596,22,0.17871156831498,1
12,597,22,0.174048821010271,1
12,598,22,0.123964690317044,1
13,584,22,0.130437397510822,1
13,585,22,0.132860139732843,1
13,586,22,0.151539103360846,1
13,587,22,0.157827567615753,1
13,588,22,0.138281776541847,1
13,589,22,0.127756248934229,1
13,590,22,0.121935374474721,1
13,591,22,0.115708692617103,1
13,594,22,0.117926512253282,1
13,595,22,0.143234775072812,1
13,596,22,0.145840165201602,1
13,597,22,0.119432702182477,1
14,585,22,0.125530521061964,1
14,586,22,0.136172452550807,1
14,587,22,0.144494504657092,1
14,588,22,0.152103097788808,1
14,589,22,0.162773014840893,1
14,590,22,0.132431678417257,1
14,591,22,0.110343963876516,1
14,592,22,0.1051610464874,1
14,593,22,0.11110593190431,1
14,594,22,0.130080813026455,1
14,595,22,0.132962099092585,1
14,596,22,0.111323893598732,1
15,588,22,0.15178416944693,1
15,590,22,0.143884588920296,1
15,591,22,0.113611470792709,1
15,592,22,0.122615605472847,1
15,593,22,0.138841632809601,1
15,594,22,0.151423837194828,1
15,595,22,0.140596034272801,1
15,596,22,0.104970880737018,1
15,605,22,0.109346042638354,1
15,606,22,0.124390095417274,1
15,626,22,0.1278472549966,1
16,589,22,0.147094775067458,1
16,590,22,0.134178294339149,1
16,591,22,0.144789808677349,1
16,595,22,0.177864037411288,1
16,596,22,0.130438390223109,1
16,597,22,0.108649069380193,1
16,603,22,0.107886342875596,1
16,604,22,0.105267902484154,1
16,605,22,0.128792071704434,1
16,606,22,0.140421261139905,1
17,590,22,0.148402177149664,1
17,597,22,0.150938668584096,1
17,598,22,0.1367345730949,1
17,602,22,0.120377262346686,1
17,603,22,0.135802103943267,1
17,604,22,0.119098236220194,1
17,605,22,0.115879416822355,1
17,606,22,0.105455603184924,1
18,598,22,0.141886058312946,1
18,599,22,0.103380990661723,1
18,603,22,0.109877946805077,1
19,598,22,0.109879307601695,1
20,597,22,0.125754606341169,1
1,591,23,0.113364965831512,1
1,596,23,0.142904458424808,1
1,597,23,0.250836198367919,1
1,598,23,0.271357368303219,1
1,599,23,0.16676795678217,1
1,622,23,0.115065013508472,1
2,588,23,0.110943350170626,1
2,596,23,0.127606338224795,1
2,597,23,0.190620948004987,1
2,598,23,0.194795872030151,1
2,599,23,0.124617683074662,1
3,587,23,0.107629754634539,1
3,595,23,0.106961670419342,1
3,596,23,0.107353791772775,1
3,597,23,0.11241149356486,1
4,587,23,0.107485588271486,1
4,590,23,0.106423776516684,1
4,591,23,0.109865822330289,1
4,594,23,0.115455796373428,1
4,595,23,0.110692115883477,1
4,596,23,0.104018981194326,1
5,586,23,0.124814251261592,1
5,587,23,0.112812404325959,1
5,589,23,0.111459939798358,1
5,592,23,0.12395055810954,1
5,593,23,0.123375242299877,1
5,594,23,0.126666975857505,1
5,595,23,0.113603752175825,1
6,587,23,0.126989216958363,1
6,588,23,0.11718175495649,1
6,593,23,0.126030725359922,1
6,594,23,0.139983318864273,1
6,595,23,0.137532022221407,1
6,596,23,0.113557763942566,1
7,593,23,0.127212822612531,1
7,594,23,0.146212019608678,1
7,595,23,0.163038080175638,1
7,596,23,0.134490374081652,1
7,597,23,0.102999744527166,1
8,592,23,0.13822312843841,1
8,593,23,0.134674103933273,1
8,594,23,0.135519114016999,1
8,595,23,0.144744757386025,1
8,596,23,0.125991161871353,1
9,592,23,0.124103759269813,1
9,593,23,0.119227913445483,1
9,594,23,0.110070778378343,1
9,595,23,0.112460694170463,1
9,596,23,0.116609439591829,1
9,597,23,0.113067899468094,1
10,592,23,0.104602238702287,1
10,595,23,0.11155426977378,1
10,596,23,0.148545796963255,1
10,597,23,0.169383352112327,1
10,598,23,0.12589629650054,1
11,595,23,0.133491828215533,1
11,596,23,0.195559658171459,1
11,597,23,0.227935709007608,1
11,598,23,0.158271912327934,1
12,591,23,0.111743264346745,1
12,594,23,0.113974480021766,1
12,595,23,0.162841121596235,1
12,596,23,0.201647906858335,1
12,597,23,0.192132369193314,1
12,598,23,0.127159718082203,1
13,584,23,0.131083418974288,1
13,585,23,0.136702125903402,1
13,590,23,0.134547337920423,1
13,591,23,0.119829307472308,1
13,594,23,0.13147916540068,1
13,595,23,0.170308325728488,1
13,596,23,0.166140663003313,1
13,597,23,0.122275239007195,1
14,585,23,0.136038525624603,1
14,590,23,0.140758883704179,1
14,591,23,0.11379136364403,1
14,592,23,0.110359590729486,1
14,593,23,0.120359583144718,1
14,594,23,0.143564913255685,1
14,595,23,0.149984136680732,1
14,596,23,0.119493023396511,1
14,623,23,0.121302470198331,1
14,624,23,0.117090960821461,1
15,585,23,0.135832799945675,1
15,591,23,0.121494889070983,1
15,595,23,0.14892109797816,1
15,596,23,0.108660100756059,1
15,605,23,0.137640395171769,1
15,606,23,0.153250271646236,1
15,607,23,0.109433869790592,1
15,620,23,0.123865809480799,1
15,621,23,0.124094177923132,1
15,623,23,0.106953873723963,1
16,590,23,0.135848081022455,1
16,597,23,0.121539773051248,1
16,598,23,0.108029427293797,1
16,602,23,0.115619582746741,1
16,603,23,0.136781699043364,1
16,604,23,0.125242299876565,1
16,605,23,0.146355427494927,1
16,606,23,0.151445487245945,1
16,607,23,0.111390639557456,1
17,598,23,0.14288157027185,1
17,599,23,0.107492648798202,1
17,602,23,0.133928097380569,1
17,603,23,0.16508769642653,1
17,604,23,0.137556483098326,1
17,605,23,0.123681131533173,1
17,606,23,0.105273791833453,1
18,598,23,0.141695067161336,1
18,599,23,0.107467652525893,1
18,603,23,0.117188971640195,1
19,598,23,0.114840571299006,1
1,596,24,0.140895844537597,1
1,597,24,0.253315435957743,1
1,598,24,0.275689363951168,1
1,599,24,0.160628198597068,1
2,596,24,0.125109633360344,1
2,597,24,0.194947656623452,1
2,598,24,0.207925462432153,1
2,599,24,0.128092979172852,1
3,596,24,0.110157601664223,1
3,597,24,0.116199070178825,1
3,598,24,0.109724667566309,1
4,591,24,0.10523727340617,1
4,595,24,0.114290207145369,1
4,596,24,0.115405212663065,1
5,588,24,0.103297848219154,1
5,592,24,0.115933179442851,1
5,593,24,0.11709701748182,1
5,594,24,0.121612988370944,1
5,595,24,0.11697773585037,1
5,596,24,0.115610324868108,1
5,597,24,0.105139675288049,1
6,594,24,0.135969515389539,1
6,595,24,0.132810504118484,1
6,596,24,0.125099817778179,1
6,597,24,0.113834842211394,1
7,594,24,0.139186360516874,1
7,595,24,0.142251878367804,1
7,596,24,0.130042364944951,1
7,597,24,0.110912118772827,1
8,593,24,0.132131678533259,1
8,594,24,0.119071042595968,1
8,595,24,0.120841260531339,1
8,596,24,0.114092200083325,1
8,609,24,0.110021979319282,1
9,592,24,0.124701282834126,1
9,593,24,0.11354879606977,1
9,595,24,0.103247376049498,1
9,596,24,0.108558364477729,1
9,597,24,0.109098388807881,1
10,592,24,0.107314417903408,1
10,596,24,0.131997350060513,1
10,597,24,0.161007749312887,1
10,598,24,0.125739091028906,1
11,595,24,0.123440114374733,1
11,596,24,0.181351457984267,1
11,597,24,0.223785078548304,1
11,598,24,0.153244917692328,1
12,591,24,0.109146953631458,1
12,594,24,0.116776137177579,1
12,595,24,0.167258256265398,1
12,596,24,0.201230744616309,1
12,597,24,0.189587969522796,1
12,598,24,0.118937740297721,1
13,591,24,0.113706704247854,1
13,594,24,0.132314549521441,1
13,595,24,0.175126560777951,1
13,596,24,0.16457183181339,1
13,597,24,0.115714091187294,1
14,591,24,0.110493818815597,1
14,592,24,0.108999050654739,1
14,594,24,0.14408555181106,1
14,595,24,0.149340134104053,1
14,596,24,0.115740738262058,1
14,605,24,0.107473586491475,1
14,606,24,0.112294654674881,1
14,620,24,0.115752806966493,1
14,623,24,0.146191384577989,1
15,585,24,0.139846926888458,1
15,591,24,0.12269968485735,1
15,595,24,0.145535614456782,1
15,596,24,0.106257335474558,1
15,603,24,0.106471092084349,1
15,604,24,0.118692930755262,1
15,605,24,0.16086195445552,1
15,606,24,0.169714449545275,1
15,607,24,0.12329387335454,1
15,620,24,0.161567404807369,1
16,590,24,0.130885032673842,1
16,598,24,0.11144800494277,1
16,602,24,0.128663052569313,1
16,603,24,0.166199757269576,1
16,604,24,0.145839417878869,1
16,605,24,0.153479208946171,1
16,606,24,0.148520332219979,1
16,607,24,0.117165235777868,1
16,608,24,0.108288134808276,1
17,599,24,0.114007462608655,1
17,602,24,0.138673295575466,1
17,603,24,0.183161250562277,1
17,604,24,0.146744403400439,1
17,605,24,0.118755047774669,1
18,599,24,0.114372948041394,1
18,603,24,0.118634014954129,1
19,598,24,0.128218540546073,1
19,599,24,0.105499159830783,1
1,596,25,0.132318631911296,1
1,597,25,0.225047139333349,1
1,598,25,0.249648847548036,1
1,599,25,0.147958490527651,1
2,596,25,0.119207055333381,1
2,597,25,0.179791103888032,1
2,598,25,0.200563351953493,1
2,599,25,0.125351286300811,1
3,596,25,0.106975635315786,1
3,597,25,0.112701700174833,1
3,598,25,0.111648677827697,1
4,595,25,0.112118319972095,1
4,596,25,0.115720939786668,1
4,597,25,0.103419271432168,1
5,594,25,0.115497189129582,1
5,595,25,0.113666594209824,1
5,596,25,0.117685004315733,1
5,597,25,0.107128111461468,1
5,613,25,0.106655625029056,1
6,596,25,0.123880030920868,1
6,597,25,0.116670552744878,1
7,595,25,0.124497687582691,1
7,596,25,0.118281178237498,1
7,597,25,0.108554516323358,1
8,594,25,0.112715163138099,1
8,595,25,0.110787304722339,1
8,596,25,0.106165091310345,1
8,609,25,0.137489045587222,1
8,610,25,0.118239183161529,1
9,593,25,0.1072656746147,1
9,595,25,0.103932068675881,1
9,596,25,0.108002936376021,1
9,597,25,0.109764576831068,1
9,609,25,0.124909629719655,1
9,610,25,0.108422396356599,1
10,592,25,0.109457204106376,1
10,596,25,0.120768268293055,1
10,597,25,0.147349467116506,1
10,598,25,0.119736115212091,1
11,595,25,0.114216010267456,1
11,596,25,0.157048823865714,1
11,597,25,0.192964552095801,1
11,598,25,0.134282618361867,1
12,591,25,0.106741622913709,1
12,594,25,0.113393431019792,1
12,595,25,0.156595845902856,1
12,596,25,0.181047174937142,1
12,597,25,0.169102414535057,1
12,598,25,0.107323040000014,1
13,591,25,0.106892950190114,1
13,594,25,0.125726955400047,1
13,595,25,0.163119571815752,1
13,596,25,0.150315847587566,1
13,597,25,0.10754972417768,1
14,591,25,0.107835971092575,1
14,592,25,0.105943772240659,1
14,594,25,0.138969893467917,1
14,595,25,0.141549528847594,1
14,596,25,0.110993967343201,1
14,605,25,0.119215755508482,1
14,606,25,0.123990110444038,1
14,607,25,0.105365946765101,1
14,620,25,0.162785340088952,1
15,590,25,0.128600020916113,1
15,591,25,0.125122438233441,1
15,595,25,0.141289572077203,1
15,596,25,0.106154494943235,1
15,603,25,0.113399811148199,1
15,604,25,0.133247163675993,1
15,605,25,0.176730438057832,1
15,606,25,0.175034249689315,1
15,607,25,0.136815205871574,1
15,608,25,0.126251966351114,1
15,609,25,0.116126557565579,1
15,610,25,0.107344333120871,1
16,589,25,0.139561583453284,1
16,590,25,0.130967082017488,1
16,598,25,0.115103606592895,1
16,599,25,0.104347725118369,1
16,602,25,0.131478038839545,1
16,603,25,0.177999414366675,1
16,604,25,0.163606112377172,1
16,605,25,0.159322726169083,1
16,606,25,0.142988961663995,1
16,607,25,0.124137656490496,1
16,608,25,0.12398945235387,1
16,609,25,0.107750497449243,1
17,599,25,0.12101544249849,1
17,600,25,0.105603149231382,1
17,601,25,0.106717619353687,1
17,602,25,0.136442314135928,1
17,603,25,0.181403569802308,1
17,604,25,0.148435293585401,1
17,605,25,0.113303395361566,1
18,590,25,0.14940276421071,1
18,599,25,0.123733421816345,1
18,600,25,0.10786731403108,1
1,595,26,0.104924513265358,1
1,596,26,0.125953851505054,1
1,597,26,0.182698289706194,1
1,598,26,0.201948397521441,1
1,599,26,0.131874231428762,1
2,596,26,0.117024493714503,1
2,597,26,0.155358870622685,1
2,598,26,0.174003937030006,1
2,599,26,0.118389528879718,1
3,596,26,0.106136068418534,1
3,597,26,0.110726816197245,1
3,598,26,0.111777964660513,1
4,596,26,0.116835086440924,1
4,597,26,0.108176772566983,1
4,613,26,0.107725746566487,1
5,597,26,0.116747103131697,1
5,598,26,0.106831323949815,1
5,613,26,0.108453438135196,1
6,597,26,0.120299585398733,1
6,598,26,0.107358509944657,1
7,596,26,0.107763458479329,1
7,597,26,0.104827160536791,1
8,608,26,0.109243291339596,1
8,609,26,0.140559025066409,1
8,610,26,0.12564764995778,1
9,596,26,0.105878409386695,1
9,597,26,0.107215035133984,1
9,608,26,0.121656611941227,1
9,609,26,0.133186630534616,1
9,610,26,0.112639560847285,1
10,592,26,0.106968942873401,1
10,596,26,0.112662772468291,1
10,597,26,0.129722455044857,1
10,598,26,0.110362981566961,1
10,606,26,0.107703237651931,1
10,607,26,0.122203317559693,1
10,608,26,0.105587433145847,1
11,595,26,0.105629394759603,1
11,596,26,0.132305392029444,1
11,597,26,0.152139861605645,1
11,598,26,0.114049245757282,1
11,606,26,0.121812133148194,1
11,607,26,0.12107047668304,1
12,591,26,0.104644936484706,1
12,594,26,0.105356097720724,1
12,595,26,0.135246408143864,1
12,596,26,0.150841003541551,1
12,597,26,0.139691796073963,1
12,606,26,0.105200230737567,1
13,594,26,0.114316162667754,1
13,595,26,0.139099659925771,1
13,596,26,0.1297676513391,1
14,591,26,0.108858743600129,1
14,592,26,0.104314630990773,1
14,594,26,0.129771789499308,1
14,595,26,0.127128196678568,1
14,596,26,0.10362107087823,1
14,600,26,0.114335604212884,1
14,605,26,0.118656713487886,1
14,606,26,0.126362358188261,1
14,607,26,0.117722816615211,1
14,608,26,0.112816163247766,1
14,609,26,0.108738647721522,1
14,610,26,0.11266968799209,1
14,611,26,0.10601133244654,1
15,590,26,0.13000727423871,1
15,591,26,0.131867159747975,1
15,595,26,0.134886209740609,1
15,596,26,0.104890961820865,1
15,599,26,0.108828794920454,1
15,600,26,0.11693121222172,1
15,603,26,0.113001142355299,1
15,604,26,0.137217555507786,1
15,605,26,0.166664748166516,1
15,606,26,0.161954306055741,1
15,607,26,0.144929435333651,1
15,608,26,0.146785617691463,1
15,609,26,0.141768081707761,1
15,610,26,0.141384415139875,1
15,611,26,0.120921134831209,1
16,589,26,0.134555045383236,1
16,590,26,0.134246356478208,1
16,598,26,0.121264791747701,1
16,599,26,0.127080769570196,1
16,600,26,0.126607625047617,1
16,601,26,0.117631944401687,1
16,602,26,0.128866357814912,1
16,603,26,0.169044145670021,1
16,604,26,0.174534424629758,1
16,605,26,0.159206154976799,1
16,606,26,0.135598363688914,1
16,607,26,0.127612171803741,1
16,608,26,0.132278689184326,1
17,590,26,0.13602248607102,1
17,599,26,0.132077614752856,1
17,600,26,0.119863784704664,1
17,601,26,0.116232242384915,1
17,602,26,0.131627614926859,1
17,603,26,0.164802687613476,1
17,604,26,0.147791815250042,1
17,605,26,0.113567066437482,1
18,599,26,0.135526743401319,1
18,600,26,0.114378625463351,1
18,601,26,0.105739976215952,1
18,602,26,0.104996356634365,1
1,595,27,0.114094598208513,1
1,596,27,0.121412572029642,1
1,597,27,0.144726386631677,1
1,598,27,0.155319742142872,1
1,599,27,0.117198062207769,1
2,596,27,0.114500372144413,1
2,597,27,0.131391226707735,1
2,598,27,0.14252754006966,1
2,599,27,0.109245879083985,1
3,597,27,0.105155792920128,1
3,598,27,0.107705914628885,1
4,597,27,0.108903661042606,1
4,598,27,0.106229639917153,1
5,598,27,0.115954372177072,1
5,599,27,0.109803526845751,1
6,598,27,0.114979885641329,1
6,599,27,0.115335098175007,1
7,597,27,0.102947141930017,1
7,598,27,0.113155224687153,1
7,599,27,0.121726837969991,1
8,595,27,0.104623554131285,1
8,608,27,0.113929718736278,1
8,609,27,0.128693012403059,1
8,610,27,0.11827427386777,1
9,595,27,0.104297163716147,1
9,596,27,0.107340741510124,1
9,597,27,0.106597300393667,1
9,606,27,0.10407739506228,1
9,607,27,0.131644111797339,1
9,608,27,0.139367190310129,1
9,609,27,0.130022834167256,1
9,610,27,0.106744645666853,1
10,592,27,0.10537530503037,1
10,596,27,0.108913320467782,1
10,597,27,0.115663228625164,1
10,601,27,0.121695517339627,1
10,602,27,0.144827409049485,1
10,603,27,0.117731037165274,1
10,605,27,0.106117719972327,1
10,606,27,0.15066422267594,1
10,607,27,0.156502029014682,1
10,608,27,0.122886760930164,1
11,596,27,0.111917401697614,1
11,597,27,0.118485275422112,1
11,601,27,0.113838221894798,1
11,602,27,0.143483923548751,1
11,603,27,0.127488294695186,1
11,604,27,0.108798455848307,1
11,605,27,0.124940359184275,1
11,606,27,0.161402525335133,1
11,607,27,0.143951279108667,1
12,591,27,0.105885983000661,1
12,595,27,0.11149088119032,1
12,596,27,0.120443762915856,1
12,597,27,0.112797223635815,1
12,602,27,0.106946032412302,1
12,603,27,0.110141194026308,1
12,604,27,0.108394410793357,1
12,605,27,0.114235652585857,1
12,606,27,0.123546022275482,1
12,607,27,0.108936643629495,1
13,595,27,0.11466457121834,1
13,596,27,0.110141718267628,1
13,605,27,0.111102596837187,1
13,606,27,0.115041478419416,1
13,607,27,0.107386930516654,1
13,608,27,0.102915408599039,1
13,609,27,0.106128829426687,1
13,610,27,0.112609121388502,1
13,611,27,0.10436163424446,1
14,590,27,0.129744138558186,1
14,591,27,0.115296337779524,1
14,592,27,0.106904639656148,1
14,593,27,0.116083603239535,1
14,594,27,0.121779886729966,1
14,595,27,0.116457465379326,1
14,599,27,0.107112596149204,1
14,600,27,0.125631956180386,1
14,601,27,0.111453068890842,1
14,605,27,0.123156421742014,1
14,606,27,0.135058484361681,1
14,607,27,0.133543884263221,1
14,608,27,0.131589590700039,1
14,609,27,0.133694999612285,1
14,610,27,0.149666279129636,1
14,611,27,0.146195522738198,1
15,590,27,0.14249627520965,1
15,591,27,0.146452802531635,1
15,596,27,0.107189258076729,1
15,599,27,0.129158148302917,1
15,600,27,0.142381488668669,1
15,601,27,0.120429987638613,1
15,603,27,0.108709212129097,1
15,604,27,0.134369954734997,1
15,605,27,0.149472979085404,1
15,606,27,0.150965706051333,1
15,607,27,0.155701914065292,1
15,608,27,0.161674706966949,1
15,609,27,0.158170019892616,1
15,610,27,0.164166649043235,1
16,589,27,0.134334194784517,1
16,590,27,0.144751025973726,1
16,598,27,0.127599366930643,1
16,599,27,0.155505981660388,1
16,600,27,0.162296791794816,1
16,601,27,0.136063956905668,1
16,602,27,0.123569479286043,1
16,603,27,0.152130235642681,1
16,604,27,0.179195231126175,1
16,605,27,0.156593436623597,1
16,606,27,0.130870677384925,1
16,607,27,0.130251102222953,1
16,608,27,0.130816702837087,1
16,609,27,0.116824266992401,1
17,599,27,0.143883295048101,1
17,600,27,0.135995047057239,1
17,601,27,0.126299527308333,1
17,602,27,0.127921005711687,1
17,603,27,0.147828545604667,1
17,604,27,0.149153236496369,1
17,605,27,0.119292540130785,1
1,596,28,0.12569940484556,1
1,597,28,0.121893279012117,1
1,598,28,0.121966851262074,1
1,599,28,0.10820103267063,1
1,600,28,0.1076035537226,1
1,601,28,0.119910129868183,1
1,602,28,0.107330680538404,1
2,597,28,0.116973631152373,1
2,598,28,0.11978489196301,1
2,599,28,0.104370222878855,1
3,597,28,0.103259846300476,1
3,598,28,0.106728929581318,1
4,598,28,0.110491186454925,1
5,599,28,0.110794398711268,1
6,598,28,0.118253739223718,1
6,599,28,0.130504321934676,1
6,600,28,0.109556207637397,1
7,598,28,0.121825596111459,1
7,599,28,0.151214676062142,1
7,600,28,0.123504874908882,1
8,598,28,0.104294720974677,1
8,599,28,0.11372086991757,1
8,608,28,0.11533585665181,1
8,609,28,0.110849589052806,1
9,595,28,0.103803105311113,1
9,596,28,0.106436358308368,1
9,597,28,0.103449911664222,1
9,601,28,0.11874394947438,1
9,602,28,0.116772166328431,1
9,606,28,0.131194981988853,1
9,607,28,0.160516033262688,1
9,608,28,0.154386235662669,1
9,609,28,0.120185847340392,1
10,592,28,0.103527800539518,1
10,596,28,0.111822335553529,1
10,597,28,0.107990399200619,1
10,600,28,0.110653188176935,1
10,601,28,0.180043230500833,1
10,602,28,0.186263353764914,1
10,603,28,0.137099668135167,1
10,604,28,0.118316614719929,1
10,605,28,0.142956659475414,1
10,606,28,0.193867541038726,1
10,607,28,0.186431356376929,1
10,608,28,0.14184602635341,1
11,591,28,0.116902077789203,1
11,596,28,0.108378817402599,1
11,597,28,0.104195918216926,1
11,601,28,0.1557664626721,1
11,602,28,0.17865914418296,1
11,603,28,0.160807187968666,1
11,604,28,0.152458198781779,1
11,605,28,0.170447350064975,1
11,606,28,0.201416147578527,1
11,607,28,0.163396203921753,1
11,608,28,0.117724935888633,1
12,591,28,0.106122538530845,1
12,601,28,0.105623873494635,1
12,602,28,0.124844333790115,1
12,603,28,0.142395531643608,1
12,604,28,0.147551578876546,1
12,605,28,0.145354360808843,1
12,606,28,0.146468139378768,1
12,607,28,0.121764293339208,1
12,608,28,0.10901433173152,1
12,609,28,0.108696652645554,1
12,610,28,0.106429152778733,1
13,603,28,0.108530378914488,1
13,604,28,0.120607772370582,1
13,605,28,0.131525677875258,1
13,606,28,0.133545579681959,1
13,607,28,0.118603441646498,1
13,608,28,0.116239693304104,1
13,609,28,0.133696605798457,1
13,610,28,0.153106930684411,1
13,611,28,0.140313680128559,1
14,590,28,0.124731476903355,1
14,591,28,0.119151061898757,1
14,592,28,0.110809055160092,1
14,593,28,0.110965368306074,1
14,594,28,0.109652902275796,1
14,595,28,0.103026993921745,1
14,599,28,0.114241118080472,1
14,600,28,0.133422550282774,1
14,601,28,0.12590480705644,1
14,604,28,0.106222412079377,1
14,605,28,0.130614178376433,1
14,606,28,0.145651839872876,1
14,607,28,0.14484920410352,1
14,608,28,0.149656909710297,1
14,609,28,0.175608807022175,1
14,610,28,0.210854164452584,1
15,589,28,0.123456488550436,1
15,590,28,0.14433176676642,1
15,591,28,0.155221340931665,1
15,596,28,0.107994793904452,1
15,598,28,0.106963510840998,1
15,599,28,0.148186658196712,1
15,600,28,0.168982251732026,1
15,601,28,0.141264564650823,1
15,602,28,0.108414421196089,1
15,603,28,0.105927174983543,1
15,604,28,0.126397047347959,1
15,605,28,0.133635637648326,1
15,606,28,0.141915895451914,1
15,607,28,0.15912438448492,1
15,608,28,0.167702322125812,1
15,609,28,0.170618676590042,1
16,598,28,0.131028875568846,1
16,599,28,0.176110305192327,1
16,600,28,0.194454133613809,1
16,601,28,0.153804082407702,1
16,602,28,0.120031932319598,1
16,603,28,0.132718906890369,1
16,604,28,0.167051225560204,1
16,605,28,0.147668540461302,1
16,606,28,0.125408183215158,1
17,604,28,0.145338321255259,1
17,605,28,0.125763362286624,1
1,597,29,0.121231117608432,1
1,598,29,0.105054870888955,1
1,600,29,0.112224227872845,1
1,601,29,0.126174200170595,1
1,602,29,0.123675710654841,1
2,598,29,0.109056337961559,1
3,598,29,0.111217104526402,1
5,599,29,0.11356737875146,1
6,598,29,0.124909116632406,1
6,599,29,0.147791034465097,1
6,600,29,0.132992962406053,1
7,598,29,0.12879651102455,1
7,599,29,0.179867308498661,1
7,600,29,0.159067632573491,1
8,598,29,0.107384733164737,1
8,599,29,0.124615630725663,1
8,608,29,0.119006627838008,1
9,594,29,0.103957354954027,1
9,595,29,0.104548331078873,1
9,596,29,0.106181688567461,1
9,597,29,0.103509574788088,1
9,601,29,0.142226424778598,1
9,602,29,0.13425488934225,1
9,606,29,0.155156123080619,1
9,607,29,0.180704811892845,1
9,608,29,0.169232058298133,1
9,609,29,0.118585717828247,1
10,595,29,0.113669070413506,1
10,596,29,0.123268386303122,1
10,597,29,0.110303719989638,1
10,600,29,0.136141633853622,1
10,601,29,0.231369757352563,1
10,602,29,0.21466693811213,1
10,603,29,0.152095167244581,1
10,604,29,0.150739947661531,1
10,605,29,0.185288811458818,1
10,606,29,0.224601400362338,1
10,607,29,0.211632473193868,1
10,608,29,0.169846234889915,1
11,591,29,0.115303643695795,1
11,596,29,0.123549892737995,1
11,597,29,0.109255839669069,1
11,601,29,0.194504460780548,1
11,602,29,0.196616952527651,1
11,603,29,0.183042526634359,1
11,604,29,0.200083369985609,1
11,605,29,0.219235913144947,1
11,606,29,0.23003064424752,1
11,607,29,0.183463815882522,1
11,608,29,0.144778286522376,1
12,591,29,0.107909141795989,1
12,601,29,0.124713474233338,1
12,602,29,0.138486286427075,1
12,603,29,0.170961106558763,1
12,604,29,0.195316053268629,1
12,605,29,0.191317452792181,1
12,606,29,0.177590561907278,1
12,607,29,0.141845602498726,1
12,608,29,0.130407359598582,1
12,609,29,0.128755040189901,1
13,603,29,0.129838736231304,1
13,604,29,0.152942809688979,1
13,605,29,0.168909248339672,1
13,606,29,0.166817012384855,1
13,607,29,0.136112075566419,1
13,608,29,0.131978332370068,1
13,609,29,0.166314320729144,1
13,610,29,0.199225287331091,1
14,590,29,0.12097914715262,1
14,591,29,0.119882568159626,1
14,592,29,0.114518218657441,1
14,593,29,0.107842328912841,1
14,599,29,0.13081414855491,1
14,600,29,0.149501377349259,1
14,601,29,0.142785477953266,1
14,603,29,0.111975559021943,1
14,604,29,0.126556662098852,1
14,605,29,0.152180495884996,1
14,606,29,0.167359222912853,1
14,607,29,0.157207557445025,1
14,608,29,0.164431245907014,1
14,609,29,0.216993253393448,1
15,591,29,0.152305789560522,1
15,592,29,0.138102497164412,1
15,597,29,0.106985317049104,1
15,598,29,0.117193087492262,1
15,599,29,0.165980278621546,1
15,600,29,0.201052747956998,1
15,601,29,0.171844129715238,1
15,602,29,0.124888637758706,1
15,603,29,0.114686567045646,1
15,604,29,0.129710408648563,1
15,605,29,0.133790199605217,1
15,606,29,0.146066793608914,1
16,598,29,0.134927044793231,1
16,599,29,0.185043656140169,1
16,600,29,0.218368148757111,1
16,601,29,0.176710472271382,1
16,603,29,0.128220682127636,1
16,604,29,0.161354005127839,1
16,605,29,0.144929781109841,1
16,606,29,0.123463549077152,1
17,600,29,0.169697060349144,1
17,604,29,0.156345626636135,1
17,605,29,0.141132310835216,1
9,605,30,0.167766558418642,1
9,606,30,0.178628860881166,1
9,607,30,0.189971691861035,1
9,608,30,0.183763157676352,1
10,603,30,0.159394859543927,1
10,604,30,0.188350291536175,1
10,605,30,0.239675591440134,1
10,606,30,0.248437760865827,1
10,607,30,0.235935653861883,1
10,608,30,0.214648333122298,1
10,609,30,0.148078419095198,1
11,602,30,0.192426747425707,1
11,603,30,0.19166106509239,1
11,604,30,0.24885974166637,1
11,605,30,0.277039631126853,2
11,606,30,0.25537677513688,1
11,607,30,0.208675194444452,1
11,608,30,0.182749129960182,1
12,603,30,0.191904915384774,1
12,604,30,0.260410294903812,2
12,605,30,0.26825245427478,2
12,606,30,0.223149207289123,1
12,607,30,0.166658769584652,1
13,599,30,0.151377313566179,1
13,603,30,0.157694388012283,1
13,604,30,0.207826458901131,1
13,605,30,0.229178138628322,1
13,606,30,0.205731791358915,1
13,607,30,0.153622170669595,1
14,599,30,0.168371376745155,1
14,600,30,0.178451879242283,1
14,604,30,0.155384045360125,1
14,605,30,0.171207533441465,1
14,606,30,0.175437882043651,1
15,599,30,0.179870253173311,1
15,600,30,0.225624518646081,1
15,601,30,0.198830767852469,1
15,604,30,0.133525301581531,1
16,599,30,0.182189619468618,1
16,600,30,0.225031300553037,1
16,601,30,0.190989723888566,1
16,603,30,0.124946136992868,1
16,604,30,0.144569315008891,1
16,605,30,0.132257295676834,1
17,600,30,0.180034195703613,1
17,603,30,0.132462151338252,1
17,604,30,0.160094688244172,1
17,605,30,0.146136606937065,1
18,604,30,0.130141256935267,1
8,605,31,0.136898671782191,1
8,606,31,0.134750944325929,1
9,604,31,0.155357520980138,1
9,605,31,0.220843348573363,1
9,606,31,0.200852331615696,1
9,607,31,0.188433099356624,1
9,608,31,0.196302006188992,1
10,603,31,0.160186017774592,1
10,604,31,0.220947416052457,1
10,605,31,0.291889692309161,2
10,606,31,0.26389701277034,1
10,607,31,0.252241388187447,1
10,608,31,0.26551424147278,1
10,609,31,0.197859203683235,1
11,602,31,0.179730001889053,1
11,603,31,0.187958114412389,1
11,604,31,0.27918206039956,2
11,605,31,0.322969350130828,2
11,606,31,0.279428431511909,2
11,607,31,0.244789152817996,2
11,608,31,0.234002229564873,1
11,609,31,0.182034957125091,1
12,599,31,0.150849770641076,1
12,600,31,0.164674583112148,1
12,602,31,0.15167790461592,1
12,603,31,0.206351600756371,2
12,604,31,0.318998835604258,2
12,605,31,0.34483378248545,2
12,606,31,0.274095848802914,2
12,607,31,0.207928250949814,1
12,608,31,0.180605172579796,1
13,598,31,0.168219547535571,1
13,599,31,0.208538557079083,1
13,600,31,0.185408327325751,1
13,602,31,0.150774168350262,1
13,603,31,0.201175398117782,1
13,604,31,0.272431773003776,2
13,605,31,0.285846126829279,2
13,606,31,0.233216826834659,1
13,607,31,0.171608756516543,1
14,598,31,0.171527510265984,1
14,599,31,0.214152958536929,1
14,600,31,0.20591750663511,1
14,601,31,0.174381435396827,1
14,602,31,0.167203790938451,1
14,603,31,0.182857290983201,1
14,604,31,0.193161332210074,1
14,605,31,0.185776088188901,1
14,606,31,0.169943275304504,1
15,599,31,0.184341596625795,1
15,600,31,0.228045175056892,1
15,601,31,0.209468092710137,1
15,602,31,0.170449168178489,1
15,603,31,0.153193118188265,1
15,604,31,0.145075910589327,1
15,605,31,0.130648120213398,1
16,599,31,0.1738003306245,1
16,600,31,0.218090434706257,1
16,601,31,0.19394227331203,1
16,604,31,0.139911241259782,1
17,600,31,0.18506087802524,1
17,603,31,0.141096149338193,1
17,604,31,0.173993017194848,1
17,605,31,0.158299540960915,1
18,604,31,0.163830208810449,1
8,605,32,0.1692325267691,1
8,606,32,0.165221021032919,1
8,607,32,0.137125869047106,1
9,604,32,0.174568901862114,1
9,605,32,0.262286878056829,2
9,606,32,0.217138412468788,1
9,607,32,0.180201450992895,1
9,608,32,0.195678159017964,1
9,609,32,0.166483282591235,1
10,603,32,0.155417217566216,1
10,604,32,0.241615663563247,2
10,605,32,0.33084994642923,2
10,606,32,0.274398057192899,2
10,607,32,0.263279835733556,2
10,608,32,0.299108160666089,1
10,609,32,0.240697750473803,1
10,610,32,0.13791562186487,1
11,599,32,0.156092585389542,1
11,600,32,0.193497471282953,1
11,602,32,0.158270640763881,1
11,603,32,0.181506164944077,2
11,604,32,0.296967939899369,2
11,605,32,0.3638215800214,2
11,606,32,0.314598688584683,2
11,607,32,0.308284793048712,2
11,608,32,0.292440770323319,2
11,609,32,0.214489030685384,1
11,610,32,0.129124184157811,1
12,599,32,0.186490026788508,1
12,600,32,0.195449790575631,1
12,601,32,0.171689601220559,1
12,602,32,0.154257796539222,1
12,603,32,0.222517061489536,2
12,604,32,0.371341252901955,2
12,605,32,0.418984326389166,2
12,606,32,0.334316497736036,2
12,607,32,0.282866629171143,2
12,608,32,0.22595093136936,1
12,609,32,0.175037172055823,1
13,598,32,0.194274932314869,1
13,599,32,0.255069324333694,1
13,600,32,0.216847335841304,1
13,601,32,0.164747675737068,1
13,602,32,0.186192335797134,1
13,603,32,0.262211855777688,2
13,604,32,0.343765110977203,2
13,605,32,0.336228394676706,2
13,606,32,0.250446876686217,2
13,607,32,0.195709457340186,1
13,608,32,0.166665830111368,1
14,598,32,0.189423446980821,1
14,599,32,0.244895584960065,1
14,600,32,0.216327444608662,1
14,601,32,0.184329550229502,1
14,602,32,0.219932351007717,1
14,603,32,0.256287438080408,2
14,604,32,0.240620854310794,2
14,605,32,0.194832301224869,2
14,606,32,0.152858496068993,1
14,607,32,0.143235723168816,1
15,599,32,0.179575083001901,1
15,600,32,0.207979559674769,1
15,601,32,0.196778061924009,1
15,602,32,0.19051906672374,1
15,603,32,0.181827647568132,1
15,604,32,0.153556584734218,1
15,605,32,0.123896817797185,1
16,599,32,0.16328519861072,1
16,600,32,0.202398508888144,1
16,601,32,0.180689408121288,1
16,602,32,0.149586627911179,1
16,603,32,0.135438436624043,1
16,604,32,0.131124187102486,1
17,600,32,0.181844947531698,1
17,603,32,0.142384477959601,1
17,604,32,0.171286214255777,1
17,605,32,0.160448651521937,1
18,604,32,0.196172797434671,1
8,605,33,0.186808107421017,1
8,606,33,0.19425237878403,1
8,607,33,0.148123358845816,1
9,604,33,0.171102651715215,1
9,605,33,0.260070831917882,2
9,606,33,0.219061061933557,1
9,607,33,0.170202395519597,1
9,608,33,0.179567330922805,1
9,609,33,0.176560438867171,1
10,599,33,0.156357884959771,1
10,600,33,0.153834599944979,1
10,603,33,0.138477619714186,1
10,604,33,0.229145367968775,2
10,605,33,0.316440247955883,2
10,606,33,0.259423561198504,2
10,607,33,0.248939582504028,2
10,608,33,0.284675373266512,2
10,609,33,0.247384749672762,1
10,610,33,0.146969068691318,1
11,598,33,0.142783492528691,1
11,599,33,0.2024828336622,1
11,600,33,0.210216954704925,1
11,601,33,0.172255402607964,1
11,603,33,0.163895995519098,1
11,604,33,0.282781122065598,2
11,605,33,0.360668703489199,2
11,606,33,0.3255261531279,2
11,607,33,0.348517682012794,2
11,608,33,0.322755303515201,2
11,609,33,0.223130713839998,2
11,610,33,0.13175907680345,1
12,598,33,0.166730077558269,1
12,599,33,0.232012611059966,1
12,600,33,0.225117097664418,1
12,601,33,0.172193319050769,1
12,602,33,0.151175525274187,1
12,603,33,0.219143022044638,2
12,604,33,0.367950415426669,2
12,605,33,0.425510662354592,2
12,606,33,0.366351769405919,2
12,607,33,0.3544157984115,2
12,608,33,0.271125653639694,2
12,609,33,0.174515150395688,1
13,597,33,0.140000395746426,1
13,598,33,0.205332408705493,1
13,599,33,0.269289135908425,1
13,600,33,0.229293092480363,1
13,601,33,0.17558685581115,1
13,602,33,0.21400713021735,2
13,603,33,0.305118397782892,2
13,604,33,0.367870953827412,2
13,605,33,0.337860324444253,2
13,606,33,0.257644286157772,2
13,607,33,0.230589083948302,2
13,608,33,0.193583179161769,1
13,609,33,0.163988719308348,1
14,597,33,0.143315329770991,1
14,598,33,0.192409101685951,1
14,599,33,0.243710866500855,1
14,600,33,0.212690012939614,1
14,601,33,0.191770508833533,1
14,602,33,0.272250229350001,2
14,603,33,0.332999848929267,2
14,604,33,0.274954466852824,2
14,605,33,0.192668166130691,2
14,606,33,0.143425821994774,1
14,607,33,0.144036808522352,1
14,608,33,0.167711892318424,1
15,598,33,0.14451565277503,1
15,599,33,0.177036505756259,1
15,600,33,0.189988356042575,1
15,601,33,0.179893966727496,1
15,602,33,0.208162263351891,1
15,603,33,0.219007834708452,2
15,604,33,0.166253698355203,1
15,605,33,0.119352493260487,1
16,600,33,0.184711119832107,1
16,601,33,0.16341697280129,1
16,602,33,0.151502774552764,1
16,603,33,0.147860468554846,1
17,604,33,0.161084991252085,1
7,606,34,0.159729626666117,1
8,605,34,0.17400816442278,1
8,606,34,0.202402948208259,1
8,607,34,0.152179558943062,1
9,604,34,0.149065755120321,1
9,605,34,0.216499551918674,1
9,606,34,0.20409780924237,1
9,607,34,0.160983623058087,1
9,608,34,0.154134588674906,1
9,609,34,0.166768179863583,1
10,599,34,0.179358638261086,1
10,600,34,0.153685525790844,1
10,603,34,0.123063396792857,1
10,604,34,0.199368750987693,1
10,605,34,0.267899717944785,2
10,606,34,0.22899474339882,2
10,607,34,0.216530827932755,2
10,608,34,0.236923168352136,1
10,609,34,0.21622444792035,1
10,610,34,0.144095077387388,1
11,598,34,0.17669030571166,1
11,599,34,0.26473098032413,1
11,600,34,0.226320354189036,1
11,601,34,0.146321563736457,1
11,603,34,0.147564629139198,1
11,604,34,0.256440985016871,2
11,605,34,0.334671866426702,2
11,606,34,0.306922970255841,2
11,607,34,0.332261092522481,2
11,608,34,0.30291979661043,2
11,609,34,0.206295718862453,1
11,610,34,0.124560295381206,1
12,597,34,0.121904332696124,1
12,598,34,0.202882484013317,1
12,599,34,0.298408041960008,1
12,600,34,0.252570455579538,1
12,601,34,0.161462523081118,1
12,602,34,0.137728389635066,1
12,603,34,0.203444582249269,2
12,604,34,0.326814492903379,2
12,605,34,0.384724330713376,2
12,606,34,0.355956911735876,2
12,607,34,0.375714206297303,2
12,608,34,0.284226979626688,2
12,609,34,0.164685848723497,1
13,597,34,0.140343059950631,1
13,598,34,0.206460576026547,1
13,599,34,0.263791227564368,1
13,600,34,0.221907603069636,1
13,601,34,0.169547774267666,1
13,602,34,0.207847607019069,1
13,603,34,0.30450907321184,2
13,604,34,0.336868459866449,2
13,605,34,0.29793649246953,2
13,606,34,0.247470234470165,2
13,607,34,0.258458421773959,2
13,608,34,0.216161672810775,1
13,609,34,0.15163883190646,1
14,597,34,0.146124973241385,1
14,598,34,0.183117359294299,1
14,599,34,0.212993872132054,1
14,600,34,0.192766344260486,1
14,601,34,0.183295835578648,1
14,602,34,0.275285341204359,2
14,603,34,0.359831501254922,2
14,604,34,0.273232702200323,2
14,605,34,0.173371980849621,2
14,606,34,0.132921955592343,1
14,607,34,0.151557518731477,1
14,608,34,0.178580385290154,1
15,598,34,0.152076484176255,1
15,599,34,0.171258128305899,1
15,600,34,0.175726917476207,1
15,601,34,0.163654944898445,1
15,602,34,0.203961484190979,1
15,603,34,0.237068528200748,2
15,604,34,0.1674791514804,1
15,605,34,0.110226054195755,1
16,602,34,0.145954516733828,1
16,603,34,0.151226543993305,1
8,606,35,0.191775706630453,1
9,599,35,0.142728915661038,1
9,605,35,0.171454930728314,1
9,606,35,0.189336378305386,1
9,607,35,0.16253648161885,1
9,608,35,0.134285395725457,1
10,598,35,0.148020964477319,1
10,599,35,0.195055382637716,1
10,600,35,0.158550128311967,1
10,604,35,0.176380902946111,1
10,605,35,0.22313388159606,1
10,606,35,0.208987463806156,1
10,607,35,0.191857131346142,1
10,608,35,0.188103786574978,1
10,609,35,0.173298107439756,1
11,597,35,0.118487974707208,1
11,598,35,0.200846933045505,1
11,599,35,0.296006927480962,1
11,600,35,0.219967062475556,1
11,601,35,0.126890146502918,1
11,603,35,0.147035848112254,1
11,604,35,0.232280911075198,1
11,605,35,0.299251958944811,2
11,606,35,0.277640054749533,2
11,607,35,0.278274966758639,2
11,608,35,0.253630895383651,1
11,609,35,0.181887623005976,1
12,597,35,0.126415841956992,1
12,598,35,0.227073767044647,1
12,599,35,0.334064839594202,1
12,600,35,0.251397515818926,1
12,601,35,0.14973337086455,1
12,602,35,0.135729803257363,1
12,603,35,0.194892488590055,1
12,604,35,0.275983742183562,2
12,605,35,0.31983284777433,2
12,606,35,0.312369212944683,2
12,607,35,0.335448189743413,2
12,608,35,0.26308943574769,2
12,609,35,0.155819132193673,1
13,597,35,0.139531143994501,1
13,598,35,0.20124325948357,1
13,599,35,0.246816516697956,1
13,600,35,0.205225329627326,1
13,601,35,0.165206186118964,1
13,602,35,0.195556936578222,1
13,603,35,0.276111657065689,1
13,604,35,0.281078051635495,2
13,605,35,0.241136730078004,2
13,606,35,0.224789881848053,2
13,607,35,0.26143158391997,2
13,608,35,0.221881814858311,1
13,609,35,0.143873434849653,1
14,597,35,0.15573226429151,1
14,598,35,0.184559669860925,1
14,599,35,0.186819930735898,1
14,600,35,0.179116260306027,1
14,601,35,0.181032105787704,1
14,602,35,0.250907539803747,1
14,603,35,0.331509531242596,2
14,604,35,0.250821474994671,1
14,605,35,0.156919615111392,1
14,606,35,0.130417967119763,1
14,607,35,0.160512330111235,1
14,608,35,0.178703180453856,1
15,598,35,0.181500855606451,1
15,599,35,0.175109539666151,1
15,600,35,0.170840319127777,1
15,601,35,0.162208585404176,1
15,602,35,0.197277251201539,1
15,603,35,0.238762251519653,1
15,604,35,0.171817884187017,1
16,602,35,0.145898790996898,1
16,603,35,0.157769923378673,1
9,599,36,0.147689287032697,1
9,605,36,0.137240209425261,1
9,606,36,0.167217075436586,1
10,598,36,0.144810220626625,1
10,599,36,0.189892587192039,1
10,600,36,0.15958140022135,1
10,604,36,0.153887414469471,1
10,605,36,0.18468217501879,1
10,606,36,0.188025083452526,1
10,607,36,0.169133679395067,1
10,608,36,0.148257274617949,1
11,597,36,0.118248686429717,1
11,598,36,0.201743720325153,1
11,599,36,0.281095095055436,1
11,600,36,0.197002727214888,1
11,601,36,0.112828633498744,1
11,603,36,0.147599664075085,1
11,604,36,0.201410414386217,1
11,605,36,0.253653828152892,1
11,606,36,0.241337614890274,1
11,607,36,0.220150100774797,1
11,608,36,0.197804370271957,1
11,609,36,0.155151549911655,1
12,597,36,0.125224286052477,1
12,598,36,0.226532839234774,1
12,599,36,0.319578869585803,1
12,600,36,0.22695696161688,1
12,601,36,0.13996035263282,1
12,602,36,0.136087927003479,1
12,603,36,0.18670345993025,1
12,604,36,0.225436639480181,1
12,605,36,0.25231507197811,2
12,606,36,0.252061406103561,2
12,607,36,0.265319736788918,2
12,608,36,0.218877019767958,1
12,609,36,0.142756399291101,1
13,597,36,0.135800397370459,1
13,598,36,0.194537186823812,1
13,599,36,0.228350238888962,1
13,600,36,0.191120070358093,1
13,601,36,0.167977437278207,1
13,602,36,0.186822116933744,1
13,603,36,0.238487259062035,1
13,604,36,0.225124994746433,1
13,605,36,0.189872777562579,1
13,606,36,0.191637507695193,1
13,607,36,0.235321265342759,1
13,608,36,0.202438975856434,1
13,609,36,0.133573933329532,1
14,597,36,0.163548713529647,1
14,598,36,0.200895386328375,1
14,599,36,0.179992546403834,1
14,600,36,0.174624973375233,1
14,601,36,0.186971235704162,1
14,602,36,0.222699296695691,1
14,603,36,0.269912804614323,1
14,604,36,0.21057143106994,1
14,605,36,0.137108178691067,1
14,606,36,0.121704384825788,1
14,607,36,0.153923654044988,1
14,608,36,0.159312553656657,1
15,597,36,0.175210919014219,1
15,598,36,0.218802979047034,1
15,599,36,0.184393429592071,1
15,600,36,0.166648797845498,1
15,601,36,0.166628977061966,1
15,602,36,0.189777499491151,1
15,603,36,0.219249654959979,1
15,604,36,0.165958807035559,1
16,598,36,0.171377889562387,1
16,599,36,0.155884840823827,1
16,602,36,0.144263559624442,1
16,603,36,0.155362863779975,1
10,598,37,0.135776148420883,1
10,599,37,0.171978346647278,1
10,605,37,0.15190622844197,1
10,606,37,0.165642544516565,1
11,597,37,0.118593101823012,1
11,598,37,0.187492811201471,1
11,599,37,0.233038294779957,1
11,600,37,0.16739235050266,1
11,604,37,0.166590205512413,1
11,605,37,0.198249863853414,1
11,606,37,0.197518892987935,1
11,607,37,0.16969751766604,1
11,608,37,0.148934382476295,1
12,597,37,0.129235947945648,1
12,598,37,0.208379009252614,1
12,599,37,0.261041191447487,1
12,600,37,0.18895774222336,1
12,601,37,0.133815229339739,1
12,602,37,0.137905583201291,1
12,603,37,0.174361982697627,1
12,604,37,0.181196092934289,1
12,605,37,0.189522026657158,1
12,606,37,0.189755548280127,1
12,607,37,0.190256098354275,1
12,608,37,0.168273812089246,1
13,597,37,0.138165595742036,1
13,598,37,0.192542571295258,1
13,599,37,0.209682340099036,1
13,600,37,0.184074188936215,1
13,601,37,0.17962906870381,1
13,602,37,0.186418908434093,1
13,603,37,0.202292567525182,1
13,604,37,0.177495239219568,1
13,605,37,0.149759482543924,1
13,606,37,0.153370255984137,1
13,607,37,0.183418530355714,1
13,608,37,0.1647458018532,1
14,597,37,0.167283196767354,1
14,598,37,0.219982812023303,1
14,599,37,0.189042803166078,1
14,600,37,0.181367988316959,1
14,601,37,0.203317559692794,1
14,602,37,0.207231188459088,1
14,603,37,0.207568844485575,1
14,604,37,0.167023418462093,1
15,597,37,0.179483976552894,1
15,598,37,0.239301595451495,1
15,599,37,0.191794378544708,1
15,600,37,0.164659212802803,1
15,601,37,0.175041745224786,1
15,602,37,0.185804486452757,1
15,603,37,0.189434400278191,1
15,604,37,0.149342755310654,1
16,597,37,0.146927921324718,1
16,598,37,0.173381216420113,1
16,599,37,0.154059800631249,1
16,601,37,0.136851411984879,1
16,602,37,0.148152783284171,1
16,603,37,0.153683339592998,1
17,598,37,0.137743626095564,1
11,598,38,0.155812740911195,1
11,599,38,0.176032639398444,1
11,605,38,0.149822558813407,1
11,606,38,0.154068433881926,1
12,598,38,0.172954182825569,1
12,599,38,0.192918798098026,1
12,600,38,0.151743791711205,1
12,601,38,0.126864090593897,1
12,602,38,0.135075739708964,1
12,604,38,0.150346008194583,1
12,605,38,0.147519310150178,1
12,606,38,0.145738808161674,1
12,607,38,0.140030032112123,1
13,597,38,0.137172905763005,1
13,598,38,0.181744159349373,1
13,599,38,0.189320338751802,1
13,600,38,0.174576921638906,1
13,601,38,0.185942216917049,1
13,602,38,0.186636502044184,1
13,603,38,0.178152147055981,1
13,604,38,0.147743551586372,1
14,597,38,0.16068345586303,1
14,598,38,0.220977888973452,1
14,599,38,0.198952614920167,1
14,600,38,0.184104215694384,1
14,601,38,0.210497434965299,1
14,602,38,0.200439519461221,1
14,603,38,0.170326975334602,1
15,597,38,0.16608539458328,1
15,598,38,0.225421893798792,1
15,599,38,0.188627737889334,1
15,600,38,0.160162170371558,1
15,601,38,0.178454734684368,1
15,602,38,0.187445138703545,1
15,603,38,0.169070893131421,1
16,598,38,0.161580421607808,1
16,599,38,0.147452218415264,1
16,601,38,0.139011275070001,1
16,602,38,0.15668620502913,1
12,599,39,0.136693113414323,1
13,598,39,0.157733973808993,1
13,599,39,0.163089533903512,1
13,600,39,0.160040947931817,1
13,601,39,0.177578035885947,1
13,602,39,0.174175609331263,1
14,597,39,0.148601210386207,1
14,598,39,0.192853859098746,1
14,599,39,0.19132664374639,1
14,600,39,0.176315997409043,1
14,601,39,0.198816156019928,1
14,602,39,0.190547531912019,1
14,603,39,0.148754545395327,1
15,597,39,0.144239310674865,1
15,598,39,0.183144842924362,1
15,599,39,0.169833184627264,1
15,600,39,0.152277391296666,1
15,601,39,0.178203678862349,1
15,602,39,0.195051434096709,1
15,603,39,0.15797702100829,1
16,598,39,0.14431753417228,1
16,599,39,0.140047622081526,1
16,601,39,0.155338559060046,1
16,602,39,0.180482633959719,1
16,603,39,0.156428233683312,1
17,602,39,0.152791906267258,1
13,601,40,0.152955123782968,1
13,602,40,0.149039197278121,1
14,598,40,0.155409420870837,1
14,599,40,0.170696186226936,1
14,600,40,0.160700666594031,1
14,601,40,0.173458056812768,1
14,602,40,0.173671980733618,1
14,603,40,0.133452554732802,1
15,598,40,0.142426406111146,1
15,599,40,0.146839213000899,1
15,600,40,0.145927434650308,1
15,601,40,0.183973233442831,1
15,602,40,0.209495554032058,1
15,603,40,0.153580309442474,1
16,600,40,0.142353737340911,1
16,601,40,0.190045286419134,1
16,602,40,0.219618564692405,1
16,603,40,0.159672707443629,1
17,601,40,0.161112709117632,1
17,602,40,0.177956895049386,1
17,603,40,0.139102682678915,1
14,601,41,0.141496413163195,1
14,602,41,0.150700384172963,1
15,600,41,0.143133730346862,1
15,601,41,0.194566388180754,1
15,602,41,0.22276526186947,1
15,603,41,0.152446252772121,1
16,600,41,0.150222554940713,1
16,601,41,0.229403317006451,1
16,602,41,0.255665018630421,1
16,603,41,0.161650379938877,1
17,600,41,0.132408857188723,1
17,601,41,0.176716495469529,1
17,602,41,0.191100996897294,1
17,603,41,0.139748536831321,1
18,601,41,0.12714490547639,1
14,601,42,0.113156273169793,1
14,602,42,0.122392412519293,1
15,600,42,0.136378055534958,1
15,601,42,0.191601546971442,1
15,602,42,0.209602967732344,1
15,603,42,0.137484338569411,1
16,600,42,0.150086921441702,1
16,601,42,0.238184202962682,1
16,602,42,0.252374813180471,1
16,603,42,0.150373101432174,1
17,600,42,0.128378668384215,1
17,601,42,0.173187559445619,1
17,602,42,0.180827930524596,1
17,603,42,0.133436704798419,1
18,601,42,0.125495642283065,1
15,601,43,0.173051691711125,1
15,602,43,0.177001827750632,1
16,600,43,0.140662936388514,1
16,601,43,0.210572903407265,1
16,602,43,0.212239812340346,1
16,603,43,0.134340954151326,1
17,601,43,0.153989173055941,1
17,602,43,0.157193949478842,1
16,601,44,0.157553199786092,1
16,602,44,0.151462497203674,1
