x,y,z,signal,mito.p
651,834,1,0.112210642214802,1
651,835,1,0.105530380074511,1
652,833,1,0.112248499130563,1
652,834,1,0.113222952204093,1
652,835,1,0.10966268439575,1
652,836,1,0.107989127636566,1
653,833,1,0.110361776927332,1
653,834,1,0.106710536518829,1
653,835,1,0.10605594872911,1
653,836,1,0.108686903987812,1
653,837,1,0.10553158471414,1
654,834,1,0.110042714736606,1
654,835,1,0.110083114780473,1
654,836,1,0.111976875202279,1
654,837,1,0.107804170837174,1
655,835,1,0.120280545400146,1
655,836,1,0.135719006116982,1
655,837,1,0.132340237346131,1
656,835,1,0.121099956891748,1
656,836,1,0.152001238815702,1
656,837,1,0.153085403328071,1
656,838,1,0.122351923242861,1
657,836,1,0.109111639843804,1
657,837,1,0.110650366197062,1
692,847,1,0.200250011801007,1
692,848,1,0.254656846801338,1
692,849,1,0.214676129066339,1
693,846,1,0.208039055487575,1
693,847,1,0.28043430560244,2
693,848,1,0.300826378324125,1
693,849,1,0.223891019911265,1
693,850,1,0.173923560796957,1
693,851,1,0.169757258868401,1
694,845,1,0.210501584279578,1
694,846,1,0.295007076588578,2
694,847,1,0.377306070643102,2
694,848,1,0.329917287658396,2
694,849,1,0.2227168085866,1
694,850,1,0.178169502789901,1
694,851,1,0.178068413447669,1
694,852,1,0.159205095340088,1
695,845,1,0.234450467047708,1
695,846,1,0.333355998404879,2
695,847,1,0.404968478150202,2
695,848,1,0.335133288021037,2
695,849,1,0.241086179829853,1
695,850,1,0.210752662409738,1
695,851,1,0.199958176696719,1
695,852,1,0.175667131657564,1
696,846,1,0.240522274634457,1
696,847,1,0.275329489015962,2
696,848,1,0.253364067705744,1
696,849,1,0.235990732662715,1
696,850,1,0.236963211465742,1
696,851,1,0.208382444706372,1
697,847,1,0.139762981352803,1
697,848,1,0.150381333136308,1
651,834,2,0.10551178623875,1
651,835,2,0.102975830199709,1
652,833,2,0.10628254367421,1
652,834,2,0.109545388188874,1
652,835,2,0.106427312357077,1
652,836,2,0.104035321907817,1
653,833,2,0.105459406723013,1
653,834,2,0.103910574781753,1
653,835,2,0.103084560080331,1
654,833,2,0.109176891157062,1
654,836,2,0.103376863655585,1
654,837,2,0.102944152639084,1
655,835,2,0.103090137115652,1
655,836,2,0.117257022625185,1
655,837,2,0.11877815900904,1
655,838,2,0.10880459058716,1
656,835,2,0.108457743606464,1
656,836,2,0.13350618350445,1
656,837,2,0.137084242055469,1
656,838,2,0.119610609609223,1
689,852,2,0.202524304496848,1
689,853,2,0.230844668323002,1
689,854,2,0.199953759684745,1
690,852,2,0.215948139282397,1
690,853,2,0.242819812413517,3
690,854,2,0.218442680257143,1
691,848,2,0.194188019796423,1
691,849,2,0.197030835472907,1
691,852,2,0.211956186632052,1
691,853,2,0.220103342910665,1
691,854,2,0.201930216386293,1
692,847,2,0.185450813180828,1
692,848,2,0.229346609711305,1
692,849,2,0.211387128256018,1
692,850,2,0.22053977938676,1
692,851,2,0.227351414171077,1
692,852,2,0.201573486899009,1
692,853,2,0.194405501865808,1
693,846,2,0.183942381283434,1
693,847,2,0.253195105843653,2
693,848,2,0.262303988401194,2
693,849,2,0.219866698147916,1
693,850,2,0.231334064326507,1
693,851,2,0.240221739355068,1
693,852,2,0.200156384532035,1
694,845,2,0.191007905023713,1
694,846,2,0.284962211347152,2
694,847,2,0.390492591421663,2
694,848,2,0.312566216140369,2
694,849,2,0.231072925224627,2
694,850,2,0.242129821603579,1
694,851,2,0.254287758603782,3
694,852,2,0.221562094577417,1
694,853,2,0.20941310314187,1
695,844,2,0.180506001737715,1
695,845,2,0.23490577621133,2
695,846,2,0.349637684554137,2
695,847,2,0.454134238437088,2
695,848,2,0.33421550878044,2
695,849,2,0.24290755033319,2
695,850,2,0.261082639973994,3
695,851,2,0.284629507728031,3
695,852,2,0.263768094021855,3
695,853,2,0.235389729028362,1
696,845,2,0.201264809148051,1
696,846,2,0.237650659147574,2
696,847,2,0.280057922642683,2
696,848,2,0.23420985143581,2
696,849,2,0.229941835537065,1
696,850,2,0.277742069879628,1
696,851,2,0.29566621523912,3
696,852,2,0.264205311282896,3
697,846,2,0.122428406705256,1
697,847,2,0.124142553127508,1
697,848,2,0.131182299810533,1
697,849,2,0.170004098451717,1
697,850,2,0.214891380321596,1
697,851,2,0.219403179588301,1
651,835,3,0.103492252516381,1
651,836,3,0.105547680038077,1
651,837,3,0.103456905266515,1
652,834,3,0.103916787599101,1
652,835,3,0.104034318041459,1
652,836,3,0.104587314555768,1
652,837,3,0.108035651265215,1
652,838,3,0.112392342025567,1
653,837,3,0.108795968490554,1
654,836,3,0.105522248757013,1
654,837,3,0.112429418156382,1
654,838,3,0.110834575673721,1
655,836,3,0.114801141659285,1
655,837,3,0.120744577047011,1
655,838,3,0.112409630835062,1
656,835,3,0.107202721039995,1
656,836,3,0.122681057559377,1
656,837,3,0.124116051055661,1
656,838,3,0.113162530603424,1
657,836,3,0.105585782343392,1
664,855,3,0.124700212043345,1
665,855,3,0.114236712222568,1
667,856,3,0.110156898957773,1
668,856,3,0.115354918958538,1
669,856,3,0.113328179706534,1
670,856,3,0.112799710993568,1
671,856,3,0.135302814279102,1
672,855,3,0.120197982969251,1
672,856,3,0.17148195704148,1
673,856,3,0.165370262498114,1
674,856,3,0.150208991590812,1
678,856,3,0.119592696171771,1
685,852,3,0.129377571180594,1
685,853,3,0.124287109883033,1
686,851,3,0.139482344935441,1
686,852,3,0.177910862199845,1
687,851,3,0.159652384726918,1
687,852,3,0.224238402287352,1
687,853,3,0.231286302596016,1
688,852,3,0.245492907751106,1
688,853,3,0.270065793847254,3
688,854,3,0.219241289406997,1
689,851,3,0.184916856665106,1
689,852,3,0.264719469323227,1
689,853,3,0.307610306396967,3
689,854,3,0.261236521532576,1
689,855,3,0.219342769141701,1
690,851,3,0.213580531631561,1
690,852,3,0.27844932719092,3
690,853,3,0.323898104976937,3
690,854,3,0.287676844443814,3
690,855,3,0.248949264237346,1
691,850,3,0.214679720677086,1
691,851,3,0.240649007185095,1
691,852,3,0.263421269349301,1
691,853,3,0.284609631174146,3
691,854,3,0.265278243646128,1
691,855,3,0.231621237029266,1
692,847,3,0.176281018243509,1
692,848,3,0.187712390236137,1
692,849,3,0.187051913097119,1
692,850,3,0.230770337596241,1
692,851,3,0.258100599187752,1
692,852,3,0.244762873827562,1
692,853,3,0.247587954531725,1
692,854,3,0.250531580698675,1
693,846,3,0.176551404069951,1
693,847,3,0.229856573821075,2
693,848,3,0.214299054554203,2
693,849,3,0.198996115795672,1
693,850,3,0.248001748244416,1
693,851,3,0.268452714459093,3
693,852,3,0.234753656995909,1
693,853,3,0.234427958133151,1
694,845,3,0.188751101910639,1
694,846,3,0.287437768093665,2
694,847,3,0.389399180184731,2
694,848,3,0.295672238437267,2
694,849,3,0.237257991244679,2
694,850,3,0.282761111662866,3
694,851,3,0.302605341050879,3
694,852,3,0.264552069031026,3
694,853,3,0.249593367200661,3
694,854,3,0.274526083615732,3
694,855,3,0.259471077539441,1
695,844,3,0.188949510519226,1
695,845,3,0.232965168692826,2
695,846,3,0.34737075354492,2
695,847,3,0.460016538363623,2
695,848,3,0.321999325223342,2
695,849,3,0.243551162517397,2
695,850,3,0.298238678551374,3
695,851,3,0.356385763443934,3
695,852,3,0.335781718763761,3
695,853,3,0.280080320016533,3
695,854,3,0.265602514787844,1
696,845,3,0.204470310585543,1
696,846,3,0.226060821273329,2
696,847,3,0.268888548615374,2
696,848,3,0.214077289321691,2
696,849,3,0.21492113938207,1
696,850,3,0.293323168851838,3
696,851,3,0.373748747509408,3
696,852,3,0.35609015826377,3
696,853,3,0.263514115833328,3
697,846,3,0.115616180755195,1
697,847,3,0.11611095302075,1
697,848,3,0.122112043799626,1
697,849,3,0.164822541859219,1
697,850,3,0.229037218099826,1
697,851,3,0.276325547524327,3
697,852,3,0.254649797428692,3
698,850,3,0.137348448526775,1
698,851,3,0.146512287190371,1
650,835,4,0.10695174329647,1
650,836,4,0.111200998048395,1
651,835,4,0.110348648586186,1
651,836,4,0.11340747399473,1
651,837,4,0.107534755414877,1
651,838,4,0.10382283686208,1
652,834,4,0.110589955750463,1
652,835,4,0.112840590662472,1
652,836,4,0.111679619219659,1
652,837,4,0.111450882692996,1
652,838,4,0.114827231030517,1
653,834,4,0.10933191043085,1
653,835,4,0.110775615256306,1
653,836,4,0.111800618577988,1
653,837,4,0.117349367176033,1
653,838,4,0.120875258138657,1
654,835,4,0.103780696783193,1
654,836,4,0.116136005063413,1
654,837,4,0.125698412133273,1
654,838,4,0.120530753512796,1
655,836,4,0.117637398742231,1
655,837,4,0.127225672101911,1
655,838,4,0.117564294963241,1
655,840,4,0.10580175861324,1
656,835,4,0.10809945254929,1
656,836,4,0.121343717951567,1
656,837,4,0.120837423531038,1
656,838,4,0.110474176497195,1
656,839,4,0.105650130176928,1
657,835,4,0.105898944030747,1
657,836,4,0.120446395276528,1
657,837,4,0.105859625931733,1
657,852,4,0.111544476499756,1
658,836,4,0.11582272068128,1
658,852,4,0.104655979014642,1
663,854,4,0.106714016588869,1
663,855,4,0.143993118027646,1
663,856,4,0.109206181746569,1
664,854,4,0.107057260804747,1
664,855,4,0.170447238524268,1
664,856,4,0.149147659461048,1
665,855,4,0.138507468007225,1
665,856,4,0.151738080827036,1
666,855,4,0.103389188903645,1
666,856,4,0.137106829048519,1
667,856,4,0.131664233740778,1
667,857,4,0.131178864356775,1
668,856,4,0.130774138903516,1
668,857,4,0.158800459119394,1
669,856,4,0.12343016494372,1
669,857,4,0.177075578465719,1
670,856,4,0.121582972766846,1
670,857,4,0.19008845267252,1
671,856,4,0.145942793805582,1
672,855,4,0.116121839393697,1
672,856,4,0.17893748286177,1
673,855,4,0.114027249929975,1
673,856,4,0.157051601229304,1
673,857,4,0.161811355486388,1
674,856,4,0.135085354517858,1
678,856,4,0.119823328890444,1
679,855,4,0.108501311406394,1
679,856,4,0.149687393785362,1
680,856,4,0.132590144298873,1
681,856,4,0.10539285038349,1
682,854,4,0.110863074324213,1
683,853,4,0.103803886096058,1
683,854,4,0.120022562900258,1
683,855,4,0.104525576774762,1
684,854,4,0.111541989142003,1
685,851,4,0.107665681896078,1
685,852,4,0.134413310607584,1
685,853,4,0.13196396592708,1
685,854,4,0.121557084168885,1
686,851,4,0.145374850836613,1
686,852,4,0.209372792330568,1
686,853,4,0.212723720541096,1
687,851,4,0.179113795256415,1
687,852,4,0.279404695649582,3
687,853,4,0.293157285513245,3
687,854,4,0.215766551012339,1
688,850,4,0.116066492895169,1
688,851,4,0.192589329159391,1
688,852,4,0.285294044948763,3
688,853,4,0.305846357049297,3
688,854,4,0.235967755277192,3
689,851,4,0.199080016715044,1
689,852,4,0.273244525515204,3
689,853,4,0.307792095440296,3
689,854,4,0.259494969558757,3
689,855,4,0.239362429752778,1
689,856,4,0.243883263816703,3
689,857,4,0.210578725832141,3
690,851,4,0.21343204864317,1
690,852,4,0.274380389145001,3
690,853,4,0.317571672265564,3
690,854,4,0.286599762766302,3
690,855,4,0.268083916267373,3
690,856,4,0.272616975192722,3
690,857,4,0.250749442006462,3
691,847,4,0.132572922413802,1
691,851,4,0.23445120321637,1
691,852,4,0.269672746705958,3
691,853,4,0.292558958855846,3
691,854,4,0.276482418373842,3
691,855,4,0.251021623638278,1
691,856,4,0.241272653582853,3
692,846,4,0.122366958930087,1
692,847,4,0.168208092305021,1
692,848,4,0.165804780474059,1
692,849,4,0.166330616826353,1
692,850,4,0.207259408257814,1
692,851,4,0.249409771197887,1
692,852,4,0.260441035522503,1
692,853,4,0.266525357976512,3
692,854,4,0.266747926302111,3
692,855,4,0.238462073170525,1
693,845,4,0.127536234890807,1
693,846,4,0.174436257654035,1
693,847,4,0.220363455838045,2
693,848,4,0.204322608382097,2
693,849,4,0.188011297021212,1
693,850,4,0.228853778254042,1
693,851,4,0.265694022783394,3
693,852,4,0.25760814696889,3
693,853,4,0.256343788445293,3
693,854,4,0.280706375693549,3
693,855,4,0.267746193316463,1
694,845,4,0.187453392715821,1
694,846,4,0.274705463379803,2
694,847,4,0.37088226289502,2
694,848,4,0.311209144981592,2
694,849,4,0.254325303205564,2
694,850,4,0.294290070619544,3
694,851,4,0.340097340236008,3
694,852,4,0.313897030616853,3
694,853,4,0.278219464103122,3
694,854,4,0.299103632113408,3
694,855,4,0.292252311145745,3
694,856,4,0.194350623838248,1
695,844,4,0.18628447957471,1
695,845,4,0.219906295098696,2
695,846,4,0.308827483201747,2
695,847,4,0.419849525340755,2
695,848,4,0.330950199216163,2
695,849,4,0.264579463428524,2
695,850,4,0.326841887300876,3
695,851,4,0.43149754284747,3
695,852,4,0.418616732837075,3
695,853,4,0.320043726633895,3
695,854,4,0.289006075042267,3
695,855,4,0.262210584213635,1
696,845,4,0.196332032947162,1
696,846,4,0.206547064690308,2
696,847,4,0.246803399510881,2
696,848,4,0.213467161657552,2
696,849,4,0.216261880981426,3
696,850,4,0.307737596651138,3
696,851,4,0.452173575899569,3
696,852,4,0.452310057107949,3
696,853,4,0.311823109646031,3
696,854,4,0.231176680389743,3
697,846,4,0.118449705090834,1
697,847,4,0.118520845753391,1
697,848,4,0.125425349329877,1
697,849,4,0.162500732822441,1
697,850,4,0.23197049328922,3
697,851,4,0.319682513210212,3
697,852,4,0.314067643281399,3
697,853,4,0.216006318914868,3
698,850,4,0.13892044747276,1
698,851,4,0.158467331645589,3
698,852,4,0.150010951066557,3
650,835,5,0.103847900058813,1
650,836,5,0.11113111779582,1
650,837,5,0.103707871855969,1
651,835,5,0.103583938977061,1
651,836,5,0.109178686962435,1
651,837,5,0.108977121751857,1
651,838,5,0.110957683151402,1
652,834,5,0.104223201073718,1
652,835,5,0.105476249369683,1
652,836,5,0.107483435535852,1
652,837,5,0.110932854190152,1
652,838,5,0.11646673441203,1
653,833,5,0.104388470938426,1
653,834,5,0.105555632890445,1
653,835,5,0.103723788714775,1
653,836,5,0.107586432224164,1
653,837,5,0.116690094676644,1
653,838,5,0.121867535417074,1
654,833,5,0.106520058454469,1
654,836,5,0.113344408879318,1
654,837,5,0.124486488895766,1
654,838,5,0.122068364458991,1
654,840,5,0.12655472129056,1
655,836,5,0.109554880302991,1
655,837,5,0.1188389263859,1
655,838,5,0.116535175789492,1
655,839,5,0.121698027005522,1
655,840,5,0.115736923569899,1
656,835,5,0.104961455547325,1
656,836,5,0.113197297841616,1
656,837,5,0.109939584199447,1
656,838,5,0.107314362133054,1
656,839,5,0.115424810365183,1
656,840,5,0.104407867867273,1
656,851,5,0.104878580802452,1
656,852,5,0.148166413558496,1
656,853,5,0.12367186250047,1
657,835,5,0.109235661955276,1
657,836,5,0.129058107443325,1
657,837,5,0.105901353310006,1
657,851,5,0.103802859921559,1
657,852,5,0.169880054032103,1
657,853,5,0.153971716935386,1
658,836,5,0.129719097669593,1
658,837,5,0.103425205397749,1
658,852,5,0.130995134505153,1
658,853,5,0.146947240175071,1
659,853,5,0.126262194633893,1
662,855,5,0.109714160431764,1
663,854,5,0.113897070771507,1
663,855,5,0.166900355600695,1
663,856,5,0.139311631884259,1
664,854,5,0.103110158672455,1
664,855,5,0.179507032016912,1
664,856,5,0.183722802248768,1
664,857,5,0.125017065728083,1
665,855,5,0.140636925095776,1
665,856,5,0.191452640128366,1
665,857,5,0.157443811815302,1
666,855,5,0.106898326452164,1
666,856,5,0.170732124642546,1
666,857,5,0.164763938372064,1
667,856,5,0.146740109083242,1
667,857,5,0.163606145839384,1
668,856,5,0.135751531386975,1
668,857,5,0.177909891795699,1
668,858,5,0.117686878199601,1
669,856,5,0.127791205791622,1
669,857,5,0.191418129433799,1
669,858,5,0.153642270304892,1
670,856,5,0.124174297612556,1
672,855,5,0.111500205993377,1
673,856,5,0.139140115739991,1
674,856,5,0.115770196162625,1
678,856,5,0.10562169845086,1
679,855,5,0.103964158937119,1
679,856,5,0.137758048308905,1
679,857,5,0.135723545823733,1
680,855,5,0.106582298168653,1
680,856,5,0.13388817696174,1
681,855,5,0.105104149573053,1
681,856,5,0.113184403735953,1
682,854,5,0.12003961747427,1
682,855,5,0.11708990118475,1
683,854,5,0.136963231543069,1
683,855,5,0.132010199549893,1
684,854,5,0.114836109670749,1
684,855,5,0.112912824423952,1
685,851,5,0.10311928270224,1
685,852,5,0.128799444545129,1
685,853,5,0.134064968981422,1
685,854,5,0.121875298650241,1
685,855,5,0.105891626960406,1
686,851,5,0.147130010776617,1
686,852,5,0.232069920674927,3
686,853,5,0.254427608341496,3
686,854,5,0.184696318380365,1
687,850,5,0.11119033475686,1
687,851,5,0.20346700193126,3
687,852,5,0.326812529786946,3
687,853,5,0.351039929699016,3
687,854,5,0.242144567284968,3
687,855,5,0.184814428834397,1
688,850,5,0.136735967353731,1
688,851,5,0.238436798046449,3
688,852,5,0.323855273345671,3
688,853,5,0.322053221692686,3
688,854,5,0.243074571386989,3
688,855,5,0.230249397880959,1
688,856,5,0.270505621160825,3
688,857,5,0.229454804196536,3
689,850,5,0.152485358943793,1
689,851,5,0.243174467243662,1
689,852,5,0.290812164468824,3
689,853,5,0.285854760079956,3
689,854,5,0.248999390630813,1
689,855,5,0.267536898334929,3
689,856,5,0.333031303408479,3
689,857,5,0.311033802991093,3
689,858,5,0.228438601436591,3
690,849,5,0.122616486644428,1
690,851,5,0.227415416228423,1
690,852,5,0.272405739402897,3
690,853,5,0.293367963599538,3
690,854,5,0.283786349220032,3
690,855,5,0.297560734137729,3
690,856,5,0.36041782613231,3
690,857,5,0.351845565913374,3
690,858,5,0.262581613219483,3
691,847,5,0.111980645278156,1
691,848,5,0.123664958130742,1
691,851,5,0.23050205988915,1
691,852,5,0.27742036417416,3
691,853,5,0.303359177761175,3
691,854,5,0.301485293893253,3
691,855,5,0.284358307654432,3
691,856,5,0.299840358479338,3
691,857,5,0.283475239881674,3
692,846,5,0.119069659491208,1
692,847,5,0.153998464396787,1
692,850,5,0.181365958276102,1
692,851,5,0.22601152028109,1
692,852,5,0.271473772184443,3
692,853,5,0.293638650585888,3
692,854,5,0.293968565687348,3
692,855,5,0.260219404138838,3
692,856,5,0.216827347746713,3
693,845,5,0.119442618151278,1
693,846,5,0.166915837450747,1
693,847,5,0.193331454095512,1
693,848,5,0.184179059508395,1
693,849,5,0.168155478553801,1
693,850,5,0.190274502570835,1
693,851,5,0.239647617030963,3
693,852,5,0.275624714957725,3
693,853,5,0.284276035229374,3
693,854,5,0.296002220463151,3
693,855,5,0.280523962022263,3
694,844,5,0.126622192263876,1
694,845,5,0.180315813679192,1
694,846,5,0.232849099433721,1
694,847,5,0.290180866378606,2
694,848,5,0.283907460119067,2
694,849,5,0.234936896068422,1
694,850,5,0.268416307572516,3
694,851,5,0.354657908668863,3
694,852,5,0.366291002029059,3
694,853,5,0.315913552740149,3
694,854,5,0.309710439433798,3
694,855,5,0.302456411899662,3
694,856,5,0.199292345603793,1
695,845,5,0.207088059424605,1
695,846,5,0.242810420686036,2
695,847,5,0.314796762571151,2
695,848,5,0.306769824865921,2
695,849,5,0.2624579368842,3
695,850,5,0.324009601067079,3
695,851,5,0.474278891563784,3
695,852,5,0.492903601792183,3
695,853,5,0.370715844161036,3
695,854,5,0.297987176566529,3
695,855,5,0.261179301150181,3
696,846,5,0.181111935471292,1
696,847,5,0.202842173202015,2
696,848,5,0.206116383714664,1
696,849,5,0.216414446359673,3
696,850,5,0.295527681681741,3
696,851,5,0.465324537500922,3
696,852,5,0.507368334450079,3
696,853,5,0.367490934640626,3
696,854,5,0.247083612073559,3
697,847,5,0.120721532737063,1
697,849,5,0.162557540504223,1
697,850,5,0.209044394182715,3
697,851,5,0.300012309632361,3
697,852,5,0.328113495970391,3
697,853,5,0.247378592625767,3
698,850,5,0.13089957758196,1
698,851,5,0.149437877225092,3
698,852,5,0.153127253401122,3
649,836,6,0.103533310650415,1
650,835,6,0.10306805205578,1
650,836,6,0.110661553729917,1
651,836,6,0.106016028310281,1
651,837,6,0.107276181749246,1
651,838,6,0.116864979350246,1
652,837,6,0.104909923740958,1
652,838,6,0.111410571881694,1
653,837,6,0.109067012407164,1
653,838,6,0.113987686441406,1
653,840,6,0.130578741894002,1
654,836,6,0.103651789188779,1
654,837,6,0.116188607660562,1
654,838,6,0.116121036300611,1
654,839,6,0.116015574562687,1
654,840,6,0.113582369822403,1
654,841,6,0.103820193347337,1
655,837,6,0.10920134087991,1
655,838,6,0.111093874353945,1
655,839,6,0.119544109040053,1
655,840,6,0.110782263082409,1
655,852,6,0.114921683700717,1
656,836,6,0.106067515500366,1
656,838,6,0.102925246489345,1
656,839,6,0.114784856716147,1
656,851,6,0.125601371718684,1
657,835,6,0.106518229186883,1
657,836,6,0.131687746521692,1
657,837,6,0.104270605873948,1
657,851,6,0.108871135772613,1
657,854,6,0.12060218418119,1
658,836,6,0.133902565712869,1
658,837,6,0.108913153156722,1
658,852,6,0.142139846882272,1
658,854,6,0.137998675074873,1
659,853,6,0.155157461569096,1
659,854,6,0.147148169603623,1
660,853,6,0.106240570906382,1
660,854,6,0.126508922676502,1
661,854,6,0.108563495350225,1
661,855,6,0.111178924142593,1
662,854,6,0.107339759951907,1
662,855,6,0.144788548267367,1
662,856,6,0.126135517853607,1
663,854,6,0.111735423035083,1
663,855,6,0.183112484965428,1
663,856,6,0.183902182012839,1
663,857,6,0.125827676657948,1
664,855,6,0.170808139633973,1
664,856,6,0.219212824218718,1
664,857,6,0.175296928052943,1
665,855,6,0.130341729046922,1
665,856,6,0.218530172787262,1
665,857,6,0.210101599306342,1
666,856,6,0.184873534254731,1
666,857,6,0.201573397666443,1
666,858,6,0.103038504922648,1
667,856,6,0.143881978867765,1
667,857,6,0.178224938520993,1
668,856,6,0.129503656795136,1
668,857,6,0.182795787437679,1
668,858,6,0.124878844484682,1
669,856,6,0.123669341680504,1
669,857,6,0.193827765622815,1
670,856,6,0.119146287956522,1
672,855,6,0.103032715959985,1
672,856,6,0.146029170928637,1
673,856,6,0.119914468801663,1
673,857,6,0.140749770828465,1
679,856,6,0.116272151649674,1
680,856,6,0.1289257086248,1
681,856,6,0.114092858173493,1
682,854,6,0.10882194632108,1
682,855,6,0.118912164013738,1
683,854,6,0.128435676839268,1
683,855,6,0.139403742199624,1
684,854,6,0.107422445077579,1
684,855,6,0.114906503010573,1
685,852,6,0.12537244557282,1
685,853,6,0.138147838461573,1
685,854,6,0.119810613249912,1
686,851,6,0.14570036008017,1
686,852,6,0.244992826147926,3
686,853,6,0.289898400693658,3
686,854,6,0.199391349134814,1
687,850,6,0.107146794529794,1
687,851,6,0.207358300248129,3
687,852,6,0.344101294666364,3
687,853,6,0.389279563931162,3
687,854,6,0.264286379068325,3
687,855,6,0.195947775213531,1
687,856,6,0.222744158367815,3
687,857,6,0.195917458449525,3
688,850,6,0.138519202089541,1
688,851,6,0.255948978960835,3
688,852,6,0.329852214810268,3
688,853,6,0.313614609548188,3
688,854,6,0.241565782559335,3
688,855,6,0.242878683598367,3
688,856,6,0.3313394316653,3
688,857,6,0.305233530100063,3
688,858,6,0.204817380647652,3
689,850,6,0.153212816277019,1
689,851,6,0.26577174434763,1
689,852,6,0.292005716951983,3
689,853,6,0.247737240613203,3
689,854,6,0.229933380751518,1
689,855,6,0.277701982149739,3
689,856,6,0.410279421962151,3
689,857,6,0.40954597489299,3
689,858,6,0.2822338587436,3
690,851,6,0.21888244064629,1
690,852,6,0.248899606314846,1
690,853,6,0.246319089763588,3
690,854,6,0.266232028226759,3
690,855,6,0.306431856525457,3
690,856,6,0.429135512231955,3
690,857,6,0.437708129381152,3
690,858,6,0.30818978267498,3
690,859,6,0.166953761290931,3
691,851,6,0.20292299559789,1
691,852,6,0.24677040576992,1
691,853,6,0.278270014351273,3
691,854,6,0.303994268235411,3
691,855,6,0.297101744130795,3
691,856,6,0.336602546822335,3
691,857,6,0.318475598150423,3
691,858,6,0.236194740614764,3
692,846,6,0.106614789976435,1
692,847,6,0.1309926471474,1
692,851,6,0.189863698149076,1
692,852,6,0.245963141061248,1
692,853,6,0.292900362650068,3
692,854,6,0.307168917513506,3
692,855,6,0.271114231871356,3
692,856,6,0.225107460547383,3
692,857,6,0.186386840480996,3
693,845,6,0.11136378055535,1
693,846,6,0.152645163313887,1
693,847,6,0.158957285352626,1
693,848,6,0.158707657251649,1
693,849,6,0.155216622759783,1
693,850,6,0.164128970592605,1
693,851,6,0.200317114689991,3
693,852,6,0.26140726804597,3
693,853,6,0.295785028399602,3
693,854,6,0.303985322670756,3
693,855,6,0.284707430065539,3
694,846,6,0.2021581386658,1
694,847,6,0.219921196937074,1
694,848,6,0.242612346699568,1
694,849,6,0.208576302454136,1
694,850,6,0.23252888837372,3
694,851,6,0.331011658145403,3
694,852,6,0.38233570879345,3
694,853,6,0.344063616215734,3
694,854,6,0.311452839116987,3
694,855,6,0.299290886651353,3
695,845,6,0.205436855422989,1
695,846,6,0.20964872173012,1
695,847,6,0.241779115314441,2
695,848,6,0.279041853731585,1
695,849,6,0.253612401934526,3
695,850,6,0.309843886734963,3
695,851,6,0.482164908740517,3
695,852,6,0.551978727670331,3
695,853,6,0.434631033604895,3
695,854,6,0.303254084107582,3
695,855,6,0.242610361274994,3
696,846,6,0.179960311139677,1
696,847,6,0.182433057060388,1
696,848,6,0.20753924158209,1
696,849,6,0.228818932937355,3
696,850,6,0.290859770042326,3
696,851,6,0.453621998896907,3
696,852,6,0.552280110659089,3
696,853,6,0.443396928490182,3
696,854,6,0.26759438641502,3
696,855,6,0.168985754110208,1
697,849,6,0.174764477336758,1
697,850,6,0.200933287860418,3
697,851,6,0.273220231949345,3
697,852,6,0.33203883651086,3
697,853,6,0.282889115777558,3
697,854,6,0.182214203040314,1
698,851,6,0.152060098846482,1
698,852,6,0.163149007408177,3
698,853,6,0.143133629960226,1
649,835,7,0.103156983461012,1
649,836,7,0.106534380281174,1
650,835,7,0.104411582172797,1
650,836,7,0.110307155443396,1
651,836,7,0.104646051891771,1
651,837,7,0.104079558951985,1
651,838,7,0.117745470532685,1
651,841,7,0.124389995030638,1
651,847,7,0.114937176704839,1
652,838,7,0.106935904516158,1
652,848,7,0.126154357078922,1
653,833,7,0.107617563235327,1
653,837,7,0.102915408599039,1
653,838,7,0.10792773563175,1
653,840,7,0.119038840794023,1
653,841,7,0.126835056548015,1
653,848,7,0.111927395744909,1
654,832,7,0.107420392728581,1
654,833,7,0.115306264902396,1
654,834,7,0.103282065209195,1
654,837,7,0.107674794771793,1
654,838,7,0.110524035192967,1
654,839,7,0.1094440869193,1
654,840,7,0.107092273432494,1
655,838,7,0.104169304604374,1
655,839,7,0.115952230595509,1
655,840,7,0.104473476110792,1
656,839,7,0.112248956447459,1
657,836,7,0.122467501722858,1
658,836,7,0.13142134269847,1
658,837,7,0.115334083154578,1
659,855,7,0.123152060500393,1
660,853,7,0.120306121684129,1
660,854,7,0.170818814079578,1
660,855,7,0.135577048259916,1
661,854,7,0.132340203883919,1
661,855,7,0.150161486403946,1
661,856,7,0.107657149032036,1
662,854,7,0.116688376949765,1
662,855,7,0.17859593406463,1
662,856,7,0.166623968884248,1
663,854,7,0.104967422975119,1
663,855,7,0.188455920585159,1
663,856,7,0.223689978942007,1
663,857,7,0.157725853645565,1
664,855,7,0.153250104335177,1
664,856,7,0.237028172773163,1
664,857,7,0.213411725926459,1
665,855,7,0.113539482420783,1
665,856,7,0.212195396831048,1
665,857,7,0.231661726305698,1
665,858,7,0.11115645984432,1
666,856,7,0.169437125886894,1
666,857,7,0.203744626749549,1
666,858,7,0.110906508275294,1
667,856,7,0.131051049861284,1
667,857,7,0.174319284915208,1
667,858,7,0.114456135100245,1
668,856,7,0.123336872296867,1
668,857,7,0.180413802189785,1
668,858,7,0.141738501112418,1
669,856,7,0.117567206175679,1
669,857,7,0.184556212099026,1
670,856,7,0.110548284142543,1
671,856,7,0.119427827853606,1
672,856,7,0.125021293120856,1
673,856,7,0.104135987395365,1
673,857,7,0.126373913805447,1
680,856,7,0.116266563460282,1
681,856,7,0.112663508636954,1
682,855,7,0.109155229951874,1
683,854,7,0.109595258038716,1
683,855,7,0.127767525699648,1
684,855,7,0.110887423660425,1
685,851,7,0.104526848338815,1
685,852,7,0.124389258861976,1
685,853,7,0.124405253799277,1
685,854,7,0.105942099130063,1
686,851,7,0.14536871609776,1
686,852,7,0.228154038786362,1
686,853,7,0.254865472538633,3
686,854,7,0.171508615270315,1
687,851,7,0.188361066368416,1
687,852,7,0.297956882110664,3
687,853,7,0.334599699589646,3
687,854,7,0.233595039062002,3
687,855,7,0.168794762958598,1
687,856,7,0.215503114171907,3
687,857,7,0.217952704241964,3
688,850,7,0.131364245010851,1
688,851,7,0.241607008004429,1
688,852,7,0.292939044967056,3
688,853,7,0.267659749268985,3
688,854,7,0.219406146571091,1
688,855,7,0.219790114298885,3
688,856,7,0.338977382310947,3
688,857,7,0.356813566669353,3
688,858,7,0.230657926872307,3
689,850,7,0.145066028082737,1
689,851,7,0.26145154970642,1
689,852,7,0.27657841030579,1
689,853,7,0.217751774813412,1
689,854,7,0.214892027257693,1
689,855,7,0.261888677734896,3
689,856,7,0.432543303894618,3
689,857,7,0.479903978621305,3
689,858,7,0.316627881732229,3
689,859,7,0.16398789390712,3
690,851,7,0.206339554360077,1
690,852,7,0.226761051520117,1
690,853,7,0.211701182269025,1
690,854,7,0.246764471804339,3
690,855,7,0.293556779707372,3
690,856,7,0.443275393736463,3
690,857,7,0.487065605834239,3
690,858,7,0.331905456134119,3
690,859,7,0.172603242300947,3
691,851,7,0.172785220963478,1
691,852,7,0.204130713750765,1
691,853,7,0.238454733792042,1
691,854,7,0.285859333248919,3
691,855,7,0.294300689294796,3
691,856,7,0.34077872010341,3
691,857,7,0.33109372979719,3
691,858,7,0.24093992765559,3
691,859,7,0.161716724351058,1
692,851,7,0.160771294169339,1
692,852,7,0.210122078180041,1
692,853,7,0.274523428946919,3
692,854,7,0.30378294321302,3
692,855,7,0.273335208109527,3
692,856,7,0.220823360478772,3
692,857,7,0.182231581082375,3
692,858,7,0.161722089459037,1
693,845,7,0.106117753434539,1
693,850,7,0.152844743099891,1
693,851,7,0.173660848971117,1
693,852,7,0.241729725089636,3
693,853,7,0.300431122676841,3
693,854,7,0.309702564659924,3
693,855,7,0.280410034344722,3
694,831,7,0.103797896360123,1
694,847,7,0.185315324684735,1
694,848,7,0.195247745740015,1
694,849,7,0.184882156351338,1
694,850,7,0.201561061264313,1
694,851,7,0.277218720885087,3
694,852,7,0.349753597656253,3
694,853,7,0.34393991757231,3
694,854,7,0.304678927399582,3
694,855,7,0.282108866227982,3
695,846,7,0.235119064350154,1
695,847,7,0.230957123663218,1
695,848,7,0.247289360060628,1
695,849,7,0.235643127205216,1
695,850,7,0.280964770894051,3
695,851,7,0.42351711761682,3
695,852,7,0.524344696118946,3
695,853,7,0.44544994673262,3
695,854,7,0.291965941536073,3
695,855,7,0.217243907668923,3
696,847,7,0.215541461866776,1
696,848,7,0.220782938126764,1
696,849,7,0.237392353179637,1
696,850,7,0.283110613312374,3
696,851,7,0.407849529980848,3
696,852,7,0.528163939139464,3
696,853,7,0.462699226201965,3
696,854,7,0.264596573772889,3
697,849,7,0.191776732804952,1
697,850,7,0.205083717546451,1
697,851,7,0.249052149384951,3
697,852,7,0.306702498895524,3
697,853,7,0.28091580452393,3
697,854,7,0.176987182455878,1
698,851,7,0.163817760867612,1
698,852,7,0.165930698777541,3
698,853,7,0.146583193617444,1
650,836,8,0.10421785827388,1
650,841,8,0.125677040933922,1
650,847,8,0.162150550774623,1
651,835,8,0.104334619085364,1
651,840,8,0.105549676616722,1
651,841,8,0.119088398329888,1
651,842,8,0.126244002344675,1
651,848,8,0.115489213969073,1
652,834,8,0.103373372431474,1
652,835,8,0.106426163487801,1
652,841,8,0.123562943000647,1
653,832,8,0.107782855408176,1
653,833,8,0.117210655153524,1
653,834,8,0.109038625297379,1
653,839,8,0.104615790898118,1
653,840,8,0.115672586890433,1
653,841,8,0.118226010204101,1
653,842,8,0.103196725414711,1
654,833,8,0.117862142111605,1
654,834,8,0.110813762177903,1
654,838,8,0.10920238936255,1
654,839,8,0.11188555682593,1
654,840,8,0.114557335983184,1
654,841,8,0.107984063688494,1
655,838,8,0.105731554892617,1
655,839,8,0.120356705394492,1
655,840,8,0.109081278463515,1
655,851,8,0.106097252252698,1
655,854,8,0.108750694117816,1
656,839,8,0.112030637822775,1
657,836,8,0.115022817659232,1
658,835,8,0.104595914344233,1
658,836,8,0.142181362333203,1
658,837,8,0.127270890704296,1
659,836,8,0.121146748218093,1
659,837,8,0.113591393465553,1
660,853,8,0.123324625127301,1
660,855,8,0.168776592977522,1
661,854,8,0.146881732318188,1
661,855,8,0.188158441521126,1
661,856,8,0.131701332179735,1
662,854,8,0.119183654093174,1
662,855,8,0.203783799845646,1
662,856,8,0.19746515267558,1
662,857,8,0.11110402455823,1
663,855,8,0.187929537683403,1
663,856,8,0.247010419062003,1
663,857,8,0.176550679055359,1
664,855,8,0.137420303049853,1
664,856,8,0.235675050155394,1
664,857,8,0.228765438014554,1
664,858,8,0.104521092838364,1
665,856,8,0.185771013086759,1
665,857,8,0.222702620608743,1
665,858,8,0.118665915596166,1
666,856,8,0.142295133853756,1
666,857,8,0.190613140155538,1
666,858,8,0.137981297032812,1
667,856,8,0.11981093671796,1
667,857,8,0.183293392837177,1
668,856,8,0.118953601386174,1
668,857,8,0.196788167512011,1
669,856,8,0.110782330006833,1
669,857,8,0.182014009780425,1
670,856,8,0.103751238882626,1
671,856,8,0.108330029497609,1
672,856,8,0.107045649417209,1
672,857,8,0.142735407330152,1
673,857,8,0.120776064988434,1
673,858,8,0.146632271528271,1
674,857,8,0.119532586885079,1
683,855,8,0.10354571397697,1
685,851,8,0.10321582118365,1
685,852,8,0.123977919044826,1
685,853,8,0.108857237800592,1
686,851,8,0.142701777807165,1
686,852,8,0.201872705998061,1
686,853,8,0.19501759264638,1
687,851,8,0.158203526720825,1
687,852,8,0.227989293162974,1
687,853,8,0.242032892729696,3
687,854,8,0.183839484981758,1
687,856,8,0.179812486241454,1
687,857,8,0.205201883770836,3
688,850,8,0.110317439496528,1
688,851,8,0.194933134023476,1
688,852,8,0.22754558423282,1
688,853,8,0.205316681465888,1
688,854,8,0.181931759663508,1
688,855,8,0.182526082009546,1
688,856,8,0.300101519889359,3
688,857,8,0.365072040572977,3
688,858,8,0.232669117349836,3
689,851,8,0.21202786269,1
689,852,8,0.224525351908698,1
689,853,8,0.175711145620318,1
689,854,8,0.179715802757126,1
689,855,8,0.219245594878265,3
689,856,8,0.395062324931284,3
689,857,8,0.501974895131659,3
689,858,8,0.325359712085775,3
689,859,8,0.160887162655172,3
690,852,8,0.185781665224222,1
690,853,8,0.166603835786738,1
690,854,8,0.197931214363302,1
690,855,8,0.242440886325654,3
690,856,8,0.387769035068487,3
690,857,8,0.476040922411303,3
690,858,8,0.323304552261773,3
690,859,8,0.166119592963869,3
691,852,8,0.153032098024471,1
691,853,8,0.178478615549613,1
691,854,8,0.226734058669162,1
691,855,8,0.250555829648251,3
691,856,8,0.29050406672954,3
691,857,8,0.299845913206518,3
691,858,8,0.220985139119369,3
691,859,8,0.151834318148538,1
692,852,8,0.158684958717892,1
692,853,8,0.217144257201804,1
692,854,8,0.252821020622449,3
692,856,8,0.186762877664562,1
692,857,8,0.157647496299302,3
692,858,8,0.144284551585391,1
693,852,8,0.191100974589153,1
693,853,8,0.253638703233101,3
693,854,8,0.269738644955313,3
694,850,8,0.172987745424132,1
694,851,8,0.20708223699973,3
694,852,8,0.266254537141315,3
694,853,8,0.287359957296864,3
694,854,8,0.265966293647775,3
695,847,8,0.243114480651748,1
695,848,8,0.210220947862215,1
695,849,8,0.203125888142875,1
695,850,8,0.237010705498537,3
695,851,8,0.322056657146444,3
695,852,8,0.416217849172158,3
695,853,8,0.385248839731264,3
695,854,8,0.262153386139381,3
696,848,8,0.222545192055696,1
696,849,8,0.219019078011659,1
696,850,8,0.259955431903016,3
696,851,8,0.342733002512521,3
696,852,8,0.443933885450907,3
696,853,8,0.410008958057214,3
696,854,8,0.24112588832134,3
697,849,8,0.185529572073634,1
697,850,8,0.198069658688115,1
697,851,8,0.222479070724928,3
697,852,8,0.257757834596911,3
697,853,8,0.241532454196255,3
698,852,8,0.168096038511347,1
650,841,9,0.113115181573547,1
650,842,9,0.109344927231289,1
650,847,9,0.144705495057364,1
651,840,9,0.105318809662566,1
651,841,9,0.117966633445383,1
651,842,9,0.110378329568165,1
651,848,9,0.108943458766658,1
652,833,9,0.105984261517091,1
652,834,9,0.10344118918098,1
652,840,9,0.108141793401448,1
652,841,9,0.110520521660714,1
653,833,9,0.115581636598415,1
653,834,9,0.106369523117079,1
653,840,9,0.107836216482129,1
653,841,9,0.105315106511113,1
654,839,9,0.110106928721295,1
654,840,9,0.119652727379969,1
654,841,9,0.109017153711392,1
655,839,9,0.11532751340697,1
655,840,9,0.11095054454619,1
657,836,9,0.107969641475154,1
658,835,9,0.133788258796926,1
658,836,9,0.160822647510577,1
658,837,9,0.128985249053889,1
659,835,9,0.132510928089171,1
659,836,9,0.16066070155892,1
659,837,9,0.124936767573528,1
660,853,9,0.111039977884601,1
660,855,9,0.181952896627375,1
661,854,9,0.147139190576756,1
661,855,9,0.211830837186172,1
661,856,9,0.150208523119845,1
662,854,9,0.116227100358349,1
662,855,9,0.212296408094786,1
662,856,9,0.210932488336634,1
662,857,9,0.113691467787356,1
663,855,9,0.175082178730865,1
663,856,9,0.240257811619526,1
663,857,9,0.171609793845112,1
664,855,9,0.118501393054191,1
664,856,9,0.205208085434113,1
664,857,9,0.205688937419507,1
664,858,9,0.108735000340422,1
665,856,9,0.148673221066274,1
665,857,9,0.186997670851585,1
665,858,9,0.134095441902417,1
666,845,9,0.105233402943657,1
666,856,9,0.118071425939068,1
666,857,9,0.173897683353067,1
667,856,9,0.110536449673592,1
668,856,9,0.112397796366111,1
669,856,9,0.105606506606645,1
672,857,9,0.132687998960619,1
673,857,9,0.123144799200405,1
673,858,9,0.144520638644607,1
674,857,9,0.116138581653731,1
674,858,9,0.15987466304668,1
675,857,9,0.111548246575633,1
677,857,9,0.121369060000066,1
685,852,9,0.117844741761403,1
686,851,9,0.125978825469223,1
686,852,9,0.167900619193693,1
686,853,9,0.139640063494324,1
687,851,9,0.128796656027468,1
687,852,9,0.166956951355135,1
687,853,9,0.159214754765264,1
687,856,9,0.137382122666044,1
687,857,9,0.164513161401811,1
688,851,9,0.146771641640948,1
688,852,9,0.168783475039108,1
688,853,9,0.153522096347791,1
688,855,9,0.143839448396406,1
688,856,9,0.23280028922059,3
688,857,9,0.317520475081315,3
688,858,9,0.211892920743368,3
689,852,9,0.167852890925414,1
689,855,9,0.171042341655252,3
689,856,9,0.319184372415323,3
689,857,9,0.462347694511599,3
689,858,9,0.310817101706653,3
689,859,9,0.148033557423074,3
690,855,9,0.185197671547599,3
690,856,9,0.300969150428348,3
690,857,9,0.416376281591563,3
690,858,9,0.29941360373656,3
690,859,9,0.154987116602245,1
691,856,9,0.220357254174768,3
691,857,9,0.245576808670479,3
691,858,9,0.197977079901784,1
693,853,9,0.195902534303006,1
694,851,9,0.155277613218056,1
694,852,9,0.194774790836637,3
694,853,9,0.22402705495682,3
695,850,9,0.1925620463026,1
695,851,9,0.233050385792534,3
695,852,9,0.301509654383536,3
695,853,9,0.29990237511211,3
695,854,9,0.234279162830782,1
696,849,9,0.185890830113599,1
696,850,9,0.225610286051942,1
696,851,9,0.277513188350046,3
696,852,9,0.344866129290313,3
696,853,9,0.324737515717201,3
696,854,9,0.215972098226137,3
697,850,9,0.181579558728904,1
697,851,9,0.197895030558138,1
697,852,9,0.213985022849337,3
697,853,9,0.19466284858367,3
650,834,10,0.103132823744,1
650,841,10,0.106828022344905,1
650,847,10,0.125721322594373,1
651,840,10,0.108264164710466,1
651,841,10,0.129407932560883,1
651,842,10,0.108187424704446,1
652,833,10,0.109629244491964,1
652,834,10,0.108583304979686,1
652,841,10,0.109868767004938,1
653,849,10,0.107697024834583,1
654,839,10,0.109525757024544,1
654,840,10,0.120822767082214,1
654,841,10,0.105649951711797,1
655,839,10,0.106952981398312,1
655,840,10,0.107522050928416,1
657,835,10,0.102939456775344,1
658,834,10,0.110928281021188,1
658,835,10,0.164556349963339,1
658,836,10,0.177932679562022,1
658,837,10,0.119506742903401,1
658,854,10,0.182649211795367,1
659,834,10,0.112967111285769,1
659,835,10,0.178462854847796,1
659,836,10,0.195416640677682,1
659,837,10,0.12418426935171,1
659,853,10,0.148467116148944,1
659,855,10,0.138865179052727,1
660,835,10,0.110066774066982,1
660,836,10,0.116844768174242,1
660,854,10,0.167472425575802,1
660,855,10,0.18232768455503,1
660,856,10,0.108155747143822,1
661,854,10,0.1375753000155,1
661,855,10,0.217759805744275,1
661,856,10,0.15850728552663,1
662,854,10,0.105755156906096,1
662,855,10,0.201063455864815,1
662,856,10,0.202627390417725,1
662,857,10,0.11170672361132,1
663,855,10,0.151578499538355,1
663,856,10,0.211676197150786,1
663,857,10,0.157889015390922,1
664,856,10,0.167391357790373,1
664,857,10,0.17873953157008,1
664,858,10,0.138341283508724,1
665,856,10,0.120769015615788,1
665,857,10,0.165311246310345,1
666,845,10,0.103886203137399,1
666,856,10,0.106126330914863,1
672,857,10,0.13015382757288,1
673,857,10,0.134218962080711,1
674,857,10,0.124924442325468,1
675,857,10,0.142636381490989,1
676,856,10,0.140875354509827,1
677,856,10,0.129994647830743,1
686,852,10,0.133938961445375,1
686,853,10,0.111227277038828,1
687,851,10,0.107189124227882,1
687,852,10,0.131532080311807,1
687,857,10,0.120151370108037,1
688,851,10,0.113520052029724,1
688,856,10,0.169830563420663,1
688,857,10,0.240773196607628,3
688,858,10,0.175448043402006,1
689,855,10,0.133839411364891,1
689,856,10,0.237368215770767,3
689,857,10,0.372287341173842,3
689,858,10,0.266155778999847,3
689,859,10,0.124803141807232,1
690,856,10,0.218336515812769,3
690,857,10,0.32455153274331,3
690,858,10,0.248574688237033,1
690,859,10,0.129877708554128,1
691,857,10,0.184759807350461,1
691,858,10,0.162003673972404,1
695,851,10,0.172226636259778,1
695,852,10,0.210648728779492,3
695,853,10,0.214187156917518,1
696,850,10,0.187300604256161,1
696,851,10,0.212931833191141,1
696,852,10,0.246557541485781,3
696,853,10,0.22732194511644,3
650,841,11,0.105263853556511,1
650,847,11,0.111673964105844,1
651,840,11,0.107811476753444,1
651,841,11,0.139632545650711,1
651,842,11,0.11040323660791,1
652,833,11,0.108746388646548,1
652,834,11,0.114415556591248,1
652,841,11,0.110652552394908,1
653,849,11,0.114955157066715,1
654,839,11,0.106448783943064,1
654,840,11,0.109183248977328,1
657,835,11,0.110825496260219,1
658,834,11,0.123885139485223,1
658,835,11,0.189267646922088,1
658,836,11,0.182077242206896,1
658,837,11,0.106828814283921,1
658,853,11,0.131132329574055,1
658,854,11,0.152181142821093,1
658,855,11,0.115544705470518,1
659,834,11,0.133808693054342,1
659,835,11,0.209464947262216,1
659,836,11,0.205997972100725,1
659,837,11,0.114228826294624,1
659,853,11,0.110356311432717,1
659,854,11,0.159812713338332,1
659,855,11,0.148140937661148,1
660,835,11,0.13292484449664,1
660,836,11,0.12385747739003,1
660,854,11,0.139365885283864,1
660,855,11,0.18257859537413,1
660,856,11,0.129501637908349,1
661,854,11,0.121973220236411,1
661,855,11,0.210225320257907,1
661,856,11,0.173436540610499,1
662,855,11,0.176875675211666,1
662,856,11,0.192504937460911,1
662,857,11,0.117455375463418,1
663,855,11,0.123838370467019,1
663,856,11,0.180470219479094,1
663,857,11,0.150690880904775,1
663,858,11,0.112062069993846,1
664,856,11,0.136067738135616,1
675,856,11,0.112027280447512,1
687,852,11,0.113573390795536,1
688,857,11,0.166896206286416,1
689,856,11,0.16929936196039,1
689,857,11,0.260076074331084,3
689,858,11,0.202366630554248,1
690,856,11,0.152547565195766,1
690,857,11,0.225620770878346,1
690,858,11,0.189541233966804,1
691,857,11,0.135954914711068,1
693,830,11,0.104611875819322,1
651,841,12,0.122107559863228,1
652,834,12,0.112663497482883,1
653,843,12,0.103948119383535,1
654,839,12,0.103822814553938,1
654,842,12,0.108213480613467,1
654,843,12,0.108230568649691,1
654,849,12,0.117170556269565,1
657,835,12,0.119167882237285,1
658,834,12,0.136997563772507,1
658,835,12,0.201424267741955,1
658,836,12,0.171469542560855,1
658,837,12,0.103094710284615,1
658,854,12,0.132645702724743,1
658,855,12,0.138213301702174,1
659,834,12,0.150641066825286,1
659,835,12,0.219424662328358,1
659,836,12,0.19157598184153,1
659,837,12,0.105890232701576,1
659,854,12,0.132554953205997,1
659,855,12,0.166227397056628,1
659,856,12,0.129840119336063,1
660,834,12,0.134812157865614,1
660,835,12,0.156479709719327,1
660,836,12,0.126243712338838,1
660,854,12,0.117889458430608,1
660,855,12,0.183924713235536,1
660,856,12,0.168175857040864,1
661,854,12,0.106244318674118,1
661,855,12,0.198591468420908,1
661,857,12,0.133642575480265,1
662,855,12,0.156258167568228,1
662,858,12,0.108150649733538,1
663,855,12,0.104242832238048,1
663,856,12,0.171525803693175,1
671,841,12,0.113056533470109,1
671,842,12,0.112917899526095,1
677,846,12,0.106201230499227,1
679,856,12,0.109022730746713,1
687,852,12,0.10694080115317,1
689,857,12,0.165593912768564,1
690,857,12,0.149398023730687,1
653,843,13,0.113244847644764,1
653,844,13,0.112169360999355,1
654,842,13,0.111599733765719,1
654,843,13,0.120764821685227,1
654,844,13,0.107336001030101,1
655,841,13,0.104241527211783,1
655,848,13,0.110522384390512,1
655,849,13,0.108730192935975,1
656,839,13,0.103939564211352,1
656,840,13,0.117272102928693,1
657,835,13,0.118801114086422,1
657,836,13,0.108108074645896,1
657,837,13,0.105271973719939,1
657,854,13,0.121232244169567,1
657,855,13,0.119843841226355,1
658,834,13,0.138234706363736,1
658,835,13,0.192569407989224,1
658,836,13,0.157347674880435,1
658,837,13,0.116295854049789,1
658,854,13,0.131515527670974,1
658,855,13,0.162506555247317,1
658,856,13,0.118819719076254,1
659,834,13,0.155818262176163,1
659,835,13,0.211852833013479,1
659,836,13,0.165904430941178,1
659,854,13,0.120179824142245,1
659,855,13,0.18171214716663,1
659,856,13,0.163860982891351,1
660,833,13,0.109298068980521,1
660,834,13,0.165009762934952,1
660,835,13,0.183468165970073,1
660,836,13,0.127936944878635,1
660,855,13,0.182240660495878,1
660,857,13,0.142401844847591,1
661,834,13,0.123007336433808,1
661,835,13,0.124775892412653,1
661,858,13,0.114010920370554,1
671,841,13,0.110645023397225,1
671,842,13,0.133726989486887,1
672,842,13,0.109058992630372,1
676,846,13,0.130219558511176,1
677,845,13,0.114726431694122,1
677,846,13,0.148896224400627,1
677,847,13,0.12628368852802,1
678,844,13,0.127627374802026,1
678,845,13,0.124036210218003,1
678,846,13,0.111470558473609,1
679,844,13,0.123707432831748,1
679,845,13,0.109297422044423,1
679,856,13,0.13279479918702,1
680,856,13,0.107222463745032,1
682,856,13,0.113579090525634,1
687,852,13,0.108615473319418,1
688,852,13,0.143292374693609,1
691,830,13,0.105322066651194,1
692,830,13,0.12732982881357,1
692,831,13,0.109801206799057,1
651,845,14,0.107494890766402,1
651,846,14,0.126103360667945,1
653,842,14,0.104763526563776,1
653,843,14,0.120200782640982,1
653,844,14,0.119643134879216,1
653,845,14,0.120754760713507,1
654,842,14,0.116388789766381,1
654,843,14,0.135209934332863,1
654,844,14,0.128937788483306,1
654,845,14,0.113201726007661,1
654,846,14,0.124607912108779,1
655,840,14,0.10457051652538,1
655,841,14,0.118077616448274,1
655,842,14,0.10340247340178,1
655,843,14,0.107472538008834,1
655,844,14,0.106805970747245,1
655,847,14,0.119540138190904,1
656,839,14,0.107277609470288,1
656,840,14,0.126872880001563,1
656,841,14,0.114681804257482,1
657,835,14,0.109868521615384,1
657,836,14,0.119710070457141,1
657,837,14,0.142267583299269,1
657,838,14,0.107491299155655,1
657,854,14,0.127225315171651,1
657,855,14,0.132240319181316,1
658,834,14,0.127136986086234,1
658,835,14,0.167506055098789,1
658,836,14,0.149305835336828,1
658,837,14,0.144305220078291,1
658,854,14,0.135136373236976,1
658,855,14,0.170898498760247,1
658,856,14,0.1316602740457,1
659,834,14,0.153549200739452,1
659,835,14,0.206004240688426,1
659,836,14,0.152911678677816,1
659,837,14,0.104397606122282,1
659,854,14,0.113180589043794,1
659,855,14,0.179035114442103,1
659,857,14,0.117023110609743,1
660,833,14,0.111021584822112,1
660,834,14,0.184822604768178,1
660,835,14,0.218549090091072,1
660,836,14,0.138390907969012,1
661,834,14,0.14367195887164,1
661,835,14,0.151501224136945,1
667,843,14,0.109986420142074,1
671,842,14,0.131299016005734,1
671,843,14,0.105617337209239,1
672,842,14,0.10909594606641,1
676,845,14,0.108992358212354,1
676,846,14,0.148620752317972,1
676,847,14,0.108735189959623,1
677,844,14,0.131742468392264,1
677,845,14,0.150878693146252,1
677,846,14,0.18797410934969,1
677,847,14,0.148869867331699,1
678,843,14,0.128168414152606,1
678,844,14,0.196513353519524,1
678,845,14,0.182482168433427,1
678,846,14,0.152748539240601,1
678,847,14,0.110380181143892,1
679,843,14,0.125088340239488,1
679,844,14,0.174284963839841,1
679,845,14,0.150804574346833,1
679,856,14,0.147666789272211,1
680,842,14,0.111746554797584,1
680,843,14,0.103508325532176,1
680,856,14,0.13538091508174,1
680,857,14,0.158576820003014,1
681,856,14,0.133822245250173,1
681,857,14,0.133930138575497,1
682,856,14,0.131503603969457,1
682,857,14,0.1229790720188,1
687,852,14,0.107670043137699,1
688,852,14,0.161087857848241,1
689,831,14,0.107716120603523,1
690,830,14,0.113376164518437,1
690,831,14,0.106281428267146,1
691,830,14,0.133791303858211,1
691,831,14,0.114122795699097,1
692,830,14,0.154988477398864,1
692,831,14,0.129013691934028,1
693,831,14,0.13197802005609,1
693,846,14,0.117638313376024,1
651,846,15,0.117618849522753,1
652,845,15,0.103936686461127,1
653,841,15,0.110231463920017,1
653,842,15,0.112301436349831,1
653,843,15,0.123533351251232,1
653,844,15,0.124231573765305,1
653,845,15,0.121275521963659,1
654,842,15,0.121489747044417,1
654,843,15,0.145692217608601,1
654,844,15,0.152441356135109,1
654,845,15,0.12792383884563,1
655,840,15,0.107824582786449,1
655,841,15,0.122292840130669,1
655,842,15,0.107720771850981,1
655,843,15,0.12137016425306,1
655,844,15,0.134752862826079,1
655,845,15,0.113879692729447,1
655,846,15,0.112701399014926,1
656,837,15,0.105068802323188,1
656,840,15,0.118181059299412,1
656,841,15,0.108927954608465,1
656,855,15,0.108348366789745,1
657,836,15,0.121256872357545,1
657,837,15,0.160983991142419,1
657,838,15,0.125082417427977,1
657,854,15,0.129985144562556,1
657,855,15,0.134662726781218,1
657,856,15,0.104552993480401,1
658,834,15,0.104751245931999,1
658,835,15,0.13598585610303,1
658,836,15,0.144598482903621,1
658,837,15,0.160418602455627,1
658,838,15,0.11681555566323,1
658,854,15,0.130816278982403,1
658,855,15,0.160850175756922,1
658,856,15,0.132404239403477,1
659,834,15,0.136721243980483,1
659,835,15,0.199288173981372,1
659,836,15,0.164519374219159,1
659,837,15,0.114945084940925,1
659,854,15,0.105579000668441,1
659,855,15,0.165180174826226,1
659,857,15,0.133686321745325,1
660,833,15,0.103508269761823,1
660,834,15,0.181226119692458,1
660,835,15,0.240863165341429,1
660,836,15,0.159510058785522,1
660,858,15,0.126640373399023,1
661,833,15,0.103274134664969,1
661,834,15,0.154373029243029,1
661,835,15,0.167989282901229,1
662,834,15,0.104276171755198,1
671,842,15,0.115367790756059,1
671,843,15,0.11554317736284,1
676,845,15,0.112312367339061,1
676,846,15,0.146870589401616,1
676,847,15,0.107250616619333,1
677,843,15,0.133705729828242,1
677,844,15,0.171089947228753,1
677,845,15,0.189919066955744,1
677,846,15,0.220341437702597,1
677,847,15,0.155331398146693,1
678,843,15,0.171076294646287,1
678,845,15,0.238181302904315,1
678,846,15,0.197723480951658,1
678,847,15,0.12013285435077,1
679,843,15,0.153483302490097,1
679,844,15,0.207829269726933,1
679,845,15,0.176153828375974,1
679,846,15,0.113573937344997,1
680,842,15,0.107954282319879,1
680,843,15,0.117988138493581,1
680,844,15,0.107141317881108,1
680,856,15,0.162590723864384,1
681,856,15,0.170074369096764,1
681,857,15,0.167325604543936,1
682,856,15,0.139921335693713,1
682,857,15,0.123490385771118,1
688,831,15,0.112541315793066,1
689,830,15,0.117917533226415,1
689,831,15,0.117822266309058,1
690,830,15,0.131154269631008,1
690,831,15,0.118346306855979,1
691,830,15,0.146183030179078,1
691,831,15,0.120654307153302,1
692,831,15,0.131930804875061,1
653,842,16,0.114251480212099,1
653,843,16,0.118367901136743,1
653,844,16,0.120813029578543,1
653,845,16,0.11602882559861,1
654,843,16,0.150392052198195,1
654,844,16,0.169556987530017,1
654,845,16,0.139307605264757,1
655,842,16,0.109960063073146,1
655,843,16,0.133479804127381,1
655,844,16,0.161816385972248,1
655,845,16,0.135916132007444,1
656,840,16,0.104080451277636,1
656,844,16,0.108537562135981,1
656,845,16,0.106561819294954,1
656,846,16,0.108338785443063,1
657,836,16,0.112417081754252,1
657,837,16,0.151617449553039,1
657,838,16,0.140377146790514,1
657,839,16,0.111107526936411,1
657,855,16,0.132862370546972,1
657,856,16,0.112637084643602,1
658,835,16,0.113697658296563,1
658,836,16,0.144776189557095,1
658,837,16,0.157691086407373,1
658,838,16,0.131104656324791,1
658,850,16,0.105223386588221,1
658,852,16,0.110776797587794,1
658,854,16,0.126049876899215,1
658,855,16,0.148065357678476,1
658,856,16,0.129544569926252,1
659,834,16,0.114387671414642,1
659,835,16,0.185113469468319,1
659,836,16,0.191008864273788,1
659,837,16,0.130666479813675,1
659,855,16,0.153743248106418,1
660,834,16,0.15311004267012,1
660,835,16,0.226044380173202,1
660,836,16,0.177212293909583,1
661,834,16,0.145780334766676,1
661,835,16,0.157602846554521,1
662,834,16,0.118116521846675,1
671,843,16,0.108199973033919,1
673,857,16,0.111668721692642,1
674,834,16,0.104695330575869,1
675,834,16,0.120590003936048,1
676,833,16,0.120764141286917,1
676,834,16,0.132132370085639,1
676,845,16,0.116263953407752,1
676,846,16,0.136688451012794,1
677,833,16,0.124897181776818,1
677,834,16,0.123478060523058,1
677,843,16,0.174903300899973,1
677,845,16,0.230811406884346,1
677,846,16,0.246452202442634,1
677,847,16,0.149544677451493,1
678,833,16,0.108415335829882,1
678,846,16,0.24390856124892,1
678,847,16,0.128502857806747,1
678,856,16,0.110220242924951,1
679,843,16,0.18828370173444,1
679,845,16,0.193982137960506,1
679,846,16,0.129096812068455,1
679,856,16,0.130738312028612,1
680,843,16,0.136098646065366,1
680,844,16,0.126691916359461,1
680,856,16,0.159497120063576,1
680,857,16,0.204207676838198,1
681,856,16,0.178663538886793,1
681,857,16,0.172402435567172,1
682,856,16,0.135161927212818,1
686,831,16,0.11359985940517,1
687,830,16,0.11892609544797,1
687,831,16,0.142943308052855,1
688,830,16,0.121601176210134,1
688,831,16,0.129534854730722,1
689,830,16,0.125361135345189,1
689,831,16,0.120050347690228,1
689,847,16,0.113971278803491,1
689,848,16,0.121016044818305,1
690,830,16,0.13836708287412,1
690,831,16,0.124225985575913,1
690,848,16,0.108994879032319,1
691,831,16,0.121158761152174,1
653,843,17,0.112951897133413,1
653,844,17,0.11575222695482,1
653,845,17,0.111151038965987,1
654,843,17,0.145233261063879,1
654,844,17,0.164475315640122,1
655,843,17,0.137848641670662,1
656,844,17,0.119780586491742,1
656,845,17,0.121469792412037,1
657,837,17,0.118455270972084,1
657,838,17,0.135806387106394,1
657,839,17,0.119466844792713,1
657,855,17,0.139237111538297,1
658,836,17,0.13429361627552,1
658,837,17,0.13406008349848,1
658,838,17,0.126311428701708,1
658,839,17,0.106133134897955,1
658,853,17,0.132858377389682,1
658,854,17,0.136258193891835,1
658,855,17,0.14822239583905,1
658,856,17,0.131850529028647,1
659,835,17,0.156275679459136,1
659,836,17,0.197162988901878,1
659,837,17,0.136805122591713,1
659,852,17,0.108143455357974,1
659,853,17,0.105032138892986,1
659,854,17,0.113370554020904,1
659,855,17,0.158617353895729,1
660,834,17,0.12326661280589,1
660,835,17,0.182780305587627,1
660,836,17,0.175002337893207,1
661,834,17,0.133407079586793,1
661,835,17,0.135936175872389,1
662,833,17,0.105872263493771,1
662,834,17,0.129905459881886,1
663,834,17,0.105319556985299,1
663,855,17,0.103070784803087,1
666,855,17,0.10792564982054,1
668,856,17,0.106850754340874,1
669,834,17,0.108777017724532,1
670,834,17,0.130170279827078,1
671,833,17,0.104262943027416,1
671,834,17,0.124336868192169,1
672,833,17,0.129365636325007,1
672,834,17,0.135500843649287,1
673,832,17,0.103036441419579,1
673,833,17,0.158190900312858,1
673,834,17,0.162884655933952,1
673,835,17,0.107747485850169,1
673,857,17,0.10791106029614,1
674,832,17,0.107598489774528,1
674,833,17,0.163825579871132,1
674,834,17,0.172750252952014,1
674,835,17,0.116611012315789,1
674,857,17,0.133206696707702,1
675,832,17,0.120150187776548,1
675,833,17,0.179643502071222,1
675,834,17,0.185171091397258,1
675,835,17,0.123888864944817,1
676,832,17,0.15405512707565,1
676,835,17,0.133718166617009,1
676,843,17,0.105579892994093,1
676,844,17,0.108561197611673,1
676,845,17,0.114146130014881,1
676,846,17,0.115667076779536,1
677,832,17,0.180853651811497,1
677,835,17,0.123650658612178,1
677,842,17,0.114259354985972,1
677,846,17,0.233107293860951,1
677,847,17,0.123273651024466,1
677,857,17,0.158644480595531,1
678,832,17,0.177792216350422,1
678,834,17,0.171390315197082,1
678,847,17,0.11956524600392,1
678,857,17,0.171291880523663,1
679,832,17,0.16053412516527,1
679,834,17,0.125042084308534,1
679,846,17,0.13047712831045,1
679,856,17,0.108719696955501,1
679,857,17,0.18776869598474,1
680,832,17,0.138273522529572,1
680,833,17,0.145903899561252,1
680,843,17,0.130243260911291,1
680,844,17,0.127728084905857,1
680,856,17,0.137437145696523,1
680,857,17,0.175357438886178,1
681,832,17,0.131246591873715,1
681,833,17,0.123914028528186,1
681,843,17,0.113243352999298,1
681,856,17,0.159355552598983,1
681,857,17,0.150120997127515,1
682,832,17,0.130609304047562,1
682,833,17,0.116581219793104,1
682,856,17,0.122468773286911,1
683,832,17,0.117923422575714,1
683,833,17,0.105068556933634,1
684,832,17,0.129398027746152,1
684,833,17,0.106185068250866,1
685,831,17,0.128861773491878,1
685,832,17,0.147852950711233,1
686,830,17,0.10892144063121,1
686,831,17,0.162142263300136,1
686,832,17,0.135742273508342,1
687,830,17,0.144365987455151,1
687,831,17,0.181362768211898,1
687,832,17,0.115830004289409,1
688,830,17,0.129378619663235,1
688,831,17,0.139663152420554,1
689,830,17,0.122657745551734,1
689,831,17,0.118200701617813,1
689,847,17,0.163330283364257,1
689,848,17,0.180672297776922,1
690,847,17,0.131241327152372,1
690,848,17,0.153050491086961,1
653,843,18,0.111087226527842,1
653,844,18,0.112218873918936,1
656,842,18,0.109636438867528,1
656,843,18,0.125032458345569,1
657,838,18,0.119861330809123,1
657,839,18,0.123969943884317,1
657,855,18,0.137072608359789,1
658,836,18,0.117102393743869,1
658,837,18,0.114011399995592,1
658,838,18,0.112661277822825,1
658,839,18,0.114354923063236,1
658,854,18,0.137404352728834,1
658,855,18,0.140494643770661,1
658,856,18,0.127948634344668,1
659,835,18,0.124997289560834,1
659,836,18,0.172189013579501,1
659,837,18,0.132219840307617,1
659,853,18,0.130237271175356,1
659,854,18,0.117314722632618,1
659,855,18,0.151670565237438,1
660,834,18,0.104811779073375,1
660,835,18,0.140238936701185,1
660,836,18,0.152328711175692,1
661,834,18,0.12184679999975,1
661,835,18,0.118675318477717,1
662,833,18,0.111950551595563,1
662,834,18,0.130793268134667,1
663,833,18,0.126727040527914,1
663,834,18,0.132439753964402,1
664,833,18,0.129647834312259,1
664,834,18,0.134594508485169,1
664,855,18,0.130513267499331,1
665,834,18,0.106833922848275,1
667,834,18,0.107359491502874,1
667,855,18,0.11543778254934,1
668,833,18,0.106135432636507,1
668,834,18,0.113919624302346,1
668,856,18,0.129294763360145,1
669,833,18,0.116174018136162,1
669,834,18,0.144517303577485,1
669,856,18,0.112790787737054,1
670,833,18,0.130621183132797,1
670,834,18,0.176982308127008,1
670,835,18,0.115960004982746,1
671,833,18,0.146321675277163,1
671,834,18,0.171125696025162,1
671,835,18,0.114855316980395,1
672,832,18,0.12260905803338,1
672,835,18,0.121207325975751,1
673,832,18,0.149885568158466,1
673,835,18,0.13779374133496,1
673,857,18,0.107146047207061,1
673,858,18,0.132367509048851,1
674,832,18,0.146214551582714,1
674,835,18,0.139506348495463,1
674,857,18,0.119226374183734,1
674,858,18,0.139459345241776,1
674,859,18,0.130407459985218,1
675,832,18,0.160757485429884,1
675,835,18,0.142634407220485,1
675,857,18,0.124942244222214,1
675,859,18,0.14339345288177,1
676,831,18,0.110421462359339,1
676,843,18,0.110237989051343,1
676,845,18,0.113936801571136,1
676,857,18,0.128393246754545,1
676,859,18,0.146765484593953,1
677,831,18,0.119675526300362,1
677,842,18,0.133198721547193,1
677,846,18,0.194363785641606,1
677,857,18,0.114273163725427,1
677,858,18,0.144215474425902,1
678,831,18,0.119853846427721,1
678,835,18,0.114607138908602,1
678,857,18,0.128057475765997,1
678,858,18,0.145855435124311,1
679,831,18,0.117332903767765,1
679,842,18,0.118144027784879,1
679,846,18,0.127232029922178,1
679,857,18,0.141288835908541,1
680,831,18,0.11305151413832,1
680,834,18,0.132841802440707,1
680,843,18,0.129762074303779,1
680,844,18,0.135896322377984,1
680,856,18,0.106929725161022,1
681,831,18,0.112592278741832,1
681,833,18,0.19817149535308,1
681,834,18,0.105338764294945,1
681,843,18,0.118610580251709,1
681,844,18,0.110598890161048,1
681,856,18,0.12452598545991,1
682,831,18,0.108652939842706,1
682,832,18,0.199586210748937,1
682,833,18,0.176154441849859,1
682,855,18,0.111194372530433,1
683,832,18,0.160692535276533,1
683,833,18,0.145705178638688,1
684,831,18,0.114361771662611,1
684,832,18,0.159450752591916,1
684,833,18,0.13691741062087,1
685,831,18,0.170908559731967,1
685,832,18,0.182041906111101,1
685,833,18,0.120221897296708,1
686,830,18,0.134774211717289,1
686,831,18,0.211855398449727,1
686,832,18,0.171021896243764,1
687,830,18,0.152410303202441,1
687,831,18,0.204169797614296,1
687,832,18,0.136164555468792,1
688,830,18,0.124616054580348,1
688,831,18,0.140223209461579,1
653,843,19,0.112090892112386,1
653,844,19,0.108887431869821,1
657,839,19,0.111507924610261,1
657,840,19,0.103629257966081,1
657,841,19,0.103985005895149,1
657,842,19,0.117476679738345,1
657,843,19,0.131282909527727,1
658,839,19,0.106893597126212,1
658,840,19,0.109712888867711,1
658,841,19,0.106527141289327,1
658,842,19,0.102969661998643,1
658,843,19,0.109502221935488,1
658,844,19,0.113546174863169,1
658,845,19,0.111381738609084,1
658,846,19,0.12332842866539,1
658,847,19,0.116174720842612,1
658,855,19,0.139760795154957,1
659,836,19,0.128748693523706,1
659,837,19,0.11168622242948,1
659,855,19,0.146863216560922,1
660,835,19,0.111736337668876,1
660,836,19,0.121988423234697,1
660,852,19,0.114096516708664,1
660,853,19,0.110269867385239,1
660,854,19,0.105015251630034,1
661,834,19,0.107114826963333,1
661,835,19,0.10926020091069,1
661,836,19,0.103484165815165,1
662,834,19,0.113816761462882,1
662,854,19,0.105468218438821,1
663,833,19,0.137409115516999,1
663,834,19,0.143085109752932,1
664,833,19,0.147818506941089,1
664,834,19,0.154172657518009,1
665,833,19,0.10800014785836,1
665,834,19,0.109300411335356,1
667,833,19,0.105942857606866,1
667,834,19,0.112649621819004,1
668,833,19,0.115289756877845,1
668,834,19,0.131075209578295,1
668,855,19,0.117617566804629,1
669,833,19,0.134783045741238,1
669,834,19,0.169144063834836,1
669,856,19,0.13575996386438,1
670,833,19,0.157628367068151,1
670,834,19,0.2007089794998,1
670,835,19,0.123862742111373,1
670,856,19,0.107457903868151,1
670,857,19,0.124939790326672,1
671,832,19,0.112639783928697,1
671,835,19,0.126641176492109,1
672,858,19,0.104552658858282,1
673,857,19,0.108742540492176,1
673,858,19,0.115997538430458,1
673,859,19,0.127155892235973,1
674,857,19,0.112450086649282,1
674,858,19,0.119730649717476,1
674,859,19,0.124554026793505,1
675,831,19,0.108710294073949,1
675,857,19,0.103518029573635,1
675,858,19,0.12438846692296,1
675,859,19,0.130867342317803,1
676,845,19,0.11067984640577,1
676,858,19,0.12745849101843,1
677,846,19,0.144507744538945,1
679,835,19,0.105555320576467,1
679,842,19,0.139804050640908,1
679,846,19,0.125701089110227,1
680,843,19,0.135794608407796,1
680,845,19,0.138035695435335,1
681,834,19,0.133435990937898,1
681,843,19,0.117928720759269,1
681,844,19,0.142744531359937,1
681,845,19,0.119445529363716,1
682,831,19,0.123809637581044,1
682,833,19,0.2228852350533,1
682,834,19,0.105297483079498,1
683,831,19,0.108514294744621,1
683,832,19,0.192001509636537,1
683,833,19,0.18324187218488,1
684,831,19,0.131795204838261,1
684,832,19,0.179195186509892,1
684,833,19,0.168004418975091,1
685,831,19,0.206611133672078,1
685,832,19,0.201500561585149,1
686,830,19,0.147362941233842,1
686,831,19,0.238906875199602,1
686,832,19,0.204280802925329,1
687,830,19,0.135785528994293,1
657,841,20,0.112598346556261,1
657,842,20,0.139383653718397,1
658,840,20,0.115165143600629,1
658,841,20,0.130138669190877,1
658,842,20,0.142411058109942,1
659,841,20,0.128453523352296,1
659,844,20,0.131380262256294,1
659,845,20,0.121079466863978,1
659,846,20,0.116930308741998,1
659,847,20,0.105397613171655,1
659,848,20,0.105609417819083,1
660,841,20,0.115748802655133,1
660,842,20,0.139886646534015,1
660,843,20,0.129144930729206,1
660,844,20,0.110294138642957,1
660,851,20,0.106613641107158,1
661,836,20,0.107063060921482,1
661,841,20,0.10302324615401,1
661,852,20,0.104266278094539,1
662,840,20,0.126523567971256,1
662,841,20,0.112151369483409,1
663,833,20,0.126845463295924,1
663,834,20,0.134528900241651,1
663,840,20,0.109912702889199,1
663,854,20,0.110648603853901,1
664,833,20,0.138813993022549,1
664,834,20,0.147460182421702,1
665,833,20,0.106589481390147,1
665,834,20,0.104753320589138,1
667,833,20,0.104714426344808,1
667,834,20,0.108715101478396,1
667,847,20,0.107797668013989,1
667,848,20,0.114874580060394,1
667,853,20,0.103050027077622,1
668,833,20,0.115320017871498,1
668,834,20,0.135704985450184,1
668,847,20,0.113993709639553,1
668,848,20,0.107857944611741,1
668,854,20,0.115027691988102,1
668,855,20,0.152943880479761,1
669,833,20,0.141884061734301,1
669,834,20,0.172295044175028,1
669,835,20,0.112758652859533,1
669,855,20,0.120970346590883,1
669,856,20,0.147014811535022,1
669,857,20,0.128602463657584,1
670,832,20,0.108597180643565,1
670,835,20,0.126700516147927,1
670,856,20,0.117967258073339,1
670,857,20,0.117099248295948,1
671,858,20,0.104063943253086,1
673,854,20,0.10792512557922,1
673,855,20,0.117024192554595,1
673,856,20,0.115499085321591,1
673,857,20,0.107712439760211,1
673,858,20,0.104660128328921,1
674,856,20,0.106900624190716,1
674,857,20,0.115275133891233,1
674,858,20,0.113173450438583,1
675,830,20,0.10312483742942,1
675,857,20,0.106966422053436,1
675,858,20,0.113791319027747,1
676,830,20,0.110212345842936,1
676,845,20,0.103515218747833,1
677,842,20,0.132275008341014,1
677,846,20,0.106841284534899,1
678,841,20,0.120227228942475,1
678,846,20,0.130797841303631,1
679,845,20,0.189628258025956,1
679,846,20,0.133496044454236,1
680,844,20,0.19149038550342,1
680,845,20,0.195179995914933,1
682,831,20,0.119801600760833,1
683,831,20,0.10600872239401,1
683,832,20,0.182704792529378,1
683,833,20,0.184786844817698,1
684,831,20,0.132524290665801,1
657,841,21,0.118961755011814,1
658,840,21,0.117463451010563,1
658,841,21,0.141927529147594,1
663,833,21,0.10745874042345,1
663,834,21,0.113654748586802,1
664,833,21,0.116877338060518,1
664,834,21,0.123149383523439,1
667,833,21,0.104267070033554,1
668,833,21,0.109568744812799,1
668,834,21,0.126557007875042,1
669,833,21,0.137812290554438,1
669,834,21,0.15697201693527,1
669,855,21,0.136076527543282,1
669,857,21,0.125377565291245,1
670,835,21,0.123522141410237,1
670,856,21,0.12356889927437,1
670,857,21,0.10711182651833,1
673,856,21,0.130688386408417,1
673,857,21,0.103227923350297,1
674,857,21,0.123797791958022,1
675,857,21,0.128628519566605,1
677,845,21,0.152063445067674,1
682,831,21,0.111955682468059,1
