x,y,z,signal,mito.p
162,617,19,0.104479833931058,1
165,615,20,0.105561366082756,1
165,623,20,0.107974895042426,1
167,623,20,0.107461428554474,1
167,624,20,0.108836390842562,1
150,615,21,0.109250641872149,1
163,623,21,0.103864976940967,1
164,624,21,0.104026532500151,1
165,615,21,0.104648740022795,1
165,616,21,0.104080373199142,1
165,623,21,0.10341428556259,1
165,624,21,0.106331398503623,1
166,614,21,0.103145405535685,1
166,624,21,0.107297552948596,1
167,623,21,0.103543204311075,1
167,624,21,0.108656888383714,1
168,623,21,0.103566862094908,1
168,624,21,0.108080222931502,1
165,617,22,0.107112629611416,1
165,621,22,0.103005065018862,1
166,624,22,0.104443862053236,1
168,623,22,0.104842452767642,1
168,624,22,0.116245604961545,1
169,624,22,0.114141902622108,1
169,625,22,0.120862654038831,1
158,623,23,0.104878391183251,1
162,618,23,0.104379793071466,1
162,620,23,0.108667105512422,1
163,619,23,0.106980175022538,1
164,619,23,0.105572330534197,1
164,626,23,0.107396378014488,1
165,617,23,0.103668018361563,1
165,618,23,0.108583260363403,1
165,619,23,0.107405390503567,1
165,620,23,0.103454094440713,1
165,625,23,0.116681963359146,1
166,619,23,0.103079919986943,1
168,623,23,0.108172132473595,1
169,623,23,0.105767794468134,1
169,624,23,0.125993816540166,1
170,624,23,0.11061455047623,1
162,619,24,0.106473010584499,1
163,619,24,0.103019230688578,1
165,618,24,0.105055339359922,1
165,619,24,0.106420854150175,1
165,620,24,0.103487500882287,1
165,625,24,0.114162994969693,1
168,623,24,0.109299507855633,1
169,623,24,0.108340915870556,1
170,624,24,0.113020717749276,1
170,626,24,0.112312936196664,1
171,625,24,0.103295606250955,1
160,619,25,0.103976461877037,1
165,619,25,0.104580254029051,1
165,620,25,0.104407254393388,1
165,625,25,0.110222741436775,1
166,619,25,0.104625405707011,1
166,620,25,0.107343920420257,1
167,624,25,0.108438670145666,1
167,629,25,0.105034537018174,1
168,623,25,0.10879259996122,1
168,628,25,0.124491485919414,1
168,629,25,0.111944405702639,1
169,623,25,0.111027050316727,1
169,627,25,0.113304131530229,1
169,628,25,0.110436765744261,1
169,629,25,0.105140478381136,1
170,623,25,0.103144357053045,1
170,624,25,0.116305390780188,1
170,626,25,0.112124332016171,1
171,625,25,0.105639478039464,1
148,617,26,0.104328317035451,1
158,619,26,0.103962887373066,1
159,618,26,0.105178290680613,1
160,629,26,0.108226475105765,1
163,627,26,0.104016203830736,1
165,619,26,0.10582658757449,1
165,620,26,0.108729032912629,1
165,625,26,0.10492316362281,1
166,619,26,0.108509141563985,1
166,620,26,0.114310686019068,1
166,621,26,0.107356714139284,1
166,624,26,0.105079008297825,1
166,625,26,0.124965500459503,1
167,620,26,0.108010688455117,1
167,621,26,0.105209031299304,1
167,624,26,0.113060058156432,1
167,629,26,0.107691102023072,1
168,623,26,0.106552739881451,1
168,624,26,0.120697473406688,1
168,628,26,0.129592844743992,1
168,629,26,0.120187230445152,1
169,623,26,0.11288239611924,1
169,624,26,0.131260701773078,1
169,627,26,0.115636715399247,1
169,628,26,0.118273693856097,1
169,629,26,0.116692615496609,1
170,623,26,0.106186083271294,1
170,624,26,0.120030426520061,1
170,625,26,0.126723817001498,1
170,626,26,0.110041510096977,1
171,624,26,0.1038488927711,1
171,625,26,0.108581576098736,1
160,629,27,0.105026059924486,1
162,628,27,0.105965132285939,1
164,619,27,0.103337969411255,1
164,620,27,0.104699256808735,1
165,619,27,0.113934514986654,1
165,620,27,0.118430486627117,1
165,621,27,0.106552226794201,1
165,626,27,0.123069687688699,1
166,619,27,0.11965344124049,1
166,620,27,0.127812632761326,1
166,621,27,0.115626977895577,1
166,622,27,0.10638029794932,1
166,623,27,0.10345421713549,1
166,624,27,0.113392025606891,1
166,625,27,0.122247588066072,1
167,619,27,0.108850355739006,1
167,620,27,0.120154660558876,1
167,621,27,0.112937698001485,1
167,622,27,0.104092966144897,1
167,623,27,0.106584517828711,1
167,624,27,0.12362862932266,1
167,625,27,0.13478413884016,1
167,629,27,0.113152770791612,1
168,620,27,0.109473154427394,1
168,621,27,0.107245987680017,1
168,623,27,0.107601311754401,1
168,624,27,0.122467033251891,1
168,625,27,0.134539251219207,1
168,627,27,0.130837895571307,1
168,628,27,0.133909258155254,1
168,629,27,0.125901204291622,1
169,621,27,0.103395401720993,1
169,622,27,0.104795393743601,1
169,623,27,0.115572412181994,1
169,624,27,0.12905991440277,1
169,625,27,0.134788622776559,1
169,626,27,0.127602590457059,1
169,627,27,0.120258460340274,1
169,628,27,0.12764514323656,1
169,629,27,0.127883449955834,1
169,630,27,0.103765906485521,1
170,623,27,0.110744361550366,1
170,624,27,0.123870527652681,1
170,625,27,0.125780706866473,1
170,626,27,0.110881712776256,1
170,628,27,0.105001877899333,1
170,629,27,0.106393627063737,1
171,624,27,0.107178561322983,1
171,625,27,0.110918175433186,1
163,616,28,0.104698420253437,1
163,628,28,0.110936735806735,1
164,619,28,0.103946212037455,1
164,620,28,0.105898352865003,1
164,627,28,0.120153768233225,1
165,619,28,0.118095061414759,1
165,620,28,0.122888880203586,1
165,621,28,0.108380546283548,1
165,626,28,0.118801225627129,1
166,619,28,0.12720775866446,1
166,620,28,0.137058654617415,1
166,621,28,0.119391565969948,1
166,622,28,0.107389518261043,1
166,623,28,0.104571174615548,1
166,624,28,0.115158473466384,1
166,625,28,0.114504499150551,1
166,626,28,0.120582887638979,1
167,619,28,0.122000826561251,1
167,620,28,0.137908929422484,1
167,621,28,0.120736367651018,1
167,622,28,0.105230647888209,1
167,623,28,0.10924336941809,1
167,624,28,0.131126228297413,1
167,625,28,0.129424797515694,1
167,626,28,0.120874923516538,1
168,619,28,0.105943114150491,1
168,620,28,0.122508225234773,1
168,621,28,0.112496565661649,1
168,623,28,0.10732660930262,1
168,624,28,0.125179134374517,1
168,625,28,0.128431226365082,1
168,626,28,0.125965128270474,1
168,627,28,0.127457754849768,1
168,629,28,0.126002617101903,1
168,630,28,0.103332370067793,1
169,620,28,0.108576210990757,1
169,621,28,0.107408156713086,1
169,622,28,0.105747505213636,1
169,623,28,0.113469334470513,1
169,624,28,0.123997996371982,1
169,625,28,0.124507993943964,1
169,626,28,0.121921208805006,1
169,627,28,0.121438605630521,1
169,628,28,0.130270398765164,1
169,629,28,0.129494398916502,1
169,630,28,0.104676926359309,1
170,623,28,0.109648117179491,1
170,624,28,0.120831244175902,1
170,625,28,0.118380036765601,1
170,626,28,0.107481684346761,1
170,628,28,0.107738897215774,1
170,629,28,0.109896272943143,1
171,624,28,0.107872132589598,1
171,625,28,0.107374315262757,1
161,629,29,0.109500849984799,1
162,616,29,0.103540616566686,1
163,615,29,0.104540724002694,1
163,628,29,0.107942860551541,1
163,629,29,0.116155691998096,1
164,619,29,0.106393604755596,1
164,620,29,0.110370822878623,1
164,627,29,0.115327022627862,1
164,630,29,0.10725264666019,1
165,619,29,0.120331407962275,1
165,620,29,0.126659011851066,1
165,621,29,0.113490315277391,1
165,626,29,0.116740745311431,1
166,619,29,0.130131363274607,1
166,620,29,0.141553845472933,1
166,621,29,0.12204369165473,1
166,622,29,0.107870426016789,1
166,623,29,0.105775267695465,1
166,624,29,0.113401718494279,1
166,625,29,0.109833363984719,1
166,626,29,0.115708313378701,1
167,619,29,0.130906437335405,1
167,620,29,0.149335070155981,1
167,621,29,0.124216136531536,1
167,622,29,0.105532175879884,1
167,623,29,0.111947595766843,1
167,624,29,0.132400803949719,1
167,625,29,0.122609994975314,1
167,626,29,0.1127299422817,1
167,630,29,0.104887872143298,1
168,619,29,0.113454220704793,1
168,620,29,0.130646380178378,1
168,621,29,0.114912760444203,1
168,623,29,0.109552627180721,1
168,624,29,0.129411847639678,1
168,625,29,0.12551066681622,1
168,626,29,0.119071343755875,1
168,627,29,0.125379829567585,1
168,629,29,0.123577164440716,1
169,620,29,0.113435292246913,1
169,621,29,0.11048294359672,1
169,622,29,0.105789221437838,1
169,623,29,0.111864263705074,1
169,624,29,0.125220794828366,1
169,625,29,0.12532538654878,1
169,626,29,0.12198274581274,1
169,627,29,0.121705901779395,1
169,628,29,0.127232844169335,1
169,629,29,0.123505454920556,1
170,623,29,0.107763926950296,1
170,624,29,0.119014591844447,1
170,625,29,0.118068871656891,1
170,626,29,0.110976421990081,1
170,627,29,0.105555867125929,1
170,628,29,0.108805951383778,1
170,629,29,0.109864171527834,1
171,624,29,0.106478286459913,1
171,625,29,0.104689441226569,1
161,629,30,0.103209374130819,1
162,615,30,0.109921458834653,1
163,628,30,0.106998534622815,1
163,629,30,0.113078306216003,1
164,619,30,0.105192400579976,1
164,620,30,0.111344762864904,1
164,621,30,0.107311071682215,1
164,627,30,0.112504797365783,1
164,628,30,0.115711648445823,1
164,630,30,0.103865545798569,1
165,619,30,0.118358910955805,1
165,620,30,0.128454404523877,1
165,621,30,0.118834052057029,1
165,626,30,0.113451878349958,1
165,627,30,0.130414754747418,1
165,637,30,0.112525833943015,1
166,619,30,0.128033862598447,1
166,620,30,0.143389783192529,1
166,621,30,0.124461124539125,1
166,622,30,0.10557030049334,1
166,623,30,0.102926986524366,1
166,624,30,0.106566381309847,1
166,625,30,0.104487095231046,1
166,626,30,0.11199546903804,1
167,619,30,0.132465307940244,1
167,620,30,0.15110576771639,1
167,621,30,0.123879283598135,1
167,622,30,0.10491222147951,1
167,623,30,0.11217239490657,1
167,624,30,0.125956193859889,1
167,625,30,0.113471063351463,1
167,626,30,0.106910573621729,1
168,619,30,0.116356543348154,1
168,620,30,0.130762438283412,1
168,621,30,0.113677357887994,1
168,623,30,0.111791594934838,1
168,624,30,0.12979456611156,1
168,625,30,0.121016424056707,1
168,626,30,0.111002555977596,1
168,627,30,0.121351514646946,1
169,620,30,0.113335262541392,1
169,621,30,0.109527697832835,1
169,622,30,0.10440782325099,1
169,623,30,0.109818149832363,1
169,624,30,0.125554480005704,1
169,625,30,0.126257944932978,1
169,626,30,0.118521860773819,1
169,627,30,0.118069563209271,1
169,628,30,0.120600511070594,1
169,629,30,0.113771264008732,1
170,623,30,0.102996777544375,1
170,624,30,0.113393364095368,1
170,625,30,0.116085064422789,1
170,626,30,0.111037468218707,1
170,627,30,0.106088518615385,1
170,628,30,0.10573004909308,1
170,629,30,0.103478131462947,1
161,614,31,0.106160707760583,1
162,614,31,0.105848092622689,1
162,629,31,0.108999976442603,1
163,628,31,0.10886865956893,1
163,629,31,0.11352537252142,1
163,630,31,0.106925587000814,1
164,619,31,0.103172331462216,1
164,620,31,0.11159072127664,1
164,621,31,0.111489252696006,1
164,627,31,0.111967282701527,1
164,628,31,0.113688322339435,1
164,637,31,0.105196694897173,1
165,619,31,0.112620509694627,1
165,620,31,0.127602880462896,1
165,621,31,0.123480715191871,1
165,626,31,0.110497332347849,1
165,627,31,0.120496555132207,1
165,637,31,0.103148171745204,1
165,638,31,0.108338238893602,1
166,619,31,0.121015185954866,1
166,620,31,0.140023462364515,1
166,621,31,0.125361492275449,1
166,622,31,0.104486158289112,1
166,626,31,0.109140517732697,1
167,619,31,0.124952182499156,1
167,620,31,0.140063271242638,1
167,621,31,0.11892574967178,1
167,622,31,0.103576711139285,1
167,623,31,0.108899020949219,1
167,624,31,0.115229491434165,1
167,625,31,0.105360771276323,1
167,626,31,0.104684845749465,1
168,619,31,0.114819913960176,1
168,620,31,0.123849111837048,1
168,621,31,0.110166993391704,1
168,623,31,0.111559891425384,1
168,624,31,0.123586924252528,1
168,625,31,0.115019549516533,1
168,626,31,0.106752520440727,1
168,627,31,0.118134022583513,1
168,630,31,0.103165449400629,1
169,620,31,0.112034140200957,1
169,621,31,0.10709447078441,1
169,623,31,0.108151452826624,1
169,624,31,0.123100907932427,1
169,625,31,0.124704272125058,1
169,626,31,0.114259868073222,1
169,627,31,0.112982526211397,1
169,628,31,0.114245189316256,1
169,629,31,0.107144061782487,1
170,620,31,0.103694208119432,1
170,624,31,0.109476221796821,1
170,625,31,0.115147486706802,1
170,626,31,0.110611884653346,1
170,627,31,0.105807346802632,1
163,620,32,0.107102713642615,1
163,621,32,0.105990608183287,1
163,628,32,0.108125363455392,1
163,629,32,0.1114056306284,1
164,620,32,0.111874893534396,1
164,621,32,0.112602194710633,1
164,627,32,0.111490847728108,1
164,628,32,0.110263754954527,1
165,619,32,0.10763967060334,1
165,620,32,0.123569390053478,1
165,621,32,0.122649201533622,1
165,622,32,0.103469966683237,1
165,626,32,0.109206125976215,1
165,627,32,0.112574041836331,1
166,619,32,0.113824892780381,1
166,620,32,0.13187574838237,1
166,621,32,0.122969602212825,1
166,622,32,0.104715686754791,1
166,626,32,0.106139191558314,1
167,619,32,0.115898691056425,1
167,620,32,0.126012209602655,1
167,621,32,0.113554607340574,1
167,622,32,0.10346080919124,1
167,623,32,0.105073330875868,1
167,624,32,0.10577310380576,1
168,619,32,0.111658181095885,1
168,620,32,0.115971415597014,1
168,621,32,0.106807811168901,1
168,622,32,0.103226216777489,1
168,623,32,0.109556051480408,1
168,624,32,0.114745995934029,1
168,625,32,0.108422552513588,1
168,626,32,0.103201845133135,1
168,627,32,0.11210989864876,1
169,620,32,0.109162937414688,1
169,621,32,0.103501030769976,1
169,623,32,0.10560832472016,1
169,624,32,0.116376587213098,1
169,625,32,0.117979181774855,1
169,626,32,0.108590477047109,1
169,627,32,0.106376249021676,1
169,628,32,0.104825543196548,1
170,624,32,0.10481359718689,1
170,625,32,0.110734066343163,1
170,626,32,0.106905966990554,1
163,619,33,0.10440851480337,1
163,620,33,0.107829122493201,1
163,621,33,0.104628896931123,1
163,629,33,0.106490120928865,1
163,640,33,0.103040512655364,1
164,620,33,0.108581832642361,1
164,621,33,0.108113361675381,1
164,626,33,0.103338705579918,1
164,627,33,0.109761810621549,1
164,628,33,0.106597947329765,1
165,620,33,0.113649004240421,1
165,621,33,0.113824870472239,1
165,626,33,0.107536908150511,1
165,627,33,0.106572081039945,1
166,619,33,0.104811477913468,1
166,620,33,0.116685945362365,1
166,621,33,0.113130897659082,1
166,627,33,0.105117991774721,1
167,619,33,0.103644449810296,1
167,620,33,0.109136725348678,1
167,621,33,0.104070356843705,1
167,627,33,0.1090527128886,1
168,619,33,0.103225224065202,1
168,620,33,0.105045200309708,1
168,624,33,0.103478555317632,1
168,627,33,0.105179841096433,1
168,628,33,0.110046027495587,1
169,624,33,0.10325713586131,1
169,625,33,0.104143828707026,1
163,620,34,0.103375145928706,1
166,628,34,0.103345163786819,1
167,628,34,0.106943132353935,1
163,619,35,0.104710020486905,1
163,620,35,0.104599762498605,1
163,637,35,0.104234801307186,1
177,623,35,0.107701553387264,1
177,624,35,0.11578556647197,1
177,625,35,0.107571898470117,1
148,621,36,0.104922884771044,1
163,619,36,0.104060117406855,1
163,620,36,0.104333659835289,1
170,611,36,0.10894749654023,1
177,623,36,0.114150915111187,1
177,624,36,0.119422195047932,1
177,625,36,0.107882305102024,1
178,624,36,0.106247765281947,1
178,625,36,0.106857368704765,1
155,633,37,0.106319207104411,1
171,609,37,0.106198620446696,1
171,611,37,0.103272573095079,1
172,609,37,0.104199565598026,1
177,622,37,0.114771694912789,1
177,623,37,0.121088858591459,1
177,624,37,0.115805666107268,1
178,622,37,0.103504968156913,1
178,623,37,0.106042686539116,1
178,624,37,0.110496205786714,1
178,625,37,0.111254180657217,1
178,626,37,0.106244195979341,1
178,627,37,0.104536909310535,1
144,608,38,0.106903356938024,1
154,633,38,0.103319453653989,1
155,633,38,0.104458105801446,1
164,619,38,0.109590874488954,1
165,619,38,0.107516429276812,1
170,612,38,0.10410396405855,1
171,611,38,0.115455339056532,1
172,609,38,0.111525949588419,1
172,610,38,0.110137022403888,1
173,610,38,0.105143032663313,1
174,613,38,0.103886649300225,1
175,613,38,0.107291072433553,1
175,614,38,0.104566746449503,1
177,621,38,0.105539169482177,1
177,622,38,0.122702172215103,1
177,623,38,0.122568312213324,1
177,624,38,0.107683729182377,1
178,621,38,0.106709421111765,1
178,622,38,0.111007218379124,1
178,623,38,0.109326913407202,1
178,624,38,0.108333476105438,1
178,625,38,0.108038027082262,1
144,608,39,0.107639224440514,1
146,612,39,0.106014600589238,1
148,615,39,0.104241560673995,1
149,637,39,0.10793693774003,1
150,637,39,0.103165181702934,1
152,633,39,0.104030692968501,1
154,633,39,0.10558731045107,1
155,633,39,0.106345274167503,1
155,640,39,0.10302273306676,1
156,611,39,0.107746147361692,1
156,638,39,0.107842752767526,1
164,619,39,0.113137668179962,1
164,620,39,0.104162545237564,1
165,618,39,0.109476355645669,1
165,619,39,0.124054224042091,1
166,618,39,0.106890061285818,1
166,619,39,0.103971710242944,1
166,626,39,0.103693717340323,1
167,626,39,0.103171249517363,1
168,612,39,0.105103089936342,1
169,612,39,0.109456981024963,1
170,612,39,0.111271569853349,1
171,608,39,0.107999712849605,1
171,611,39,0.126258190322532,1
171,612,39,0.109014409810014,1
172,609,39,0.116641195230948,1
172,610,39,0.118123325829767,1
172,611,39,0.112269346088593,1
172,612,39,0.106162893958429,1
173,610,39,0.106736213189448,1
173,611,39,0.105164794255136,1
173,612,39,0.108334457663654,1
174,612,39,0.107565484879497,1
174,613,39,0.112618680427042,1
175,613,39,0.11272230174331,1
175,614,39,0.109868610847949,1
177,621,39,0.11491738938352,1
177,622,39,0.126599683349319,1
177,623,39,0.117463886019318,1
178,620,39,0.113568137228263,1
178,621,39,0.126382446669488,1
178,622,39,0.125675713599516,1
178,623,39,0.114819657416551,1
179,621,39,0.103910061694503,1
146,612,40,0.103866371199797,1
147,609,40,0.105486689579805,1
147,611,40,0.109967458221982,1
147,612,40,0.103547052465447,1
147,613,40,0.103421535708508,1
147,617,40,0.106057365296081,1
148,614,40,0.112228745271455,1
148,615,40,0.107810684814429,1
148,616,40,0.10587832015413,1
149,615,40,0.1043746510449,1
149,637,40,0.1107949564148,1
149,638,40,0.106714451597624,1
150,637,40,0.103411474736788,1
150,638,40,0.10581615851844,1
151,634,40,0.103864976940967,1
152,633,40,0.107269433536507,1
152,634,40,0.104123450219963,1
153,633,40,0.103255473904784,1
155,628,40,0.103644840202769,1
156,611,40,0.106630026436932,1
156,628,40,0.104054629604099,1
157,610,40,0.108335126907893,1
158,607,40,0.106432019374888,1
158,610,40,0.105158904905837,1
159,610,40,0.112953860249846,1
160,610,40,0.114099729081009,1
164,611,40,0.109581036598647,1
164,619,40,0.107043150905385,1
165,611,40,0.109293685430758,1
165,618,40,0.112076101814714,1
165,619,40,0.128150645718073,1
166,618,40,0.110596313570729,1
166,619,40,0.108415726222355,1
168,611,40,0.112920911125168,1
168,612,40,0.112815739393081,1
168,613,40,0.104345349301322,1
169,612,40,0.124003183014831,1
169,613,40,0.109598347716284,1
170,612,40,0.117389176054156,1
171,612,40,0.110984832159345,1
172,608,40,0.107718998353748,1
172,611,40,0.125196021637469,1
172,612,40,0.113094345769587,1
173,609,40,0.104699613738995,1
173,610,40,0.11308224360294,1
173,611,40,0.118680471658354,1
173,612,40,0.121674714997879,1
173,613,40,0.107735249834674,1
174,611,40,0.10803851786137,1
174,612,40,0.120302217759404,1
174,613,40,0.119436561490919,1
174,614,40,0.104759276862861,1
175,612,40,0.105616511808012,1
175,613,40,0.115943764655891,1
175,614,40,0.112720940946691,1
176,614,40,0.10403086027956,1
177,620,40,0.112495048708042,1
177,621,40,0.122549093749607,1
177,622,40,0.123397015045771,1
177,623,40,0.108205137368626,1
178,619,40,0.104006789795114,1
178,620,40,0.131874599513094,1
178,622,40,0.13956133806373,1
178,623,40,0.118151958329106,1
179,620,40,0.113241590656137,1
179,622,40,0.117944782620994,1
179,623,40,0.105197732225743,1
143,606,41,0.106685283702894,1
144,606,41,0.113877082676916,1
144,613,41,0.112973814882225,1
147,610,41,0.11582862118465,1
147,611,41,0.110008482893805,1
147,612,41,0.103716962423542,1
147,613,41,0.105787113318487,1
147,616,41,0.118577486124113,1
148,609,41,0.111317390775548,1
148,611,41,0.115245196365629,1
148,612,41,0.115548163232418,1
148,614,41,0.115669352209947,1
148,615,41,0.11170184928245,1
148,616,41,0.112035244453951,1
148,617,41,0.109882308046698,1
149,609,41,0.11466510661373,1
149,615,41,0.107013291458275,1
149,637,41,0.109198039275,1
149,638,41,0.106679695513503,1
150,608,41,0.10405933662191,1
150,614,41,0.123430209560002,1
150,635,41,0.104303220376506,1
151,613,41,0.118976734928687,1
151,625,41,0.10489016988185,1
151,633,41,0.115423349181929,1
151,634,41,0.108296578439753,1
152,613,41,0.104163381792862,1
152,633,41,0.11622225949169,1
152,634,41,0.110336301029985,1
152,635,41,0.104229636972478,1
153,613,41,0.103049703609573,1
153,634,41,0.105449289980941,1
153,637,41,0.104127644150524,1
154,613,41,0.102964598050572,1
155,612,41,0.106327115340497,1
155,614,41,0.106924081201277,1
156,611,41,0.109292268863787,1
156,614,41,0.103988887511733,1
156,629,41,0.105883372948131,1
157,610,41,0.108195199091684,1
158,607,41,0.105491720065664,1
158,609,41,0.107994793904452,1
159,607,41,0.104581391744257,1
159,608,41,0.11352501559116,1
159,609,41,0.116019065786798,1
160,606,41,0.105749222940515,1
160,609,41,0.126546790746333,1
160,610,41,0.104793999484771,1
162,610,41,0.108854181585236,1
164,611,41,0.111298083079266,1
165,611,41,0.121107195883595,1
165,618,41,0.107912699944524,1
165,619,41,0.120258281875144,1
166,611,41,0.109444332308854,1
166,618,41,0.10828923906127,1
166,619,41,0.106341827559674,1
167,611,41,0.104779766890631,1
168,611,41,0.119319945682353,1
168,612,41,0.12103817449446,1
168,613,41,0.107019638124471,1
168,617,41,0.104257377146166,1
169,612,41,0.139374696999671,1
169,613,41,0.118287446825199,1
169,617,41,0.107270270091805,1
169,618,41,0.105184380803184,1
170,612,41,0.125207198016253,1
171,612,41,0.112439211430406,1
171,616,41,0.103953540261867,1
172,612,41,0.118419477559393,1
172,615,41,0.103700476707133,1
172,616,41,0.113089806062835,1
173,611,41,0.137078308089887,1
173,612,41,0.136332033839487,1
173,613,41,0.114923133729901,1
173,616,41,0.103270799597847,1
174,610,41,0.103812742428148,1
174,611,41,0.125688942327298,1
174,612,41,0.138313922573439,1
174,613,41,0.126923887566611,1
174,614,41,0.108349404118315,1
175,612,41,0.114422092876645,1
175,613,41,0.117984390725845,1
175,614,41,0.113859314242383,1
175,615,41,0.103422059949828,1
176,614,41,0.108228672457682,1
176,615,41,0.104247450023294,1
177,619,41,0.112678711635239,1
177,620,41,0.125763362286624,1
177,622,41,0.112414237466238,1
178,619,41,0.114584172677149,1
178,623,41,0.117792406861949,1
179,623,41,0.122104615188578,1
180,622,41,0.104390144049022,1
143,606,42,0.110875477650767,1
143,607,42,0.104840143875019,1
144,605,42,0.104253049366757,1
144,606,42,0.122728529284031,1
144,613,42,0.104135451999974,1
145,605,42,0.107173028903945,1
145,606,42,0.107128457237658,1
146,613,42,0.122078235811509,1
147,610,42,0.110242361447035,1
147,611,42,0.107525653693233,1
147,612,42,0.103879432616519,1
147,613,42,0.110518737009412,1
147,614,42,0.124428409649931,1
147,616,42,0.123891798465396,1
148,609,42,0.103961872352637,1
148,610,42,0.112433054383411,1
148,611,42,0.110208274607151,1
148,612,42,0.111387873347937,1
148,613,42,0.118641967806497,1
148,614,42,0.122487612512226,1
148,615,42,0.120134616693932,1
148,616,42,0.119293019755822,1
148,617,42,0.119543930574923,1
149,609,42,0.108337480416798,1
149,610,42,0.114086321888097,1
149,611,42,0.119841041554624,1
149,612,42,0.13316828208841,1
149,614,42,0.130367595336742,1
149,615,42,0.114362764374898,1
149,616,42,0.106331130805928,1
149,637,42,0.108813524997745,1
150,609,42,0.115568854033459,1
150,613,42,0.14115964946236,1
150,614,42,0.122816445668834,1
150,615,42,0.10340924392266,1
150,635,42,0.109182892047067,1
151,608,42,0.106706956062153,1
151,613,42,0.121535211036355,1
151,614,42,0.106476535270822,1
151,633,42,0.121613133373863,1
151,634,42,0.11670687039889,1
151,635,42,0.105218768802975,1
152,613,42,0.108422385202528,1
152,625,42,0.104909555656626,1
152,634,42,0.121932585957061,1
152,635,42,0.108380780519032,1
153,607,42,0.103526607053959,1
153,613,42,0.105758670438349,1
153,635,42,0.106757004377125,1
154,607,42,0.10561578679342,1
154,613,42,0.106272426932137,1
155,612,42,0.112655221162467,1
155,613,42,0.108548838901401,1
155,614,42,0.121073332125124,1
156,611,42,0.112557288422226,1
156,614,42,0.112806035351622,1
157,607,42,0.118581914290158,1
157,610,42,0.109032010933488,1
158,607,42,0.104433377226832,1
158,608,42,0.10834358169344,1
158,609,42,0.105104394962608,1
159,608,42,0.107116243530304,1
159,609,42,0.106343210664434,1
160,607,42,0.110784449280255,1
160,608,42,0.115614674955658,1
160,609,42,0.112477748744475,1
161,606,42,0.111560627594046,1
161,608,42,0.120321224295779,1
161,609,42,0.112928819361254,1
162,606,42,0.109002341105579,1
162,610,42,0.104822431210839,1
164,611,42,0.114675290280227,1
165,611,42,0.130476581760989,1
165,612,42,0.108071043131363,1
165,618,42,0.105117155219422,1
165,619,42,0.109662795936456,1
166,611,42,0.123331094488274,1
166,612,42,0.108989301996998,1
166,618,42,0.105909261546092,1
167,611,42,0.119319834141647,1
167,612,42,0.110046696739826,1
168,612,42,0.13224958821402,1
168,613,42,0.10932115790675,1
168,617,42,0.105837763953274,1
169,613,42,0.122265267268041,1
169,617,42,0.112369777340657,1
169,618,42,0.110105099453709,1
170,613,42,0.107185844931113,1
170,617,42,0.115816675174992,1
170,618,42,0.108484714149278,1
171,612,42,0.11255717688152,1
171,615,42,0.104865128993258,1
171,616,42,0.115873003231736,1
171,617,42,0.108145340395912,1
172,612,42,0.118236216178739,1
172,615,42,0.123549580424017,1
172,616,42,0.130815442427104,1
172,617,42,0.104435831122373,1
173,612,42,0.143310656215392,1
173,613,42,0.119664851854757,1
173,614,42,0.106457149496046,1
173,615,42,0.11410165873523,1
173,616,42,0.116922746282103,1
173,617,42,0.10375998367401,1
174,610,42,0.114775041133982,1
174,611,42,0.141231950148264,1
174,612,42,0.151582381154939,1
174,613,42,0.131106853676707,1
174,614,42,0.110717234850564,1
174,615,42,0.105630755556222,1
174,616,42,0.108782572451712,1
174,617,42,0.110020596214523,1
175,611,42,0.108276590345161,1
175,612,42,0.121839594470115,1
175,613,42,0.117633026346539,1
175,614,42,0.112510508249952,1
175,615,42,0.111346659056914,1
175,616,42,0.110153976591264,1
175,617,42,0.10474727508285,1
176,614,42,0.109298849765466,1
176,615,42,0.112625027093238,1
176,616,42,0.105332306088043,1
177,619,42,0.123013984259911,1
177,620,42,0.130529463209904,1
177,622,42,0.104196241684975,1
178,619,42,0.121794074707824,1
178,623,42,0.112152328733484,1
180,620,42,0.109808222709492,1
180,623,42,0.108986691944468,1
143,606,43,0.111536668650307,1
144,605,43,0.114017222420467,1
144,606,43,0.133705774444525,1
145,604,43,0.112474201750011,1
145,605,43,0.111483106803082,1
145,606,43,0.109154728018695,1
146,605,43,0.103074945271437,1
146,613,43,0.124505986211249,1
147,611,43,0.104414080684621,1
147,612,43,0.106699984768001,1
147,613,43,0.120152184355193,1
147,614,43,0.134939570814562,1
148,610,43,0.10800882572532,1
148,611,43,0.109349176932204,1
148,612,43,0.109947057426777,1
148,613,43,0.118517220680432,1
148,614,43,0.128017220725049,1
148,615,43,0.127221690098692,1
148,616,43,0.125624438336773,1
149,609,43,0.106530420586096,1
149,610,43,0.112310158833074,1
149,611,43,0.115976513007297,1
149,612,43,0.121132571394306,1
149,613,43,0.125954799601059,1
149,614,43,0.126230082064513,1
149,615,43,0.1200807536868,1
149,616,43,0.113861556210582,1
149,617,43,0.109933527539088,1
150,609,43,0.114755878440618,1
150,610,43,0.121601789684019,1
150,611,43,0.131369030107157,1
150,612,43,0.136030416615246,1
150,613,43,0.130473246693867,1
150,614,43,0.12141618594853,1
150,615,43,0.109130189063282,1
150,635,43,0.115144218564103,1
151,608,43,0.107007859425872,1
151,609,43,0.114758622341996,1
151,612,43,0.142194713755762,1
151,613,43,0.131036817267144,1
151,614,43,0.120842810947158,1
151,615,43,0.105765764427277,1
151,634,43,0.126197802184074,1
151,635,43,0.108480709837917,1
152,608,43,0.106408026968937,1
152,612,43,0.139033538595003,1
152,613,43,0.122568814146503,1
152,614,43,0.113242772987625,1
152,635,43,0.109518584957121,1
153,608,43,0.105850591134513,1
153,613,43,0.111154195567979,1
153,619,43,0.10332121599715,1
154,607,43,0.103127748641858,1
154,608,43,0.110042926663949,1
154,613,43,0.108903750275171,1
154,614,43,0.106332859686878,1
155,612,43,0.125446051284989,1
155,613,43,0.115189180622863,1
155,614,43,0.126045125265121,1
155,615,43,0.121095216411725,1
156,611,43,0.120784095919297,1
156,612,43,0.110152649256858,1
156,613,43,0.10726150299228,1
156,614,43,0.113804692758447,1
156,615,43,0.1056371468387,1
157,606,43,0.103582332790889,1
157,610,43,0.115353591624132,1
158,607,43,0.110653823958962,1
158,608,43,0.113427874789935,1
158,609,43,0.111696874566943,1
158,637,43,0.104115207361758,1
159,607,43,0.104830049441087,1
159,608,43,0.104625517247718,1
160,607,43,0.109881315334411,1
160,608,43,0.108657446087246,1
160,609,43,0.103433158250117,1
161,606,43,0.10814843007348,1
161,607,43,0.116169612278258,1
161,608,43,0.115133242958591,1
161,609,43,0.106081536167163,1
162,606,43,0.106179513523686,1
162,607,43,0.117433981955926,1
162,608,43,0.12203987696257,1
162,609,43,0.114187723544307,1
162,610,43,0.104645315723108,1
163,610,43,0.123537344408522,1
163,611,43,0.107804683924423,1
164,611,43,0.123293616810916,1
164,612,43,0.108365722523665,1
165,612,43,0.119796938359304,1
165,613,43,0.103369011189853,1
166,612,43,0.128892815270476,1
166,613,43,0.109303534475135,1
167,613,43,0.109596328829498,1
167,617,43,0.104301424571133,1
168,613,43,0.114264932021293,1
168,617,43,0.108989134685938,1
168,618,43,0.103692802706531,1
169,618,43,0.113500342786899,1
170,613,43,0.117297723828959,1
170,614,43,0.104543021741247,1
170,616,43,0.114980922969899,1
170,618,43,0.119411788300022,1
171,613,43,0.107113878867328,1
171,614,43,0.106000468381734,1
171,615,43,0.121314059277728,1
171,618,43,0.106798999453094,1
172,613,43,0.108399954366466,1
172,614,43,0.117270240198896,1
173,613,43,0.127098225690752,1
173,614,43,0.123716010312072,1
173,616,43,0.1303819729338,1
173,617,43,0.11413204242366,1
173,618,43,0.106848746608159,1
174,612,43,0.160556834853098,1
174,613,43,0.13695404058886,1
174,614,43,0.120159211419698,1
174,615,43,0.120576451740218,1
174,616,43,0.120293930284917,1
174,617,43,0.121498647992789,1
174,618,43,0.116536224272132,1
175,611,43,0.11588991280283,1
175,612,43,0.128645027591155,1
175,613,43,0.119516413482648,1
175,614,43,0.113608347652929,1
175,615,43,0.119797306443635,1
175,616,43,0.121792501983863,1
175,617,43,0.117778129651526,1
175,618,43,0.10532633866025,1
176,613,43,0.102935084379652,1
176,614,43,0.108311625281049,1
176,615,43,0.119310386643812,1
176,616,43,0.118558267660396,1
176,617,43,0.106300981352982,1
177,615,43,0.104302829984034,1
177,616,43,0.104939013557193,1
177,619,43,0.12526011292738,1
178,623,43,0.10453560428427,1
180,623,43,0.117837168147436,1
143,616,44,0.109389286970234,1
144,605,44,0.110629184616913,1
144,606,44,0.128486940947941,1
144,614,44,0.113874149156337,1
145,604,44,0.11599548608146,1
145,605,44,0.109184364384392,1
145,606,44,0.106245344848617,1
145,613,44,0.109199031987287,1
146,605,44,0.103924015436877,1
146,613,44,0.125594076956484,1
147,612,44,0.10951492642195,1
147,613,44,0.129449113389694,1
147,614,44,0.142664043586182,1
148,611,44,0.1075926115793,1
148,612,44,0.109508579755754,1
148,613,44,0.120349254475303,1
148,614,44,0.132119576366612,1
148,615,44,0.131734649388744,1
148,616,44,0.129077961689069,1
149,610,44,0.109350760810235,1
149,611,44,0.111771539915823,1
149,612,44,0.110822116576814,1
149,613,44,0.114654041775653,1
149,614,44,0.122370985549589,1
149,615,44,0.124696464275609,1
149,616,44,0.120921592148105,1
149,617,44,0.118218447744205,1
150,609,44,0.109246224860175,1
150,610,44,0.11436105780209,1
150,611,44,0.120952254688301,1
150,612,44,0.122752354378923,1
150,613,44,0.12185357052063,1
150,614,44,0.120416212361369,1
150,615,44,0.116321341101207,1
150,616,44,0.110845417430386,1
150,617,44,0.103192330710877,1
150,619,44,0.103690159191789,1
150,620,44,0.107309733193738,1
150,621,44,0.108918038639664,1
150,636,44,0.105808161049789,1
151,609,44,0.109202367054409,1
151,610,44,0.117437149711989,1
151,611,44,0.132524558363496,1
151,612,44,0.138956720510489,1
151,613,44,0.138436650812717,1
151,614,44,0.134367266603972,1
151,615,44,0.119846629744016,1
151,616,44,0.10453473426676,1
151,620,44,0.104295724841034,1
151,621,44,0.104131157682777,1
151,635,44,0.113510169523135,1
152,609,44,0.109330672329008,1
152,610,44,0.123855871203857,1
152,611,44,0.141265077738072,1
152,612,44,0.142152584830946,1
152,613,44,0.139216052652924,1
152,614,44,0.139434036655489,1
152,615,44,0.122070472578342,1
152,618,44,0.103168527924127,1
152,619,44,0.112875212897746,1
152,620,44,0.105579056438794,1
152,636,44,0.104172996601756,1
153,609,44,0.115649152188014,1
153,612,44,0.138401192022145,1
153,613,44,0.120592390907166,1
153,614,44,0.115771066180135,1
153,615,44,0.107057785046068,1
153,618,44,0.121314070431799,1
154,608,44,0.106423776516684,1
154,613,44,0.113965947157724,1
154,614,44,0.109309825370978,1
154,615,44,0.113021018909184,1
154,618,44,0.1116758045275,1
154,620,44,0.107820857326855,1
155,607,44,0.109139435787845,1
155,608,44,0.116804089278609,1
155,612,44,0.139136501821103,1
155,613,44,0.120289245575247,1
155,614,44,0.122513913810801,1
155,615,44,0.133397877478513,1
156,606,44,0.104473431494509,1
156,611,44,0.131455976087814,1
156,612,44,0.128420730384608,1
156,613,44,0.112366776895654,1
156,614,44,0.107233361272049,1
156,615,44,0.110923261689399,1
157,606,44,0.104730666671664,1
157,607,44,0.123653335589133,1
157,608,44,0.131604804852396,1
157,609,44,0.132608682364281,1
157,610,44,0.118903441530496,1
157,611,44,0.103480975750961,1
158,607,44,0.114689612106932,1
158,608,44,0.120599462587953,1
158,609,44,0.119532876890916,1
158,610,44,0.104113969259917,1
159,607,44,0.107692730517386,1
159,608,44,0.106518586117144,1
159,609,44,0.103506875502993,1
159,623,44,0.103844687686468,1
160,607,44,0.109610661810274,1
160,608,44,0.104632878934342,1
161,606,44,0.104077227751221,1
161,607,44,0.112682782871024,1
161,608,44,0.109527865143895,1
162,607,44,0.110034070331859,1
162,608,44,0.111120956437465,1
162,609,44,0.105034414323397,1
162,610,44,0.104189002693128,1
162,611,44,0.103109534044499,1
163,607,44,0.107126538737507,1
163,610,44,0.125353227109103,1
163,611,44,0.123030090737919,1
163,612,44,0.119462171237114,1
163,613,44,0.112226269067772,1
164,613,44,0.118042302660621,1
165,612,44,0.132860452046821,1
165,613,44,0.118733888502661,1
165,614,44,0.104821895815448,1
166,614,44,0.11354203670296,1
166,615,44,0.105808506825979,1
166,616,44,0.103518788050439,1
166,617,44,0.104308373557143,1
167,614,44,0.112061534598455,1
167,615,44,0.104257165218824,1
167,616,44,0.107269433536507,1
167,617,44,0.110055329990503,1
168,614,44,0.105388756839565,1
168,616,44,0.11280495340677,1
168,618,44,0.107554721201327,1
169,614,44,0.109140305805355,1
169,615,44,0.106427122737876,1
173,613,44,0.13526076343278,1
173,618,44,0.115298233971534,1
173,619,44,0.105335083451633,1
174,613,44,0.140470428283297,1
174,614,44,0.135656666016161,1
174,616,44,0.127753962349747,1
174,617,44,0.123654172144431,1
174,618,44,0.119959810098824,1
174,619,44,0.10495754046853,1
175,612,44,0.129303251607904,1
175,613,44,0.121314996219662,1
175,614,44,0.11929332091573,1
175,615,44,0.127082342294157,1
175,616,44,0.128338112183359,1
175,617,44,0.122272539722099,1
175,618,44,0.111439907087484,1
176,613,44,0.103729733834428,1
176,614,44,0.10756136902743,1
176,615,44,0.121694368470351,1
176,616,44,0.128897934988901,1
176,617,44,0.11812320313499,1
177,615,44,0.107987900688795,1
177,616,44,0.119881898915387,1
177,617,44,0.116251862395175,1
177,618,44,0.107734759055566,1
177,619,44,0.120225611602232,1
177,622,44,0.103353183563611,1
178,616,44,0.104280968005575,1
178,617,44,0.103203752479215,1
178,618,44,0.104916538104848,1
144,605,45,0.111105340738565,1
144,606,45,0.128902898550337,1
144,614,45,0.103941293092302,1
144,615,45,0.122578473571679,1
145,604,45,0.112969710184229,1
145,605,45,0.107205029932618,1
145,606,45,0.111281351973302,1
145,613,45,0.104271721281012,1
145,614,45,0.129275712207488,1
146,612,45,0.10430277421368,1
146,613,45,0.128693703955439,1
147,611,45,0.103904216961487,1
147,612,45,0.118892075532511,1
147,613,45,0.141461924776769,1
147,614,45,0.152769497739338,1
148,610,45,0.104125636417809,1
148,611,45,0.112606912882514,1
148,612,45,0.116694355531629,1
148,613,45,0.129307512462889,1
148,614,45,0.137438506493141,1
148,615,45,0.136110937851214,1
149,610,45,0.110426582077764,1
149,611,45,0.113211708900886,1
149,612,45,0.111148674303011,1
149,613,45,0.116759841080371,1
149,614,45,0.124551082118856,1
149,615,45,0.128718644457395,1
149,616,45,0.129617216388346,1
150,609,45,0.10701858964183,1
150,610,45,0.110260932974654,1
150,611,45,0.11598749976688,1
150,612,45,0.119545380604106,1
150,613,45,0.125007205529635,1
150,614,45,0.12818757684597,1
150,615,45,0.129394268824346,1
150,616,45,0.128837870318492,1
150,617,45,0.117126988469636,1
150,618,45,0.115287771453271,1
151,609,45,0.107701464154699,1
151,610,45,0.112610114100789,1
151,611,45,0.127689871059836,1
151,612,45,0.140362468033549,1
151,613,45,0.150753801017269,1
151,614,45,0.153315500651353,1
151,615,45,0.139133289448758,1
151,616,45,0.121402366055004,1
151,617,45,0.105190448617614,1
151,618,45,0.107439008872483,1
151,635,45,0.11845901873982,1
151,636,45,0.106532082542621,1
152,609,45,0.108590175887201,1
152,610,45,0.119872362184988,1
152,611,45,0.138051846529625,1
152,612,45,0.147601805656649,1
152,613,45,0.158528277487579,1
152,615,45,0.145234097619177,1
152,616,45,0.110944777891668,1
152,618,45,0.121383660678537,1
152,635,45,0.11115698408564,1
152,636,45,0.105155904460834,1
153,609,45,0.113941620129653,1
153,610,45,0.132114969735437,1
153,611,45,0.146831806697993,1
153,612,45,0.141037824702804,1
153,613,45,0.13339089503029,1
153,614,45,0.133980354201529,1
153,615,45,0.122948108318697,1
153,616,45,0.103653506915658,1
153,617,45,0.111652570598352,1
154,608,45,0.106662719017985,1
154,609,45,0.121759709016174,1
154,612,45,0.140840085338456,1
154,613,45,0.119901786623342,1
154,614,45,0.111511125828536,1
154,615,45,0.119053787248684,1
154,616,45,0.106059618418351,1
154,617,45,0.10824792438361,1
154,621,45,0.109178988122342,1
155,607,45,0.111299231948542,1
155,608,45,0.116850356363634,1
155,609,45,0.12926933207908,1
155,611,45,0.154050308517132,1
155,612,45,0.151673777609783,1
155,613,45,0.124980625379294,1
155,614,45,0.115953134075231,1
155,615,45,0.136048753907382,1
155,616,45,0.114706454753602,1
155,618,45,0.103416047905752,1
155,620,45,0.106523482754156,1
155,621,45,0.10397563647581,1
156,606,45,0.107342682318416,1
156,607,45,0.121537397234201,1
156,608,45,0.12618697158148,1
156,609,45,0.132041821340164,1
156,610,45,0.135399955080327,1
156,611,45,0.142646052070236,1
156,612,45,0.143848695120969,1
156,613,45,0.115957439546499,1
156,615,45,0.114468047647691,1
157,606,45,0.108956743264793,1
157,607,45,0.128079505055516,1
157,608,45,0.136275605396107,1
157,609,45,0.137063584716639,1
157,610,45,0.124888213904022,1
157,611,45,0.114839690127425,1
157,612,45,0.108795533481798,1
158,606,45,0.106797872891959,1
158,607,45,0.126649285501466,1
158,608,45,0.136352702332388,1
158,609,45,0.134532569930892,1
158,610,45,0.114983867644549,1
159,606,45,0.10444550170162,1
159,607,45,0.117545623048986,1
159,608,45,0.117050583085735,1
159,609,45,0.112724956412123,1
159,610,45,0.103621706660256,1
159,623,45,0.103364728026726,1
160,606,45,0.10758237214245,1
160,607,45,0.117715968015836,1
160,608,45,0.109290562290978,1
160,618,45,0.104607057260805,1
161,606,45,0.10778065805626,1
161,607,45,0.118708390297172,1
161,608,45,0.112480068791169,1
161,609,45,0.103794483214507,1
161,618,45,0.10390722856056,1
162,606,45,0.103502436182877,1
162,607,45,0.114137262528721,1
162,608,45,0.112557935358324,1
162,609,45,0.107687555028608,1
162,610,45,0.111916197057984,1
162,611,45,0.116101483214774,1
162,612,45,0.116275720952279,1
162,613,45,0.116840708092528,1
162,614,45,0.111651142877309,1
162,618,45,0.106095791069444,1
162,619,45,0.104793397164956,1
163,607,45,0.10735873302607,1
163,614,45,0.11881774480575,1
163,615,45,0.104299517225053,1
163,618,45,0.106673783856062,1
163,619,45,0.104690266627797,1
164,614,45,0.116711019713169,1
164,615,45,0.108306739798108,1
164,616,45,0.108661785020726,1
164,617,45,0.109742290997924,1
164,618,45,0.106747690728139,1
165,614,45,0.122682607975196,1
165,615,45,0.121324287560507,1
165,616,45,0.120844874450227,1
165,617,45,0.117885030264563,1
165,618,45,0.109259275122826,1
166,617,45,0.119001753509138,1
166,618,45,0.110883698200831,1
167,618,45,0.113133184243564,1
173,619,45,0.111447503009591,1
174,619,45,0.111690527900748,1
175,612,45,0.12771841432661,1
175,613,45,0.130292662290166,1
175,614,45,0.138953474675932,1
175,618,45,0.122218609790544,1
175,619,45,0.1104763403869,1
175,634,45,0.104787507815657,1
176,612,45,0.105847311837744,1
176,613,45,0.111070618116656,1
176,614,45,0.114028577264381,1
176,615,45,0.125375089087562,1
176,616,45,0.139932445148073,1
176,618,45,0.119803329641782,1
176,619,45,0.108845492564206,1
176,620,45,0.108005011033161,1
176,621,45,0.104142267137136,1
177,613,45,0.105489779257373,1
177,615,45,0.111928868082234,1
177,616,45,0.137466871294785,1
177,618,45,0.120395878490588,1
177,619,45,0.118986583973064,1
177,622,45,0.108075917460234,1
178,616,45,0.114533644737139,1
178,617,45,0.116580439008159,1
178,618,45,0.109191190675625,1
180,619,45,0.107515893881421,1
144,604,46,0.109143741259113,1
144,605,46,0.114552974741562,1
144,606,46,0.122621606362853,1
144,607,46,0.103845256544071,1
145,604,46,0.113883328956476,1
145,605,46,0.112023911918178,1
145,606,46,0.116002803151801,1
145,607,46,0.10311806690854,1
145,614,46,0.121817899802716,1
146,604,46,0.106135733796415,1
146,612,46,0.105220308064723,1
146,613,46,0.127574181039133,1
147,611,46,0.103741255989401,1
147,612,46,0.123564928425221,1
147,613,46,0.145392808890348,1
148,611,46,0.111985564223309,1
148,612,46,0.120437862412486,1
148,613,46,0.134239017099726,1
148,614,46,0.139317175457368,1
149,610,46,0.109796399394611,1
149,611,46,0.111717743833115,1
149,612,46,0.112603689356099,1
149,613,46,0.120556575186333,1
149,614,46,0.125837626088961,1
149,615,46,0.130277425829669,1
149,616,46,0.136332123072052,1
150,610,46,0.106715120841863,1
150,611,46,0.111449823056285,1
150,612,46,0.118899727224972,1
150,613,46,0.12867461934057,1
150,614,46,0.135955684341942,1
150,615,46,0.143540285067707,1
150,616,46,0.145552970190702,1
150,617,46,0.127923147293251,1
151,609,46,0.10319671426064,1
151,610,46,0.107832468714393,1
151,611,46,0.121454946344012,1
151,612,46,0.13914340619083,1
151,613,46,0.155861684973174,1
151,616,46,0.137259227115706,1
151,617,46,0.112937073373529,1
152,609,46,0.104916437718213,1
152,610,46,0.115563857009811,1
152,611,46,0.133605142419189,1
152,612,46,0.151248082503716,1
152,616,46,0.121212735700013,1
152,617,46,0.108487056504113,1
152,635,46,0.115422691091761,1
152,636,46,0.10881535426533,1
152,637,46,0.1108204880825,1
153,609,46,0.109284494476549,1
153,610,46,0.12518439909586,1
153,611,46,0.13960994750359,1
153,612,46,0.144375513031479,1
153,613,46,0.148202809291002,1
153,615,46,0.137083505886806,1
153,616,46,0.115732584636419,1
153,636,46,0.108257572654716,1
154,608,46,0.104485098652401,1
154,609,46,0.11771256602429,1
154,610,46,0.134410879020184,1
154,611,46,0.146574236898719,1
154,612,46,0.146119730828183,1
154,613,46,0.129830493373099,1
154,614,46,0.122266103823339,1
154,615,46,0.124862470308979,1
154,616,46,0.120629589732758,1
154,622,46,0.107999322457133,1
154,623,46,0.103250733424761,1
155,607,46,0.107884402067304,1
155,608,46,0.113093096513675,1
155,609,46,0.125108785650975,1
155,610,46,0.139738308548542,1
155,611,46,0.156662346472025,1
155,612,46,0.160476001303152,1
155,613,46,0.129537977870502,1
155,614,46,0.114281395429562,1
155,615,46,0.132253190978838,1
155,616,46,0.12580080650177,1
155,617,46,0.11037390140212,1
155,621,46,0.114123041088652,1
155,622,46,0.108147415053052,1
155,623,46,0.105629941309065,1
156,606,46,0.104978175499218,1
156,607,46,0.115484696570462,1
156,608,46,0.120829738376365,1
156,609,46,0.127576400699191,1
156,610,46,0.135650665126156,1
156,611,46,0.150585831867465,1
156,612,46,0.151128243168734,1
156,613,46,0.117437283560836,1
156,615,46,0.115531387510171,1
156,616,46,0.109893685198753,1
156,622,46,0.104795605670944,1
157,606,46,0.107082614007318,1
157,607,46,0.124421371431355,1
157,608,46,0.135647452753811,1
157,609,46,0.136700028938121,1
157,610,46,0.12978172777625,1
157,611,46,0.127184970898137,1
157,612,46,0.118008204666667,1
158,606,46,0.108929761567909,1
158,607,46,0.131986162527659,1
158,608,46,0.148462241820073,1
158,609,46,0.145356357387488,1
158,610,46,0.124362979871543,1
158,611,46,0.105363024398593,1
158,623,46,0.103792520098074,1
159,606,46,0.108651344810604,1
159,607,46,0.125250152342297,1
159,608,46,0.130228615616538,1
159,609,46,0.124547088961566,1
159,610,46,0.111808906052475,1
159,618,46,0.103271390763591,1
160,606,46,0.111419104745736,1
160,607,46,0.123526067643103,1
160,608,46,0.11660198867264,1
160,609,46,0.108606036975655,1
160,610,46,0.106026211976777,1
160,618,46,0.110701228759192,1
161,606,46,0.110611895807417,1
161,607,46,0.1232745879664,1
161,608,46,0.116109324526436,1
161,609,46,0.107788555138274,1
161,610,46,0.107491544545209,1
161,611,46,0.103293297358332,1
161,612,46,0.104057797360162,1
161,613,46,0.115400527953395,1
161,614,46,0.120061524069012,1
161,615,46,0.109487922416925,1
161,617,46,0.105396631613438,1
161,618,46,0.116559848593753,1
161,619,46,0.104804506619316,1
162,606,46,0.10603042821548,1
162,607,46,0.117300657349538,1
162,608,46,0.113537608536915,1
162,609,46,0.109840792595767,1
162,610,46,0.118063461932629,1
162,614,46,0.142313861538364,1
162,615,46,0.121458660649536,1
162,616,46,0.10572553169447,1
162,617,46,0.111496357839005,1
162,620,46,0.11054111207512,1
163,607,46,0.106958078808595,1
163,615,46,0.120716479943062,1
163,616,46,0.114132923595241,1
163,617,46,0.118692294973235,1
163,621,46,0.103021361116071,1
164,606,46,0.103915114488504,1
164,615,46,0.124648457155564,1
166,619,46,0.105371055329455,1
167,619,46,0.113180388270522,1
167,642,46,0.108379999734087,1
168,643,46,0.104511812651589,1
170,622,46,0.105770114514828,1
170,639,46,0.105754543432211,1
171,621,46,0.103832540903539,1
171,638,46,0.109836732514053,1
171,639,46,0.11504935319329,1
172,638,46,0.111464401426615,1
172,639,46,0.113466289409228,1
173,635,46,0.105242158889112,1
173,636,46,0.105975293644295,1
173,637,46,0.104433366072761,1
174,633,46,0.107192403524651,1
174,634,46,0.120441186325538,1
174,635,46,0.123622673048937,1
174,636,46,0.116238522126687,1
175,620,46,0.107346853940836,1
175,633,46,0.120452719634582,1
175,634,46,0.128438878057543,1
175,635,46,0.123015311594317,1
175,636,46,0.10927027303648,1
176,612,46,0.106162191251978,1
176,613,46,0.114267196297634,1
176,614,46,0.120700942322658,1
176,633,46,0.105072048157745,1
176,634,46,0.108434888915718,1
176,635,46,0.106274222737511,1
177,615,46,0.112715129675887,1
178,616,46,0.119413751416455,1
180,619,46,0.107688503124612,1
180,623,46,0.106032904419162,1
144,604,47,0.112547539764485,1
144,605,47,0.110888672916337,1
144,606,47,0.112736500875238,1
144,607,47,0.104567616467013,1
145,603,47,0.103912314816773,1
145,604,47,0.116458045391,1
145,605,47,0.111834025019562,1
145,606,47,0.114223985427965,1
145,607,47,0.106604383228525,1
146,604,47,0.102988445453605,1
146,606,47,0.105861087114987,1
146,612,47,0.105517084422305,1
146,613,47,0.126252490592434,1
147,611,47,0.106093192170985,1
147,612,47,0.126686238937504,1
147,613,47,0.144831134509079,1
148,610,47,0.103673149234059,1
148,611,47,0.113935708472213,1
148,612,47,0.123652220182068,1
148,613,47,0.135915406992853,1
148,614,47,0.13915225136885,1
149,610,47,0.111252987171659,1
149,611,47,0.113634102402042,1
149,612,47,0.117732085647915,1
149,613,47,0.127842469900294,1
149,614,47,0.129690967103433,1
149,615,47,0.134203290611458,1
149,616,47,0.141604206101883,1
150,610,47,0.106646768696966,1
150,611,47,0.111359854322483,1
150,612,47,0.122984883289605,1
150,613,47,0.136383710648773,1
150,616,47,0.156936859304605,1
150,617,47,0.133075859459067,1
151,610,47,0.10630563260044,1
151,611,47,0.118783657965867,1
151,612,47,0.140634147732186,1
151,617,47,0.119433862205824,1
152,609,47,0.103141166988841,1
152,610,47,0.112498428391446,1
152,611,47,0.130632080659814,1
152,612,47,0.154527479659214,1
152,635,47,0.119490246032921,1
153,609,47,0.105841634415787,1
153,610,47,0.120262007334738,1
153,611,47,0.136548891280917,1
153,612,47,0.149443766574391,1
153,613,47,0.158907817049327,1
153,616,47,0.123710277119762,1
153,635,47,0.113788218196108,1
153,636,47,0.109731873095944,1
154,608,47,0.10335177815071,1
154,609,47,0.113428376723114,1
154,610,47,0.129427764498485,1
154,611,47,0.145652141032783,1
154,612,47,0.153074851577244,1
154,613,47,0.141079094764181,1
154,614,47,0.137244737977942,1
154,615,47,0.130316275457716,1
154,616,47,0.134016995323589,1
155,607,47,0.108444425646117,1
155,608,47,0.110793138301285,1
155,609,47,0.121019290652862,1
155,610,47,0.137406315845268,1
155,611,47,0.158389230842951,1
155,612,47,0.163878026311293,1
155,613,47,0.131337954866347,1
155,614,47,0.114021550199876,1
155,615,47,0.12416187197786,1
155,616,47,0.132507682254614,1
155,617,47,0.122257214029037,1
156,606,47,0.105679621539706,1
156,607,47,0.114437630497049,1
156,608,47,0.11787716664476,1
156,609,47,0.124871438181776,1
156,610,47,0.136540135335462,1
156,611,47,0.15355367352178,1
156,612,47,0.149480162306897,1
156,613,47,0.115288117229461,1
156,615,47,0.11150269335113,1
156,616,47,0.114266817059232,1
156,621,47,0.109621983191976,1
156,622,47,0.112370636204097,1
157,606,47,0.107232402021974,1
157,607,47,0.123951115813072,1
157,608,47,0.134213240042471,1
157,609,47,0.134800568786217,1
157,610,47,0.132953242760495,1
157,611,47,0.136584104681935,1
157,612,47,0.124448130046827,1
157,621,47,0.104510931480009,1
157,622,47,0.109760773292979,1
158,606,47,0.111649480920784,1
158,607,47,0.137977526956935,1
158,608,47,0.156142399469031,1
158,609,47,0.14931004042146,1
158,610,47,0.12856540983491,1
158,611,47,0.11713990488344,1
158,612,47,0.1058722523397,1
158,621,47,0.105873836217731,1
158,622,47,0.111141669546648,1
158,623,47,0.107498415452725,1
159,606,47,0.113277339452546,1
159,607,47,0.135471039972531,1
159,608,47,0.144822869342733,1
159,609,47,0.136242723195854,1
159,610,47,0.117906446080196,1
159,611,47,0.104578993619068,1
159,618,47,0.103703845236467,1
159,621,47,0.10587086923494,1
160,606,47,0.116169188423574,1
160,607,47,0.133082328820039,1
160,608,47,0.130616253033573,1
160,609,47,0.122597725497608,1
160,610,47,0.114468493810517,1
160,611,47,0.103713337350583,1
160,613,47,0.10585488545171,1
160,614,47,0.109022184197252,1
160,617,47,0.103500986153694,1
160,618,47,0.112951205581033,1
160,619,47,0.102950923159964,1
161,606,47,0.116443734718366,1
161,607,47,0.132054960835381,1
161,608,47,0.12446172685894,1
161,609,47,0.117709989433972,1
161,610,47,0.116932260704361,1
161,611,47,0.113038118099478,1
161,615,47,0.127768306484593,1
161,616,47,0.111568781219686,1
161,617,47,0.115996021476851,1
162,606,47,0.114121635675751,1
162,607,47,0.126545954191035,1
162,608,47,0.118448065442449,1
162,609,47,0.11690916062406,1
162,615,47,0.13781475560405,1
162,616,47,0.121249644519769,1
162,621,47,0.105528495036572,1
163,606,47,0.104821884661377,1
166,620,47,0.103056563363018,1
167,639,47,0.1147968808043,1
169,637,47,0.107936658888264,1
170,636,47,0.103160987772372,1
170,637,47,0.11799905832874,1
171,635,47,0.103538575371758,1
171,636,47,0.110431857953178,1
172,633,47,0.115545374714757,1
172,634,47,0.121832199321279,1
172,635,47,0.114328443299531,1
172,636,47,0.115544660854236,1
172,640,47,0.109514591799831,1
173,632,47,0.107297664489303,1
173,633,47,0.123687355504592,1
173,634,47,0.131250730033924,1
173,635,47,0.130502749210716,1
173,636,47,0.129576927885186,1
173,637,47,0.125021627742976,1
173,639,47,0.110115216195782,1
174,632,47,0.106434004799463,1
174,633,47,0.12956885233804,1
174,637,47,0.119241276022112,1
174,638,47,0.10340316495416,1
175,632,47,0.108233189856292,1
175,633,47,0.135443913272728,1
175,634,47,0.151289363719163,1
175,636,47,0.128170009184708,1
175,637,47,0.103572059891827,1
176,612,47,0.108494083568617,1
176,613,47,0.119158546280158,1
176,633,47,0.110694123616193,1
176,634,47,0.113617404758291,1
176,635,47,0.11341788074264,1
176,636,47,0.103646881397696,1
178,615,47,0.103839222191853,1
180,619,47,0.103306481469832,1
144,604,48,0.103826774249016,1
145,604,48,0.113743601913539,1
145,605,48,0.107478092736014,1
146,604,48,0.105223252739373,1
146,605,48,0.105406313346756,1
146,612,48,0.104347200877049,1
146,613,48,0.123214434063425,1
146,614,48,0.145050166994284,1
147,611,48,0.103882656142935,1
147,612,48,0.12303914784328,1
147,613,48,0.139325764091763,1
148,611,48,0.112561192346951,1
148,612,48,0.122746966962803,1
148,613,48,0.132653599806758,1
148,614,48,0.137860007668647,1
149,610,48,0.109353504711613,1
149,611,48,0.112897989509998,1
149,612,48,0.120166082327214,1
149,613,48,0.129877697400058,1
149,614,48,0.131049387904758,1
150,610,48,0.105202428089483,1
150,611,48,0.111097800586811,1
150,612,48,0.125581662475859,1
150,613,48,0.140197421250254,1
151,610,48,0.10339917179687,1
151,611,48,0.116121337460518,1
151,612,48,0.140980202773866,1
152,610,48,0.107618801337168,1
152,611,48,0.126613447472492,1
153,610,48,0.114949769650595,1
153,611,48,0.133552785211594,1
153,612,48,0.154078483699575,1
153,616,48,0.131907548637771,1
153,635,48,0.115500524196704,1
154,609,48,0.108574883656351,1
154,610,48,0.124880082586524,1
154,611,48,0.144245155407882,1
154,612,48,0.1572338587436,1
154,613,48,0.151112147844797,1
154,615,48,0.136918146789533,1
154,635,48,0.118104497758523,1
155,607,48,0.105456562435,1
155,608,48,0.106770601189238,1
155,609,48,0.115982736978716,1
155,610,48,0.134983105152279,1
155,611,48,0.156613134712351,1
155,612,48,0.161496275298882,1
155,613,48,0.132417791599307,1
155,614,48,0.116088198716639,1
155,615,48,0.119440141947595,1
155,616,48,0.134975810390079,1
156,606,48,0.103175744607832,1
156,607,48,0.110838936915343,1
156,608,48,0.114498922115229,1
156,609,48,0.122844777008266,1
156,610,48,0.138207390044733,1
156,611,48,0.153405647850285,1
156,612,48,0.145933558235091,1
156,613,48,0.114807031008584,1
156,615,48,0.10439427105516,1
156,616,48,0.111224042358342,1
156,617,48,0.102955507482998,1
157,606,48,0.106575795345469,1
157,607,48,0.121509099356981,1
157,608,48,0.131487921346134,1
157,609,48,0.133996940304574,1
157,610,48,0.137559104304927,1
157,611,48,0.143363325736965,1
157,612,48,0.130866193448527,1
157,613,48,0.107178695171831,1
157,621,48,0.11313988784002,1
158,606,48,0.115191232971861,1
158,607,48,0.140339992581205,1
158,608,48,0.157741536268888,1
158,609,48,0.150112776577451,1
158,610,48,0.13455284803132,1
158,611,48,0.131266724971225,1
158,612,48,0.121560285387159,1
158,613,48,0.103723152932749,1
158,623,48,0.11183330000497,1
158,634,48,0.105136061369161,1
159,606,48,0.119847020136488,1
159,607,48,0.146244779114154,1
159,609,48,0.151028046152153,1
159,610,48,0.127788796512363,1
159,611,48,0.118093589077434,1
159,612,48,0.110248775037654,1
159,620,48,0.1082918491138,1
160,606,48,0.119666881895614,1
160,610,48,0.127821723328899,1
160,611,48,0.113037125387191,1
160,612,48,0.108861665966637,1
160,615,48,0.106320891369078,1
160,617,48,0.104343854655856,1
160,618,48,0.112522822343941,1
160,619,48,0.110069306041018,1
160,620,48,0.11039092251392,1
160,621,48,0.112278392039884,1
160,631,48,0.108977121751857,1
161,606,48,0.119183843712375,1
161,610,48,0.130064059612351,1
161,616,48,0.117535651309831,1
161,621,48,0.106146341317596,1
161,622,48,0.10319880007185,1
162,602,48,0.106025955433152,1
162,606,48,0.119188929968587,1
162,607,48,0.129316424565333,1
162,608,48,0.120544026856861,1
162,609,48,0.123705012398419,1
163,602,48,0.110978630496068,1
163,606,48,0.108368466425043,1
169,636,48,0.11066995274511,1
170,635,48,0.110118361643703,1
171,633,48,0.111439182072892,1
171,634,48,0.125446742837369,1
171,635,48,0.127479984912558,1
172,631,48,0.104372096762723,1
172,632,48,0.126995362851287,1
172,633,48,0.156088659156676,1
172,641,48,0.106834369011101,1
173,631,48,0.116404137767585,1
173,632,48,0.140333779763857,1
174,631,48,0.110883307808358,1
174,632,48,0.127060324158709,1
174,639,48,0.104099491276223,1
175,632,48,0.118303486378783,1
175,633,48,0.140600072046373,1
175,637,48,0.10821248790118,1
176,612,48,0.106851680128738,1
176,633,48,0.110868785208382,1
176,634,48,0.115609399080244,1
176,636,48,0.104915467314067,1
145,603,49,0.103376372876477,1
145,604,49,0.112597956163789,1
145,605,49,0.107061053188766,1
146,603,49,0.103355949773131,1
146,604,49,0.110959144334656,1
146,605,49,0.111658236866238,1
146,606,49,0.106111161378789,1
146,612,49,0.103157585780826,1
146,613,49,0.121153061422076,1
146,614,49,0.13687347473661,1
147,612,49,0.116995158508713,1
147,613,49,0.133046033474169,1
148,611,49,0.111978648699511,1
148,612,49,0.121018019088809,1
148,613,49,0.128484587439035,1
148,614,49,0.136450992002888,1
149,610,49,0.107898266577113,1
149,611,49,0.114686622816,1
149,612,49,0.12150664546144,1
149,613,49,0.128165670251228,1
149,614,49,0.130213780702583,1
149,615,49,0.13462855070877,1
150,610,49,0.107067812555575,1
150,611,49,0.114081715256922,1
150,612,49,0.127100534583375,1
150,613,49,0.139886891923569,1
150,616,49,0.139473198597514,1
151,610,49,0.105722977412293,1
151,611,49,0.118076367192362,1
151,612,49,0.141106801475657,1
152,610,49,0.107642135652952,1
152,611,49,0.125576799301059,1
153,610,49,0.113674770143605,1
153,611,49,0.132994713595143,1
154,609,49,0.107918812375236,1
154,610,49,0.123664489659775,1
154,611,49,0.143824178473697,1
154,612,49,0.157856133190668,1
154,615,49,0.142011307372189,1
154,635,49,0.117103062988108,1
155,607,49,0.107941499754923,1
155,608,49,0.10755164267783,1
155,609,49,0.114972546262846,1
155,610,49,0.13393367441589,1
155,611,49,0.152830398965045,1
155,612,49,0.154778468556809,1
155,613,49,0.133580380382363,1
155,614,49,0.120248745144745,1
155,615,49,0.121088490507127,1
155,616,49,0.137148110263967,1
156,606,49,0.103959340378601,1
156,607,49,0.112025585028774,1
156,608,49,0.115431670118628,1
156,609,49,0.124185496299481,1
156,610,49,0.139200213872612,1
156,611,49,0.150484073280995,1
156,612,49,0.141520082101099,1
156,613,49,0.11534678764104,1
156,616,49,0.110688312345388,1
156,617,49,0.107413990292032,1
156,620,49,0.103509418631099,1
157,606,49,0.109321403296304,1
157,607,49,0.122551681493996,1
157,608,49,0.130759437838409,1
157,609,49,0.134867738599625,1
157,610,49,0.139758832038524,1
157,611,49,0.143570434520653,1
157,612,49,0.13237685616005,1
157,613,49,0.110673443969222,1
158,606,49,0.122796212184689,1
158,607,49,0.144354286835047,1
158,609,49,0.14617559041396,1
158,610,49,0.137022214268626,1
158,611,49,0.139164498538415,1
158,612,49,0.131239631733634,1
158,613,49,0.111453693518798,1
159,606,49,0.132093163527331,1
159,610,49,0.133369780374564,1
159,611,49,0.128967993706606,1
159,612,49,0.121347019556477,1
159,613,49,0.107762711156596,1
159,619,49,0.10543017190386,1
160,611,49,0.122820483442407,1
160,612,49,0.118518536860768,1
160,615,49,0.109211703011537,1
160,617,49,0.104567772624002,1
161,621,49,0.111279823865624,1
162,602,49,0.103149097533068,1
162,628,49,0.107583141773324,1
163,601,49,0.108698136136949,1
163,602,49,0.119482449337542,1
163,606,49,0.11688883790735,1
164,602,49,0.10404683290872,1
164,627,49,0.109432944002728,1
167,637,49,0.107295667910658,1
169,635,49,0.103895550248597,1
170,634,49,0.117284863185508,1
171,632,49,0.106462023824916,1
171,633,49,0.132084519122583,1
172,631,49,0.1271954334164,1
172,632,49,0.158884226189918,1
173,631,49,0.144605465351843,1
174,630,49,0.102964174195887,1
174,631,49,0.132975316666296,1
175,631,49,0.117357777345297,1
175,632,49,0.12580376233049,1
175,639,49,0.103376317106124,1
176,632,49,0.103819133710626,1
176,633,49,0.106788704245891,1
178,616,49,0.106166652880235,1
179,623,49,0.106310295001968,1
179,624,49,0.105138392569926,1
145,610,50,0.103818074073915,1
145,612,50,0.106428026217598,1
145,613,50,0.108136182903915,1
145,614,50,0.107171578874761,1
145,615,50,0.119991019188482,1
146,604,50,0.106753256609389,1
146,605,50,0.110234107434759,1
146,608,50,0.106986075525908,1
146,609,50,0.115669307593665,1
146,613,50,0.116607933792292,1
146,614,50,0.126759075018799,1
147,605,50,0.104384689708478,1
147,612,50,0.112086051245727,1
147,613,50,0.126666563156891,1
148,611,50,0.111180809180532,1
148,612,50,0.121403604156846,1
148,613,50,0.12785958024466,1
148,614,50,0.137618466268886,1
149,610,50,0.10535915393608,1
149,611,50,0.116864165103089,1
149,612,50,0.124692526888672,1
149,613,50,0.128420741538678,1
149,614,50,0.13147465915614,1
149,615,50,0.133475688275314,1
150,610,50,0.107560811323898,1
150,611,50,0.118114681425019,1
150,612,50,0.130518587991028,1
150,613,50,0.139248867928754,1
150,616,50,0.126401129737814,1
151,610,50,0.10700209277135,1
151,611,50,0.121337393593512,1
151,612,50,0.142715765011751,1
152,610,50,0.10762717804422,1
152,611,50,0.126350780262934,1
153,610,50,0.112925885840675,1
153,611,50,0.133996237598123,1
154,608,50,0.103149365230763,1
154,609,50,0.108257226878526,1
154,610,50,0.122821610003542,1
154,611,50,0.14319793317748,1
154,615,50,0.147421332793655,1
154,635,50,0.118191666820593,1
155,607,50,0.106915113328481,1
155,608,50,0.107569132260597,1
155,609,50,0.115135317615731,1
155,610,50,0.132879915900092,1
155,611,50,0.148446302653125,1
155,612,50,0.150637419444186,1
155,614,50,0.125672936235926,1
155,615,50,0.126511476958679,1
155,616,50,0.140273447395752,1
156,607,50,0.110194677795038,1
156,608,50,0.114736280738499,1
156,609,50,0.124318709365163,1
156,610,50,0.138474652731395,1
156,611,50,0.146883773513116,1
156,612,50,0.138997254403203,1
156,613,50,0.118053289420203,1
156,616,50,0.11213576493858,1
156,617,50,0.112084277748495,1
156,620,50,0.108737989631354,1
157,606,50,0.109561405434317,1
157,607,50,0.121377670942602,1
157,608,50,0.127335227383761,1
157,609,50,0.132972628535272,1
157,610,50,0.140172268820955,1
157,611,50,0.144445315205559,1
157,612,50,0.13503486004006,1
157,613,50,0.11328228070584,1
158,606,50,0.128583167115373,1
158,610,50,0.140596458127485,1
158,611,50,0.147295425644243,1
158,612,50,0.137913223739681,1
158,613,50,0.114985752682487,1
159,605,50,0.106729331127861,1
159,611,50,0.140111969915062,1
159,612,50,0.129378653125446,1
159,613,50,0.112980719251953,1
159,633,50,0.10968108861231,1
160,605,50,0.106506160482448,1
160,615,50,0.109512427910126,1
160,634,50,0.103256087378669,1
161,635,50,0.104859908888197,1
162,629,50,0.108511718154303,1
162,630,50,0.104769650148559,1
162,635,50,0.103183162064809,1
163,601,50,0.111826228324183,1
163,602,50,0.120964936866622,1
163,603,50,0.103751573504746,1
163,636,50,0.104467118290525,1
163,637,50,0.110928682567731,1
164,601,50,0.104131760002591,1
164,602,50,0.113360682668386,1
164,636,50,0.104829737127109,1
164,637,50,0.117402237470878,1
165,628,50,0.104701476468793,1
165,629,50,0.108559357190017,1
165,630,50,0.10615162834708,1
165,634,50,0.114716538033462,1
165,635,50,0.107319113767148,1
166,627,50,0.111699105381072,1
166,628,50,0.11285183396568,1
166,629,50,0.113596345872918,1
166,630,50,0.104134381209192,1
166,634,50,0.11332793431698,1
167,626,50,0.106847441581893,1
167,627,50,0.111534627455379,1
167,628,50,0.109835070557528,1
167,629,50,0.104713500556945,1
168,627,50,0.105388689915141,1
169,627,50,0.10509489169442,1
169,633,50,0.103449365114761,1
169,634,50,0.110209601941558,1
170,627,50,0.107690957020153,1
170,628,50,0.106532684862436,1
170,633,50,0.112425123839185,1
170,634,50,0.130330173429737,1
171,627,50,0.103634901925826,1
171,631,50,0.106733023125244,1
171,632,50,0.118771065020112,1
172,630,50,0.107721039548676,1
172,631,50,0.14297950301209,1
173,630,50,0.115111905221452,1
174,630,50,0.115417180980864,1
174,631,50,0.147128995756188,1
175,630,50,0.119728195821935,1
175,631,50,0.127785372212676,1
175,632,50,0.12827995485903,1
176,630,50,0.11414454613685,1
176,631,50,0.109123407388331,1
145,608,51,0.10472365076123,1
145,609,51,0.124423156082658,1
145,610,51,0.11531900285107,1
145,611,51,0.111588613157288,1
145,612,51,0.115384521862023,1
145,613,51,0.109913684447415,1
145,614,51,0.104945661383296,1
145,615,51,0.118726984132933,1
146,604,51,0.109398511386655,1
146,605,51,0.115167575188029,1
146,606,51,0.105147561215994,1
146,608,51,0.110210706194551,1
146,609,51,0.129946083007166,1
146,610,51,0.110933501126249,1
146,612,51,0.104923107852457,1
146,613,51,0.114041772529951,1
146,614,51,0.121621521234986,1
147,604,51,0.105299167344165,1
147,605,51,0.110928448332248,1
147,606,51,0.103461868827951,1
147,612,51,0.10876032008078,1
147,613,51,0.12266721535771,1
147,614,51,0.13593271811049,1
148,611,51,0.111588624311359,1
148,612,51,0.1211253547106,1
148,613,51,0.128964034011528,1
148,614,51,0.139307437953697,1
149,610,51,0.107594764314933,1
149,611,51,0.122070896433026,1
149,612,51,0.12835808912388,1
149,613,51,0.131041624671591,1
149,614,51,0.134127666012503,1
149,615,51,0.133366913778409,1
150,610,51,0.112761095601004,1
150,611,51,0.127048645846746,1
150,612,51,0.136241239704458,1
150,613,51,0.139757906250661,1
150,614,51,0.137861212308276,1
150,615,51,0.129248630123968,1
150,616,51,0.122937188483538,1
151,610,51,0.113467248659303,1
151,611,51,0.130082028820155,1
151,612,51,0.14693681111902,1
152,609,51,0.104600052504441,1
152,610,51,0.11390944063585,1
152,611,51,0.131980864344104,1
153,609,51,0.108012629263409,1
153,610,51,0.117933550471857,1
154,607,51,0.105329885654714,1
154,608,51,0.108468998063743,1
154,609,51,0.113989281473508,1
154,610,51,0.126919470554637,1
155,607,51,0.111120487966498,1
155,608,51,0.112470063589803,1
155,609,51,0.12085986552117,1
155,610,51,0.136559900348641,1
155,611,51,0.149456705296336,1
155,615,51,0.135798032707483,1
156,606,51,0.103773457791346,1
156,607,51,0.113520185878572,1
156,608,51,0.118295555834556,1
156,609,51,0.128327683127309,1
156,610,51,0.142025919204731,1
156,611,51,0.150613572041153,1
156,612,51,0.145461149881173,1
156,613,51,0.127534472547646,1
156,614,51,0.113005470134708,1
156,615,51,0.11257697535691,1
156,616,51,0.121680537422755,1
156,617,51,0.119224634148714,1
156,618,51,0.108846139500303,1
156,619,51,0.108696329177505,1
157,606,51,0.114925018767839,1
157,607,51,0.126553215491023,1
157,608,51,0.129542261033629,1
157,609,51,0.133833421628957,1
157,610,51,0.144008956807958,1
157,611,51,0.152740764853363,1
157,612,51,0.144505034099779,1
157,613,51,0.119083836314995,1
157,617,51,0.103556187649303,1
157,619,51,0.103088107074795,1
158,605,51,0.10463544437059,1
158,612,51,0.146586885614827,1
158,613,51,0.118079858416474,1
159,612,51,0.140429615538816,1
159,613,51,0.121398729827975,1
159,614,51,0.103493446001939,1
160,615,51,0.111225035070629,1
160,617,51,0.103123454324661,1
160,633,51,0.106673984629334,1
161,632,51,0.110375541050505,1
161,634,51,0.109926489320513,1
162,631,51,0.120123864169832,1
162,632,51,0.104734670983024,1
162,634,51,0.107246880005668,1
162,635,51,0.121711969593825,1
162,636,51,0.115479231075848,1
163,601,51,0.106256376224483,1
163,602,51,0.117782334736158,1
163,603,51,0.110740558012277,1
163,629,51,0.119032271046415,1
163,630,51,0.11847515868004,1
163,631,51,0.114921103689044,1
163,632,51,0.108966134992274,1
163,633,51,0.103870308586734,1
163,634,51,0.109182345497606,1
163,635,51,0.117370626834677,1
163,636,51,0.115223211692393,1
163,637,51,0.120383040155279,1
164,601,51,0.106882532288134,1
164,602,51,0.122017535359073,1
164,603,51,0.110091725723009,1
164,629,51,0.121223767075878,1
164,631,51,0.121037003317042,1
164,632,51,0.115401375662764,1
164,633,51,0.108104616883997,1
164,634,51,0.116174062752445,1
164,635,51,0.117082294108572,1
164,636,51,0.120049890373332,1
164,637,51,0.137424753524039,1
164,638,51,0.105163043066045,1
165,631,51,0.121027856979115,1
165,632,51,0.108005479504127,1
165,633,51,0.107827962469854,1
165,634,51,0.128824373893014,1
165,635,51,0.118592979128235,1
165,636,51,0.104156131646945,1
165,637,51,0.112051362086029,1
166,631,51,0.111590654352216,1
166,633,51,0.103021729200402,1
166,634,51,0.120035167000084,1
166,635,51,0.109067882424674,1
166,637,51,0.106249092616353,1
167,630,51,0.122365988525941,1
167,631,51,0.108005680277399,1
167,634,51,0.102955518637069,1
168,627,51,0.124578275743082,1
168,628,51,0.125532093785924,1
168,629,51,0.12531741138827,1
168,630,51,0.118289744563751,1
168,631,51,0.114654833714669,1
168,632,51,0.111364416337376,1
168,633,51,0.106702840210086,1
168,634,51,0.103658648942224,1
169,628,51,0.126946641870721,1
169,629,51,0.122104670958932,1
169,630,51,0.111428953790113,1
169,631,51,0.108911803514175,1
169,632,51,0.112209616040303,1
169,633,51,0.116894693794437,1
169,634,51,0.119995146194619,1
170,629,51,0.119813513308279,1
170,630,51,0.10621709158768,1
170,632,51,0.108348567563017,1
170,633,51,0.127977902626034,1
171,628,51,0.120914074304492,1
171,629,51,0.111760954702784,1
171,630,51,0.113002703925189,1
171,631,51,0.116855598776836,1
172,627,51,0.113858856925487,1
172,628,51,0.105631257489401,1
172,629,51,0.104521784390744,1
172,630,51,0.125104859418109,1
174,630,51,0.130803440647093,1
175,629,51,0.106388741580796,1
175,630,51,0.133076138310833,1
175,631,51,0.134581223987034,1
176,629,51,0.113130362263691,1
176,630,51,0.127427382315408,1
176,631,51,0.112536385693843,1
180,625,51,0.120144800360428,1
144,611,52,0.115459666835941,1
144,612,52,0.120539342147191,1
144,613,52,0.106264607928617,1
145,609,52,0.119753615948929,1
145,610,52,0.123126227672785,1
145,611,52,0.121124016222123,1
145,612,52,0.118868339670184,1
145,613,52,0.107990599973891,1
145,615,52,0.115590013305468,1
146,604,52,0.111845346401264,1
146,605,52,0.119229106931041,1
146,606,52,0.109731460395331,1
146,608,52,0.107443503962952,1
146,609,52,0.132383013207044,1
146,610,52,0.123258749186087,1
146,611,52,0.107680516810032,1
146,612,52,0.105405432175175,1
146,613,52,0.108255062988822,1
146,614,52,0.114967471160704,1
147,604,52,0.111885857985837,1
147,605,52,0.118509658220537,1
147,606,52,0.108973039362001,1
147,609,52,0.107088481048476,1
147,612,52,0.105389749551852,1
147,613,52,0.117371050689362,1
147,614,52,0.130124804681069,1
148,605,52,0.103495766048633,1
148,611,52,0.109787543062521,1
148,612,52,0.119505259412006,1
148,613,52,0.130223507052183,1
148,614,52,0.139242855884678,1
149,610,52,0.110157467815375,1
149,611,52,0.126247750112411,1
149,612,52,0.132318063053694,1
149,613,52,0.136623947022269,1
149,614,52,0.137183635978963,1
149,615,52,0.133207923655473,1
150,610,52,0.11851857032298,1
150,611,52,0.135233201724223,1
150,612,52,0.140131422614263,1
150,613,52,0.13984297834745,1
150,614,52,0.132940170189702,1
150,615,52,0.121424919585843,1
151,610,52,0.118244894045698,1
151,611,52,0.135868515279872,1
151,612,52,0.146353531302918,1
151,615,52,0.12487792985089,1
152,609,52,0.106241552464599,1
152,610,52,0.117561907992124,1
152,611,52,0.135232075163088,1
153,608,52,0.10555171781165,1
153,609,52,0.111610753987513,1
153,610,52,0.120551790090028,1
154,607,52,0.109398377537808,1
154,608,52,0.113791274411464,1
154,609,52,0.118271708431523,1
154,610,52,0.127223095511593,1
155,606,52,0.1034246923105,1
155,607,52,0.114656562595618,1
155,608,52,0.117969143111277,1
155,609,52,0.124323840237658,1
155,610,52,0.134774167101006,1
156,606,52,0.106105718192316,1
156,607,52,0.116477754633825,1
156,608,52,0.121473919418175,1
156,609,52,0.128688829626568,1
156,610,52,0.139466294227786,1
156,611,52,0.148211163689913,1
156,614,52,0.120841896313365,1
156,615,52,0.118688569513641,1
156,616,52,0.127246608292507,1
156,618,52,0.116343961556469,1
156,619,52,0.114895995876028,1
157,606,52,0.120140829511279,1
157,608,52,0.129666885464916,1
157,609,52,0.131014319506658,1
157,612,52,0.147511926155412,1
157,613,52,0.122087928698897,1
157,614,52,0.103171316441787,1
157,616,52,0.105561053768778,1
157,617,52,0.108387997202738,1
157,618,52,0.10312639899931,1
158,605,52,0.109893908280166,1
158,613,52,0.118035844453719,1
159,613,52,0.126656379490395,1
159,614,52,0.108577638711799,1
160,614,52,0.129071681947297,1
160,615,52,0.110063918624898,1
160,616,52,0.103584117442191,1
160,617,52,0.103189508731005,1
161,633,52,0.112245052522734,1
162,633,52,0.10958507437222,1
162,634,52,0.120581236836524,1
163,602,52,0.109288387247203,1
163,603,52,0.116417578422709,1
163,604,52,0.108741090462993,1
163,633,52,0.122402741188708,1
163,634,52,0.124376286677819,1
164,602,52,0.123607860443124,1
164,603,52,0.124883451115858,1
164,604,52,0.103184656710276,1
164,634,52,0.135133473178609,1
164,635,52,0.135990150420227,1
164,636,52,0.13684829999917,1
164,637,52,0.140310846994616,1
164,638,52,0.111115156320731,1
165,634,52,0.137433342158434,1
165,635,52,0.129947276492725,1
165,636,52,0.12265750016218,1
165,637,52,0.123500156737001,1
165,638,52,0.112533095243003,1
166,632,52,0.113485987497982,1
166,633,52,0.113360827671304,1
166,634,52,0.120064658362863,1
166,635,52,0.113159809010187,1
166,636,52,0.110659456764636,1
167,631,52,0.122635783186639,1
167,632,52,0.112653614976294,1
167,633,52,0.108967328477833,1
167,634,52,0.107195939365044,1
167,635,52,0.105128532371478,1
168,631,52,0.129335375331354,1
168,632,52,0.121889419703675,1
168,633,52,0.115291351909947,1
168,634,52,0.10961215645574,1
168,635,52,0.10975089078639,1
169,631,52,0.126170207013305,1
169,632,52,0.124902613809221,1
169,633,52,0.124920226086766,1
170,630,52,0.120790810669823,1
170,631,52,0.11117278940374,1
170,632,52,0.119705553058531,1
171,630,52,0.12416133658247,1
171,631,52,0.123384076323825,1
173,627,52,0.105097691366151,1
173,628,52,0.103021472656777,1
173,629,52,0.116856803416465,1
174,629,52,0.109885040794006,1
175,629,52,0.111947038063311,1
176,629,52,0.116797262987376,1
176,630,52,0.130593130645131,1
176,631,52,0.110455058420114,1
177,630,52,0.103314579325118,1
180,625,52,0.132005325221022,1
180,626,52,0.107869968699893,1
144,611,53,0.115146828616634,1
144,612,53,0.116281866845203,1
145,609,53,0.108892774669659,1
145,610,53,0.122794862542141,1
145,611,53,0.122213635075037,1
145,612,53,0.115615266121402,1
145,613,53,0.103279153996758,1
145,615,53,0.111834236946904,1
146,604,53,0.107592700811865,1
146,605,53,0.115370880433627,1
146,606,53,0.111014847763444,1
146,608,53,0.105187213937127,1
146,609,53,0.124865559986547,1
146,610,53,0.128564138270857,1
146,611,53,0.113461024687885,1
146,612,53,0.10611168562011,1
146,613,53,0.106400899517796,1
146,614,53,0.111934545504191,1
147,604,53,0.111158701812519,1
147,605,53,0.117390804548469,1
147,606,53,0.109802266435768,1
147,609,53,0.108592975558933,1
147,610,53,0.107356111819469,1
147,612,53,0.106160841609431,1
147,613,53,0.119604452562228,1
147,614,53,0.129280910004407,1
148,604,53,0.105741950486456,1
148,605,53,0.105247847465139,1
148,611,53,0.111561508765627,1
148,612,53,0.1234067302413,1
148,613,53,0.137001389618737,1
148,614,53,0.141079574389219,1
149,610,53,0.114120642963463,1
149,611,53,0.134640987497536,1
149,612,53,0.141128105750584,1
150,610,53,0.129405768671178,1
150,611,53,0.147664145757469,1
150,614,53,0.130878306769245,1
150,615,53,0.120980106402695,1
151,609,53,0.107136398935955,1
151,610,53,0.128653025059806,1
151,611,53,0.143765965379014,1
151,614,53,0.128007092828905,1
152,609,53,0.113524123265509,1
152,610,53,0.126769347917861,1
153,608,53,0.109917365290727,1
153,609,53,0.118300619782628,1
153,610,53,0.127956007185363,1
154,607,53,0.111958560218284,1
154,608,53,0.117281327345114,1
154,609,53,0.122465259754659,1
154,610,53,0.131403485031371,1
155,606,53,0.103446353515687,1
155,607,53,0.116135246586609,1
155,608,53,0.119772789796363,1
155,609,53,0.125413302933583,1
155,610,53,0.136048765061453,1
156,606,53,0.108560651062211,1
156,607,53,0.11907853813144,1
156,608,53,0.122203663335883,1
156,609,53,0.127462863414122,1
156,610,53,0.14071652054388,1
157,605,53,0.106753000065764,1
157,613,53,0.128350883594245,1
157,614,53,0.109969030945943,1
157,615,53,0.104666910003872,1
157,616,53,0.108974645548174,1
157,617,53,0.113754867524888,1
157,618,53,0.1107864458589,1
158,613,53,0.122199157091343,1
158,614,53,0.10366170515758,1
159,614,53,0.113473494938863,1
159,615,53,0.104619003270463,1
159,616,53,0.104694549790924,1
159,617,53,0.10298035875239,1
160,615,53,0.110973310004372,1
160,616,53,0.107558926285959,1
163,603,53,0.114382652082853,1
163,604,53,0.11018115906142,1
164,602,53,0.118279237429206,1
164,603,53,0.13531701341103,1
164,604,53,0.113273647455163,1
164,638,53,0.112939705734201,1
164,639,53,0.108627586640136,1
165,603,53,0.109330984642986,1
165,637,53,0.126836339266139,1
165,638,53,0.118630981046914,1
166,634,53,0.117300646195467,1
166,635,53,0.116663436447809,1
167,633,53,0.120401087441578,1
167,634,53,0.111844833314014,1
167,635,53,0.112232950356087,1
168,633,53,0.125551691488043,1
168,634,53,0.116600672492304,1
176,629,53,0.113268416196032,1
176,631,53,0.107862015847525,1
177,630,53,0.104195795522149,1
180,625,53,0.129964754921421,1
180,626,53,0.109973102181727,1
144,611,54,0.113860630422719,1
144,612,54,0.111071343131247,1
144,616,54,0.10913311142979,1
145,610,54,0.122115657718514,1
145,611,54,0.126482587915716,1
145,612,54,0.11440481522122,1
145,615,54,0.10773656601501,1
146,605,54,0.103869516647718,1
146,606,54,0.107846355532343,1
146,607,54,0.10452832067614,1
146,609,54,0.115046207745369,1
146,610,54,0.129470083042502,1
146,611,54,0.121544379682423,1
146,612,54,0.109336595140519,1
146,613,54,0.103831403188333,1
146,614,54,0.107831085609634,1
147,605,54,0.110168677656371,1
147,606,54,0.106988707886579,1
147,609,54,0.107221727576369,1
147,610,54,0.110214420500075,1
147,611,54,0.105168720488002,1
147,612,54,0.109055813720239,1
147,613,54,0.121948781667633,1
147,614,54,0.127944295411189,1
148,604,54,0.105335763849943,1
148,605,54,0.104317464124716,1
148,611,54,0.11139121956913,1
148,612,54,0.127137387632777,1
149,610,54,0.114564084195922,1
149,611,54,0.139244473224921,1
150,609,54,0.10292984196645,1
150,610,54,0.137514097629885,1
151,609,54,0.111317379621477,1
151,610,54,0.138431553402433,1
152,609,54,0.118568819411224,1
153,608,54,0.114189028570572,1
153,609,54,0.123381700506779,1
154,607,54,0.115596270739098,1
155,606,54,0.104967356050695,1
157,614,54,0.117690447502207,1
157,615,54,0.111040033654954,1
157,616,54,0.1127771686168,1
158,614,54,0.109489127056554,1
158,615,54,0.104800792313792,1
158,616,54,0.104194668961014,1
159,614,54,0.118260621285304,1
159,615,54,0.111817238143245,1
159,616,54,0.111495008196457,1
159,617,54,0.106453011335837,1
160,615,54,0.114819590492127,1
160,616,54,0.11249971110957,1
163,603,54,0.105455658955278,1
163,604,54,0.107251352787996,1
163,605,54,0.108673084094286,1
164,602,54,0.107122623658712,1
164,603,54,0.13442035998023,1
164,604,54,0.119618785543004,1
165,603,54,0.119159773227928,1
167,634,54,0.116126356792307,1
176,629,54,0.10532929448897,1
176,634,54,0.104283946142436,1
176,635,54,0.110473518407027,1
180,625,54,0.118944098117987,1
180,626,54,0.105253725660368,1
145,610,55,0.119353452510563,1
145,611,55,0.128944759777458,1
145,612,55,0.109810375445125,1
145,615,55,0.104601034062658,1
146,607,55,0.105901977937962,1
146,609,55,0.109702816741921,1
146,610,55,0.127033844395004,1
146,611,55,0.129389639885029,1
146,612,55,0.110796941839374,1
146,614,55,0.104230161213798,1
147,609,55,0.103903904647509,1
147,610,55,0.109210977996945,1
147,611,55,0.1107211722375,1
147,612,55,0.112872011679472,1
147,613,55,0.12307907941618,1
147,614,55,0.125606234893484,1
148,604,55,0.103688474927122,1
148,611,55,0.114678368803724,1
149,610,55,0.114683956993116,1
150,609,55,0.10363114300402,1
151,609,55,0.114774951901417,1
152,608,55,0.103397732921757,1
152,609,55,0.124454811335141,1
158,614,55,0.11640196272381,1
158,615,55,0.112342516792007,1
158,616,55,0.110366595485849,1
158,617,55,0.109083464661361,1
159,614,55,0.121269688384713,1
159,615,55,0.117032836959343,1
159,616,55,0.115579327705792,1
160,615,55,0.119304820762562,1
163,605,55,0.106659897038112,1
164,603,55,0.122081838576327,1
164,604,55,0.119212654676844,1
164,605,55,0.103522881594365,1
165,603,55,0.116821277701469,1
165,604,55,0.108449177280211,1
176,634,55,0.112538460350982,1
176,635,55,0.111846696043812,1
177,634,55,0.104003722425687,1
180,625,55,0.108585513485673,1
145,611,56,0.125803249243241,1
145,612,56,0.103204265566465,1
146,609,56,0.104437615773676,1
146,610,56,0.123124733027319,1
146,611,56,0.13396770548542,1
146,612,56,0.111392914987867,1
146,615,56,0.105459127871247,1
147,610,56,0.10876188165067,1
147,611,56,0.118074292535223,1
147,612,56,0.118006096547315,1
147,614,56,0.116531283018838,1
147,615,56,0.11582444956223,1
148,611,56,0.119561453619902,1
149,610,56,0.113845237805232,1
151,609,56,0.11306020315935,1
158,615,56,0.118010245861594,1
158,616,56,0.115741864823193,1
159,615,56,0.120454303512613,1
159,616,56,0.117602229957496,1
162,605,56,0.108691231767222,1
163,606,56,0.107086406391336,1
164,604,56,0.108481200617025,1
165,604,56,0.10425970834693,1
177,633,56,0.110020127743556,1
180,625,56,0.104282250723698,1
146,611,57,0.131899896945311,1
146,612,57,0.110463758595215,1
147,610,57,0.107792169057162,1
147,611,57,0.121360159051693,1
147,613,57,0.11315777896933,1
147,614,57,0.107229446193254,1
147,615,57,0.107555747375826,1
147,616,57,0.1118430152005,1
149,610,57,0.107457323856478,1
151,609,57,0.108707862486549,1
159,615,57,0.122215386264128,1
161,605,57,0.109019997999406,1
162,605,57,0.103505157776114,1
149,610,58,0.103302365617765,1
162,606,58,0.107101854779176,1
163,607,58,0.104950268014471,1
179,626,58,0.110805407778992,1
162,607,59,0.106319764807943,1
178,626,59,0.111493089696307,1
148,611,60,0.113699666029278,1
149,611,60,0.107999590154828,1
149,613,60,0.107188008820818,1
177,631,60,0.106481331521198,1
178,625,60,0.107393868348593,1
178,626,60,0.102979354886032,1
179,623,60,0.114564630745384,1
179,624,60,0.108768931023316,1
148,611,61,0.109569246745978,1
150,612,61,0.104763905802178,1
175,631,61,0.10923727929552,1
177,631,61,0.103694063116513,1
178,623,61,0.112958935351988,1
179,622,61,0.109238004310111,1
179,623,61,0.111674889893707,1
147,622,62,0.103649045287401,1
148,611,62,0.104085927926322,1
151,612,62,0.106482803858523,1
153,610,62,0.104877822325649,1
175,630,62,0.105278610391971,1
175,631,62,0.104617062462171,1
179,623,62,0.104013214539804,1
187,623,62,0.111796279644508,1
148,623,63,0.103893007120491,1
148,624,63,0.10439218524395,1
148,627,63,0.103619063145514,1
151,613,63,0.106595828056343,1
152,612,63,0.111311256036695,1
153,611,63,0.107427419793086,1
176,631,63,0.103973673359377,1
149,617,64,0.107638265190439,1
149,618,64,0.10743912041319,1
149,619,64,0.103128150188401,1
149,620,64,0.10657200296145,1
152,613,64,0.109319395563589,1
153,612,64,0.106975267231455,1
162,610,64,0.103883180384255,1
173,631,64,0.104537411243714,1
175,627,64,0.10409527503752,1
149,621,65,0.112176131520235,1
149,622,65,0.103895159856125,1
150,620,65,0.105378227396878,1
153,616,65,0.103316185511291,1
