x,y,z,signal,mito.p
970,327,7,0.138813959560337,1
970,328,7,0.140075529566274,1
971,332,7,0.154174531401877,1
972,323,7,0.111261062718804,1
972,327,7,0.126001825162887,1
972,331,7,0.16340256174202,1
972,332,7,0.144401100469533,1
973,326,7,0.154459930607403,1
973,327,7,0.178713207963364,1
973,328,7,0.138079352467829,1
974,326,7,0.134766191940497,1
974,327,7,0.150769193634756,1
980,336,7,0.185502891536657,1
980,337,7,0.14598564774499,1
980,338,7,0.148140513806464,1
980,339,7,0.194708781046575,1
980,340,7,0.1820076742683,1
981,332,7,0.176098638034435,1
981,333,7,0.183823679663657,1
981,334,7,0.163809819169314,1
981,335,7,0.221686685546493,1
981,336,7,0.235013792231431,1
981,337,7,0.16305773364811,1
981,338,7,0.149430437459974,1
981,339,7,0.185607929419896,1
981,340,7,0.17167937293778,1
982,332,7,0.206484512662146,1
982,333,7,0.22648692908001,1
982,334,7,0.173443589983145,1
982,335,7,0.176353162772424,1
982,336,7,0.177771146310979,1
982,337,7,0.132354202242575,1
982,338,7,0.12301484312335,1
982,339,7,0.127010141994889,1
983,332,7,0.146067875553766,1
983,333,7,0.188006790776672,1
983,334,7,0.179259512035287,1
983,335,7,0.14037810604059,1
984,333,7,0.160280916607617,1
984,334,7,0.22049897779635,1
984,335,7,0.179026681964698,1
984,336,7,0.104668895428446,1
985,333,7,0.132897115477023,1
985,334,7,0.199213374783644,1
985,335,7,0.18335648026073,1
985,336,7,0.115962391953864,1
986,333,7,0.109313729295703,1
986,334,7,0.13041514513989,1
986,335,7,0.128153735395641,1
986,336,7,0.104523859047883,1
987,331,7,0.106123207775083,1
987,332,7,0.112949275926812,1
987,333,7,0.111102630299399,1
987,334,7,0.104543757909909,1
988,331,7,0.111030809238533,1
988,332,7,0.117274166431762,1
988,333,7,0.118494142908273,1
988,334,7,0.107407264387435,1
988,343,7,0.103764958389516,1
988,344,7,0.106002911123205,1
989,331,7,0.121056021007487,1
989,332,7,0.118462364961013,1
989,333,7,0.125252349694213,1
989,334,7,0.119023548563173,1
989,342,7,0.118234063443105,1
989,343,7,0.136340299005833,1
990,332,7,0.122493200701618,1
990,333,7,0.134149896075293,1
990,334,7,0.135280840759937,1
990,335,7,0.112615010737801,1
990,341,7,0.106568422504774,1
991,333,7,0.129095462425907,1
991,334,7,0.130839959074376,1
991,335,7,0.113382187716584,1
991,338,7,0.103126800545853,1
992,335,7,0.10727018085924,1
992,336,7,0.104445970172587,1
992,337,7,0.106781442945902,1
992,338,7,0.103891345163965,1
968,333,8,0.122925510171575,1
968,334,8,0.105026684552442,1
969,327,8,0.13228639664714,1
969,328,8,0.116983022879854,1
969,332,8,0.113334604451224,1
969,333,8,0.155790979319371,1
969,334,8,0.129186390409784,1
970,327,8,0.12634079736971,1
970,328,8,0.130987315501633,1
970,332,8,0.133718423160634,1
970,333,8,0.130080846488667,1
971,328,8,0.111313520313035,1
971,330,8,0.111400812069882,1
971,331,8,0.169682180818907,1
971,332,8,0.171945955226133,1
971,333,8,0.109906445455568,1
972,323,8,0.119436037249599,1
972,324,8,0.110395094136341,1
972,326,8,0.10721774557315,1
972,327,8,0.122103176313465,1
972,328,8,0.109942785417721,1
972,330,8,0.139302641703321,1
972,331,8,0.212858930185423,1
972,332,8,0.18679114207957,1
973,323,8,0.103268992638403,1
973,325,8,0.110622994107706,1
973,326,8,0.16016619699106,1
973,327,8,0.192623505231839,1
973,328,8,0.141955035085798,1
973,330,8,0.114808280264496,1
973,331,8,0.155551021797642,1
973,332,8,0.127246005972693,1
974,326,8,0.131664044121577,1
974,327,8,0.157321150500447,1
974,328,8,0.112864237292234,1
979,337,8,0.102962858015552,1
979,338,8,0.112507976275916,1
979,339,8,0.1362049778208,1
979,340,8,0.12057076316419,1
980,335,8,0.150517624725487,1
980,336,8,0.190446252950586,1
980,337,8,0.167153508387995,1
980,338,8,0.167542830069697,1
980,339,8,0.222151676443433,1
980,340,8,0.207086274773302,1
980,341,8,0.109791603144234,1
981,332,8,0.176641060489774,1
981,333,8,0.183466280932134,1
981,334,8,0.146364930763114,1
981,335,8,0.20437110628125,1
981,336,8,0.228766508805336,1
981,337,8,0.163450011158532,1
981,338,8,0.144708707429709,1
981,339,8,0.187649682050986,1
981,340,8,0.180983730583328,1
981,341,8,0.104410199068037,1
982,331,8,0.103009972809945,1
982,332,8,0.206169231701368,1
982,333,8,0.225117499210961,1
982,334,8,0.153635533246225,1
982,335,8,0.155354408994428,1
982,336,8,0.156770105948502,1
982,337,8,0.117015302760293,1
982,338,8,0.113444037038296,1
982,339,8,0.119645443771839,1
982,340,8,0.107527137184629,1
983,332,8,0.130022243001512,1
983,333,8,0.162909261813789,1
983,334,8,0.150228778912132,1
983,335,8,0.123722791987023,1
983,338,8,0.104120427466819,1
984,333,8,0.1344517921513,1
984,334,8,0.202453900002954,1
984,335,8,0.183191054239033,1
984,336,8,0.107502285915237,1
984,341,8,0.107725088476319,1
984,342,8,0.121117022619831,1
985,333,8,0.121389148481293,1
985,334,8,0.198333095528547,1
985,335,8,0.203946359271188,1
985,336,8,0.129340918904463,1
986,331,8,0.105838935130691,1
986,332,8,0.106474081375281,1
986,333,8,0.106771872753291,1
986,334,8,0.130798744783353,1
986,335,8,0.141410906057651,1
986,336,8,0.115488622803328,1
987,331,8,0.125590853430069,1
987,332,8,0.128909791765994,1
987,333,8,0.11811973421902,1
987,334,8,0.111747402506953,1
987,335,8,0.108608602411903,1
987,336,8,0.103318472095772,1
988,330,8,0.120702280811135,1
988,331,8,0.136422415273902,1
988,332,8,0.138211450126447,1
988,333,8,0.132026785652938,1
988,334,8,0.119955292700214,1
988,335,8,0.10523101597254,1
988,343,8,0.110603820260272,1
988,344,8,0.113777409901656,1
988,345,8,0.110435851110468,1
989,329,8,0.127667707921469,1
989,335,8,0.1146006807017,1
989,336,8,0.1037033767655,1
989,341,8,0.113573390795536,1
989,342,8,0.13491817730707,1
989,343,8,0.152050651348648,1
989,344,8,0.149213658097039,1
990,336,8,0.115123784306687,1
990,337,8,0.112956559534941,1
990,338,8,0.115435183650881,1
990,339,8,0.114542590301794,1
990,340,8,0.117008677242332,1
990,341,8,0.134343664590493,1
991,336,8,0.120827976033204,1
991,337,8,0.122372714430539,1
991,338,8,0.124368411903945,1
991,339,8,0.121606809015809,1
991,340,8,0.124265615988905,1
992,334,8,0.140813349031126,1
992,335,8,0.124897984869905,1
992,336,8,0.122436203400635,1
992,340,8,0.125613038876576,1
993,333,8,0.130099618789558,1
993,334,8,0.124976442602803,1
993,335,8,0.116958327767452,1
993,336,8,0.123107399601541,1
968,333,9,0.123760827367913,1
968,334,9,0.114507488441483,1
969,327,9,0.11393948970216,1
969,332,9,0.108634903710477,1
969,333,9,0.167329720396003,1
969,334,9,0.14853372825882,1
970,327,9,0.108555196721667,1
970,328,9,0.115496430652778,1
970,332,9,0.12791011933874,1
970,333,9,0.143544055143584,1
970,334,9,0.106779044820714,1
971,331,9,0.159656377884208,1
971,332,9,0.174343255013019,1
971,333,9,0.117696203002658,1
972,323,9,0.111546785392379,1
972,327,9,0.110836271092459,1
972,330,9,0.136998366865593,1
972,331,9,0.238003306245004,1
972,332,9,0.210626152940512,1
973,326,9,0.153222107617864,1
973,327,9,0.189629641130716,1
973,328,9,0.133132488675718,1
973,330,9,0.111598562588301,1
973,331,9,0.172743549355558,1
973,332,9,0.138348656349419,1
974,326,9,0.119062978202894,1
974,327,9,0.151050164674237,1
974,328,9,0.106835529034447,1
979,338,9,0.105143958451176,1
979,339,9,0.121458783344313,1
980,335,9,0.117019463228643,1
980,336,9,0.163711763734297,1
980,337,9,0.16083052228445,1
980,338,9,0.158539465020433,1
980,339,9,0.199661322260643,1
980,340,9,0.18101501775148,1
981,332,9,0.15755456058271,1
981,333,9,0.160655604148636,1
981,334,9,0.117638625690002,1
981,335,9,0.161957841896135,1
981,336,9,0.189177901269699,1
981,337,9,0.143587031777769,1
981,338,9,0.119008022096839,1
981,339,9,0.15148100180687,1
981,340,9,0.152805101532828,1
982,332,9,0.179716326998446,1
982,333,9,0.195423466968915,1
982,334,9,0.126537811719466,1
982,335,9,0.123427197960929,1
982,336,9,0.120860590535762,1
983,332,9,0.104624948390115,1
983,333,9,0.125825367765325,1
983,334,9,0.114652837136024,1
983,347,9,0.110457501161585,1
984,333,9,0.103201856287206,1
984,334,9,0.158035044483772,1
984,335,9,0.157336844277841,1
984,341,9,0.105729089843005,1
984,342,9,0.117096760938195,1
985,333,9,0.103298238611627,1
985,334,9,0.165465897499802,1
985,335,9,0.185353739304027,1
985,336,9,0.128011465224597,1
986,331,9,0.105204011967515,1
986,332,9,0.108040324820814,1
986,333,9,0.103667226422548,1
986,334,9,0.120923376799408,1
986,335,9,0.136742860569388,1
986,336,9,0.118080572276995,1
987,330,9,0.104775874119977,1
987,331,9,0.131053894149297,1
987,332,9,0.138536992832216,1
987,333,9,0.125860860018109,1
987,334,9,0.118981207711014,1
987,335,9,0.119575284667498,1
987,336,9,0.114448338404866,1
988,329,9,0.112665538677811,1
988,336,9,0.115006800413789,1
988,337,9,0.104137013569864,1
988,342,9,0.106861518019044,1
988,343,9,0.126291429453046,1
988,344,9,0.132106492641749,1
989,328,9,0.103746799562511,1
989,337,9,0.116109949154392,1
989,338,9,0.11350504980471,1
989,339,9,0.113240876795616,1
989,340,9,0.115594787247703,1
989,341,9,0.127816425145344,1
990,337,9,0.125249215400363,1
990,338,9,0.124822951436693,1
990,339,9,0.12625399639197,1
990,340,9,0.136710101063911,1
993,334,9,0.140626228342029,1
993,335,9,0.131013728340914,1
994,333,9,0.143063995097206,1
968,333,10,0.107643016824532,1
968,334,10,0.103265981039329,1
969,333,10,0.165518578175446,1
969,334,10,0.147585476097228,1
970,332,10,0.116357156822039,1
970,333,10,0.152192308045806,1
970,334,10,0.1099092451273,1
971,320,10,0.105706625544731,1
971,321,10,0.105997914099557,1
971,331,10,0.132950911559731,1
971,332,10,0.15964443187455,1
971,333,10,0.119048399832564,1
972,319,10,0.105965466908059,1
972,320,10,0.106732465421712,1
972,330,10,0.117343611675581,1
972,331,10,0.222294024692971,1
972,332,10,0.20285841352887,1
973,326,10,0.117983587632759,1
973,327,10,0.145969708578042,1
973,331,10,0.159783902373863,1
973,332,10,0.125773624031615,1
974,327,10,0.116717924082897,1
980,336,10,0.114771828761637,1
980,337,10,0.123907280315448,1
980,338,10,0.119381783849994,1
980,339,10,0.139344859860703,1
980,340,10,0.120307482480747,1
981,332,10,0.115013292082903,1
981,333,10,0.114757462318649,1
981,335,10,0.109255215041113,1
981,336,10,0.132206042722232,1
981,337,10,0.109529214786443,1
981,340,10,0.104433421843115,1
982,332,10,0.127403847226353,1
982,333,10,0.137825296200808,1
983,347,10,0.12490067300093,1
984,334,10,0.104140805953882,1
984,335,10,0.109377474809424,1
984,347,10,0.111960601413212,1
985,334,10,0.118957706084171,1
985,335,10,0.13509250427714,1
986,332,10,0.110382255801031,1
986,333,10,0.109889368573415,1
986,334,10,0.107712584763129,1
986,335,10,0.113416865722211,1
987,330,10,0.110265450373264,1
987,336,10,0.10621969048614,1
988,328,10,0.113898710419892,1
988,337,10,0.102987162735481,1
988,343,10,0.112927960497814,1
988,344,10,0.126707621290926,1
989,338,10,0.109067079331587,1
989,339,10,0.103299231323914,1
989,341,10,0.109510509409976,1
990,339,10,0.117563012245117,1
990,340,10,0.128784665401527,1
969,333,11,0.13631437694566,1
969,334,11,0.11889622484679,1
970,321,11,0.114380755890844,1
970,322,11,0.103229596460894,1
970,333,11,0.135608536201339,1
971,318,11,0.104464039767028,1
971,319,11,0.106695411599038,1
971,320,11,0.116436194566611,1
971,321,11,0.12716435817559,1
971,322,11,0.110071380698157,1
971,332,11,0.122837950717033,1
972,318,11,0.119470860258144,1
972,319,11,0.120418967416818,1
972,320,11,0.112394918615885,1
972,321,11,0.105996731768069,1
972,331,11,0.163140853782537,1
972,332,11,0.156637060193879,1
973,331,11,0.121147696314097,1
983,347,11,0.116237629801035,1
984,347,11,0.105745229783225,1
985,325,11,0.104848397887294,1
985,326,11,0.105139764520615,1
986,325,11,0.104742634989463,1
986,332,11,0.113173283127523,1
986,333,11,0.117578929103924,1
988,344,11,0.117844418293354,1
970,320,12,0.106080019213556,1
970,321,12,0.122516323090059,1
971,318,12,0.117772061837097,1
971,319,12,0.116229465021325,1
971,320,12,0.123682425405368,1
971,321,12,0.138698392234411,1
971,322,12,0.115058666842276,1
972,317,12,0.108153772873318,1
972,318,12,0.140315509396144,1
972,319,12,0.132311147529895,1
972,320,12,0.114861764033226,1
972,321,12,0.107674482457815,1
973,318,12,0.11505370328084,1
973,319,12,0.113133139627281,1
974,319,12,0.103300502887967,1
975,319,12,0.104582306378049,1
975,320,12,0.104646609595303,1
978,321,12,0.113071569157335,1
978,322,12,0.104218460593695,1
979,321,12,0.128430467888278,1
979,322,12,0.12214441291263,1
980,321,12,0.128569949541661,1
980,322,12,0.128275247841219,1
980,323,12,0.108547768110619,1
981,318,12,0.143999799315961,1
981,319,12,0.137105133629782,1
981,322,12,0.119114788861028,1
981,323,12,0.118227594082132,1
981,324,12,0.114283637397761,1
982,323,12,0.107143158302764,1
982,324,12,0.113499171609482,1
982,325,12,0.104950792255791,1
983,324,12,0.11067202740225,1
983,325,12,0.104047636001806,1
984,324,12,0.114773144941973,1
984,325,12,0.11051454307885,1
984,326,12,0.108766287508574,1
985,325,12,0.122769632034348,1
985,326,12,0.129474299281205,1
985,327,12,0.117967916163507,1
986,326,12,0.130599867703799,1
986,327,12,0.123677015681106,1
986,332,12,0.104910693371832,1
986,333,12,0.11272178865606,1
987,326,12,0.107566644902844,1
987,327,12,0.111822391323882,1
987,328,12,0.11384381008419,1
988,327,12,0.107819094983693,1
988,344,12,0.105306071713893,1
990,340,12,0.110669751971839,1
970,319,13,0.107615075877573,1
970,320,13,0.119255006683073,1
970,321,13,0.117236197975295,1
971,318,13,0.119067629450351,1
971,319,13,0.123174480182384,1
971,320,13,0.125968273718395,1
971,321,13,0.130235620372901,1
971,322,13,0.103967850934501,1
972,318,13,0.136602798904331,1
972,319,13,0.128938881582229,1
972,320,13,0.109124823955303,1
973,318,13,0.113097067362823,1
973,319,13,0.112773855857819,1
974,319,13,0.105965199210363,1
974,320,13,0.10623896472021,1
975,319,13,0.108627017782533,1
975,320,13,0.114755287274874,1
976,320,13,0.107299203751051,1
977,320,13,0.107960338980238,1
977,321,13,0.104713679022075,1
978,320,13,0.125212964670775,1
978,321,13,0.137782520339894,1
978,322,13,0.115310358446322,1
979,320,13,0.142245933248152,1
979,321,13,0.167700437087874,1
979,322,13,0.148419075566687,1
980,318,13,0.173437923715259,1
980,319,13,0.163174628308442,1
980,320,13,0.153782856211269,1
980,321,13,0.175745745547451,1
980,322,13,0.166731817593289,1
980,323,13,0.125725527679005,1
980,324,13,0.104969943795084,1
981,317,13,0.148689149079151,1
981,318,13,0.19287529722252,1
981,319,13,0.180643018341486,1
981,320,13,0.150712374798903,1
981,321,13,0.151615029119709,1
981,322,13,0.151807849538904,1
981,323,13,0.141250845143933,1
981,324,13,0.135202316102614,1
981,325,13,0.117998623319985,1
982,318,13,0.145009421174227,1
982,319,13,0.144425695195299,1
982,323,13,0.132665735435617,1
982,324,13,0.141212263213581,1
982,325,13,0.131672989686232,1
983,324,13,0.142966095819178,1
983,325,13,0.129907835698933,1
983,326,13,0.105842515587368,1
984,325,13,0.125276576335649,1
984,326,13,0.119035182258853,1
984,327,13,0.111677979571275,1
985,325,13,0.127746221424721,1
985,326,13,0.143554528815917,1
985,327,13,0.146583595163988,1
986,328,13,0.118692138816246,1
987,333,13,0.122474997258329,1
990,338,13,0.104163961804536,1
990,341,13,0.106639328931848,1
970,319,14,0.106377955594485,1
970,320,14,0.110180534433464,1
971,318,14,0.104147621091045,1
971,319,14,0.112016951778097,1
971,320,14,0.108192299033317,1
972,318,14,0.116026985176954,1
972,319,14,0.113349338978542,1
973,319,14,0.1078179907307,1
974,319,14,0.107323129232579,1
974,320,14,0.114918170168465,1
975,319,14,0.109735698942175,1
975,320,14,0.125061905092065,1
975,321,14,0.104317676052059,1
976,319,14,0.103807332703887,1
976,320,14,0.117766930964601,1
977,320,14,0.128334264028988,1
977,321,14,0.118970421724703,1
978,319,14,0.111204901973119,1
978,320,14,0.152899464970463,1
978,321,14,0.161445546585601,1
978,322,14,0.11541745983263,1
979,318,14,0.132187315037624,1
979,319,14,0.136650549480751,1
979,320,14,0.163530788938124,1
979,321,14,0.198113382645033,1
979,322,14,0.159432426453851,1
980,317,14,0.160635292585996,1
980,318,14,0.198092301451519,1
980,319,14,0.178787349070924,1
980,320,14,0.169394773880664,1
980,321,14,0.209984682337868,1
980,322,14,0.193356037667207,1
980,323,14,0.131892301023203,1
981,317,14,0.160161869211651,1
981,318,14,0.207234311598868,1
981,319,14,0.190163831881921,1
981,320,14,0.157326604840992,1
981,321,14,0.173198891981392,1
981,322,14,0.177034341866554,1
981,323,14,0.154500207956493,1
981,324,14,0.138264911587036,1
981,325,14,0.115387645001803,1
982,318,14,0.146189399153415,1
982,319,14,0.146311692383938,1
982,320,14,0.13043840137718,1
982,321,14,0.133996036824852,1
982,322,14,0.143651067297327,1
982,323,14,0.154915440544297,1
982,324,14,0.158617532360859,1
982,325,14,0.138788104424588,1
983,323,14,0.157935661714349,1
983,324,14,0.16635469846487,1
983,325,14,0.140025905105986,1
984,323,14,0.159521826330049,1
984,324,14,0.154987629689495,1
984,325,14,0.122930786046989,1
984,326,14,0.109852035898975,1
984,327,14,0.103720119025534,1
985,325,14,0.11881426473571,1
985,328,14,0.110884188979939,1
990,343,14,0.105496728243383,1
991,341,14,0.106537046104057,1
974,319,15,0.108847611837628,1
974,320,15,0.117783639762424,1
974,321,15,0.103521375794828,1
975,319,15,0.109179222357826,1
975,320,15,0.125015905704736,1
975,321,15,0.109960219230135,1
976,319,15,0.106865299248992,1
976,320,15,0.121518848014723,1
976,321,15,0.104961042846712,1
977,319,15,0.108113082823615,1
977,320,15,0.137123727465543,1
977,321,15,0.124832298547892,1
978,319,15,0.109220715500616,1
978,320,15,0.155114596475617,1
978,321,15,0.159522450958005,1
978,322,15,0.104339794574142,1
979,317,15,0.11476077507763,1
979,318,15,0.128230665020861,1
979,319,15,0.12536028763582,1
979,320,15,0.153216329809272,1
979,321,15,0.188101421912002,1
979,322,15,0.144807677498519,1
980,316,15,0.102996197532702,1
980,317,15,0.172977037516315,1
980,318,15,0.200110028214445,1
980,319,15,0.166186305460382,1
980,320,15,0.153892444955331,1
980,321,15,0.201450100569563,1
980,322,15,0.189055541114752,1
980,323,15,0.129070800775717,1
981,317,15,0.15344202127465,1
981,318,15,0.194762610591495,1
981,319,15,0.17482615934741,1
981,320,15,0.145846322248596,1
981,321,15,0.172479209035404,1
981,322,15,0.183006933994939,1
981,323,15,0.153842563951418,1
981,324,15,0.133925175014061,1
981,325,15,0.113325603116215,1
982,318,15,0.136390737713278,1
982,319,15,0.141241219180968,1
982,320,15,0.126564347253524,1
982,321,15,0.133445003426977,1
982,322,15,0.149090974474043,1
982,323,15,0.163922631439792,1
982,324,15,0.172610670911995,1
982,325,15,0.151642077741017,1
983,322,15,0.136160093840535,1
983,323,15,0.173372750480495,1
983,324,15,0.185359316339348,1
983,325,15,0.154062176448296,1
983,326,15,0.103151105265783,1
984,322,15,0.141183184551416,1
984,323,15,0.174954152308032,1
984,324,15,0.157956798678216,1
984,325,15,0.118396924028554,1
985,323,15,0.151407139551076,1
985,324,15,0.133641839311603,1
985,325,15,0.109491893266073,1
985,328,15,0.126815826930228,1
974,319,16,0.117457438966487,1
974,320,16,0.12945981014344,1
974,321,16,0.11003183951773,1
975,319,16,0.112834143609641,1
975,320,16,0.130423499538801,1
975,321,16,0.116769533967759,1
976,319,16,0.108236669926332,1
976,320,16,0.126872746152716,1
976,321,16,0.113427450935251,1
977,319,16,0.111010687295094,1
977,320,16,0.143527413270185,1
977,321,16,0.129557296720855,1
978,319,16,0.105182964236213,1
978,320,16,0.148589219760266,1
978,321,16,0.147832806459652,1
979,317,16,0.111851146517998,1
979,318,16,0.12164555825722,1
979,319,16,0.113639913672847,1
979,320,16,0.138574526279927,1
979,321,16,0.165734732910425,1
979,322,16,0.128773723258227,1
980,317,16,0.175818581628746,1
980,318,16,0.197471242798151,1
980,319,16,0.149249518434154,1
980,320,16,0.133314076945776,1
980,321,16,0.174547140270291,1
980,322,16,0.173220330105167,1
980,323,16,0.126148891584307,1
981,317,16,0.142539474925248,1
981,318,16,0.179600793134732,1
981,319,16,0.15520823489866,1
981,320,16,0.130091855556391,1
981,321,16,0.158630638393864,1
981,322,16,0.176922544616506,1
981,323,16,0.146167983337782,1
981,324,16,0.120614052112353,1
982,318,16,0.12415475568079,1
982,319,16,0.132806310187923,1
982,320,16,0.120112944334674,1
982,321,16,0.127082476143004,1
982,322,16,0.144034276548317,1
982,323,16,0.156784293926359,1
982,324,16,0.170395561714982,1
982,325,16,0.146976251912812,1
983,322,16,0.13214871079913,1
983,323,16,0.172603342687583,1
983,324,16,0.19147510442664,1
983,325,16,0.15588002226531,1
984,322,16,0.139344525238583,1
984,323,16,0.177256921346223,1
984,324,16,0.155243983695069,1
984,325,16,0.111311646429167,1
985,323,16,0.158050760569307,1
985,324,16,0.134410098235239,1
985,328,16,0.123661366519995,1
973,319,17,0.106308577275089,1
973,320,17,0.113088612577277,1
974,319,17,0.132590345072145,1
974,320,17,0.149747670383114,1
974,321,17,0.115286566813642,1
975,319,17,0.117830442242839,1
975,320,17,0.140912966036033,1
975,321,17,0.123192505160542,1
976,319,17,0.10706389747678,1
976,320,17,0.136650861794729,1
976,321,17,0.130188762122132,1
977,319,17,0.108850879980326,1
977,320,17,0.149297570170481,1
977,321,17,0.141888634903264,1
978,320,17,0.135493626965581,1
978,321,17,0.136417273247336,1
979,318,17,0.107536595836533,1
979,320,17,0.115582339304866,1
979,321,17,0.136313049611254,1
979,322,17,0.1202384276294,1
980,317,17,0.15320380378794,1
980,318,17,0.175767005206096,1
980,319,17,0.127912227458092,1
980,320,17,0.109247897970771,1
980,321,17,0.138598574456232,1
980,322,17,0.153422557421379,1
980,323,17,0.127240518169936,1
981,317,17,0.122969267590706,1
981,318,17,0.158871900941859,1
981,319,17,0.134729305428883,1
981,320,17,0.110739554145919,1
981,321,17,0.134110388357078,1
981,322,17,0.158027102785475,1
981,323,17,0.137330523935252,1
981,324,17,0.11009018646126,1
982,318,17,0.11252122731184,1
982,319,17,0.119572027678871,1
982,321,17,0.113640627533368,1
982,322,17,0.129268963994749,1
982,323,17,0.139291576865244,1
982,324,17,0.155410012036581,1
982,325,17,0.131079325430362,1
983,322,17,0.118776396665879,1
983,323,17,0.154413496211319,1
983,324,17,0.179653339961528,1
983,325,17,0.144774081437744,1
984,322,17,0.122518821601883,1
984,323,17,0.160568490856919,1
984,324,17,0.148223031621076,1
984,325,17,0.107790652103555,1
985,323,17,0.144596084778432,1
985,324,17,0.130683344768487,1
985,328,17,0.107278133711608,1
987,331,17,0.103241118615867,1
989,333,17,0.103735433564526,1
973,319,18,0.107365380852173,1
973,320,18,0.122067170973432,1
974,319,18,0.139477626763559,1
974,320,18,0.161894140998696,1
974,321,18,0.108685866659243,1
975,319,18,0.113930466059011,1
975,320,18,0.140532255296867,1
975,321,18,0.116514696915792,1
976,320,18,0.136828099977237,1
976,321,18,0.137574240378789,1
977,320,18,0.146434409469146,1
977,321,18,0.146791150110501,1
978,320,18,0.121511006703061,1
978,321,18,0.124473271322055,1
979,321,18,0.112137003040421,1
979,322,18,0.110689762374571,1
980,318,18,0.145254676879512,1
980,321,18,0.110897484632145,1
980,322,18,0.131931072572756,1
980,323,18,0.117655847575074,1
981,318,18,0.131189471877956,1
981,319,18,0.11721040976397,1
981,321,18,0.110400280779189,1
981,322,18,0.135751642927681,1
981,323,18,0.124782674087604,1
982,322,18,0.117488291125884,1
982,323,18,0.123071650805132,1
982,324,18,0.135266106232618,1
982,325,18,0.106330673489032,1
983,322,18,0.111382062077132,1
983,323,18,0.139344235232747,1
983,324,18,0.167971514466696,1
983,325,18,0.129236583727674,1
984,322,18,0.108438368985759,1
984,323,18,0.145672251822151,1
984,324,18,0.155864763496671,1
984,325,18,0.114422304803987,1
985,323,18,0.12382484057933,1
985,324,18,0.128163707134795,1
985,325,18,0.103365296884329,1
947,326,19,0.105132893613099,1
947,327,19,0.129372919933136,1
947,328,19,0.11455172548565,1
948,327,19,0.126659023005137,1
948,328,19,0.11367000735544,1
951,318,19,0.103429477406805,1
960,345,19,0.109862777269003,1
961,345,19,0.128493064532723,1
961,346,19,0.114114095523996,1
973,319,19,0.107990354584336,1
973,320,19,0.131057396527479,1
974,319,19,0.137358509498494,1
974,320,19,0.163067671925053,1
975,319,19,0.106471359782044,1
975,320,19,0.132140780254904,1
975,321,19,0.104984087156659,1
976,320,19,0.131908184419798,1
976,321,19,0.139929935482178,1
977,320,19,0.139762189413788,1
977,321,19,0.154243374325881,1
977,322,19,0.111143933822988,1
978,320,19,0.110701485302817,1
978,321,19,0.120552292023207,1
978,322,19,0.105369716840978,1
979,322,19,0.108083435303847,1
980,322,19,0.118580308103986,1
980,323,19,0.112898614137954,1
981,322,19,0.126556204781955,1
981,323,19,0.129415662331838,1
981,324,19,0.106146441704231,1
982,322,19,0.124432480885715,1
982,323,19,0.131775841371626,1
982,324,19,0.128782858442083,1
983,322,19,0.117504141060267,1
983,323,19,0.13999629104843,1
983,324,19,0.159466256750109,1
983,325,19,0.115482030747579,1
984,322,19,0.103207522555092,1
984,323,19,0.136215763807111,1
984,324,19,0.164364243404665,1
984,325,19,0.122767836228975,1
985,323,19,0.105762128200248,1
985,324,19,0.122399528816363,1
985,325,19,0.104799398054962,1
945,328,20,0.10663451037333,1
946,327,20,0.118674303457289,1
946,328,20,0.115422010693452,1
947,326,20,0.12031291451315,1
947,327,20,0.174969846085425,1
947,328,20,0.159520432071219,1
948,326,20,0.107834677220381,1
948,327,20,0.161611608389325,1
948,328,20,0.147727500878718,1
960,344,20,0.106626613291316,1
960,345,20,0.152505335884314,1
960,346,20,0.121538992266303,1
961,344,20,0.103095178755582,1
961,345,20,0.163357108904152,1
961,346,20,0.134320386045062,1
973,319,20,0.106430602807917,1
973,320,20,0.132741382342714,1
974,319,20,0.124647152129299,1
974,320,20,0.150581492933985,1
975,320,20,0.119336453706904,1
976,320,20,0.123867069890782,1
976,321,20,0.137146292150452,1
977,320,20,0.135135246675842,1
977,321,20,0.165128888409413,1
977,322,20,0.118113454477248,1
978,320,20,0.109858828727996,1
978,321,20,0.128123440939776,1
978,322,20,0.115241493214176,1
979,320,20,0.104897843882452,1
979,322,20,0.109135866485239,1
980,320,20,0.111072848930784,1
980,322,20,0.11001621266476,1
980,323,20,0.105958450997625,1
981,322,20,0.12427975935048,1
981,323,20,0.135713886398557,1
981,324,20,0.108491651981217,1
982,322,20,0.14009856272215,1
982,323,20,0.153738831094444,1
982,324,20,0.130697153507942,1
983,322,20,0.127678627756628,1
983,323,20,0.151278086953744,1
983,324,20,0.156945213703516,1
983,325,20,0.107304535396819,1
984,322,20,0.103497037612686,1
984,323,20,0.134099858914391,1
984,324,20,0.170929205916726,1
984,325,20,0.129589900069343,1
985,324,20,0.11911084032002,1
985,325,20,0.107179899811461,1
944,327,21,0.106844842683434,1
944,328,21,0.132691189024823,1
945,328,21,0.117226248544282,1
945,329,21,0.106136536889501,1
946,327,21,0.121195859591131,1
946,328,21,0.125005420878332,1
947,326,21,0.113178994011692,1
947,327,21,0.181336399988899,1
947,328,21,0.173493872533601,1
947,329,21,0.106521843105772,1
948,327,21,0.162801915037927,1
948,328,21,0.152519345397041,1
956,334,21,0.105810570329048,1
960,344,21,0.108054390103894,1
960,345,21,0.158277455901043,1
960,346,21,0.129387475995325,1
961,345,21,0.1579014856419,1
961,346,21,0.13079713859718,1
963,349,21,0.106739157864097,1
973,320,21,0.116329818194895,1
974,320,21,0.119323771528583,1
976,320,21,0.106480952282797,1
976,321,21,0.117759859283814,1
977,320,21,0.121614181856503,1
977,321,21,0.155653750788258,1
977,322,21,0.108949626967723,1
978,319,21,0.105348077943932,1
978,320,21,0.106275817769612,1
978,321,21,0.126278613425878,1
978,322,21,0.114223427724433,1
979,319,21,0.139205500902097,1
979,320,21,0.110299570675359,1
979,322,21,0.107614607406606,1
980,320,21,0.115036124465508,1
981,322,21,0.117415321195741,1
981,323,21,0.137024668164168,1
981,324,21,0.104450431800844,1
982,322,21,0.148082981110091,1
982,323,21,0.177539598958513,1
982,324,21,0.134089463320553,1
983,322,21,0.133540783431583,1
983,323,21,0.163933528966809,1
983,324,21,0.149953094902135,1
984,322,21,0.104904614403332,1
984,323,21,0.132459675134569,1
984,324,21,0.162140545573257,1
984,325,21,0.122829317466356,1
985,324,21,0.113885559770604,1
991,336,21,0.105623070401549,1
992,337,21,0.108141681860742,1
944,327,22,0.114845925252914,1
944,328,22,0.140411211322256,1
944,329,22,0.123628272392399,1
945,327,22,0.106967225146522,1
945,328,22,0.126757714222181,1
945,329,22,0.119357423359711,1
945,330,22,0.1041407613376,1
946,327,22,0.122318349490228,1
946,329,22,0.117684859312815,1
947,327,22,0.160943691485188,1
947,328,22,0.166768090631018,1
947,329,22,0.114093460493308,1
948,327,22,0.137321556062456,1
948,328,22,0.133777930127511,1
959,344,22,0.109621325101808,1
959,345,22,0.113331213613748,1
959,346,22,0.105253971049922,1
960,345,22,0.146409335118342,1
960,346,22,0.133577435707714,1
961,345,22,0.131574041925564,1
961,346,22,0.119697432895103,1
962,349,22,0.118560922329209,1
963,349,22,0.115679792420068,1
976,321,22,0.103621517041055,1
977,320,22,0.11635543909516,1
977,321,22,0.142002729891865,1
978,319,22,0.114454584684426,1
978,320,22,0.116233179326849,1
978,321,22,0.1253767845063,1
978,322,22,0.105255220305834,1
979,319,22,0.139772875013463,1
979,320,22,0.117678802652456,1
980,319,22,0.117502646414801,1
980,320,22,0.110451734507063,1
981,322,22,0.110152939262695,1
981,323,22,0.132398796217003,1
982,322,22,0.145525475406568,1
982,323,22,0.190038660901172,1
982,324,22,0.129601879541213,1
983,322,22,0.12748904201792,1
983,323,22,0.164036670658039,1
983,324,22,0.133507432760362,1
984,323,22,0.12209977432192,1
984,324,22,0.136465860379055,1
984,325,22,0.103384381499198,1
990,334,22,0.108690261363076,1
992,337,22,0.108486208794744,1
943,328,23,0.126451724602248,1
944,329,23,0.132083827570204,1
944,330,23,0.107476006924804,1
945,327,23,0.123784797465724,1
945,329,23,0.137295678618566,1
945,330,23,0.115684265202396,1
946,326,23,0.108059978293286,1
946,330,23,0.114828480286429,1
946,333,23,0.105629562070663,1
946,334,23,0.139500771460142,1
947,327,23,0.134262897964971,1
947,329,23,0.123876283153133,1
947,334,23,0.127984751225409,1
947,335,23,0.144899665119106,1
948,328,23,0.105993530549795,1
952,317,23,0.103436036000343,1
958,344,23,0.10539891819792,1
959,344,23,0.108526318832774,1
959,345,23,0.119261754895812,1
959,346,23,0.117202233830189,1
960,317,23,0.124783912189445,1
960,345,23,0.115166102850704,1
960,346,23,0.123323453949884,1
960,347,23,0.108339008524476,1
961,347,23,0.103090047883087,1
961,348,23,0.127001508744211,1
961,349,23,0.136890975473448,1
961,350,23,0.11063262007067,1
962,316,23,0.105676844176116,1
962,317,23,0.112075387954193,1
962,348,23,0.114094073967193,1
962,349,23,0.137566343296774,1
962,350,23,0.111154072873202,1
963,349,23,0.116660067918475,1
977,320,23,0.109482033067626,1
977,321,23,0.12177473354933,1
978,319,23,0.11249710105704,1
978,320,23,0.124858421381336,1
978,321,23,0.119084639408081,1
979,319,23,0.125964804802425,1
979,320,23,0.122391129801169,1
979,321,23,0.103626937919387,1
981,322,23,0.103669022227921,1
981,323,23,0.128490253706922,1
982,322,23,0.140554898060271,1
982,323,23,0.199320208472257,1
982,324,23,0.126516998223647,1
983,322,23,0.127642232024122,1
983,323,23,0.171932113024466,1
983,324,23,0.126281758873799,1
984,322,23,0.112589891770714,1
984,323,23,0.125765961185083,1
984,324,23,0.119082073971833,1
985,322,23,0.117562376463091,1
985,323,23,0.110247804633508,1
985,324,23,0.103624774029683,1
992,337,23,0.104461931647677,1
943,329,24,0.11593210865207,1
944,330,24,0.117197102957694,1
945,330,24,0.118147039383953,1
945,334,24,0.111182024974232,1
946,330,24,0.115504930054608,1
946,331,24,0.10867661993468,1
946,333,24,0.104279651825239,1
946,334,24,0.125666701110437,1
946,335,24,0.140238178224381,1
947,327,24,0.10588301601787,1
947,329,24,0.114032681962378,1
947,330,24,0.103685887182733,1
947,331,24,0.110098273162476,1
947,334,24,0.110534720792642,1
947,335,24,0.12646113863787,1
952,316,24,0.105583228061215,1
952,317,24,0.123364500929848,1
952,319,24,0.104524004050802,1
956,346,24,0.106343400283635,1
957,346,24,0.107394470668408,1
957,347,24,0.109036416791391,1
958,345,24,0.108468797290471,1
958,346,24,0.103328767302975,1
959,345,24,0.111445640279794,1
959,346,24,0.112009132774577,1
960,346,24,0.103144959372859,1
961,348,24,0.136271723779524,1
961,349,24,0.153860153920821,1
961,350,24,0.118345079908208,1
962,348,24,0.112372510087965,1
962,349,24,0.137829445515086,1
962,350,24,0.112034463669006,1
963,349,24,0.103040166879174,1
976,321,24,0.104343285798254,1
977,321,24,0.110403470843393,1
978,320,24,0.129288907473058,1
978,321,24,0.114478420933389,1
979,319,24,0.113110574942371,1
979,320,24,0.134971861849072,1
979,321,24,0.111611311691045,1
981,323,24,0.11661762667968,1
982,322,24,0.127505048109291,1
982,323,24,0.18964273600965,1
982,324,24,0.115389251187975,1
983,322,24,0.119888635974055,1
983,323,24,0.166885978003637,1
983,324,24,0.117192630175366,1
984,322,24,0.12088347868872,1
984,323,24,0.129222161514334,1
984,324,24,0.109885029639935,1
985,322,24,0.128611799614712,1
985,323,24,0.122275082850206,1
985,324,24,0.106438076035247,1
943,330,25,0.109619830456342,1
945,331,25,0.103811794332144,1
945,335,25,0.104312935572036,1
946,330,25,0.117579598348162,1
946,331,25,0.114691474836729,1
946,334,25,0.110843699703507,1
946,335,25,0.116130037635619,1
947,328,25,0.108622254994369,1
947,329,25,0.103889426663815,1
947,330,25,0.107525921390929,1
947,331,25,0.123718531132037,1
947,332,25,0.103589348701323,1
947,335,25,0.106339886751382,1
952,316,25,0.113999320137086,1
952,317,25,0.138317826498163,1
952,319,25,0.1086359968094,1
953,317,25,0.1079477014182,1
953,318,25,0.105589887041388,1
956,346,25,0.121151722933599,1
956,347,25,0.169229437091532,1
957,346,25,0.116958271997099,1
957,347,25,0.128368785877626,1
957,348,25,0.137582795550971,1
961,348,25,0.126910703455112,1
961,349,25,0.150439769312403,1
961,350,25,0.11906986026448,1
962,349,25,0.127703021709123,1
962,350,25,0.109882252276345,1
966,357,25,0.104365002773794,1
966,358,25,0.119381103451685,1
967,357,25,0.103465861985241,1
967,358,25,0.122321316473019,1
976,321,25,0.109933360228028,1
977,321,25,0.106479256864059,1
978,320,25,0.125129275678745,1
978,321,25,0.109237770074628,1
979,319,25,0.1060891209352,1
979,320,25,0.149383177662662,1
979,321,25,0.120253507932909,1
981,323,25,0.111716873815605,1
982,322,25,0.121382076800506,1
982,323,25,0.176429958548797,1
982,324,25,0.11060066365828,1
983,322,25,0.11794036560902,1
983,323,25,0.159608950775837,1
983,324,25,0.113286151168353,1
984,322,25,0.133929190479492,1
984,323,25,0.137085569389875,1
984,324,25,0.106901873446628,1
985,321,25,0.102953053587457,1
985,322,25,0.140051447927757,1
985,323,25,0.130627797496687,1
985,324,25,0.103764077217936,1
943,331,26,0.104765779686046,1
946,331,26,0.110063126685882,1
947,331,26,0.115985469726023,1
952,316,26,0.115695843127723,1
952,317,26,0.148587435108963,1
952,319,26,0.11763790067541,1
953,316,26,0.106966890524403,1
953,317,26,0.115502063458453,1
953,318,26,0.111508091921321,1
953,319,26,0.115512325203444,1
954,319,26,0.103973048731421,1
954,345,26,0.105930376201818,1
954,346,26,0.105730339098917,1
955,347,26,0.140787114656975,1
955,348,26,0.159959489753915,1
956,346,26,0.113194029698918,1
956,347,26,0.185053661341535,1
956,348,26,0.220672378978557,1
956,349,26,0.133896118660037,1
957,346,26,0.10615457302173,1
957,347,26,0.132502785617602,1
957,348,26,0.152302766807378,1
957,349,26,0.107712439760211,1
961,349,26,0.119804601205835,1
964,357,26,0.119603883704626,1
965,357,26,0.12938427477705,1
966,357,26,0.127226653660128,1
967,357,26,0.117152263593711,1
976,321,26,0.111050195013309,1
977,321,26,0.109971986774663,1
977,322,26,0.104463582450132,1
978,320,26,0.119153861570488,1
978,321,26,0.109106107424765,1
979,320,26,0.158213386919273,1
979,321,26,0.12647293964461,1
980,320,26,0.109094685656427,1
981,322,26,0.104992742715477,1
981,323,26,0.108710494847221,1
982,322,26,0.121307054521365,1
982,323,26,0.151973509796085,1
982,324,26,0.103698535898841,1
983,322,26,0.116821880021284,1
983,323,26,0.141340367714908,1
983,324,26,0.104718988359701,1
984,322,26,0.133656975385465,1
984,323,26,0.136282465149552,1
985,322,26,0.132138515978563,1
985,323,26,0.126226133523506,1
943,334,27,0.103856432922855,1
944,335,27,0.107056926182628,1
952,316,27,0.10818732431781,1
952,317,27,0.140142866690742,1
952,319,27,0.124029372772699,1
953,316,27,0.10617541997976,1
953,317,27,0.112300175939849,1
953,318,27,0.111113304745004,1
953,319,27,0.132070966926753,1
953,320,27,0.116784458114279,1
953,345,27,0.108543752645188,1
953,346,27,0.112620598927193,1
954,315,27,0.106104803558523,1
954,316,27,0.104239497170926,1
954,318,27,0.104025361322734,1
954,319,27,0.125565689846699,1
954,320,27,0.103597903873505,1
954,346,27,0.109583200488352,1
955,318,27,0.113759172996156,1
955,319,27,0.105018062455835,1
955,347,27,0.119483174352134,1
955,348,27,0.142594776807493,1
955,349,27,0.103731942340415,1
956,347,27,0.163522244920012,1
956,348,27,0.206584475443243,1
956,349,27,0.136145024691097,1
957,347,27,0.119490725657959,1
957,348,27,0.145934684796225,1
957,349,27,0.107226211512768,1
962,357,27,0.115215682694709,1
963,357,27,0.123613638251716,1
964,318,27,0.106874624052049,1
964,356,27,0.108784814419911,1
964,357,27,0.144220393371055,1
965,356,27,0.118192324910761,1
966,356,27,0.1102643349662,1
977,321,27,0.114483596422167,1
977,322,27,0.113828718626611,1
978,320,27,0.114198621071324,1
978,321,27,0.119167926853568,1
978,322,27,0.111293956073128,1
979,320,27,0.151816226245957,1
979,321,27,0.131434359498909,1
980,320,27,0.113328648177501,1
980,321,27,0.107407900169462,1
981,322,27,0.106588589064496,1
982,322,27,0.11661797245587,1
982,323,27,0.123164709216501,1
983,322,27,0.113358005691431,1
983,323,27,0.121289475706033,1
984,322,27,0.129012297675197,1
984,323,27,0.134514009557343,1
985,322,27,0.119822804649124,1
985,323,27,0.122826127402152,1
943,334,28,0.113143624453685,1
944,334,28,0.104517791233454,1
944,335,28,0.113502361673685,1
944,336,28,0.128803895019315,1
945,337,28,0.103949848264485,1
950,317,28,0.10981826137307,1
951,317,28,0.121464773080248,1
951,320,28,0.107323541933193,1
952,317,28,0.11956403021022,1
952,318,28,0.12800926787268,1
952,319,28,0.129123403372866,1
952,320,28,0.121758303603273,1
953,318,28,0.105687708240922,1
953,319,28,0.140093621468855,1
954,315,28,0.114279555007906,1
954,316,28,0.107618533639472,1
954,318,28,0.11224707140952,1
954,319,28,0.145031461617817,1
954,320,28,0.143236292026419,1
955,318,28,0.141232507851797,1
955,320,28,0.116410885980324,1
955,348,28,0.110210761964905,1
956,319,28,0.127232576471639,1
956,347,28,0.117551757787839,1
956,348,28,0.15511394953952,1
956,349,28,0.117040979430912,1
957,315,28,0.10303158939885,1
957,348,28,0.116084372870409,1
958,315,28,0.10554581730828,1
958,355,28,0.122187869171853,1
959,356,28,0.127583394301483,1
964,356,28,0.112936471053714,1
965,356,28,0.123289166336729,1
966,356,28,0.111909605002235,1
977,321,28,0.116678382902469,1
977,322,28,0.115796274379787,1
978,320,28,0.10838178438539,1
978,321,28,0.143153026889073,1
978,322,28,0.135691578257272,1
979,320,28,0.136747043345879,1
979,321,28,0.142952956323961,1
979,322,28,0.116431677168001,1
980,320,28,0.122147101043655,1
980,321,28,0.120466829533945,1
981,321,28,0.11211128175352,1
981,322,28,0.106328431520833,1
982,321,28,0.109036472561745,1
982,322,28,0.111577403316293,1
983,322,28,0.109311230783879,1
983,323,28,0.103494606025286,1
984,322,28,0.115896214852743,1
984,323,28,0.120956582467711,1
985,323,28,0.109221072430876,1
942,333,29,0.103146387093901,1
943,334,29,0.123564504570537,1
943,335,29,0.150315312192176,1
944,334,29,0.12235832567941,1
944,335,29,0.129786289791143,1
944,336,29,0.143862693479625,1
944,337,29,0.135635952906978,1
945,333,29,0.110083415940381,1
945,334,29,0.119288970828179,1
945,335,29,0.117282665833591,1
945,336,29,0.11984201195877,1
945,337,29,0.115475304842981,1
945,338,29,0.108473336997222,1
946,334,29,0.104006120550875,1
946,335,29,0.106196668484334,1
946,336,29,0.106096605316601,1
946,338,29,0.104683574185412,1
946,339,29,0.12834384537567,1
947,339,29,0.11328105375807,1
947,340,29,0.116569887257331,1
949,318,29,0.113396576467713,1
950,317,29,0.119952760726178,1
950,318,29,0.13662691400506,1
950,320,29,0.114710380986468,1
951,317,29,0.11789782398359,1
951,318,29,0.141798800018311,1
951,320,29,0.117886402215252,1
951,347,29,0.109876697549165,1
952,318,29,0.120321871231876,1
954,318,29,0.122367126241147,1
954,321,29,0.106174962662864,1
955,317,29,0.125903702803446,1
956,316,29,0.108363525171748,1
956,320,29,0.115675888495344,1
956,348,29,0.105590121276872,1
957,355,29,0.102948971197602,1
957,356,29,0.145613916032692,1
958,315,29,0.104089051066102,1
958,355,29,0.137057427669644,1
958,356,29,0.20567996954671,1
959,355,29,0.113032808761853,1
959,356,29,0.151063081088041,1
959,357,29,0.121927566625272,1
965,356,29,0.109264127143556,1
966,318,29,0.109644135176271,1
967,318,29,0.106929714006952,1
972,320,29,0.114838162019747,1
977,321,29,0.115537366092036,1
977,322,29,0.111286538616151,1
978,320,29,0.108480709837917,1
978,321,29,0.164506547037921,1
978,322,29,0.151877874794397,1
979,320,29,0.124199561582561,1
979,321,29,0.154264979760716,1
979,322,29,0.131432017144074,1
980,320,29,0.129449113389694,1
980,321,29,0.13288647449363,1
980,322,29,0.104202019493568,1
981,320,29,0.124553022927148,1
981,321,29,0.132426659085468,1
981,322,29,0.105908748458842,1
982,321,29,0.118376032454241,1
982,322,29,0.107517276986181,1
983,321,29,0.103006358891057,1
983,322,29,0.105357447363271,1
984,323,29,0.104189326161177,1
943,334,30,0.126124575710307,1
943,335,30,0.152218810117652,1
944,337,30,0.133725929850176,1
945,333,30,0.119413160250711,1
945,334,30,0.13949327592467,1
945,337,30,0.128684858777419,1
945,338,30,0.10701563381311,1
946,334,30,0.114346691359102,1
946,335,30,0.137624054458278,1
946,336,30,0.139997462225847,1
946,337,30,0.123477190505548,1
946,338,30,0.121176786130333,1
946,339,30,0.139096391783073,1
946,340,30,0.157062231058626,1
947,336,30,0.103311991580729,1
947,337,30,0.112330314238724,1
947,338,30,0.131357351795194,1
947,339,30,0.138227701607373,1
947,340,30,0.123929443453814,1
947,341,30,0.103047807417564,1
948,338,30,0.11198209530734,1
948,339,30,0.109305307972368,1
949,318,30,0.106268779551037,1
950,317,30,0.121921498810842,1
950,318,30,0.12581122440375,1
950,320,30,0.111099641008467,1
951,317,30,0.109517279930855,1
951,321,30,0.107585762979925,1
951,348,30,0.105897784007401,1
957,356,30,0.133296152354254,1
957,357,30,0.113665199950993,1
958,355,30,0.127396998626979,1
958,356,30,0.198466118975028,1
958,357,30,0.159687241197676,1
959,355,30,0.111684582781095,1
959,356,30,0.151987173532622,1
959,357,30,0.1209664649743,1
961,358,30,0.11073609638402,1
963,357,30,0.113970375323769,1
964,319,30,0.104811767919304,1
964,357,30,0.133272383029715,1
965,357,30,0.140106827888496,1
966,318,30,0.106080654995583,1
966,357,30,0.117988428499418,1
967,318,30,0.104759566868698,1
972,320,30,0.114543359932669,1
973,320,30,0.105835231979238,1
977,321,30,0.107014496097905,1
978,321,30,0.157654422977171,1
978,322,30,0.147639696034621,1
979,320,30,0.107993087331644,1
979,321,30,0.146014971796709,1
979,322,30,0.134503390882092,1
980,320,30,0.119213993165321,1
980,321,30,0.128722280684424,1
980,322,30,0.106123553551273,1
981,320,30,0.122816635288035,1
981,321,30,0.130981660387817,1
982,321,30,0.10959409801537,1
942,328,31,0.105960246802998,1
942,334,31,0.112785801867477,1
945,333,31,0.124302212494683,1
945,338,31,0.1115837834447,1
945,339,31,0.119014681077012,1
946,334,31,0.118605192835589,1
946,337,31,0.148965424254892,1
946,338,31,0.150567148799139,1
946,339,31,0.154929784679143,1
946,340,31,0.158627124861611,1
947,336,31,0.118663796322744,1
947,337,31,0.156455315766832,1
947,339,31,0.170161158920432,1
947,340,31,0.127260495110457,1
948,337,31,0.127853144345899,1
948,338,31,0.164399836044085,1
948,339,31,0.134468757492747,1
950,318,31,0.112677618536316,1
955,322,31,0.105127918897592,1
957,316,31,0.116004097023996,1
957,356,31,0.109405203829041,1
958,355,31,0.105847479148803,1
958,356,31,0.157840595570263,1
958,357,31,0.133402506417829,1
959,355,31,0.103867073906247,1
959,356,31,0.135974869343447,1
959,357,31,0.109048730885381,1
959,359,31,0.112596171512486,1
960,359,31,0.127336008168706,1
962,358,31,0.116983803664799,1
963,358,31,0.13871798993653,1
964,319,31,0.108117745225143,1
964,357,31,0.111081080634918,1
964,358,31,0.161954161052823,1
965,357,31,0.105776349640317,1
965,358,31,0.147960230562671,1
972,320,31,0.104057819668303,1
973,320,31,0.103279321307817,1
973,321,31,0.107402133514939,1
978,321,31,0.125630048834306,1
978,322,31,0.123604815381838,1
979,321,31,0.120934017782801,1
979,322,31,0.124805160694019,1
980,321,31,0.114900345963578,1
980,322,31,0.113049160629414,1
981,321,31,0.115018121795491,1
981,322,31,0.103625889436747,1
942,328,32,0.10983892986597,1
942,334,32,0.105952929732657,1
945,338,32,0.113064207470711,1
945,339,32,0.119166599519161,1
945,340,32,0.141000235484739,1
946,337,32,0.156042235914662,1
946,339,32,0.159618152884117,1
946,340,32,0.146026170483634,1
946,341,32,0.138225593488022,1
947,336,32,0.114887217622432,1
947,340,32,0.123694014484765,1
948,337,32,0.141506072588372,1
948,339,32,0.152777127123657,1
950,323,32,0.103495241807313,1
954,323,32,0.124185953616377,1
955,323,32,0.105980167973165,1
958,356,32,0.112988672104321,1
958,357,32,0.104037998884771,1
958,359,32,0.119401727328303,1
959,320,32,0.104315389467577,1
959,356,32,0.108952605104585,1
959,359,32,0.106094987976358,1
960,359,32,0.116636811681185,1
963,358,32,0.106728026101596,1
964,317,32,0.113215456668622,1
964,319,32,0.110970532640782,1
964,358,32,0.13267013013945,1
965,317,32,0.118842138758245,1
965,318,32,0.128721522207621,1
965,319,32,0.111588512770652,1
965,358,32,0.111785672123327,1
966,318,32,0.110979935522333,1
966,319,32,0.107266131931597,1
980,322,32,0.108800140112974,1
988,332,32,0.124906450809522,1
943,337,33,0.103622955916168,1
945,339,33,0.122509050636001,1
945,340,33,0.127777084738189,1
945,341,33,0.152307808447308,1
946,340,33,0.131310527006637,1
946,341,33,0.124039444898489,1
946,342,33,0.117951720452934,1
948,337,33,0.125155811212804,1
948,340,33,0.10746760790961,1
955,323,33,0.116216860921499,1
956,322,33,0.110063360921365,1
957,322,33,0.106038113370152,1
958,321,33,0.130030162391668,1
958,322,33,0.112312724269321,1
958,359,33,0.115124319702077,1
959,320,33,0.118842473380364,1
959,321,33,0.113800554598239,1
960,360,33,0.130356017411415,1
961,359,33,0.111691766002589,1
962,359,33,0.108962264529761,1
963,317,33,0.116286540400802,1
963,359,33,0.110766524688732,1
964,317,33,0.136862599517734,1
964,318,33,0.149944985892778,1
964,319,33,0.115772583133742,1
965,317,33,0.163464221444531,1
965,318,33,0.177578470894702,1
965,319,33,0.133074230964753,1
966,317,33,0.122189341509178,1
966,318,33,0.13833062021719,1
966,319,33,0.123437482014061,1
981,324,33,0.108704248567661,1
981,325,33,0.107161897141444,1
982,324,33,0.107075620405025,1
982,325,33,0.113095204633026,1
987,332,33,0.106739414407722,1
988,331,33,0.106988239415612,1
988,332,33,0.120755050719344,1
943,337,34,0.103060891142428,1
944,338,34,0.105754097269385,1
945,339,34,0.126699958444394,1
945,340,34,0.120728481723074,1
945,341,34,0.125872939876615,1
946,326,34,0.107536863534229,1
946,327,34,0.106462592682519,1
946,328,34,0.105047230350565,1
946,329,34,0.109169752551851,1
946,340,34,0.123392754190785,1
946,341,34,0.115589957535115,1
946,342,34,0.105731632971112,1
947,325,34,0.107484707099905,1
947,326,34,0.103885154654759,1
947,340,34,0.121320896723032,1
947,341,34,0.106809517741709,1
948,339,34,0.14917130609081,1
948,340,34,0.110414747608813,1
952,353,34,0.1141983645277,1
953,352,34,0.104436321901482,1
953,353,34,0.120988817731867,1
953,354,34,0.110560776701663,1
956,323,34,0.10872887675564,1
957,322,34,0.118711011503773,1
957,359,34,0.113934013053475,1
958,318,34,0.111507065746822,1
958,322,34,0.131770030100821,1
959,320,34,0.120090892737014,1
959,321,34,0.129597261755967,1
959,360,34,0.118646931367933,1
960,321,34,0.10548816191713,1
960,360,34,0.109004873079615,1
961,321,34,0.10789787618464,1
961,360,34,0.121663906703427,1
962,320,34,0.128568733747961,1
963,317,34,0.112739579398735,1
963,319,34,0.109758274781155,1
964,317,34,0.147649243919091,1
964,318,34,0.157726690200863,1
964,319,34,0.112721554420577,1
965,317,34,0.183393868705524,1
965,318,34,0.198599253962216,1
965,319,34,0.136696437327374,1
966,317,34,0.128590316874654,1
966,318,34,0.149195164647914,1
966,319,34,0.128210788466977,1
981,324,34,0.10783970770624,1
981,325,34,0.114273409114982,1
982,325,34,0.129347577884637,1
982,326,34,0.111961471430722,1
942,331,35,0.1144831279512,1
943,338,35,0.111137821392276,1
944,325,35,0.112494736394064,1
944,339,35,0.107836183019917,1
944,340,35,0.108508650784876,1
945,325,35,0.110198659798258,1
945,339,35,0.129750563302876,1
945,340,35,0.122466832478619,1
945,341,35,0.112809749657146,1
946,325,35,0.106415645199185,1
946,326,35,0.110361631924414,1
946,328,35,0.110284791531758,1
946,329,35,0.107926954846805,1
946,330,35,0.105917883642698,1
946,340,35,0.130372369278977,1
946,341,35,0.118507248941278,1
947,325,35,0.108409613791642,1
947,328,35,0.103221387064901,1
947,339,35,0.158881749986236,1
947,340,35,0.140750797002964,1
947,341,35,0.125454327605406,1
948,338,35,0.116370329779468,1
948,339,35,0.135986503039127,1
948,340,35,0.12511719582024,1
948,341,35,0.110038665808963,1
949,343,35,0.106868422388772,1
952,353,35,0.126488834195275,1
952,354,35,0.124749479573372,1
953,352,35,0.110935520013035,1
953,353,35,0.144392734916551,1
953,354,35,0.137341209534928,1
953,355,35,0.117034710843211,1
954,353,35,0.103945029705967,1
954,354,35,0.105408276463189,1
954,355,35,0.105283618569689,1
957,323,35,0.104800491153885,1
957,359,35,0.103964337402249,1
958,317,35,0.104755707560256,1
959,319,35,0.111273979132608,1
959,320,35,0.117705449727221,1
959,322,35,0.106994195689335,1
959,360,35,0.103237259307425,1
960,316,35,0.111633173669505,1
960,321,35,0.12756926209398,1
960,361,35,0.122524989802949,1
961,360,35,0.110985044086687,1
962,317,35,0.126759242329859,1
962,321,35,0.119791037855934,1
963,317,35,0.114059864432533,1
963,318,35,0.129367275973391,1
963,319,35,0.112711248059303,1
964,317,35,0.155106922475015,1
964,318,35,0.170539772694318,1
964,319,35,0.120255381816777,1
965,317,35,0.17990548888247,1
965,318,35,0.202541905620322,1
965,319,35,0.140422376546969,1
966,317,35,0.123167731969646,1
966,318,35,0.151350376485577,1
966,319,35,0.130595952625003,1
966,320,35,0.103472242113648,1
969,321,35,0.104000353896353,1
970,321,35,0.111826562946302,1
970,322,35,0.105640303440692,1
981,325,35,0.112700640538122,1
981,326,35,0.102981284540253,1
982,325,35,0.129142510295876,1
982,326,35,0.115737693200773,1
982,327,35,0.107735662535288,1
983,327,35,0.102994457497682,1
983,328,35,0.108211550959246,1
944,340,36,0.121051414376312,1
945,324,36,0.105013812754921,1
945,329,36,0.106114853376172,1
945,341,36,0.115942816559887,1
946,329,36,0.10313785422986,1
946,341,36,0.133471773196518,1
947,341,36,0.146667473775218,1
947,342,36,0.110086126379547,1
948,339,36,0.115084979294922,1
948,340,36,0.134884860098061,1
948,341,36,0.123536697472425,1
951,353,36,0.104899450068624,1
952,353,36,0.128753556698506,1
953,352,36,0.105651357124698,1
953,353,36,0.148246477477567,1
953,356,36,0.109816800189816,1
954,353,36,0.105115537879179,1
954,354,36,0.113428945580717,1
954,355,36,0.113427696324805,1
954,356,36,0.102923729535738,1
956,359,36,0.106512295221302,1
957,360,36,0.131126752538733,1
958,360,36,0.115695263116049,1
959,317,36,0.110082467844376,1
959,318,36,0.10879642580745,1
959,319,36,0.10345821029278,1
959,320,36,0.110693800148144,1
959,361,36,0.117672567526967,1
960,317,36,0.155287785730481,1
960,319,36,0.132648100849931,1
960,361,36,0.114125037667297,1
961,317,36,0.154053888973809,1
961,360,36,0.105315463441373,1
962,317,36,0.108401828250334,1
962,318,36,0.121852087029235,1
962,319,36,0.120961345255875,1
962,322,36,0.104828164403149,1
963,317,36,0.112128358635673,1
963,318,36,0.133418166733011,1
963,319,36,0.116563016349815,1
963,320,36,0.106948687081114,1
964,317,36,0.156567168787234,1
964,318,36,0.190393494196448,1
964,319,36,0.13866295575198,1
965,317,36,0.166722782796069,1
965,318,36,0.212723586692248,1
965,319,36,0.157540997232809,1
965,320,36,0.103853309783075,1
966,317,36,0.114684492388507,1
966,318,36,0.156443235908326,1
966,319,36,0.137008003982628,1
966,320,36,0.105013043124046,1
969,321,36,0.104548621084709,1
970,321,36,0.111718981934956,1
970,322,36,0.114480160968409,1
971,322,36,0.107355107953111,1
982,325,36,0.111950986604318,1
982,326,36,0.107831866394579,1
982,327,36,0.109632211474755,1
982,328,36,0.104583555633961,1
983,328,36,0.11032510234306,1
943,329,37,0.112094929885958,1
944,329,37,0.110224659936925,1
944,341,37,0.11045064140814,1
945,329,37,0.104609444231922,1
946,342,37,0.11012403906566,1
949,327,37,0.104958655875594,1
950,326,37,0.103583515122377,1
951,353,37,0.109958099956713,1
954,356,37,0.108322076645241,1
957,360,37,0.124872464356275,1
958,360,37,0.109702125189541,1
959,361,37,0.11015736742874,1
960,317,37,0.113273569376669,1
960,318,37,0.120141643758436,1
960,319,37,0.111048510748642,1
960,361,37,0.118714179259836,1
961,317,37,0.111517528265084,1
961,318,37,0.120004738695372,1
961,319,37,0.115376256695677,1
962,319,37,0.107379178437557,1
963,317,37,0.107189001533105,1
963,318,37,0.131659894807298,1
963,319,37,0.118937929916922,1
963,320,37,0.115699055500068,1
964,317,37,0.148223299318772,1
964,318,37,0.202190329313674,1
964,319,37,0.158017432206228,1
964,320,37,0.111712177951865,1
965,317,37,0.147739603045365,1
965,318,37,0.220840359282431,1
965,319,37,0.179028265842729,1
965,320,37,0.115601022373192,1
966,318,37,0.153811611405385,1
966,319,37,0.139985125823717,1
966,320,37,0.107526847178792,1
969,322,37,0.103405317689794,1
970,321,37,0.103392646665544,1
970,322,37,0.116663034901266,1
971,321,37,0.106727022235238,1
971,322,37,0.130321183248799,1
971,323,37,0.115633971497869,1
972,321,37,0.104181339846597,1
972,322,37,0.132554239345476,1
972,323,37,0.123517479008708,1
988,346,37,0.114857280096828,1
990,339,37,0.104904815176603,1
990,340,37,0.103992322965491,1
944,329,38,0.104980785551749,1
944,341,38,0.10911886768158,1
947,347,38,0.119773804816792,1
948,348,38,0.105654435648196,1
951,348,38,0.103976104946777,1
956,359,38,0.104061835133734,1
957,359,38,0.105697624209723,1
958,360,38,0.11626167797734,1
958,361,38,0.127745228712434,1
959,360,38,0.103995568800048,1
959,361,38,0.113919713534911,1
959,362,38,0.116360157267042,1
960,361,38,0.127716417747965,1
963,318,38,0.103685942953086,1
963,320,38,0.105295698428195,1
964,317,38,0.114011790388064,1
964,318,38,0.168700912608213,1
964,319,38,0.142419033270451,1
964,320,38,0.105854149283048,1
965,317,38,0.112764821060599,1
965,318,38,0.188170777923257,1
965,319,38,0.164249546096249,1
965,320,38,0.108847065288166,1
966,318,38,0.12435598626925,1
966,319,38,0.120252749456105,1
966,322,38,0.109802679136382,1
967,322,38,0.106857391012907,1
970,322,38,0.108947217688464,1
971,322,38,0.135913890039245,1
971,323,38,0.127546307016598,1
972,321,38,0.10442535745004,1
972,322,38,0.142896193258462,1
972,323,38,0.135980524457263,1
986,338,38,0.104187218041825,1
948,348,39,0.126719701149431,1
948,349,39,0.119798310309993,1
949,331,39,0.116276367888376,1
949,348,39,0.109518518032697,1
949,349,39,0.107309532420466,1
949,350,39,0.103283504084308,1
949,351,39,0.112941189225596,1
950,330,39,0.123524528381354,1
950,331,39,0.103598015414212,1
950,347,39,0.113409169413468,1
950,348,39,0.121181883540616,1
950,351,39,0.103570007542829,1
951,347,39,0.121920706871827,1
951,348,39,0.126170920873826,1
951,351,39,0.104091159185453,1
958,359,39,0.111267989396673,1
959,360,39,0.117245690089412,1
959,361,39,0.127009573137286,1
960,360,39,0.104682994173738,1
964,318,39,0.122406343953526,1
964,319,39,0.114958726369321,1
965,318,39,0.1391310697887,1
965,319,39,0.13122861151184,1
966,322,39,0.113065311723705,1
967,322,39,0.112957150700685,1
970,322,39,0.104981097865727,1
970,323,39,0.107607468801395,1
971,322,39,0.133315080812134,1
971,323,39,0.134442288883113,1
972,322,39,0.134205610658152,1
972,323,39,0.132149759281771,1
985,338,39,0.103732633892795,1
985,339,39,0.123495304716271,1
986,338,39,0.127600292718507,1
986,339,39,0.145940618761807,1
986,340,39,0.110090476467097,1
987,339,39,0.107054773446994,1
988,340,39,0.10438003846102,1
988,347,39,0.106066355477019,1
989,340,39,0.114617936048984,1
949,332,40,0.104475807311556,1
949,348,40,0.121238657760186,1
949,349,40,0.115075041017979,1
949,350,40,0.115667065625465,1
950,331,40,0.137674292392451,1
950,346,40,0.10511155587596,1
950,347,40,0.130578262268965,1
950,348,40,0.130091710553473,1
950,349,40,0.106404022657576,1
950,350,40,0.105308536763505,1
951,347,40,0.137582494391064,1
951,348,40,0.134552959572026,1
951,349,40,0.103137073444915,1
952,327,40,0.108807423721103,1
952,351,40,0.112049354353313,1
963,321,40,0.104085347914648,1
966,322,40,0.105915597058216,1
967,322,40,0.112826079216567,1
970,322,40,0.103990616392683,1
970,323,40,0.118349920774867,1
971,322,40,0.121975071812138,1
971,323,40,0.136121344599123,1
971,324,40,0.106175185744277,1
972,322,40,0.110179106712422,1
972,323,40,0.115846088459276,1
985,338,40,0.104755796792821,1
985,339,40,0.134296349022828,1
985,340,40,0.111695301842983,1
986,338,40,0.126336781904278,1
986,339,40,0.159021633186162,1
986,340,40,0.12623662950398,1
987,339,40,0.112531054048075,1
987,348,40,0.104115497367595,1
987,349,40,0.110637249009987,1
988,340,40,0.106131127165239,1
988,347,40,0.109332144666333,1
950,348,41,0.134718340977441,1
950,349,41,0.111623804250165,1
951,347,41,0.137663216400303,1
951,348,41,0.136176111085977,1
951,349,41,0.113165876824616,1
952,350,41,0.104181797163493,1
967,322,41,0.107620295982634,1
967,323,41,0.105397657787937,1
968,362,41,0.112436958308136,1
970,323,41,0.116532610353244,1
970,324,41,0.107943061324813,1
971,323,41,0.120017063943432,1
971,324,41,0.106080141908333,1
980,356,41,0.108159695684829,1
984,351,41,0.10638655538295,1
984,352,41,0.109443138823296,1
985,339,41,0.129690520940608,1
985,340,41,0.114153837477695,1
985,350,41,0.112137348816611,1
985,351,41,0.133238351960185,1
985,352,41,0.121224436320117,1
986,338,41,0.115760581353731,1
986,339,41,0.152966255545469,1
986,340,41,0.128682839890633,1
986,348,41,0.113808697069808,1
986,349,41,0.118776017427477,1
986,350,41,0.124500442638139,1
987,339,41,0.111826886414351,1
987,345,41,0.104084779057046,1
987,347,41,0.10612505935081,1
987,348,41,0.117786160582389,1
987,349,41,0.112945851627125,1
987,350,41,0.104524729065393,1
988,346,41,0.109182512808665,1
988,347,41,0.103709823818331,1
989,343,41,0.107862573551057,1
951,348,42,0.142323141725139,1
951,349,42,0.128571176489432,1
970,361,42,0.104513608456963,1
972,328,42,0.110545049462057,1
974,359,42,0.105744259379079,1
975,361,42,0.104750264373782,1
976,358,42,0.105264444722255,1
978,356,42,0.104539798214831,1
978,357,42,0.106743976422615,1
979,355,42,0.112012780155677,1
979,357,42,0.107490585295134,1
980,355,42,0.120470119984784,1
980,357,42,0.107256483660491,1
984,351,42,0.114054220472788,1
984,352,42,0.111793870365249,1
985,339,42,0.11301904463868,1
985,340,42,0.104322751154201,1
985,350,42,0.121391033519232,1
985,351,42,0.132224815023123,1
985,352,42,0.112014676347686,1
986,339,42,0.126651382466747,1
986,340,42,0.112880321462101,1
986,348,42,0.126243333100436,1
986,349,42,0.124858767157526,1
986,350,42,0.120501351382583,1
986,351,42,0.11287597137455,1
987,344,42,0.103821721455016,1
987,345,42,0.102945970752599,1
987,347,42,0.106997619989023,1
987,348,42,0.12264552069031,1
987,349,42,0.108665912026863,1
953,327,43,0.103428183534611,1
956,330,43,0.124887667354561,1
957,325,43,0.103337690559489,1
958,329,43,0.116265927678255,1
972,328,43,0.127044429608043,1
972,329,43,0.103330908884538,1
972,360,43,0.10541385349851,1
976,334,43,0.104332343654953,1
981,337,43,0.108966201916698,1
981,338,43,0.127591280229428,1
981,339,43,0.103317669002686,1
982,337,43,0.1217190078124,1
982,338,43,0.129366684807647,1
982,339,43,0.106979773475995,1
982,340,43,0.103930016326882,1
983,337,43,0.106548456718324,1
984,351,43,0.115061455359937,1
985,350,43,0.117615637150408,1
985,351,43,0.126591864345799,1
985,352,43,0.108683780848032,1
986,347,43,0.107638789431759,1
986,348,43,0.124808350758222,1
986,349,43,0.117956449778886,1
986,350,43,0.110438639628129,1
987,346,43,0.103208113720836,1
987,347,43,0.114156547916861,1
987,348,43,0.122460485812424,1
952,349,44,0.103639341245942,1
958,325,44,0.103768706157252,1
958,330,44,0.10865683261336,1
959,329,44,0.108465986464669,1
972,328,44,0.121517687991376,1
972,329,44,0.109945997790066,1
973,367,44,0.106788481164478,1
973,368,44,0.106263336364564,1
973,372,44,0.121442130316844,1
973,373,44,0.113767638935773,1
974,367,44,0.10496013936699,1
975,334,44,0.108114254001032,1
975,366,44,0.118656903107087,1
976,333,44,0.108898753251523,1
976,334,44,0.14049983041351,1
976,335,44,0.129520544058088,1
976,336,44,0.115589377523441,1
976,337,44,0.115091515580318,1
976,363,44,0.113144104078722,1
976,364,44,0.110106014087502,1
976,365,44,0.103780931018676,1
977,333,44,0.108247522837067,1
977,334,44,0.133216980760834,1
977,335,44,0.117181899959408,1
977,336,44,0.105000807108552,1
977,337,44,0.105995214814462,1
977,363,44,0.11079097441158,1
978,336,44,0.116336198323302,1
978,337,44,0.111683288908901,1
978,362,44,0.106520415384729,1
979,336,44,0.142398164004279,1
979,337,44,0.132796304986557,1
980,336,44,0.103031901712828,1
980,337,44,0.113632540832153,1
980,338,44,0.117041436747809,1
981,337,44,0.125136659673511,1
981,338,44,0.162105633332147,1
981,339,44,0.125841641554392,1
981,340,44,0.103136348430323,1
982,335,44,0.104737972587934,1
982,336,44,0.116671032369916,1
982,337,44,0.140436307981202,1
982,338,44,0.156721273427229,1
982,339,44,0.12545214140756,1
982,340,44,0.116690139292927,1
982,341,44,0.11563970469018,1
983,335,44,0.115937685687391,1
983,336,44,0.125969734901649,1
983,337,44,0.119848481319743,1
983,338,44,0.111025812214885,1
983,339,44,0.103298595541888,1
983,340,44,0.107622850264811,1
983,341,44,0.112283032133271,1
983,342,44,0.111805113668457,1
984,351,44,0.107456821923299,1
985,350,44,0.10479571721165,1
985,351,44,0.113785541219154,1
985,352,44,0.105140154913087,1
986,347,44,0.10555153934652,1
986,348,44,0.110446202088024,1
987,347,44,0.115353580470061,1
987,348,44,0.112157771919957,1
951,339,45,0.107491477620785,1
951,341,45,0.106520906163838,1
952,335,45,0.107696076738578,1
952,349,45,0.105442452535637,1
958,331,45,0.102947855790538,1
959,329,45,0.110824570472355,1
959,330,45,0.109154917637896,1
960,325,45,0.112002540718827,1
962,325,45,0.106208101406742,1
963,328,45,0.114440720174617,1
964,328,45,0.123135842481679,1
972,329,45,0.104010269865154,1
972,330,45,0.106903602327578,1
972,331,45,0.109768424985439,1
973,330,45,0.10847208774131,1
973,331,45,0.117480605971211,1
973,332,45,0.103545747439182,1
973,374,45,0.113727216583765,1
974,332,45,0.108725831694354,1
974,333,45,0.116764246938275,1
974,334,45,0.104878279642545,1
974,372,45,0.116523586710094,1
974,373,45,0.112617866179885,1
975,332,45,0.104099402043658,1
975,333,45,0.121808485767094,1
975,334,45,0.126756565352905,1
975,335,45,0.109865766559936,1
975,336,45,0.109492172117839,1
975,337,45,0.121099878813253,1
975,367,45,0.1157407605702,1
976,333,45,0.135434309617905,1
976,334,45,0.171437998849078,1
976,335,45,0.148844804134966,1
976,336,45,0.150210943553175,1
976,337,45,0.173449646643504,1
976,338,45,0.135010700323049,1
976,366,45,0.107339737643766,1
977,333,45,0.134335064802027,1
977,334,45,0.168192576992757,1
977,335,45,0.144025643297639,1
977,336,45,0.135218957976013,1
977,337,45,0.144214013242648,1
977,338,45,0.121427340019173,1
977,364,45,0.119276121338799,1
978,334,45,0.117457238193215,1
978,335,45,0.123931306183612,1
978,336,45,0.144547018021677,1
978,337,45,0.13339314815256,1
978,338,45,0.107025315546428,1
978,339,45,0.103109734817771,1
978,340,45,0.105789165667485,1
978,363,45,0.115720237080218,1
978,364,45,0.10901486712691,1
979,335,45,0.114165828103636,1
979,336,45,0.177708861980511,1
979,337,45,0.164535045688412,1
979,338,45,0.119816647602129,1
979,339,45,0.115062871926909,1
979,340,45,0.119329872805225,1
979,341,45,0.103888244332327,1
979,363,45,0.109079516120354,1
980,336,45,0.117927181497521,1
980,337,45,0.133642553172124,1
980,338,45,0.139311018410374,1
980,339,45,0.124948903202387,1
980,340,45,0.110495213074427,1
981,337,45,0.13140798012184,1
981,338,45,0.180023610490573,1
981,339,45,0.149308545775994,1
981,340,45,0.120873551565849,1
981,341,45,0.108310699493186,1
981,348,45,0.111141926090272,1
982,335,45,0.11884275223213,1
982,336,45,0.126608595451763,1
982,337,45,0.138375816511433,1
982,338,45,0.164138451552651,1
982,339,45,0.140535199971517,1
982,340,45,0.12585687801489,1
982,341,45,0.119085509425591,1
982,342,45,0.105690563683006,1
982,348,45,0.103766664962325,1
983,335,45,0.124321743272378,1
983,336,45,0.133054276332374,1
983,337,45,0.115919694171445,1
983,338,45,0.11012837799914,1
983,339,45,0.107456464993039,1
983,340,45,0.108799448560594,1
983,341,45,0.110316000621416,1
983,342,45,0.113713352073957,1
983,343,45,0.10544788456804,1
987,347,45,0.107312488249187,1
946,358,46,0.106102606206607,1
952,349,46,0.110428701351186,1
953,350,46,0.105566084254637,1
955,333,46,0.117075958596447,1
955,334,46,0.12139760326684,1
956,333,46,0.106582119703523,1
956,355,46,0.103631254544726,1
957,332,46,0.110809412090352,1
958,331,46,0.110681519516367,1
959,329,46,0.1031303921566,1
959,330,46,0.113098305464665,1
963,328,46,0.109620979325618,1
964,328,46,0.121468197379936,1
966,360,46,0.103183083986315,1
972,330,46,0.112230708387888,1
972,331,46,0.115904814641208,1
973,330,46,0.111445339119887,1
973,331,46,0.123124409559271,1
973,332,46,0.108561688390781,1
973,333,46,0.105387384888876,1
973,374,46,0.112841639145113,1
974,332,46,0.11159490405313,1
974,333,46,0.127503598080108,1
974,334,46,0.115644779792322,1
974,373,46,0.114594702119836,1
975,332,46,0.108156126382224,1
975,333,46,0.137756776744851,1
975,334,46,0.139218852324656,1
975,335,46,0.11519763540841,1
975,336,46,0.11678725778601,1
975,337,46,0.138464502527111,1
975,338,46,0.109516075291226,1
976,332,46,0.104746672763036,1
976,333,46,0.151768654134667,1
976,334,46,0.175790439908515,1
976,335,46,0.145833796227265,1
976,336,46,0.165419530028141,1
976,337,46,0.219582113189546,1
976,338,46,0.168954411171703,1
976,366,46,0.113350644004807,1
976,367,46,0.104056971958934,1
977,332,46,0.105043906437514,1
977,333,46,0.152438277611612,1
977,334,46,0.179150547919181,1
977,335,46,0.152562634345204,1
977,336,46,0.157206062799559,1
977,337,46,0.187765974391503,1
977,338,46,0.149767602707352,1
977,345,46,0.105202138083647,1
977,346,46,0.111431039601323,1
977,365,46,0.11320344373454,1
977,377,46,0.107940529350777,1
978,333,46,0.106464120790197,1
978,334,46,0.126259640351715,1
978,335,46,0.139568086276469,1
978,336,46,0.160362151704106,1
978,337,46,0.150535147770466,1
978,338,46,0.115148546343513,1
978,339,46,0.106649456827991,1
978,340,46,0.128695767458508,1
978,341,46,0.126324702045773,1
978,342,46,0.109913204822378,1
978,345,46,0.106725917982245,1
978,346,46,0.107516864285567,1
978,364,46,0.114744523596704,1
979,335,46,0.121474934438604,1
979,336,46,0.181843296729243,1
979,337,46,0.173034804448172,1
979,338,46,0.127997355325234,1
979,339,46,0.131648183033124,1
979,340,46,0.158284315654488,1
979,341,46,0.141680354942159,1
979,342,46,0.118356847452736,1
979,343,46,0.108043459114665,1
979,344,46,0.105808372977131,1
979,363,46,0.106756680909076,1
980,336,46,0.125430257120959,1
980,337,46,0.148616145686797,1
980,338,46,0.151250134852714,1
980,339,46,0.146261309446846,1
980,340,46,0.137623775606512,1
980,341,46,0.114482481015103,1
981,337,46,0.130095034466524,1
981,338,46,0.172591396677925,1
981,339,46,0.162782506955009,1
981,340,46,0.13387168009126,1
981,341,46,0.112181050465388,1
981,347,46,0.103605131711282,1
981,348,46,0.12457025596629,1
981,349,46,0.108588502776605,1
982,335,46,0.11835847594705,1
982,336,46,0.122590084959218,1
982,337,46,0.122923937447615,1
982,338,46,0.148011003892235,1
982,339,46,0.143136039239485,1
982,340,46,0.124534384475104,1
982,341,46,0.110641342553913,1
982,348,46,0.106585287459585,1
983,336,46,0.121316557789552,1
950,369,47,0.110628716145946,1
952,348,47,0.117896318184053,1
953,348,47,0.103539791165459,1
953,349,47,0.117526058809079,1
953,371,47,0.128830519785938,1
954,337,47,0.105639935356361,1
955,352,47,0.112868263911736,1
956,354,47,0.109998009221472,1
959,330,47,0.104514723864027,1
964,328,47,0.10826371854764,1
972,330,47,0.106809450817286,1
972,331,47,0.112366051881063,1
972,377,47,0.10495441732875,1
973,331,47,0.114693181409537,1
973,332,47,0.104413166050828,1
973,374,47,0.107763926950296,1
974,332,47,0.108108509654651,1
974,333,47,0.123677015681106,1
974,334,47,0.118196786539018,1
974,373,47,0.113063092063647,1
975,332,47,0.107462856275517,1
975,333,47,0.140972584543617,1
975,334,47,0.144658759501372,1
975,335,47,0.120058423237374,1
975,336,47,0.114900691739768,1
975,337,47,0.136203806643382,1
975,338,47,0.109437740253105,1
976,332,47,0.10732140035163,1
976,333,47,0.152003581170537,1
976,334,47,0.160114709800975,1
976,335,47,0.133693794972655,1
976,336,47,0.160848770344021,1
976,337,47,0.234561026195915,1
976,338,47,0.183087075992505,1
976,345,47,0.105454933940686,1
976,346,47,0.113144561395619,1
976,351,47,0.113730440110181,1
976,352,47,0.10389386598393,1
976,367,47,0.107915600002891,1
977,332,47,0.1092768762463,1
977,333,47,0.156350043648109,1
977,334,47,0.166849749582191,1
977,335,47,0.147962885231484,1
977,336,47,0.168808973244597,1
977,337,47,0.224709527923145,1
977,338,47,0.176209442572197,1
977,344,47,0.112972476393748,1
977,345,47,0.162390731377766,1
977,346,47,0.183194857777122,1
977,347,47,0.126263276578745,1
977,350,47,0.119978760864846,1
977,351,47,0.132413051119284,1
977,365,47,0.117672188288565,1
978,333,47,0.110525697149492,1
978,334,47,0.129962791804988,1
978,335,47,0.147439770472427,1
978,336,47,0.162443523594116,1
978,337,47,0.161134693790868,1
978,338,47,0.123187720064237,1
978,339,47,0.106455186379613,1
978,340,47,0.139875604004079,1
978,341,47,0.152526751699947,1
978,342,47,0.130029125063099,1
978,343,47,0.116356141801611,1
978,344,47,0.123723003914365,1
978,345,47,0.152411552458353,1
978,346,47,0.171400956180475,1
978,347,47,0.120603801521433,1
978,350,47,0.103560102728098,1
978,351,47,0.108664696233163,1
978,364,47,0.112163348955279,1
979,335,47,0.120522399113885,1
979,336,47,0.161566311708446,1
979,337,47,0.16184784045146,1
979,338,47,0.128852839081294,1
979,339,47,0.141911534210293,1
979,340,47,0.19301541465793,1
979,341,47,0.184090763885189,1
979,342,47,0.141949959983656,1
979,343,47,0.124339132468509,1
979,344,47,0.125830587870385,1
979,345,47,0.115392764720228,1
979,346,47,0.108648266287107,1
979,352,47,0.110752269786451,1
979,353,47,0.112730020360194,1
980,336,47,0.127930821293853,1
980,337,47,0.15464010231049,1
980,338,47,0.15171732310157,1
980,339,47,0.164036257957426,1
980,340,47,0.172600398012934,1
980,341,47,0.140416018726703,1
980,342,47,0.105799070482215,1
980,348,47,0.105625323523819,1
980,353,47,0.106392310883402,1
981,336,47,0.105663425829133,1
981,337,47,0.124050788588333,1
981,338,47,0.148538747590609,1
981,339,47,0.165745753132219,1
981,340,47,0.146489800583956,1
981,341,47,0.113704105349394,1
981,347,47,0.108499593679515,1
981,348,47,0.121231809160811,1
982,336,47,0.106483651567892,1
982,338,47,0.117071530430402,1
982,339,47,0.130620502734487,1
982,340,47,0.11478698714364,1
947,368,48,0.124528829747924,1
947,369,48,0.129597295218179,1
948,369,48,0.12370120886033,1
948,370,48,0.123261593474101,1
949,368,48,0.115322114836779,1
952,371,48,0.109737539363831,1
952,372,48,0.113470639496778,1
953,347,48,0.107718284493227,1
953,371,48,0.11265406113912,1
953,372,48,0.104358176482561,1
954,339,48,0.105384875222981,1
954,348,48,0.104760871894963,1
954,349,48,0.113864612425938,1
955,350,48,0.103041996146759,1
956,351,48,0.108033197369674,1
956,352,48,0.118566990143639,1
956,353,48,0.121090910940457,1
957,354,48,0.10565555105526,1
967,377,48,0.105136964848883,1
972,377,48,0.127998481886369,1
973,373,48,0.121850224299437,1
974,333,48,0.107891072201549,1
974,334,48,0.110376924155264,1
975,333,48,0.124494084817873,1
975,334,48,0.133236667695518,1
975,335,48,0.115570828303963,1
975,336,48,0.10763307854759,1
975,337,48,0.1229924457495,1
975,338,48,0.107006197469347,1
975,351,48,0.108194875623635,1
975,352,48,0.125595292750184,1
975,353,48,0.109913026357247,1
976,333,48,0.130125239689824,1
976,334,48,0.133489563939193,1
976,335,48,0.118917796819412,1
976,336,48,0.144390537564634,1
976,337,48,0.212834257381162,1
976,338,48,0.179184880148619,1
976,345,48,0.131601347090496,1
976,346,48,0.148658676158156,1
976,347,48,0.122891155633997,1
976,348,48,0.105108310041403,1
976,350,48,0.115135752624486,1
976,351,48,0.145175505286093,1
976,352,48,0.133137429929013,1
977,333,48,0.133860146782216,1
977,334,48,0.137712260848918,1
977,335,48,0.133023044934575,1
977,336,48,0.164154881498707,1
977,337,48,0.224999556067988,1
977,338,48,0.182391686612376,1
977,343,48,0.1095022553977,1
977,344,48,0.146914391437029,1
977,345,48,0.218362594029931,1
977,346,48,0.257613813236777,1
977,347,48,0.173175401508619,1
977,348,48,0.107989004941789,1
977,350,48,0.145081331467659,1
977,351,48,0.160543918439294,1
977,352,48,0.114938013260138,1
978,334,48,0.120345830175616,1
978,335,48,0.136805222978349,1
978,336,48,0.148727942936845,1
978,337,48,0.156179453291705,1
978,338,48,0.12495485947611,1
978,340,48,0.129948079585811,1
978,341,48,0.157321842052827,1
978,342,48,0.138702898478951,1
978,343,48,0.133149431709024,1
978,344,48,0.149616799672267,1
978,345,48,0.196315547230752,1
978,346,48,0.235478024651567,1
978,347,48,0.156289042035766,1
978,350,48,0.117495318190389,1
978,351,48,0.123134582071696,1
978,352,48,0.106706543361539,1
978,364,48,0.104707042350043,1
979,335,48,0.108730996029062,1
979,336,48,0.13152015661029,1
979,337,48,0.139721120125682,1
979,338,48,0.122004864334823,1
979,339,48,0.138874225004018,1
979,340,48,0.202667745845309,1
979,341,48,0.208461527067226,1
979,342,48,0.15274557225781,1
979,343,48,0.131529113329016,1
979,344,48,0.136617845745628,1
979,345,48,0.128287216159018,1
979,346,48,0.12850186509446,1
979,352,48,0.119761992655981,1
979,353,48,0.11667579515808,1
980,336,48,0.120128180795171,1
980,337,48,0.144502948288568,1
980,338,48,0.139601202712206,1
980,339,48,0.168176292049619,1
980,340,48,0.20083417278869,1
980,341,48,0.167295812021251,1
980,342,48,0.112558080361242,1
980,344,48,0.103814884009712,1
981,336,48,0.103289326509184,1
981,337,48,0.111897670146647,1
981,338,48,0.12307091463647,1
981,339,48,0.154422029075361,1
981,340,48,0.15101235237476,1
981,341,48,0.112984946644726,1
981,348,48,0.106481788838095,1
982,339,48,0.108838655118902,1
947,368,49,0.11915354925651,1
947,369,49,0.113665858041161,1
947,370,49,0.109691350357301,1
948,368,49,0.126950021554126,1
948,369,49,0.112706195265302,1
949,368,49,0.108164871173607,1
953,344,49,0.109772496221224,1
953,346,49,0.10400706864688,1
954,347,49,0.106417675240042,1
956,350,49,0.109653236897916,1
957,351,49,0.104828911725882,1
957,352,49,0.109266837582722,1
957,353,49,0.113620472127718,1
958,353,49,0.106542355441683,1
958,354,49,0.12173619623526,1
959,354,49,0.111497160932091,1
959,355,49,0.108466086851305,1
960,334,49,0.10362958143413,1
961,335,49,0.115529480164092,1
961,336,49,0.105988221212169,1
968,359,49,0.111967650785858,1
968,375,49,0.106006893126424,1
968,376,49,0.113297572936691,1
969,356,49,0.106535640691156,1
969,357,49,0.110500187789933,1
969,358,49,0.11502678850838,1
969,359,49,0.109670648402188,1
970,355,49,0.116092281106495,1
970,356,49,0.148582259620185,1
970,357,49,0.132998093278548,1
970,358,49,0.108979419490409,1
971,355,49,0.127688610649853,1
971,356,49,0.165121794420484,1
971,357,49,0.133016252105554,1
971,377,49,0.117990168534438,1
972,334,49,0.112056961429491,1
972,356,49,0.120247607429539,1
972,357,49,0.105632049428416,1
972,373,49,0.104240768734979,1
972,376,49,0.140741416429553,1
972,377,49,0.131407355493884,1
973,347,49,0.108488272297813,1
973,350,49,0.112696970848881,1
973,351,49,0.113406202430677,1
974,347,49,0.129559583305337,1
974,348,49,0.10829028754391,1
974,349,49,0.103418301028022,1
974,350,49,0.116368422433388,1
974,351,49,0.125785302343577,1
974,352,49,0.128586781034261,1
974,353,49,0.122540304341941,1
974,354,49,0.11547181361887,1
975,333,49,0.102941877208673,1
975,334,49,0.114857503178241,1
975,335,49,0.10902875394486,1
975,336,49,0.106856420608761,1
975,337,49,0.121910188583211,1
975,338,49,0.119351745937754,1
975,346,49,0.115747932637623,1
975,347,49,0.136209060210655,1
975,348,49,0.12612047101231,1
975,349,49,0.120572971670178,1
975,350,49,0.115571218696435,1
975,351,49,0.138949314207582,1
975,352,49,0.1611982831476,1
975,353,49,0.134979970858429,1
975,354,49,0.105547490418876,1
976,334,49,0.106647036394662,1
976,335,49,0.10961059488585,1
976,336,49,0.134086195177854,1
976,337,49,0.185491291303189,1
976,338,49,0.175246098953025,1
976,344,49,0.106264440617557,1
976,345,49,0.147587751527639,1
976,346,49,0.183089663736894,1
976,347,49,0.167037617594021,1
976,348,49,0.144860592409646,1
976,349,49,0.136479278726037,1
976,350,49,0.138860683962258,1
976,351,49,0.163362507474343,1
976,352,49,0.151714612662404,1
976,353,49,0.107981085551633,1
977,334,49,0.106696716625303,1
977,335,49,0.119384460826949,1
977,336,49,0.15293969770327,1
977,337,49,0.197828083826142,1
977,338,49,0.171249260819739,1
977,343,49,0.12755190636006,1
977,344,49,0.176446187721581,1
977,345,49,0.250268210782667,1
977,346,49,0.301214450749915,1
977,347,49,0.21486349514499,1
977,348,49,0.13419065304942,1
977,349,49,0.121188486750436,1
977,350,49,0.156521448251671,1
977,351,49,0.167558780390716,1
977,352,49,0.118756821271901,1
977,365,49,0.105884109116793,1
978,335,49,0.115446850808773,1
978,336,49,0.131200280172408,1
978,337,49,0.146761424512239,1
978,338,49,0.130479626822274,1
978,340,49,0.112605150539353,1
978,341,49,0.1392703172066,1
978,342,49,0.133678881980206,1
978,343,49,0.146288614611779,1
978,344,49,0.177995644290798,1
978,345,49,0.227643293891647,1
978,346,49,0.264347614916151,1
978,347,49,0.176654735380382,1
978,350,49,0.121533694082748,1
978,351,49,0.129542294495841,1
978,352,49,0.107464205918064,1
979,336,49,0.109487732797724,1
979,337,49,0.125951933004904,1
979,338,49,0.126579940644282,1
979,339,49,0.134035990705893,1
979,340,49,0.183565909091112,1
979,341,49,0.197318142024514,1
979,342,49,0.145683885517831,1
979,343,49,0.126996389025787,1
979,344,49,0.135022267094305,1
979,345,49,0.13451291645842,1
979,346,49,0.134005584709322,1
979,347,49,0.103996115349509,1
979,352,49,0.113598877846954,1
979,353,49,0.108190347070954,1
980,336,49,0.106602977815624,1
980,337,49,0.123514846648037,1
980,338,49,0.124159853091074,1
980,339,49,0.154848839588492,1
980,340,49,0.201703030275449,1
980,341,49,0.18028592076987,1
980,342,49,0.11748718687289,1
981,339,49,0.130070328200052,1
981,340,49,0.142946364268211,1
981,341,49,0.114155254044667,1
947,368,50,0.118681843609043,1
947,369,50,0.104085280990224,1
948,367,50,0.115655721935622,1
948,368,50,0.122451149855296,1
949,367,50,0.104745245041993,1
954,347,50,0.127225259401298,1
955,348,50,0.108633297524305,1
958,352,50,0.119117320835063,1
959,352,50,0.124807134964522,1
960,352,50,0.104331629794432,1
960,353,50,0.114241285391532,1
960,354,50,0.1094392237445,1
960,355,50,0.103770122724224,1
961,338,50,0.104140025168937,1
961,357,50,0.108629471678075,1
962,337,50,0.107785599309554,1
968,355,50,0.11324771424092,1
968,356,50,0.113138772432955,1
968,357,50,0.105375840425761,1
968,358,50,0.115343552960554,1
969,336,50,0.104597542838547,1
969,337,50,0.105110496239249,1
969,354,50,0.125889592904084,1
969,355,50,0.140384575401562,1
969,356,50,0.139451035459147,1
969,357,50,0.127907297358868,1
969,358,50,0.129568796567687,1
969,376,50,0.104695553657281,1
970,353,50,0.110745287338229,1
970,354,50,0.1313511947482,1
970,355,50,0.153972441949978,1
970,356,50,0.189168464925936,1
970,357,50,0.153166024950674,1
970,358,50,0.116608101103352,1
971,352,50,0.105766757139564,1
971,354,50,0.107046474818436,1
971,355,50,0.151568940499815,1
971,356,50,0.212026613434088,1
971,357,50,0.156484026344666,1
971,358,50,0.104748412798056,1
971,376,50,0.106075635663793,1
972,334,50,0.104173096988392,1
972,347,50,0.116316132150217,1
972,348,50,0.118749258812006,1
972,350,50,0.107763625790389,1
972,351,50,0.113620494435859,1
972,355,50,0.107502531304792,1
972,356,50,0.135517708604098,1
972,357,50,0.112013137085937,1
972,376,50,0.109718443594891,1
972,377,50,0.104513318451126,1
973,346,50,0.104183447965948,1
973,347,50,0.153682112645227,1
973,348,50,0.127377110919023,1
973,349,50,0.114654588325115,1
973,350,50,0.144803606262734,1
973,351,50,0.138586985376835,1
973,352,50,0.107148590335167,1
974,346,50,0.124874907097746,1
974,347,50,0.1768160120878,1
974,348,50,0.135460421297279,1
974,349,50,0.126610681262973,1
974,350,50,0.154158603388999,1
974,351,50,0.151248115965928,1
974,352,50,0.140454622965196,1
974,353,50,0.128501240466504,1
974,354,50,0.12368697626619,1
975,337,50,0.119604028707544,1
975,338,50,0.127546496635798,1
975,346,50,0.134068616362522,1
975,347,50,0.173224680192717,1
975,348,50,0.153619415614146,1
975,349,50,0.155500951174528,1
975,350,50,0.149096116500609,1
975,351,50,0.158297488611917,1
975,352,50,0.174851055233084,1
975,353,50,0.139024816111761,1
975,354,50,0.107768221267493,1
976,336,50,0.123529101550318,1
976,337,50,0.152706488394279,1
976,338,50,0.158838014875247,1
976,344,50,0.105097624441728,1
976,345,50,0.144235440212352,1
976,346,50,0.192045568215574,1
976,347,50,0.192763198812564,1
976,348,50,0.170654492310874,1
976,349,50,0.177546603714877,1
976,350,50,0.160483809152602,1
976,351,50,0.161850997053451,1
976,352,50,0.151284366695516,1
976,353,50,0.107521058216129,1
977,335,50,0.104323699250206,1
977,336,50,0.130851023912454,1
977,337,50,0.148597418002188,1
977,338,50,0.138711832889535,1
977,343,50,0.124796951298026,1
977,344,50,0.177812695224121,1
977,345,50,0.236937289405569,1
977,346,50,0.284391725250076,1
977,347,50,0.220933027301328,1
977,348,50,0.144630673551494,1
977,349,50,0.138203642276997,1
977,350,50,0.150038747010598,1
977,351,50,0.14976514881181,1
977,352,50,0.111976183649899,1
978,336,50,0.107110198024016,1
978,337,50,0.121894572884311,1
978,338,50,0.123549390804816,1
978,341,50,0.110187907274158,1
978,342,50,0.115369787334704,1
978,343,50,0.140919446551077,1
978,344,50,0.184887365302328,1
978,345,50,0.221637451478677,1
978,346,50,0.236787088690299,1
978,347,50,0.165099006654162,1
978,350,50,0.110605939533694,1
978,351,50,0.119544811746503,1
979,337,50,0.107764629656746,1
979,338,50,0.127236558474858,1
979,339,50,0.128054988408244,1
979,340,50,0.147389052913216,1
979,341,50,0.157025534166212,1
979,342,50,0.123066296851224,1
979,343,50,0.111269941359035,1
979,344,50,0.123343497814828,1
979,345,50,0.13039430933593,1
979,346,50,0.125082004727363,1
980,339,50,0.126068303423916,1
980,340,50,0.166067324988839,1
980,341,50,0.161931607521984,1
980,342,50,0.110326530064102,1
981,340,50,0.114741746233114,1
981,341,50,0.103534046819078,1
947,367,51,0.104332867896274,1
947,368,51,0.120684545838813,1
947,369,51,0.105476115520836,1
948,367,51,0.104849981765325,1
948,368,51,0.114873163493423,1
954,346,51,0.111901139062617,1
955,347,51,0.131859920756128,1
956,347,51,0.103361604886946,1
959,351,51,0.135521869072448,1
960,351,51,0.124472579769675,1
961,353,51,0.104504562505672,1
961,354,51,0.103079696905531,1
962,338,51,0.11377261365128,1
962,344,51,0.108062041796355,1
968,354,51,0.112381511422973,1
968,355,51,0.148511955512926,1
968,356,51,0.145893080112729,1
968,357,51,0.127855877093206,1
969,337,51,0.106651464560707,1
969,353,51,0.119146243340239,1
969,354,51,0.174073538430815,1
969,355,51,0.183031919113178,1
969,356,51,0.16311642636783,1
969,357,51,0.138848135632785,1
969,358,51,0.135381361244566,1
970,351,51,0.110311940539702,1
970,352,51,0.129982032576846,1
970,353,51,0.159521235164305,1
970,354,51,0.182092657132524,1
970,355,51,0.183383417341332,1
970,356,51,0.205922102112215,1
970,357,51,0.158109419826816,1
970,358,51,0.119989870319205,1
970,359,51,0.106604505923302,1
971,347,51,0.107515815802927,1
971,348,51,0.142783492528691,1
971,349,51,0.124045958875745,1
971,350,51,0.114223617343634,1
971,351,51,0.138176047106228,1
971,352,51,0.14615510038619,1
971,353,51,0.131384779654904,1
971,354,51,0.125298951401357,1
971,355,51,0.160961872620335,1
971,356,51,0.228839746433174,1
971,357,51,0.164655632346127,1
971,358,51,0.107103594814196,1
972,347,51,0.148536014843302,1
972,348,51,0.168292629006419,1
972,349,51,0.136322519417229,1
972,350,51,0.134656993588908,1
972,351,51,0.14400810909859,1
972,352,51,0.122891144479926,1
972,355,51,0.10647824184363,1
972,356,51,0.138998949821941,1
972,357,51,0.112828845426086,1
973,346,51,0.116178133988229,1
973,347,51,0.186181516348611,1
973,348,51,0.160498777915404,1
973,349,51,0.136737908162022,1
973,350,51,0.168638472120757,1
973,351,51,0.157469588872556,1
973,352,51,0.115457079091552,1
974,346,51,0.135977914404733,1
974,347,51,0.203663358190849,1
974,348,51,0.156011528758183,1
974,349,51,0.147210610091079,1
974,350,51,0.18666368451434,1
974,351,51,0.172063240278937,1
974,352,51,0.145589332460996,1
974,353,51,0.129481660967829,1
974,354,51,0.119799537257764,1
975,337,51,0.12061989684537,1
975,338,51,0.12603591200277,1
975,346,51,0.14148799183986,1
975,347,51,0.193612380518711,1
975,348,51,0.169263858553535,1
975,349,51,0.179309147649645,1
975,350,51,0.187056642423071,1
975,351,51,0.174389912490516,1
975,352,51,0.170684050598077,1
975,353,51,0.135073464278553,1
975,354,51,0.105842091732683,1
976,336,51,0.116780732654684,1
976,337,51,0.129677637989016,1
976,338,51,0.135178769859488,1
976,345,51,0.131455016837739,1
976,346,51,0.180449417137346,1
976,347,51,0.19939735002482,1
976,348,51,0.179682307082987,1
976,349,51,0.19540617815942,1
976,350,51,0.174422883923335,1
976,351,51,0.150513085018736,1
976,352,51,0.13796215664759,1
976,353,51,0.103964828181357,1
976,356,51,0.109167410197016,1
977,336,51,0.11082083385869,1
977,337,51,0.112390044287014,1
977,338,51,0.112024257694368,1
977,343,51,0.106504810839901,1
977,344,51,0.153905405985417,1
977,345,51,0.195095336518757,1
977,346,51,0.228351532761156,1
977,347,51,0.19868821882966,1
977,348,51,0.144304350060781,1
977,349,51,0.13923976620711,1
977,350,51,0.130553154455949,1
977,351,51,0.119510055662382,1
978,338,51,0.117944046452332,1
978,339,51,0.106525033169975,1
978,343,51,0.11980937514807,1
978,344,51,0.164153398007312,1
978,345,51,0.187654835231622,1
978,346,51,0.182997029180209,1
978,347,51,0.139689386794705,1
979,338,51,0.123487418788327,1
979,339,51,0.122214047775651,1
979,340,51,0.110595610864279,1
979,341,51,0.109090034408969,1
979,344,51,0.105232912164549,1
979,345,51,0.117323065877458,1
979,346,51,0.10963854698688,1
980,340,51,0.115810161197737,1
980,341,51,0.119650251176286,1
946,366,52,0.104669341591272,1
947,368,52,0.104948081816625,1
955,346,52,0.107237845208448,1
956,347,52,0.115316325874116,1
959,350,52,0.103154250713704,1
960,350,52,0.10916626132774,1
961,346,52,0.111678258423041,1
962,343,52,0.108514261282409,1
962,344,52,0.149986635192556,1
962,345,52,0.131754012855379,1
962,346,52,0.117928966148823,1
963,344,52,0.133918549496099,1
963,345,52,0.113620851366119,1
967,338,52,0.107724318845445,1
967,339,52,0.106008566237021,1
968,349,52,0.10544006556452,1
968,350,52,0.110152459637657,1
968,354,52,0.121888716997224,1
968,355,52,0.161723361023091,1
968,356,52,0.159552678489446,1
968,357,52,0.137220634031284,1
969,349,52,0.104729015869209,1
969,350,52,0.115290972671545,1
969,351,52,0.115676256579675,1
969,352,52,0.106865276940851,1
969,353,52,0.137486245915491,1
969,354,52,0.198539200445877,1
969,355,52,0.207825611191762,1
969,356,52,0.175137614461958,1
969,357,52,0.140141438969699,1
969,358,52,0.124911503603523,1
970,348,52,0.114112790497731,1
970,349,52,0.114985317673732,1
970,350,52,0.115414872088241,1
970,351,52,0.144439180466706,1
970,352,52,0.168651511229338,1
970,353,52,0.191539931885214,1
970,354,52,0.212020701776647,1
970,355,52,0.205087710703741,1
970,356,52,0.201186396031435,1
970,357,52,0.149457530697564,1
970,358,52,0.113660939096008,1
971,347,52,0.119214930107255,1
971,348,52,0.17433911685281,1
971,349,52,0.149575797308585,1
971,350,52,0.13048616310767,1
971,351,52,0.167164260912094,1
971,352,52,0.179670606462883,1
971,353,52,0.149879924198721,1
971,354,52,0.132374881889546,1
971,355,52,0.154224780490121,1
971,356,52,0.200127250099517,1
971,357,52,0.14944652162984,1
972,347,52,0.161446996614784,1
972,348,52,0.205304211214909,1
972,349,52,0.162562124827257,1
972,350,52,0.144731539812314,1
972,351,52,0.15532230757912,1
972,352,52,0.132483868313793,1
972,356,52,0.12339596656313,1
972,357,52,0.106273096176376,1
973,346,52,0.115367790756059,1
973,347,52,0.185159647320779,1
973,348,52,0.181782964361138,1
973,349,52,0.149317759038344,1
973,350,52,0.164031562093685,1
973,351,52,0.154320828192422,1
973,352,52,0.115777301305624,1
974,346,52,0.12984491558644,1
974,347,52,0.190900959794394,1
974,348,52,0.163833967732255,1
974,349,52,0.155565879019737,1
974,350,52,0.193742660063814,1
974,351,52,0.172584737697752,1
974,352,52,0.136388183431101,1
974,353,52,0.115751613480935,1
975,337,52,0.110858735390733,1
975,338,52,0.109590383709846,1
975,346,52,0.133372211961964,1
975,347,52,0.182404893032016,1
975,348,52,0.168675894027763,1
975,349,52,0.186965011732744,1
975,350,52,0.220220706041964,1
975,351,52,0.183345471193006,1
975,352,52,0.148168599756342,1
975,353,52,0.116123534812434,1
976,336,52,0.104208667319671,1
976,337,52,0.108124024966915,1
976,338,52,0.108703523553069,1
976,345,52,0.109051898641443,1
976,346,52,0.148618822663751,1
976,347,52,0.17536842564576,1
976,348,52,0.167368860029888,1
976,349,52,0.185577199955277,1
976,350,52,0.185497325655406,1
976,351,52,0.142918300626475,1
976,352,52,0.11692876948025,1
977,344,52,0.114729855993809,1
977,345,52,0.14054810523125,1
977,346,52,0.158718855938574,1
977,347,52,0.153887782553802,1
977,348,52,0.130061561100527,1
977,349,52,0.125140887066284,1
977,350,52,0.114292672194981,1
978,338,52,0.10992592046291,1
978,339,52,0.109491937882356,1
978,344,52,0.120423228271803,1
978,345,52,0.134604915233079,1
978,346,52,0.126133989745929,1
978,347,52,0.106408830062023,1
979,338,52,0.105199472260763,1
979,339,52,0.105865593359527,1
944,365,53,0.10321234111361,1
945,361,53,0.108006639527474,1
946,362,53,0.104294207887427,1
961,345,53,0.11025929332627,1
961,346,53,0.143518601554378,1
961,347,53,0.116636878605609,1
962,343,53,0.114970817381897,1
962,344,53,0.17181898844001,1
962,345,53,0.151724539785276,1
962,346,53,0.146247154931201,1
962,347,53,0.105861053652775,1
963,343,53,0.107536673915028,1
963,344,53,0.160005879533717,1
963,345,53,0.129041275950726,1
963,346,53,0.104155428940494,1
967,349,53,0.141620279117679,1
967,350,53,0.123649520896973,1
968,349,53,0.154856000501844,1
968,350,53,0.165549084558653,1
968,351,53,0.146009127063693,1
968,354,53,0.11900161966029,1
968,355,53,0.149920960024614,1
968,356,53,0.151316456956754,1
968,357,53,0.129840041257569,1
968,358,53,0.105384060975824,1
969,349,53,0.129547269211347,1
969,350,53,0.152543304340781,1
969,351,53,0.168591379634505,1
969,352,53,0.140617483550646,1
969,353,53,0.146128810241686,1
969,354,53,0.193253018670754,1
969,355,53,0.211510179963345,1
969,356,53,0.179011155498363,1
969,357,53,0.132982923742474,1
969,358,53,0.105815968899239,1
970,348,53,0.120206326214092,1
970,349,53,0.124981283469462,1
970,350,53,0.126693266002009,1
970,351,53,0.168910151819394,1
970,352,53,0.190708395918824,1
970,353,53,0.192178033958523,1
970,354,53,0.209733024196035,1
970,355,53,0.212502178389996,1
970,356,53,0.180971806881812,1
970,357,53,0.128683743370355,1
971,347,53,0.121484906177758,1
971,348,53,0.181806287522851,1
971,349,53,0.161322572956768,1
971,350,53,0.135555275514022,1
971,351,53,0.173561243120281,1
971,352,53,0.189798714533513,1
971,353,53,0.150111404626762,1
971,354,53,0.12870726730534,1
971,355,53,0.136177918045421,1
971,356,53,0.145493228988341,1
971,357,53,0.117657665688589,1
972,347,53,0.154166890863487,1
972,348,53,0.21421236511717,1
972,349,53,0.174719124885526,1
972,350,53,0.140843565408496,1
972,351,53,0.146470147111484,1
972,352,53,0.128650526547982,1
973,347,53,0.161082593126897,1
973,348,53,0.186481170456418,1
973,349,53,0.15235994257349,1
973,350,53,0.140472491786365,1
973,351,53,0.131846915109759,1
973,352,53,0.105137890636747,1
974,346,53,0.110347265481426,1
974,347,53,0.156133598907294,1
974,348,53,0.159807861317603,1
974,349,53,0.152303581054534,1
974,350,53,0.172230094021677,1
974,351,53,0.146608959520628,1
974,352,53,0.11248111727381,1
975,346,53,0.114090292737246,1
975,347,53,0.151004276827615,1
975,348,53,0.158182958614561,1
975,349,53,0.188078243753207,1
975,350,53,0.231614165348479,1
975,351,53,0.170603339742908,1
975,352,53,0.11296435623032,1
976,346,53,0.112489360132014,1
976,347,53,0.136669477938631,1
976,348,53,0.145200601945038,1
976,349,53,0.172280911967524,1
976,350,53,0.194759018980748,1
976,351,53,0.135806342490111,1
976,362,53,0.103663043646057,1
977,346,53,0.105199282641562,1
977,347,53,0.111395011953148,1
977,348,53,0.11002714365399,1
977,349,53,0.11120178998741,1
977,350,53,0.108216402979975,1
961,345,54,0.111615193307629,1
961,346,54,0.147531646552308,1
961,347,54,0.117069098843002,1
962,343,54,0.104028183302606,1
962,344,54,0.159300730341776,1
962,345,54,0.150640642970602,1
962,346,54,0.149934724147787,1
962,347,54,0.10456044439959,1
963,343,54,0.103077856483875,1
963,344,54,0.156495225031591,1
963,345,54,0.128732218961367,1
963,346,54,0.106316953982142,1
966,346,54,0.102988858154219,1
966,349,54,0.113982276717145,1
967,348,54,0.110910925287269,1
967,349,54,0.172977037516315,1
967,350,54,0.14642579852661,1
967,351,54,0.103561798146836,1
968,348,54,0.11423222828617,1
968,349,54,0.186932029145854,1
968,350,54,0.199299863447406,1
968,351,54,0.180664289154201,1
968,352,54,0.125383711184169,1
968,354,54,0.104311251307369,1
968,355,54,0.120001492860815,1
968,356,54,0.122755053664019,1
968,357,54,0.10499713741931,1
969,349,54,0.13904181491542,1
969,350,54,0.168329013584855,1
969,351,54,0.198557203115894,1
969,352,54,0.176976920710887,1
969,353,54,0.153257120245611,1
969,354,54,0.163489429644182,1
969,355,54,0.183592500395523,1
969,356,54,0.160734463428078,1
969,357,54,0.113008035570956,1
970,348,54,0.110832735252065,1
970,349,54,0.120585218839743,1
970,350,54,0.127422686451668,1
970,351,54,0.17045195669615,1
970,352,54,0.194245329411384,1
970,353,54,0.174979561280955,1
970,354,54,0.176649046804354,1
970,355,54,0.187093350469555,1
970,356,54,0.147271042845819,1
971,347,54,0.110249410819681,1
971,348,54,0.157196314141818,1
971,349,54,0.148231731796177,1
971,350,54,0.127640871227504,1
971,351,54,0.154394121590613,1
971,352,54,0.17280852181705,1
971,353,54,0.135726088951839,1
971,354,54,0.11294004035632,1
971,355,54,0.11010458636646,1
972,347,54,0.132442397479144,1
972,348,54,0.188984645841749,1
972,349,54,0.166308721385682,1
972,350,54,0.128905028977829,1
972,351,54,0.124169122123778,1
972,352,54,0.113592107326074,1
973,347,54,0.131816832581237,1
973,348,54,0.173254126939213,1
973,349,54,0.152356707893004,1
973,350,54,0.121816081689201,1
973,351,54,0.107815157596756,1
974,347,54,0.121921409578277,1
974,348,54,0.149994264576876,1
974,349,54,0.152807968128983,1
974,350,54,0.14761970794003,1
974,351,54,0.117243693510767,1
975,347,54,0.114861217483765,1
975,348,54,0.141457329299664,1
975,349,54,0.180637039759622,1
975,350,54,0.20789485566231,1
975,351,54,0.140435504888115,1
976,348,54,0.117421322085747,1
976,349,54,0.153938031642046,1
976,350,54,0.17954883747368,1
976,351,54,0.117786684823709,1
943,364,55,0.118119934992292,1
955,348,55,0.110421551591905,1
961,346,55,0.122056284600485,1
962,344,55,0.121538534949406,1
962,345,55,0.130070562435535,1
962,346,55,0.12805197680917,1
963,344,55,0.123032522325319,1
963,345,55,0.112389698510824,1
966,346,55,0.117944738004712,1
967,348,55,0.103578651947577,1
967,349,55,0.160815988530403,1
967,350,55,0.140121194331483,1
968,348,55,0.103836188284639,1
968,349,55,0.173125654353554,1
968,350,55,0.186181259804986,1
968,351,55,0.170365992273709,1
968,352,55,0.132635195590198,1
969,349,55,0.120156233282837,1
969,350,55,0.14760286529336,1
969,351,55,0.178974168600113,1
969,352,55,0.182369311546667,1
969,353,55,0.141124268750283,1
969,354,55,0.12224529032752,1
969,355,55,0.136308152974242,1
969,356,55,0.128830765175492,1
970,350,55,0.107445835163716,1
970,351,55,0.140862304247176,1
970,352,55,0.167433564793684,1
970,353,55,0.138519146319188,1
970,354,55,0.127544912757767,1
970,355,55,0.139036628272571,1
970,356,55,0.114917255534672,1
971,348,55,0.111106233064217,1
971,349,55,0.112300332096838,1
971,350,55,0.105370330314863,1
971,351,55,0.119017569981308,1
971,352,55,0.131708727328571,1
971,353,55,0.104568988417702,1
972,347,55,0.103715200080381,1
972,348,55,0.138606750390013,1
972,349,55,0.13369753158632,1
972,350,55,0.110503355545996,1
973,347,55,0.108311502586272,1
973,348,55,0.147142759879361,1
973,349,55,0.14536020554186,1
973,350,55,0.117072433910124,1
974,348,55,0.14317970742605,1
974,349,55,0.162210771602022,1
974,350,55,0.139814435080677,1
975,348,55,0.130001317964987,1
975,349,55,0.176135312618707,1
975,350,55,0.175986439237843,1
975,351,55,0.113506700607165,1
976,349,55,0.140790226642685,1
976,350,55,0.154794753499947,1
943,362,56,0.119260784491666,1
943,363,56,0.131724097637916,1
943,364,56,0.105867824173655,1
962,351,56,0.106203271694154,1
967,349,56,0.1152622286315,1
967,350,56,0.111181868817243,1
968,349,56,0.123084834916631,1
968,350,56,0.1377244634022,1
968,351,56,0.128720072178437,1
968,352,56,0.111794695766477,1
969,350,56,0.108582825354648,1
969,351,56,0.133823896052628,1
969,352,56,0.153575479729886,1
969,353,56,0.1144069121865,1
970,351,56,0.108073497026905,1
970,352,56,0.133678480433663,1
970,353,56,0.103411998978109,1
973,348,56,0.111464044496354,1
973,349,56,0.124617181141483,1
973,350,56,0.104277978714642,1
974,348,56,0.130251269534012,1
974,349,56,0.165625199936716,1
974,350,56,0.135147058836652,1
975,348,56,0.111276890345045,1
975,349,56,0.15930548197587,1
975,350,56,0.143390006273942,1
976,349,56,0.117762993577665,1
976,350,56,0.11994862256597,1
969,352,57,0.110316926409279,1
970,352,57,0.107515090788335,1
974,348,57,0.109054586772468,1
974,349,57,0.146128776779474,1
974,350,57,0.119526630611356,1
975,349,57,0.125768370464342,1
975,350,57,0.111324975543585,1
