x,y,z,signal,mito.p
811,473,38,0.14237438352567,1
813,474,38,0.110466022871556,1
814,475,38,0.110408010550145,1
816,472,38,0.146368935074475,1
816,473,38,0.151078105621197,1
816,475,38,0.15099378084714,1
819,482,38,0.11300220199201,1
819,483,38,0.158147600210625,1
819,484,38,0.146020292288406,1
820,482,38,0.124855075160143,1
820,483,38,0.147793499514709,1
820,484,38,0.129695506810185,1
805,518,39,0.120016048923003,1
806,479,39,0.116141637869087,1
807,477,39,0.103823126867916,1
808,475,39,0.119729657005189,1
809,473,39,0.130639029645824,1
809,474,39,0.108316276528507,1
810,472,39,0.150330236338695,1
810,473,39,0.127724738684664,1
811,471,39,0.17467421859712,1
811,472,39,0.176274136181922,1
811,473,39,0.134004469302258,1
812,471,39,0.173655138086948,1
812,473,39,0.126900977105512,1
813,470,39,0.143630365342214,1
813,473,39,0.123102279883116,1
814,470,39,0.161218014698567,1
814,471,39,0.188792885059265,1
814,473,39,0.13385171430481,1
814,474,39,0.110131590371485,1
815,470,39,0.135539737893617,1
815,471,39,0.165311949016795,1
815,472,39,0.169559887588384,1
815,473,39,0.146473939495502,1
815,475,39,0.119526831384628,1
816,471,39,0.11951836544501,1
816,472,39,0.145775304280816,1
816,473,39,0.139317822393465,1
816,474,39,0.142620051931568,1
816,475,39,0.121632686459699,1
816,523,39,0.106371542003865,1
817,472,39,0.104133143107351,1
817,523,39,0.120898280140463,1
818,523,39,0.116067061752772,1
819,482,39,0.108256881102336,1
819,483,39,0.144820861610018,1
819,484,39,0.132446122938739,1
819,523,39,0.115675152326681,1
820,470,39,0.11340624704696,1
820,482,39,0.143912061396288,1
820,483,39,0.162723167299192,1
820,484,39,0.132772301426534,1
820,523,39,0.116035138802594,1
821,482,39,0.121841602202831,1
821,483,39,0.118191599896169,1
821,523,39,0.11607085413679,1
822,471,39,0.130331233066448,1
822,481,39,0.104080150117729,1
822,522,39,0.115970333652161,1
822,523,39,0.126051048076632,1
823,472,39,0.109186249422331,1
823,480,39,0.111849149939353,1
823,522,39,0.110876659982255,1
824,473,39,0.134912589117678,1
824,474,39,0.131126116756707,1
824,475,39,0.122415166823404,1
824,476,39,0.109040811495225,1
825,475,39,0.1471047133444,1
825,476,39,0.127043347663191,1
825,477,39,0.102935943243092,1
831,488,39,0.103398056389806,1
831,489,39,0.117234614097264,1
803,517,40,0.126661655365808,1
804,481,40,0.111552864360879,1
804,517,40,0.108526876536306,1
804,518,40,0.16153044021726,1
804,519,40,0.176272898080081,1
805,480,40,0.111929860794521,1
805,518,40,0.143774096696512,1
805,519,40,0.175770228732511,1
806,479,40,0.105693619898362,1
806,519,40,0.112902696527809,1
806,520,40,0.108139372968119,1
808,473,40,0.131612925015823,1
808,475,40,0.109975879545317,1
809,472,40,0.121079254936636,1
809,473,40,0.113875186484907,1
809,474,40,0.103040066492538,1
810,471,40,0.150075968144331,1
810,472,40,0.14181406994102,1
810,473,40,0.117433234633193,1
811,470,40,0.159518680882128,1
811,471,40,0.17690785470547,1
811,472,40,0.164336570155401,1
811,473,40,0.121878120630114,1
812,470,40,0.145587692812611,1
812,471,40,0.170087385897204,1
812,472,40,0.152983098192139,1
812,473,40,0.110220209462739,1
813,469,40,0.108502315272751,1
813,470,40,0.147697016803652,1
813,471,40,0.168643915307231,1
813,472,40,0.140666360688201,1
814,469,40,0.115667578712715,1
814,470,40,0.168087215641469,1
814,471,40,0.185639395053179,1
814,472,40,0.149141234716358,1
814,473,40,0.109510609796611,1
815,470,40,0.140249231908387,1
815,471,40,0.162992917343607,1
815,472,40,0.149425406974114,1
815,473,40,0.120817480052729,1
815,474,40,0.105888414588061,1
815,523,40,0.104833239505291,1
815,524,40,0.108899310955055,1
816,471,40,0.117610361274994,1
816,472,40,0.129346852870045,1
816,473,40,0.115942281164496,1
816,474,40,0.104224740335466,1
816,523,40,0.10800205520444,1
816,524,40,0.122119438948462,1
817,523,40,0.111850912282515,1
817,524,40,0.143437310687536,1
818,523,40,0.110673276658162,1
818,524,40,0.160517349443024,1
819,469,40,0.111065152622041,1
819,483,40,0.114806696386465,1
819,484,40,0.103073149466064,1
819,523,40,0.108178479139791,1
819,524,40,0.160141624573435,1
820,469,40,0.152050829813778,1
820,470,40,0.124430026990174,1
820,482,40,0.132881678243254,1
820,483,40,0.146799036038445,1
820,484,40,0.11410739192754,1
820,523,40,0.109416056739776,1
820,524,40,0.168611189263966,1
821,470,40,0.164161875101,1
821,482,40,0.12707319595623,1
821,483,40,0.12257848472575,1
821,523,40,0.113603562556624,1
821,524,40,0.161844773082033,1
822,470,40,0.207461073855028,1
822,471,40,0.127800006353359,1
822,522,40,0.119784378875761,1
822,523,40,0.141424592102329,1
822,524,40,0.133097609896819,1
823,471,40,0.166622563471347,1
823,472,40,0.105753573028065,1
823,480,40,0.121441271453405,1
823,522,40,0.129761728527589,1
823,523,40,0.163995857913559,1
824,472,40,0.134534287657771,1
824,473,40,0.137473229115051,1
824,474,40,0.138179527176268,1
824,475,40,0.126713544102437,1
824,476,40,0.114503707211535,1
824,477,40,0.107848920968591,1
824,478,40,0.108621083816952,1
824,479,40,0.104578536302172,1
825,473,40,0.170515467974388,1
825,474,40,0.179846740392397,1
825,475,40,0.1664858034112,1
825,476,40,0.146109692164604,1
825,477,40,0.119198199001291,1
826,475,40,0.146249921140721,1
826,476,40,0.130848692711689,1
830,490,40,0.104623453744649,1
831,487,40,0.104206971900933,1
831,488,40,0.119740498761854,1
831,489,40,0.130175042615242,1
831,490,40,0.103482146928379,1
832,488,40,0.105831629214421,1
803,481,41,0.11770700014304,1
803,517,41,0.119101950525718,1
803,519,41,0.131881782734587,1
804,480,41,0.128497436928415,1
804,481,41,0.103614489976551,1
804,517,41,0.116997110471076,1
804,518,41,0.166013718525332,1
804,519,41,0.18880216524604,1
804,520,41,0.156584000279833,1
805,480,41,0.103867553531285,1
805,518,41,0.153380060412231,1
805,519,41,0.194233305323231,1
805,520,41,0.164650724555044,1
806,519,41,0.124048334692791,1
806,520,41,0.119271191239575,1
807,521,41,0.11129207103519,1
808,472,41,0.135680580343619,1
809,471,41,0.148111870153054,1
809,472,41,0.122898205006643,1
809,473,41,0.106232662670297,1
810,471,41,0.162891125294925,1
810,472,41,0.140034270658967,1
810,473,41,0.109575102633066,1
811,469,41,0.144501888651857,1
811,470,41,0.171560827474992,1
811,471,41,0.179511594031805,1
811,472,41,0.154444169905586,1
811,473,41,0.111253924113593,1
812,469,41,0.122159571294633,1
812,470,41,0.148029608882067,1
812,471,41,0.167796161322127,1
812,472,41,0.139853719717479,1
813,469,41,0.115241894760719,1
813,470,41,0.145917708300708,1
813,471,41,0.164154613801012,1
813,472,41,0.127186666316875,1
814,469,41,0.122559121259114,1
814,470,41,0.157999195300728,1
814,471,41,0.167199307002053,1
814,472,41,0.126507651112449,1
814,523,41,0.113245862665193,1
814,524,41,0.120959660991208,1
815,469,41,0.10635616054045,1
815,470,41,0.134136689655652,1
815,471,41,0.146619042800489,1
815,472,41,0.123751814878834,1
815,523,41,0.124408555404187,1
815,524,41,0.143127037904477,1
816,471,41,0.113973096917006,1
816,472,41,0.107992462703688,1
816,523,41,0.112994929537951,1
816,524,41,0.141574658968752,1
817,523,41,0.104706228102886,1
817,524,41,0.142539619928166,1
818,523,41,0.10441684689414,1
818,524,41,0.156089518020115,1
819,468,41,0.110931292620262,1
819,469,41,0.128313718230864,1
819,470,41,0.108772857256183,1
819,524,41,0.155476200291773,1
820,468,41,0.125318839109313,1
820,469,41,0.155154650743294,1
820,470,41,0.131514122258073,1
820,482,41,0.103580525831445,1
820,483,41,0.111548848895448,1
820,523,41,0.103637623519063,1
820,524,41,0.170520877698649,1
821,469,41,0.172007313768736,1
821,470,41,0.154450895810183,1
821,471,41,0.102938631374116,1
821,482,41,0.113586452212258,1
821,483,41,0.10909351447901,1
821,523,41,0.106847475044105,1
821,524,41,0.158888185884997,1
822,469,41,0.165491841868116,1
822,470,41,0.168871380269841,1
822,471,41,0.120643019233812,1
822,522,41,0.107383428138472,1
822,523,41,0.138728742460629,1
822,524,41,0.128899976183828,1
823,470,41,0.162966560274679,1
823,471,41,0.135044084456481,1
823,480,41,0.113186143770974,1
823,522,41,0.125653695464068,1
823,523,41,0.164182287050276,1
824,471,41,0.12557143419308,1
824,472,41,0.121927109308375,1
824,473,41,0.130680678945603,1
824,474,41,0.137639045529221,1
824,475,41,0.127330843833999,1
824,476,41,0.115257900852091,1
824,477,41,0.109936639524797,1
824,478,41,0.115247929112936,1
824,479,41,0.114599832992331,1
825,472,41,0.133204978980823,1
825,473,41,0.166115376725167,1
825,474,41,0.186524247477239,1
825,475,41,0.173580517354351,1
825,476,41,0.152745081478701,1
825,477,41,0.126351204117619,1
826,473,41,0.151124506555069,1
826,474,41,0.160848313027125,1
826,475,41,0.156705245027716,1
826,476,41,0.142388883817505,1
826,477,41,0.109277523182397,1
827,475,41,0.146925043574492,1
827,476,41,0.129437914702769,1
831,487,41,0.109949265932765,1
831,488,41,0.122728774673585,1
831,489,41,0.12869928099076,1
832,488,41,0.111061672552,1
803,480,42,0.12211783276229,1
803,481,42,0.107888897157773,1
803,517,42,0.110672797033124,1
803,519,42,0.132154488607723,1
804,480,42,0.113804001206067,1
804,517,42,0.124148888639633,1
804,518,42,0.163163775397707,1
804,519,42,0.193140451789831,1
804,520,42,0.182861551838186,1
805,517,42,0.103548714421972,1
805,518,42,0.154120623778462,1
805,519,42,0.196748815950785,1
805,520,42,0.180205020295501,1
806,518,42,0.103867508915003,1
806,519,42,0.135567678840576,1
806,520,42,0.131571242253833,1
807,519,42,0.110637862483872,1
807,520,42,0.123006555648863,1
807,521,42,0.12010837116571,1
808,522,42,0.109228712969266,1
809,472,42,0.130212085283846,1
809,473,42,0.104282306494052,1
810,472,42,0.139661646621017,1
810,473,42,0.103334533957497,1
811,469,42,0.16319109171671,1
811,471,42,0.18041319986997,1
811,472,42,0.146133015326318,1
812,469,42,0.132686738550636,1
812,470,42,0.148057850988933,1
812,471,42,0.162784124295252,1
812,472,42,0.133535496402098,1
813,468,42,0.111871067688165,1
813,469,42,0.12149780028342,1
813,470,42,0.13980806610634,1
813,471,42,0.15181941631016,1
813,472,42,0.117618949909389,1
814,469,42,0.124921598037455,1
814,470,42,0.142590627493214,1
814,471,42,0.141489497639397,1
814,472,42,0.107043173213526,1
814,523,42,0.119516569639637,1
814,524,42,0.145598679572194,1
815,469,42,0.110617193990972,1
815,470,42,0.126903486771406,1
815,471,42,0.126741306584266,1
815,523,42,0.127631245264539,1
816,470,42,0.109399370250095,1
816,471,42,0.112553752581833,1
816,523,42,0.108449378053483,1
816,524,42,0.15030254078129,1
818,469,42,0.103958927677988,1
819,468,42,0.121081441134481,1
819,469,42,0.139780705171054,1
819,470,42,0.115515191799599,1
820,468,42,0.121575979164553,1
820,469,42,0.14851323823105,1
820,470,42,0.12915403245085,1
821,469,42,0.136578081483788,1
821,470,42,0.134301089502851,1
821,471,42,0.102978830644712,1
822,469,42,0.124956666435554,1
822,470,42,0.131411225956397,1
822,471,42,0.109688204909379,1
822,523,42,0.119258330596124,1
822,524,42,0.116963057093404,1
823,470,42,0.119037424227052,1
823,471,42,0.107161261359417,1
823,523,42,0.133525078500118,1
824,471,42,0.103062229630905,1
824,472,42,0.107575021609896,1
824,473,42,0.117451560771258,1
824,474,42,0.126832156489648,1
824,475,42,0.120548811953166,1
824,476,42,0.10802670570056,1
824,478,42,0.104725290409614,1
824,479,42,0.108209967081214,1
825,472,42,0.124532019812128,1
825,473,42,0.148608293221065,1
825,474,42,0.171135087752643,1
825,475,42,0.164006141966691,1
825,476,42,0.142397952076937,1
825,477,42,0.117740796977086,1
826,473,42,0.152302510263753,1
826,474,42,0.162439641977533,1
826,475,42,0.160548603148964,1
826,476,42,0.141352916044381,1
826,477,42,0.107897128861907,1
827,475,42,0.153385380903928,1
827,476,42,0.13356712934644,1
828,476,42,0.141188014264004,1
828,477,42,0.10357836194174,1
831,488,42,0.110647934609662,1
831,489,42,0.111974990164341,1
802,481,43,0.112378767521595,1
803,480,43,0.106875148293369,1
803,519,43,0.128560635892675,1
804,517,43,0.117091964687819,1
804,518,43,0.145755003872247,1
804,519,43,0.177894566102637,1
804,520,43,0.196636159837297,1
805,479,43,0.107035833835043,1
805,518,43,0.138615707108739,1
805,519,43,0.174539477423759,1
805,520,43,0.177382616568292,1
806,518,43,0.108649247845324,1
806,519,43,0.14491501312031,1
806,520,43,0.140087687503274,1
807,519,43,0.134601178619413,1
807,520,43,0.138698771472813,1
807,521,43,0.120547930781585,1
808,521,43,0.110569956501801,1
808,522,43,0.133204543972068,1
809,473,43,0.111165483487469,1
809,522,43,0.121989103633006,1
809,523,43,0.119454865320843,1
811,472,43,0.142569624378194,1
812,469,43,0.138104002963949,1
812,470,43,0.146381271476605,1
812,471,43,0.157346247159393,1
812,472,43,0.132819204293585,1
813,469,43,0.122478243092886,1
813,470,43,0.12847789499665,1
813,471,43,0.133857659424462,1
813,472,43,0.111443186384253,1
814,468,43,0.107129293792956,1
814,469,43,0.119789442823832,1
814,470,43,0.123949420394335,1
814,471,43,0.116373597922166,1
814,523,43,0.117669511311611,1
815,469,43,0.109514312948065,1
815,470,43,0.117014008888099,1
815,471,43,0.109507787816739,1
816,470,43,0.111725183598234,1
816,471,43,0.110791208647064,1
816,523,43,0.104659804860873,1
817,470,43,0.106270374583139,1
817,471,43,0.10752212900691,1
817,524,43,0.12355449936917,1
818,466,43,0.178877027798889,1
818,467,43,0.136171236757107,1
818,468,43,0.110817153015378,1
818,469,43,0.108557148684029,1
818,524,43,0.11307738042814,1
819,466,43,0.160461735246801,1
819,468,43,0.12561032843741,1
819,469,43,0.140220264786929,1
819,470,43,0.115466548897527,1
819,524,43,0.126005941014954,1
820,468,43,0.1139294064223,1
820,469,43,0.133934198657211,1
820,470,43,0.116774999462374,1
821,469,43,0.108664205454055,1
821,470,43,0.108933587414139,1
824,474,43,0.104283801139518,1
824,475,43,0.104189125387905,1
825,473,43,0.122177886278628,1
825,474,43,0.136779512845519,1
825,475,43,0.138572362390223,1
825,476,43,0.120562319532714,1
826,474,43,0.153024970573331,1
826,475,43,0.153303487717271,1
826,476,43,0.129818123508757,1
827,475,43,0.153905372523205,1
827,476,43,0.131811779787236,1
828,477,43,0.110418127292217,1
803,479,44,0.110506155217727,1
804,518,44,0.123067579569348,1
804,519,44,0.153301524600838,1
805,518,44,0.121731031900553,1
805,519,44,0.147294109463908,1
806,518,44,0.111213524069726,1
806,519,44,0.147039395106718,1
806,520,44,0.139173734108907,1
807,519,44,0.145260610845094,1
807,520,44,0.139259888150549,1
807,521,44,0.112277533176445,1
808,521,44,0.113655607450241,1
808,522,44,0.150138408631787,1
809,473,44,0.121276548138158,1
809,522,44,0.164771656988949,1
810,522,44,0.116579847842415,1
810,523,44,0.124707997584653,1
811,472,44,0.138036855458682,1
811,523,44,0.112725592194149,1
812,470,44,0.14293141781355,1
812,471,44,0.148631359839153,1
812,472,44,0.128206549920132,1
812,523,44,0.112472160555084,1
812,524,44,0.147175943239522,1
813,469,44,0.120191100907665,1
813,470,44,0.12027558183871,1
813,471,44,0.11847637447374,1
813,472,44,0.104455819216965,1
813,523,44,0.114903926420255,1
814,469,44,0.112812437788171,1
814,470,44,0.1114007674536,1
815,469,44,0.10583387118262,1
815,470,44,0.110538256633036,1
816,470,44,0.113444115116791,1
816,471,44,0.112543702764184,1
816,523,44,0.103832451670973,1
817,466,44,0.134879428065658,1
817,467,44,0.118258457395599,1
817,470,44,0.117045418751028,1
817,471,44,0.117355803074794,1
818,465,44,0.171901495100552,1
818,466,44,0.210210686117224,1
818,467,44,0.166703687027129,1
818,468,44,0.123628618168589,1
818,469,44,0.11842116182406,1
818,470,44,0.116773649819826,1
818,471,44,0.104855380335516,1
819,465,44,0.170815980945635,1
819,466,44,0.189381619215912,1
819,467,44,0.153917050835168,1
819,469,44,0.134382302291198,1
819,470,44,0.116409971346531,1
819,524,44,0.116191206559022,1
820,466,44,0.136946723518519,1
820,469,44,0.119687293844889,1
820,470,44,0.106633562277326,1
820,524,44,0.116413864117185,1
825,474,44,0.108116250579677,1
825,475,44,0.114568579286391,1
826,475,44,0.140947499038742,1
826,476,44,0.116760398783903,1
803,479,45,0.105328201390047,1
805,518,45,0.104212348162983,1
805,519,45,0.121344855666772,1
806,477,45,0.108420500164589,1
806,518,45,0.10903378443072,1
806,519,45,0.13848029669114,1
806,520,45,0.134695843216955,1
807,475,45,0.12057596096111,1
807,519,45,0.138770748690668,1
807,520,45,0.132523699500057,1
808,474,45,0.12479302506516,1
808,521,45,0.117520637930747,1
809,473,45,0.130977310300267,1
809,521,45,0.113792780211001,1
809,522,45,0.188638044250608,1
810,522,45,0.138619488338687,1
810,523,45,0.141239322988959,1
811,472,45,0.134656948972625,1
811,523,45,0.13146059387306,1
812,470,45,0.141516256254868,1
812,471,45,0.140510895251587,1
812,472,45,0.122200328268761,1
812,523,45,0.13576777171383,1
812,524,45,0.158742892960809,1
813,470,45,0.12005801053676,1
813,471,45,0.111485605314906,1
813,523,45,0.13543873778395,1
814,469,45,0.110927712163585,1
814,470,45,0.105540686435785,1
815,469,45,0.103036720271346,1
815,470,45,0.10460193754238,1
816,470,45,0.111320937770012,1
816,471,45,0.11097449233586,1
816,523,45,0.105301152768739,1
817,465,45,0.126626140804883,1
817,466,45,0.141062999440244,1
817,467,45,0.137545083638129,1
817,469,45,0.115716400079917,1
817,470,45,0.126667310479624,1
817,471,45,0.117835205031003,1
818,464,45,0.139041658758431,1
818,465,45,0.162007644821553,1
818,466,45,0.222828906996556,1
818,467,45,0.202570883895851,1
818,468,45,0.145275925384086,1
818,469,45,0.135505394510109,1
818,470,45,0.135630743955988,1
818,471,45,0.110109739547097,1
818,524,45,0.104701298003662,1
819,464,45,0.179775164721084,1
819,465,45,0.171650506202957,1
819,466,45,0.21463742444121,1
819,467,45,0.192056276123391,1
819,468,45,0.141978748639984,1
819,470,45,0.121672740727376,1
819,524,45,0.11331023280687,1
820,465,45,0.166598437216547,1
820,466,45,0.153663987280433,1
820,467,45,0.132158113680682,1
820,524,45,0.104095542735215,1
820,525,45,0.144930840746552,1
806,476,46,0.126548686938342,1
806,519,46,0.121621498926845,1
807,475,46,0.111552239732923,1
807,519,46,0.121780154427662,1
807,520,46,0.126187696596072,1
808,474,46,0.123257343773187,1
808,520,46,0.103455321388484,1
808,521,46,0.126464351010215,1
809,474,46,0.105641943089076,1
809,521,46,0.125404379677069,1
809,522,46,0.192817206822615,1
810,522,46,0.15569788744579,1
811,472,46,0.12751128323478,1
811,522,46,0.125336016378102,1
812,471,46,0.13298077100684,1
812,472,46,0.112170822182609,1
812,522,46,0.121756228946134,1
812,524,46,0.165490135295308,1
813,470,46,0.130657478478667,1
813,471,46,0.110242941458708,1
813,522,46,0.115513964851828,1
814,470,46,0.107481037410664,1
816,470,46,0.111469643839816,1
816,471,46,0.106668764524273,1
816,523,46,0.11022387915198,1
817,466,46,0.137413220214995,1
817,467,46,0.147001560499099,1
817,470,46,0.135665656197099,1
817,471,46,0.114653930234947,1
818,465,46,0.152284953756562,1
818,466,46,0.208513438111996,1
818,467,46,0.219822773417726,1
818,468,46,0.161394115165869,1
818,470,46,0.15178328827535,1
818,471,46,0.112485266588088,1
819,464,46,0.187022466350623,1
819,465,46,0.169014509304324,1
819,466,46,0.226707043510066,1
819,467,46,0.234734605843252,1
819,468,46,0.162125554502314,1
819,524,46,0.114696594555154,1
820,465,46,0.163105038061705,1
820,466,46,0.168573432734842,1
820,467,46,0.16270681543163,1
806,476,47,0.103915371032129,1
807,475,47,0.105749903338824,1
807,519,47,0.104387980159318,1
808,474,47,0.12180407990919,1
808,520,47,0.118809089246932,1
809,473,47,0.128158788189642,1
809,474,47,0.108004542562194,1
809,520,47,0.112164977449592,1
809,521,47,0.137190161110289,1
810,521,47,0.122245758798487,1
811,472,47,0.120825455213239,1
811,521,47,0.113896345756916,1
812,471,47,0.123333793773369,1
813,470,47,0.149577526189535,1
813,471,47,0.112867260045378,1
814,522,47,0.12688237211568,1
816,470,47,0.111460787507726,1
816,523,47,0.130238565047551,1
817,466,47,0.130709389523437,1
817,467,47,0.145710822598433,1
817,468,47,0.140736307865199,1
817,470,47,0.140818312592562,1
817,471,47,0.109109063253485,1
817,523,47,0.112469974357238,1
818,465,47,0.149444168120934,1
818,466,47,0.184590588944746,1
818,467,47,0.214874716140056,1
818,468,47,0.17471399401303,1
818,469,47,0.163765727128065,1
818,470,47,0.158190822234364,1
818,471,47,0.111712177951865,1
818,523,47,0.106072267134459,1
819,465,47,0.166418633597792,1
819,466,47,0.226320532654166,1
819,467,47,0.265517743850962,1
819,468,47,0.190514047391951,1
819,469,47,0.146081617368798,1
819,470,47,0.131155496578779,1
819,524,47,0.126894039273572,1
820,466,47,0.183238157879356,1
820,467,47,0.203465395745088,1
820,468,47,0.150194859383308,1
821,467,47,0.149834393282358,1
807,474,48,0.114897791681401,1
808,474,48,0.116177141275942,1
808,519,48,0.112222331680835,1
809,473,48,0.121861891457329,1
809,474,48,0.103770557732979,1
809,519,48,0.119421693114753,1
809,520,48,0.155876129494655,1
810,472,48,0.13684673842928,1
810,520,48,0.131014687590989,1
811,471,48,0.132078283997094,1
811,472,48,0.114563191870271,1
812,471,48,0.114094007042769,1
813,470,48,0.161523881623722,1
813,471,48,0.113012954516109,1
813,521,48,0.106345006469807,1
814,470,48,0.135711845203629,1
815,470,48,0.108997121000518,1
816,470,48,0.114701680811367,1
816,522,48,0.105027610340305,1
817,467,48,0.142510976274756,1
817,468,48,0.14986220038047,1
817,470,48,0.144415857304993,1
817,471,48,0.109392298569308,1
818,466,48,0.164281915209253,1
818,467,48,0.201959060812975,1
818,468,48,0.18495217045276,1
818,469,48,0.172909220766809,1
818,470,48,0.158196443885968,1
818,471,48,0.115721006711092,1
819,465,48,0.166829973414942,1
819,466,48,0.216136040756439,1
819,467,48,0.283079091908739,1
819,468,48,0.222047720505046,1
819,469,48,0.162415158792473,1
819,470,48,0.132969036924525,1
819,471,48,0.104222264131784,1
820,465,48,0.152407581609204,1
820,466,48,0.195591848819333,1
820,467,48,0.252105353141892,1
820,468,48,0.193733179103768,1
821,466,48,0.146434554472064,1
821,467,48,0.171784812367562,1
807,474,49,0.106958714590622,1
808,473,49,0.118477556805228,1
808,474,49,0.10404075394022,1
808,519,49,0.126504639513376,1
809,472,49,0.138258330685357,1
809,473,49,0.108795488865516,1
809,519,49,0.146165049817203,1
810,471,49,0.14233879088625,1
810,472,49,0.124213972641831,1
810,519,49,0.114847051814049,1
811,471,49,0.117093358946649,1
811,472,49,0.105681194263667,1
812,470,49,0.128350995134951,1
812,471,49,0.104673100513078,1
812,520,49,0.105398170875187,1
813,470,49,0.156500969377971,1
813,471,49,0.109536431470148,1
814,470,49,0.149978102328515,1
814,471,49,0.10427307092356,1
814,521,49,0.112672588050457,1
815,469,49,0.147960498260367,1
815,470,49,0.122621684441347,1
815,521,49,0.111297648070511,1
816,469,49,0.138419607392775,1
816,470,49,0.118048794329734,1
817,469,49,0.155229929566059,1
817,470,49,0.140402020368047,1
817,471,49,0.106156870760282,1
818,467,49,0.177962594779484,1
818,468,49,0.180310325876436,1
818,469,49,0.170725331813524,1
818,470,49,0.148250046780172,1
818,471,49,0.112824908039149,1
819,466,49,0.187477396275843,1
819,467,49,0.25931895832402,1
819,468,49,0.232819407297671,1
819,469,49,0.172476420517743,1
819,470,49,0.129220566482232,1
820,466,49,0.189665177999782,1
820,467,49,0.266169900053281,1
820,468,49,0.231174427267473,1
820,469,49,0.153675063272581,1
821,467,49,0.185186160546696,1
821,468,49,0.164758104793118,1
807,473,50,0.103129745220503,1
808,472,50,0.121841133731864,1
808,519,50,0.131702882595554,1
809,472,50,0.124687228705117,1
810,471,50,0.120469941519654,1
810,472,50,0.115127074757526,1
811,470,50,0.103977108813135,1
811,471,50,0.105260072326563,1
812,470,50,0.11317930632567,1
813,470,50,0.137592577670925,1
813,471,50,0.103771818142961,1
813,520,50,0.121129135940548,1
814,469,50,0.170476941814389,1
814,470,50,0.150269613964754,1
814,471,50,0.104576327796185,1
814,520,50,0.115464474240388,1
815,469,50,0.164598478888155,1
815,470,50,0.135333967598406,1
815,520,50,0.121164918199169,1
816,469,50,0.153146404940415,1
816,470,50,0.12483175199843,1
816,521,50,0.137919559251806,1
817,469,50,0.159283106910161,1
817,470,50,0.13824240267248,1
817,471,50,0.107322471142412,1
818,467,50,0.153191712775364,1
818,468,50,0.171715467510378,1
818,469,50,0.164048638975839,1
818,470,50,0.139454314755916,1
818,471,50,0.114440876331606,1
819,466,50,0.155016596810953,1
819,467,50,0.211749769400744,1
819,468,50,0.224003452943341,1
819,469,50,0.174567251059659,1
819,470,50,0.126494667774221,1
819,471,50,0.102988099677415,1
820,466,50,0.166633472152435,1
820,467,50,0.23807946623935,1
820,468,50,0.244429233266507,1
820,469,50,0.174877133450246,1
820,470,50,0.113545059456104,1
821,467,50,0.18072123068483,1
821,468,50,0.17788178353768,1
808,472,51,0.109431817441593,1
809,471,51,0.114824375588433,1
809,472,51,0.115727777231972,1
810,471,51,0.107723727679701,1
810,472,51,0.10771815064438,1
812,519,51,0.117444377549765,1
813,469,51,0.128472920281143,1
813,470,51,0.114001896727405,1
813,519,51,0.102987965828568,1
814,469,51,0.152542177779646,1
814,470,51,0.133571524050273,1
814,519,51,0.105481134852625,1
815,469,51,0.162868527147803,1
815,470,51,0.135384015913379,1
815,519,51,0.116393686403393,1
816,469,51,0.161325350320358,1
816,470,51,0.12731732510038,1
816,520,51,0.138942833692539,1
817,468,51,0.17195771161659,1
817,469,51,0.165526542181884,1
817,470,51,0.134252067362377,1
817,471,51,0.106276832790041,1
817,521,51,0.103696851634174,1
818,468,51,0.180224874541244,1
818,469,51,0.161801450671658,1
818,470,51,0.131264059148341,1
818,471,51,0.113178503232584,1
819,467,51,0.178924242979918,1
819,468,51,0.215035423989872,1
819,469,51,0.173963436599504,1
819,470,51,0.124752524634657,1
819,471,51,0.10420761883703,1
820,466,51,0.149624172512961,1
820,467,51,0.201670728086869,1
820,468,51,0.242296798041095,1
820,469,51,0.190849361063602,1
820,470,51,0.122717364059318,1
821,467,51,0.172546869627921,1
821,468,51,0.187431218423384,1
821,469,51,0.153889622975458,1
822,468,51,0.137952675687544,1
812,518,52,0.108292451433615,1
813,469,52,0.113665512264971,1
814,469,52,0.130793011591043,1
814,470,52,0.112728994185695,1
815,469,52,0.149500306558478,1
815,470,52,0.125712198564587,1
816,468,52,0.164478918404939,1
816,469,52,0.160132400157014,1
816,470,52,0.12513873433065,1
816,519,52,0.12334838329777,1
817,467,52,0.157100132590669,1
817,468,52,0.185906401196216,1
817,469,52,0.167793863583574,1
817,470,52,0.128112632645323,1
817,471,52,0.104970033027649,1
818,467,52,0.160376484684881,1
818,468,52,0.188849413889281,1
818,469,52,0.158128493287614,1
818,470,52,0.121625458621923,1
818,471,52,0.110862070457855,1
818,472,52,0.103984336650911,1
818,522,52,0.103479191099658,1
819,467,52,0.166663989689712,1
819,468,52,0.202116913220706,1
819,469,52,0.165496995048753,1
819,470,52,0.120362460894944,1
819,471,52,0.106666957564829,1
820,467,52,0.178885527200718,1
820,468,52,0.223572058107176,1
820,469,52,0.18780637443537,1
820,470,52,0.124036611764546,1
821,467,52,0.168633118166849,1
821,468,52,0.189554150380608,1
821,469,52,0.161013281731926,1
822,468,52,0.149594536147264,1
810,518,53,0.103817081361628,1
813,518,53,0.110914862674205,1
814,469,53,0.117002196727289,1
815,469,53,0.137651136541797,1
815,470,53,0.115641768193248,1
816,468,53,0.171828424783774,1
816,469,53,0.154391199224105,1
816,470,53,0.122741501468188,1
817,467,53,0.171862199309679,1
817,468,53,0.190697955708702,1
817,469,53,0.163917444796943,1
817,470,53,0.121600094265282,1
818,466,53,0.175346519051019,1
818,467,53,0.178531809312507,1
818,468,53,0.19320206687606,1
818,469,53,0.15433624311805,1
818,470,53,0.112095052580735,1
818,521,53,0.105756930403329,1
818,522,53,0.106548155558417,1
819,466,53,0.174559855910823,1
819,467,53,0.180026622089646,1
819,468,53,0.191025751536741,1
819,469,53,0.155484688539531,1
819,470,53,0.115846244616265,1
819,471,53,0.107658030203617,1
819,472,53,0.104326220070171,1
820,466,53,0.170681184001922,1
820,467,53,0.182349691536407,1
820,468,53,0.205031204181866,1
820,469,53,0.174012648359178,1
820,470,53,0.121719844367698,1
821,467,53,0.176028690857437,1
821,468,53,0.194043217651344,1
821,469,53,0.161892400963676,1
822,468,53,0.164585060541172,1
815,468,54,0.161823134184987,1
815,469,54,0.134866545114066,1
815,470,54,0.116656955932765,1
816,467,54,0.193554067037392,1
816,468,54,0.180735229043487,1
816,469,54,0.154436217053218,1
816,470,54,0.131766170792379,1
816,471,54,0.1033156501159,1
816,518,54,0.109990056369104,1
817,466,54,0.189162017873104,1
817,467,54,0.194399389435096,1
817,468,54,0.190285634333336,1
817,469,54,0.160404135626003,1
817,470,54,0.122155455442566,1
817,519,54,0.131058567704896,1
818,465,54,0.183499832376626,1
818,466,54,0.210951450256727,1
818,467,54,0.204759513329159,1
818,468,54,0.192836949527652,1
818,469,54,0.153966095283782,1
818,470,54,0.111345119795165,1
818,520,54,0.127624787057637,1
818,521,54,0.121544781228966,1
819,465,54,0.200244256300555,1
819,466,54,0.229106886425059,1
819,467,54,0.208705355051469,1
819,468,54,0.185354575859325,1
819,469,54,0.151944765756039,1
819,470,54,0.120095075513504,1
819,471,54,0.111632526733407,1
820,466,54,0.201979093523848,1
820,467,54,0.199422714381461,1
820,468,54,0.193694652943769,1
820,469,54,0.161470219389862,1
820,470,54,0.123374037660247,1
820,471,54,0.107925794823458,1
821,466,54,0.167756051284097,1
821,467,54,0.195995559252163,1
821,468,54,0.206667684810235,1
821,469,54,0.165139462468382,1
821,470,54,0.11705674013273,1
822,467,54,0.176288536087122,1
822,468,54,0.182605476684378,1
815,467,55,0.188385382242416,1
815,468,55,0.160988586619523,1
815,469,55,0.130869160431318,1
815,470,55,0.121254173072449,1
815,517,55,0.107036068070527,1
816,466,55,0.183333023250169,1
816,467,55,0.210438006076916,1
816,468,55,0.176201880112301,1
816,469,55,0.148109037019111,1
816,470,55,0.140241490983362,1
816,471,55,0.109636081937268,1
817,465,55,0.17159759129183,1
817,466,55,0.203957357184841,1
817,467,55,0.211154498958701,1
817,468,55,0.178129983917615,1
817,469,55,0.149548692916924,1
817,470,55,0.127168027864832,1
818,464,55,0.155006602763657,1
818,465,55,0.208905503695076,1
818,466,55,0.251085090300233,1
818,467,55,0.225286907235878,1
818,468,55,0.184685030460875,1
818,469,55,0.15269417430029,1
818,470,55,0.122261764889859,1
818,519,55,0.11307583001232,1
819,464,55,0.165889395253952,1
819,465,55,0.235874440322197,1
819,466,55,0.27311491521434,1
819,467,55,0.22740060362261,1
819,468,55,0.180119267800402,1
819,469,55,0.152980577372174,1
819,470,55,0.132690207466606,1
819,471,55,0.121547882060605,1
819,472,55,0.106448772788993,1
820,465,55,0.191786146840574,1
820,466,55,0.217008199848108,1
820,467,55,0.206168941695531,1
820,468,55,0.179608857527806,1
820,469,55,0.146737688649912,1
820,470,55,0.125087369835342,1
820,471,55,0.119314547112162,1
820,472,55,0.105512712026613,1
821,466,55,0.17679725094098,1
821,467,55,0.213772805501295,1
821,468,55,0.203515321365283,1
821,469,55,0.153809313666833,1
821,470,55,0.11612883299599,1
822,467,55,0.19492887316849,1
822,468,55,0.186168231850475,1
814,517,56,0.119371912497476,1
815,467,56,0.185213599560476,1
815,469,56,0.12455723916585,1
815,470,56,0.117631966709828,1
815,517,56,0.124672628026646,1
816,466,56,0.182083064631772,1
816,467,56,0.206029225806665,1
816,468,56,0.161395899817171,1
816,469,56,0.136938681433585,1
816,470,56,0.131680105983302,1
816,471,56,0.104111682675435,1
816,517,56,0.104839251549367,1
817,465,56,0.171179402875305,1
817,466,56,0.2185863893033,1
817,467,56,0.222055885284756,1
817,468,56,0.164190228748573,1
817,469,56,0.134704833397893,1
817,470,56,0.120966598823147,1
818,464,56,0.152952424497873,1
818,465,56,0.230607376624155,1
818,466,56,0.283349399656687,1
818,467,56,0.240627189822919,1
818,468,56,0.174407904006462,1
818,469,56,0.146730449658065,1
818,470,56,0.127513380200061,1
818,471,56,0.103729376904167,1
819,464,56,0.16631685270318,1
819,465,56,0.257364921304462,1
819,466,56,0.293293610564636,1
819,467,56,0.2310842577604,1
819,468,56,0.172992374363448,1
819,469,56,0.152694486614268,1
819,470,56,0.140047622081526,1
819,471,56,0.121889464319957,1
819,472,56,0.10299200360214,1
820,465,56,0.188529113596714,1
820,466,56,0.209140096108827,1
820,467,56,0.193674196378211,1
820,468,56,0.159021410104749,1
820,470,56,0.123896762026832,1
820,471,56,0.123286165891726,1
820,472,56,0.113232756632188,1
821,466,56,0.170448220082485,1
821,467,56,0.206051266250254,1
821,468,56,0.17870445201791,1
821,470,56,0.113073967282523,1
821,471,56,0.112510664406941,1
821,472,56,0.112052042484338,1
822,467,56,0.189244714152847,1
812,472,57,0.115256060430435,1
812,473,57,0.119470715255226,1
813,516,57,0.112003767666598,1
814,516,57,0.113197777466654,1
815,467,57,0.176338528631741,1
815,470,57,0.109155419571075,1
815,516,57,0.107593001971772,1
816,466,57,0.176907542391492,1
816,467,57,0.187148618889588,1
816,468,57,0.147429441803012,1
816,470,57,0.118038231424836,1
816,517,57,0.122871134077194,1
817,465,57,0.170204325173818,1
817,466,57,0.227983582278805,1
817,467,57,0.219628982594385,1
817,468,57,0.152473792172537,1
817,470,57,0.116308569690321,1
818,464,57,0.146685777605143,1
818,465,57,0.23368148310948,1
818,466,57,0.297171791694429,1
818,467,57,0.247408061680404,1
818,468,57,0.169588453163299,1
818,469,57,0.14332139758542,1
818,470,57,0.130479660284486,1
818,471,57,0.104786492795229,1
819,464,57,0.156074058478205,1
819,465,57,0.24415702932655,1
819,466,57,0.281117068574602,1
819,467,57,0.223793109479166,1
819,468,57,0.172132272822143,1
819,469,57,0.154922846847204,1
819,470,57,0.140914159521592,1
819,471,57,0.114551257014683,1
820,465,57,0.169190487076849,1
820,466,57,0.18844657347396,1
820,467,57,0.177838249199963,1
820,468,57,0.151924788815519,1
820,470,57,0.126553070488105,1
820,471,57,0.120710389820492,1
820,472,57,0.112942427327437,1
820,473,57,0.103067750895873,1
821,466,57,0.158220592448908,1
821,467,57,0.18355927241908,1
821,471,57,0.127082732686629,1
821,472,57,0.129160557582176,1
821,473,57,0.111885891448049,1
822,471,57,0.111223339651891,1
822,472,57,0.107504204415388,1
812,472,58,0.122764679626983,1
812,473,58,0.125315693661392,1
813,515,58,0.104559418225091,1
814,515,58,0.113950297996613,1
814,516,58,0.121130150960977,1
815,515,58,0.104198896353788,1
815,516,58,0.114735120715153,1
816,466,58,0.165032283003579,1
816,467,58,0.162287433529547,1
816,470,58,0.107089217217138,1
816,516,58,0.106573274525504,1
816,517,58,0.133146620883222,1
817,465,58,0.166298292329631,1
817,466,58,0.22068893161939,1
817,467,58,0.19979827193999,1
817,468,58,0.13973862086252,1
817,470,58,0.111364048253045,1
818,464,58,0.138395670757177,1
818,465,58,0.217384895121843,1
818,466,58,0.28105070185428,1
818,467,58,0.232466581735111,1
818,468,58,0.158851700919925,1
818,469,58,0.135937257817241,1
818,470,58,0.123553462040601,1
819,464,58,0.14157342086691,1
819,465,58,0.209169810553018,1
819,466,58,0.244232698541788,1
819,467,58,0.202226468502555,1
819,468,58,0.160805548320282,1
819,470,58,0.126031271909383,1
820,465,58,0.147424500549717,1
820,466,58,0.163809172233217,1
820,467,58,0.158308029208674,1
820,471,58,0.11210867170099,1
820,472,58,0.107015566888686,1
821,471,58,0.132288582844986,1
821,472,58,0.133260358941563,1
821,473,58,0.11031693756335,1
822,471,58,0.114698044584337,1
822,472,58,0.112622729354685,1
812,472,59,0.114864340623545,1
812,473,59,0.110623139110624,1
814,515,59,0.117318225010799,1
815,514,59,0.104919538549851,1
815,515,59,0.115926855084797,1
815,516,59,0.12232568886871,1
816,466,59,0.158444588495549,1
816,467,59,0.144113436987666,1
816,514,59,0.111431552688573,1
816,515,59,0.119861375425405,1
816,516,59,0.117478709779202,1
817,465,59,0.165253022061592,1
817,466,59,0.206374488909329,1
817,467,59,0.173500353048644,1
817,468,59,0.12823759169873,1
817,517,59,0.112348272292459,1
818,464,59,0.130578128420117,1
818,465,59,0.193633394787801,1
818,466,59,0.248586846174033,1
818,467,59,0.20500662061017,1
818,468,59,0.146906873593416,1
819,465,59,0.171863236638249,1
819,466,59,0.203556435269671,1
819,467,59,0.178899915951847,1
819,468,59,0.150293037513103,1
820,466,59,0.143360514911163,1
820,467,59,0.142436489391006,1
820,471,59,0.105505104950435,1
821,471,59,0.127998370345663,1
821,472,59,0.125365741976364,1
822,471,59,0.111451261931398,1
822,472,59,0.109216164639794,1
815,514,60,0.116358283383174,1
815,515,60,0.129087141489208,1
816,466,60,0.151933109752218,1
816,514,60,0.145694225341317,1
816,515,60,0.140916858806688,1
816,516,60,0.124468006600711,1
817,465,60,0.162508038738712,1
817,466,60,0.187647406620574,1
817,467,60,0.154320928579058,1
817,514,60,0.124770661153522,1
817,515,60,0.117218641468104,1
817,516,60,0.104850427928151,1
818,465,60,0.169684266630117,1
818,466,60,0.208706492766674,1
818,467,60,0.176392224327813,1
818,468,60,0.135997088252167,1
819,466,60,0.168536903153488,1
819,467,60,0.157631177893953,1
820,471,60,0.102981184153617,1
821,471,60,0.120267573215989,1
821,472,60,0.115111659831898,1
822,471,60,0.109209806819527,1
822,472,60,0.10465871176195,1
815,514,61,0.120259319203714,1
815,515,61,0.142144776981496,1
816,513,61,0.114595014433814,1
816,514,61,0.157407226463595,1
816,515,61,0.149896086447081,1
817,466,61,0.167424318069122,1
817,513,61,0.110189725387673,1
817,514,61,0.142808868039403,1
817,515,61,0.123277041861941,1
817,516,61,0.106445526954436,1
818,466,61,0.16930700249878,1
818,467,61,0.148834040456796,1
821,472,61,0.107087042173363,1
815,514,62,0.116729624703001,1
816,513,62,0.120037364352001,1
816,514,62,0.150413189162062,1
816,515,62,0.14729415408019,1
817,513,62,0.127104817746501,1
817,514,62,0.143464894704235,1
817,515,62,0.120482478695056,1
815,514,63,0.108492131606255,1
816,513,63,0.117624248092944,1
816,514,63,0.132453730014917,1
817,513,63,0.13789131714494,1
817,514,63,0.13249320427092,1
817,515,63,0.113920460857645,1
818,513,63,0.103704692945836,1
816,513,64,0.110834765292922,1
817,513,64,0.143755012081643,1
817,514,64,0.124225004017696,1
818,513,64,0.115891385140154,1
817,512,65,0.106841987241349,1
817,513,65,0.13798994143756,1
818,513,65,0.120814624610645,1
818,514,65,0.107571552693927,1
818,513,66,0.109356315537415,1
