x,y,z,signal,mito.p
792,564,11,0.108110327768166,1
795,566,11,0.126373991883941,1
796,565,11,0.123440471304993,1
796,566,11,0.133525825822851,1
797,565,11,0.124509410510936,1
797,566,11,0.132161526826298,1
798,565,11,0.144756491468341,1
798,566,11,0.145895210540222,1
787,561,12,0.110484817480588,1
787,562,12,0.11533880132646,1
788,561,12,0.110263230713206,1
788,562,12,0.113609652679194,1
789,561,12,0.106064448130939,1
789,562,12,0.10990942359243,1
793,594,12,0.105641430001827,1
795,565,12,0.103044684277784,1
795,566,12,0.10350821399147,1
795,591,12,0.1212694653033,1
796,565,12,0.103514237189617,1
796,566,12,0.1072898008695,1
796,567,12,0.104378086498658,1
796,591,12,0.120536330548117,1
797,566,12,0.10513099742109,1
797,567,12,0.111472990061009,1
797,572,12,0.103558239998301,1
797,587,12,0.105861912516215,1
797,590,12,0.116633197762297,1
797,591,12,0.115650869914893,1
798,563,12,0.126858123166103,1
798,564,12,0.127254839996641,1
798,565,12,0.12662156763592,1
798,566,12,0.119952682647684,1
798,567,12,0.12725082453121,1
798,573,12,0.122562712869861,1
798,587,12,0.117809361049325,1
798,591,12,0.127958271461703,1
799,565,12,0.162538277424223,1
799,566,12,0.14697639691573,1
799,573,12,0.134697784025247,1
800,585,12,0.113261232974538,1
801,575,12,0.120067446880523,1
801,576,12,0.103182693593842,1
801,584,12,0.105417210873773,1
802,584,12,0.114502446801552,1
802,585,12,0.114864552550887,1
802,586,12,0.122756369844354,1
803,579,12,0.106847664663306,1
803,580,12,0.108615428703136,1
803,585,12,0.115172170665133,1
803,586,12,0.121361531002382,1
804,585,12,0.128199645550405,1
794,594,13,0.105642411560043,1
794,597,13,0.102972238588962,1
795,592,13,0.115192069527159,1
795,594,13,0.110496172324502,1
796,592,13,0.109169629857074,1
797,592,13,0.108152311690064,1
798,562,13,0.118297797802755,1
798,563,13,0.112377719038955,1
798,564,13,0.116626784171678,1
798,565,13,0.109994517997361,1
798,568,13,0.115776955529434,1
798,572,13,0.110843710857578,1
798,588,13,0.112677975466577,1
798,589,13,0.116127304888312,1
798,590,13,0.104613359310718,1
798,591,13,0.106582220090159,1
799,563,13,0.146972426066581,1
799,564,13,0.168220718712988,1
799,565,13,0.158291878114384,1
799,566,13,0.126315354934574,1
799,567,13,0.121936802195764,1
799,570,13,0.116231338905193,1
799,571,13,0.12089301541912,1
799,572,13,0.133663634365638,1
799,573,13,0.107874474944433,1
799,588,13,0.106111629849756,1
799,589,13,0.112591999890065,1
799,590,13,0.11657229653659,1
800,565,13,0.170108244009305,1
800,566,13,0.140670733083893,1
800,573,13,0.110546811805219,1
800,587,13,0.104293850957166,1
800,588,13,0.113038162715761,1
800,589,13,0.121736151618978,1
801,573,13,0.123968248465579,1
801,574,13,0.114322565104303,1
801,587,13,0.109976783025039,1
801,588,13,0.1176684516749,1
802,575,13,0.138017447375764,1
802,587,13,0.112652834191349,1
803,577,13,0.111819569344009,1
803,582,13,0.104393456808003,1
803,583,13,0.105797185444277,1
803,586,13,0.103273320417812,1
803,587,13,0.117180784552344,1
804,579,13,0.117048184960547,1
804,580,13,0.109414350166968,1
804,581,13,0.113588816875234,1
804,584,13,0.112093847941106,1
804,585,13,0.106962406588005,1
804,586,13,0.117836063894443,1
794,598,14,0.104464274002512,1
798,561,14,0.11074390423347,1
799,562,14,0.140285471483905,1
799,563,14,0.135427382940036,1
799,564,14,0.156824582429519,1
799,565,14,0.13927171146543,1
799,566,14,0.104517969698584,1
799,568,14,0.103251123817234,1
800,563,14,0.155559030420363,1
800,564,14,0.176773682389712,1
800,565,14,0.159400336192612,1
800,566,14,0.121792435059439,1
800,567,14,0.113938206984037,1
800,571,14,0.110531095719683,1
800,590,14,0.107570314592085,1
801,565,14,0.128797548353119,1
801,566,14,0.119657802482111,1
801,572,14,0.1152403443449,1
801,589,14,0.10477678875377,1
802,573,14,0.113905402862277,1
802,574,14,0.112424331900169,1
803,575,14,0.132538043634903,1
803,576,14,0.107253092823016,1
803,588,14,0.112771212343077,1
804,576,14,0.147378155386198,1
804,577,14,0.121549175932799,1
805,579,14,0.122794762155505,1
805,580,14,0.113477722331636,1
805,581,14,0.106927025875927,1
805,582,14,0.107328271259146,1
805,583,14,0.110717602934895,1
805,584,14,0.112649432199803,1
805,585,14,0.115554576823037,1
794,599,15,0.113362021156863,1
799,562,15,0.129672373267672,1
799,563,15,0.124108577828331,1
799,564,15,0.135641106087615,1
799,565,15,0.114919017877834,1
800,563,15,0.142401543687684,1
800,564,15,0.157612149049437,1
800,565,15,0.138822135494118,1
801,564,15,0.131657240138485,1
801,565,15,0.120991483554751,1
801,566,15,0.10544423718694,1
801,567,15,0.115804416851356,1
801,571,15,0.116947374470081,1
801,591,15,0.10921975625054,1
802,565,15,0.1087922653391,1
802,566,15,0.112081957701801,1
802,572,15,0.111141301462317,1
802,590,15,0.118105880863282,1
803,573,15,0.11338576817326,1
803,574,15,0.106195530769128,1
803,589,15,0.118298333198146,1
804,574,15,0.140864077744408,1
804,575,15,0.136160975012116,1
804,576,15,0.119703411476968,1
805,576,15,0.15331648220957,1
805,577,15,0.127773838903632,1
805,578,15,0.107749672048015,1
806,579,15,0.142837377843965,1
806,580,15,0.124660012772749,1
806,581,15,0.110473507252957,1
777,550,16,0.123699535749733,1
778,548,16,0.115030982438942,1
780,547,16,0.116836335696836,1
793,600,16,0.119205783769328,1
794,600,16,0.12633037946773,1
799,561,16,0.13117096727476,1
799,562,16,0.118392027391542,1
799,563,16,0.111759627368377,1
799,564,16,0.109147444410566,1
800,562,16,0.146172768434087,1
800,563,16,0.133033942461593,1
800,564,16,0.133404659153463,1
800,565,16,0.112404934971322,1
801,564,16,0.120720038091597,1
801,565,16,0.10978718613226,1
801,568,16,0.112424711138571,1
801,570,16,0.113563374440099,1
802,567,16,0.116785406210283,1
802,571,16,0.117748035968933,1
802,591,16,0.105174821764644,1
803,566,16,0.105110540855531,1
803,572,16,0.118448991230313,1
804,573,16,0.128991350330531,1
804,574,16,0.11278359336149,1
804,575,16,0.108415324675811,1
805,574,16,0.14283036193353,1
805,575,16,0.142939102968223,1
805,576,16,0.126479141307887,1
805,577,16,0.104183737971785,1
806,576,16,0.152674621214453,1
806,577,16,0.134630948833958,1
806,578,16,0.119899566963285,1
806,579,16,0.112903332309836,1
775,551,17,0.103893430975175,1
776,550,17,0.129040840941971,1
777,548,17,0.118279438202478,1
777,549,17,0.107504862505556,1
779,547,17,0.109831702028194,1
780,546,17,0.128711483544043,1
780,547,17,0.103169420249778,1
781,546,17,0.125789618968916,1
782,546,17,0.118944588897095,1
783,546,17,0.122103756325139,1
784,547,17,0.119327697761449,1
785,548,17,0.118940729588653,1
785,549,17,0.111768729090021,1
786,550,17,0.123392096100617,1
787,550,17,0.114566259239698,1
788,550,17,0.113064809790526,1
789,552,17,0.110052073001875,1
793,553,17,0.108941161028105,1
793,601,17,0.125468091728578,1
794,554,17,0.118442778412965,1
794,600,17,0.103039330323876,1
794,601,17,0.138468239140776,1
795,555,17,0.127114633328666,1
795,600,17,0.109229393367575,1
796,556,17,0.112705570637346,1
797,557,17,0.105026762630937,1
799,560,17,0.117996158270373,1
799,561,17,0.12021358751408,1
799,562,17,0.114413827710299,1
799,563,17,0.10687950953499,1
800,561,17,0.150213609376058,1
800,562,17,0.140456608389771,1
800,563,17,0.130893710540802,1
800,564,17,0.115223568622653,1
801,562,17,0.120301481590742,1
801,563,17,0.114946501507896,1
801,564,17,0.109737807061526,1
802,568,17,0.11028099914774,1
802,592,17,0.103185415187079,1
802,593,17,0.119860840030014,1
803,567,17,0.110691736645075,1
803,572,17,0.103337913640902,1
803,591,17,0.118205899414733,1
804,573,17,0.111623558860611,1
804,589,17,0.103933942559749,1
805,573,17,0.128467454786528,1
805,574,17,0.113932250710314,1
805,575,17,0.115691704967514,1
805,576,17,0.105774308445389,1
806,575,17,0.143114210723238,1
806,576,17,0.133048531985993,1
806,577,17,0.118996533404077,1
806,585,17,0.110279225650508,1
775,549,18,0.133975669491859,1
775,550,18,0.12390922112374,1
776,549,18,0.113053120324492,1
779,546,18,0.114130034690944,1
780,546,18,0.116435748403786,1
781,546,18,0.121435995577991,1
782,546,18,0.11566627368645,1
783,546,18,0.114044248733634,1
784,546,18,0.128487230953777,1
785,547,18,0.121670989538285,1
786,548,18,0.133647717506831,1
786,549,18,0.123371104139668,1
787,549,18,0.124541132687843,1
788,549,18,0.114742303936646,1
794,552,18,0.127409234642473,1
794,553,18,0.106358971366251,1
794,601,18,0.115308640719443,1
795,552,18,0.145466760378707,1
795,554,18,0.126999779863262,1
795,601,18,0.123069776921264,1
796,555,18,0.126338176163109,1
798,599,18,0.112886779669003,1
799,560,18,0.106988707886579,1
799,561,18,0.1064902213155,1
799,562,18,0.105092370874455,1
799,597,18,0.10320921797383,1
800,560,18,0.132066694917697,1
800,561,18,0.127967127793794,1
800,562,18,0.126851821116191,1
800,563,18,0.122602733675326,1
800,596,18,0.103167211743791,1
801,561,18,0.106132655272917,1
801,562,18,0.103965486271525,1
801,563,18,0.10428383460173,1
802,594,18,0.103221498605607,1
802,595,18,0.109056929127303,1
803,592,18,0.103180061233171,1
803,593,18,0.117355702688158,1
804,591,18,0.119775321770399,1
805,573,18,0.107052118778181,1
806,575,18,0.122254336278811,1
806,586,18,0.10602314460735,1
767,594,19,0.104831532932483,1
775,549,19,0.124442999174331,1
775,550,19,0.104447643283184,1
779,546,19,0.10310556319535,1
780,545,19,0.1368884100372,1
780,546,19,0.104640798324498,1
781,546,19,0.117944693388429,1
782,546,19,0.116934781524326,1
783,546,19,0.111367483706803,1
784,546,19,0.116991388432836,1
785,546,19,0.132764370882307,1
786,547,19,0.129257742999683,1
786,548,19,0.103634009600175,1
787,548,19,0.115279495132854,1
791,551,19,0.104570282289897,1
792,551,19,0.114743977047243,1
793,551,19,0.125348676248281,1
794,551,19,0.1483538354075,1
794,552,19,0.109691963831186,1
795,551,19,0.138864554424771,1
795,552,19,0.120893762741853,1
795,553,19,0.107592700811865,1
796,552,19,0.112811288918895,1
796,553,19,0.115813373570082,1
796,554,19,0.111354991147683,1
797,553,19,0.109447310445716,1
797,554,19,0.12955182007217,1
798,598,19,0.106600334300882,1
798,599,19,0.111302589323805,1
799,558,19,0.103382273379847,1
800,558,19,0.119249853502436,1
800,559,19,0.114608522013362,1
800,560,19,0.117194492905163,1
800,561,19,0.111736861910196,1
800,562,19,0.117693091016949,1
800,563,19,0.115404944965369,1
803,568,19,0.112643520542363,1
803,571,19,0.105790437231538,1
803,594,19,0.103438467587743,1
803,595,19,0.116780587651766,1
804,572,19,0.103389490063552,1
804,593,19,0.116543084025577,1
805,590,19,0.107844091256003,1
805,591,19,0.115491790559391,1
806,574,19,0.119822994268325,1
806,588,19,0.123132875498888,1
774,550,20,0.107129806880206,1
775,549,20,0.112540088845296,1
780,544,20,0.15164282506375,1
780,545,20,0.123801127025144,1
781,545,20,0.152692367340845,1
781,546,20,0.111341461259994,1
782,546,20,0.116312997856366,1
783,545,20,0.139673469935898,1
783,546,20,0.108889060364135,1
784,545,20,0.141111865423728,1
784,546,20,0.10867557145204,1
785,546,20,0.116589752657145,1
786,547,20,0.103842668799682,1
787,547,20,0.116846920909876,1
788,548,20,0.104895155751427,1
791,550,20,0.107439544267874,1
793,551,20,0.106595973059261,1
794,550,20,0.139575782585212,1
794,551,20,0.12670145308986,1
795,550,20,0.115467050830706,1
795,551,20,0.121937549518497,1
795,552,20,0.104924134026956,1
796,551,20,0.108789376434804,1
797,554,20,0.121964073898484,1
797,555,20,0.128935691518025,1
798,554,20,0.152433135585046,1
798,557,20,0.106068229360887,1
800,562,20,0.104028618311361,1
805,572,20,0.112272000757406,1
805,593,20,0.110348057420442,1
806,589,20,0.109281583264111,1
761,576,21,0.104467965999894,1
774,547,21,0.120778117337432,1
775,548,21,0.120290706758501,1
776,548,21,0.113736764468235,1
779,545,21,0.12520071750121,1
780,544,21,0.142936950232589,1
780,545,21,0.113498346208254,1
781,544,21,0.168597726300701,1
781,545,21,0.141091776942501,1
782,545,21,0.153070891882166,1
782,546,21,0.112334463553003,1
783,544,21,0.150956660100042,1
783,545,21,0.138197407151508,1
783,546,21,0.111945476493421,1
784,544,21,0.150345628956182,1
784,545,21,0.134860510761849,1
784,546,21,0.107443147032692,1
785,545,21,0.146876478750915,1
785,546,21,0.106192374167137,1
786,546,21,0.120011185748203,1
787,546,21,0.130709991843251,1
788,546,21,0.135254918699764,1
788,547,21,0.107708803533181,1
789,548,21,0.114983521868359,1
792,550,21,0.112310147679003,1
793,550,21,0.12087618392652,1
794,549,21,0.164286510686358,1
794,550,21,0.125569638387707,1
794,551,21,0.107191299271657,1
795,550,21,0.110043785527388,1
795,551,21,0.110681842984415,1
797,554,21,0.110077638131788,1
797,555,21,0.113075930398956,1
798,554,21,0.13740999668858,1
798,555,21,0.166309100624084,1
798,556,21,0.132131299294858,1
799,557,21,0.129169335835771,1
799,600,21,0.103725194127676,1
800,557,21,0.147791324470933,1
805,572,21,0.107588596113868,1
806,591,21,0.112186616346639,1
774,546,22,0.104150878079672,1
774,547,22,0.109544462401011,1
774,548,22,0.113093397673582,1
774,549,22,0.102946472685778,1
775,546,22,0.127130349414202,1
775,547,22,0.121551172511444,1
775,548,22,0.107459197740346,1
776,547,22,0.129772481051688,1
777,547,22,0.108815209262412,1
778,546,22,0.112288854558147,1
779,545,22,0.121798915574482,1
780,544,22,0.140628091071827,1
780,545,22,0.109358345578272,1
781,544,22,0.161434838677784,1
781,545,22,0.131363408455553,1
782,544,22,0.165702308027067,1
782,545,22,0.145177669175797,1
782,546,22,0.110994424660098,1
783,543,22,0.154310421444513,1
783,544,22,0.149467825904767,1
783,545,22,0.140495603020736,1
783,546,22,0.121825752268448,1
784,544,22,0.154357759320319,1
784,545,22,0.136071865141754,1
784,546,22,0.113438437694834,1
785,545,22,0.137664655275416,1
786,546,22,0.109887104297074,1
787,546,22,0.115417470986701,1
788,545,22,0.149306448810713,1
788,546,22,0.112244215967436,1
791,549,22,0.109624827479989,1
792,549,22,0.126528085369866,1
793,549,22,0.142844315675904,1
793,550,22,0.102965468068082,1
794,548,22,0.17438928786256,1
794,549,22,0.153962347516046,1
794,550,22,0.113469579860067,1
795,549,22,0.126131491234105,1
795,550,22,0.107146002590778,1
795,551,22,0.103805046119405,1
798,554,22,0.116616154342356,1
798,555,22,0.128090547585452,1
798,556,22,0.10398363394446,1
799,554,22,0.116597192422263,1
799,555,22,0.133168527477964,1
799,556,22,0.129276336835444,1
799,557,22,0.105684741258131,1
799,601,22,0.109330772715644,1
800,556,22,0.149745160717219,1
800,557,22,0.124347063012736,1
804,568,22,0.104203859915224,1
805,568,22,0.116928289855212,1
805,571,22,0.13107912465709,1
805,572,22,0.103547230930577,1
806,568,22,0.11237034619826,1
756,575,23,0.110885672471334,1
757,576,23,0.124182573932973,1
758,575,23,0.11359655780026,1
774,548,23,0.105273512981687,1
775,546,23,0.112733255040681,1
775,547,23,0.105540050653758,1
776,546,23,0.128611877693206,1
776,547,23,0.105933967812564,1
777,546,23,0.121203120891119,1
779,545,23,0.114380555117572,1
780,544,23,0.137040250400855,1
780,545,23,0.107893581867443,1
781,543,23,0.15157129400872,1
781,544,23,0.152888612059728,1
781,545,23,0.126403226703095,1
782,543,23,0.1538752453784,1
782,544,23,0.156879181605313,1
782,545,23,0.140490315991252,1
782,546,23,0.118965960096446,1
783,543,23,0.153402067393609,1
783,544,23,0.154750103755165,1
783,545,23,0.149265691836586,1
783,546,23,0.14166838662436,1
784,544,23,0.16626476319328,1
784,545,23,0.145478539077305,1
784,546,23,0.126570548916801,1
785,545,23,0.138358315774595,1
785,546,23,0.104307827007681,1
786,546,23,0.103254380805861,1
787,546,23,0.105823564821346,1
788,545,23,0.133462660320804,1
789,545,23,0.137737602897417,1
789,546,23,0.116578944362693,1
790,548,23,0.123950480031046,1
791,549,23,0.108392670758337,1
792,549,23,0.120791937230958,1
793,548,23,0.160767200625413,1
793,549,23,0.137637238569777,1
794,548,23,0.16407089134677,1
794,549,23,0.152108083658385,1
794,550,23,0.109505289304915,1
795,549,23,0.13949361054679,1
795,550,23,0.111813289602238,1
799,554,23,0.11540408610193,1
799,555,23,0.112763906426806,1
799,556,23,0.103811928180991,1
800,555,23,0.139227920584088,1
800,556,23,0.130844978406165,1
804,569,23,0.126669128593139,1
804,570,23,0.116082164364422,1
805,568,23,0.10461339277293,1
805,569,23,0.152130402953741,1
805,570,23,0.151159195714767,1
806,568,23,0.104351506348317,1
755,573,24,0.105746612887984,1
756,574,24,0.105940537560173,1
756,575,24,0.10910409969205,1
756,576,24,0.132752369102296,1
757,574,24,0.109426630798745,1
757,575,24,0.119536658120864,1
757,576,24,0.138505649893711,1
757,577,24,0.124455212881684,1
758,574,24,0.11168935672333,1
758,575,24,0.104490240678967,1
768,563,24,0.104065092122362,1
775,545,24,0.120482991782305,1
775,546,24,0.10384245687234,1
776,545,24,0.135387696756691,1
776,546,24,0.110644443385551,1
777,546,24,0.103040155725103,1
778,545,24,0.124795177800794,1
779,545,24,0.106795586307477,1
780,544,24,0.13326535596521,1
780,545,24,0.10726184876847,1
781,543,24,0.143708566531488,1
781,544,24,0.149201734395522,1
781,545,24,0.1255004162253,1
782,543,24,0.146935260703201,1
782,544,24,0.159297473353148,1
782,545,24,0.144016608500419,1
782,546,24,0.131165077925461,1
783,543,24,0.156043697097916,1
783,545,24,0.164401129916279,1
783,546,24,0.161830886264083,1
783,547,24,0.115017329856476,1
784,544,24,0.178583932284619,1
784,545,24,0.157923381082571,1
784,546,24,0.139216643818668,1
785,545,24,0.145082948807902,1
785,546,24,0.108739015805853,1
786,545,24,0.141850934144493,1
787,545,24,0.133271992637243,1
788,544,24,0.152014021380658,1
788,545,24,0.122575216583051,1
789,544,24,0.149226630281196,1
789,545,24,0.126503825266219,1
789,546,24,0.105970586626483,1
790,545,24,0.146290310030517,1
790,548,24,0.120805478272718,1
791,549,24,0.113299067582157,1
792,548,24,0.175364666723954,1
792,549,24,0.131609980341174,1
793,547,24,0.139436635553948,1
793,548,24,0.161674807353584,1
793,549,24,0.149216390844346,1
794,547,24,0.133395144731205,1
794,548,24,0.170103536991494,1
794,549,24,0.160658582285498,1
794,550,24,0.114742337398858,1
795,548,24,0.16964265079255,1
795,549,24,0.160649703645266,1
795,550,24,0.11963521548906,1
796,550,24,0.131968672944891,1
797,551,24,0.122268011169419,1
798,552,24,0.128634676613599,1
798,553,24,0.102939490237556,1
799,553,24,0.146267566880477,1
799,554,24,0.129353322231018,1
799,555,24,0.112223145927992,1
800,555,24,0.166293284151913,1
800,556,24,0.12400698655292,1
801,556,24,0.132786478250321,1
755,573,25,0.103834247476347,1
756,573,25,0.108439317081763,1
756,575,25,0.108562915338551,1
756,576,25,0.13139825377224,1
756,577,25,0.123646442373476,1
757,574,25,0.107061923206276,1
757,575,25,0.127914960205399,1
757,576,25,0.146259892879875,1
757,577,25,0.116215589357446,1
758,573,25,0.118602861634824,1
759,572,25,0.1224956769053,1
759,573,25,0.106245534467818,1
768,564,25,0.110737055634095,1
768,565,25,0.108149155088072,1
770,555,25,0.11441853472811,1
771,554,25,0.106577289990935,1
772,553,25,0.105603361158724,1
776,545,25,0.126185465781944,1
777,545,25,0.12628280735644,1
778,545,25,0.120132698193781,1
779,545,25,0.107658587907149,1
780,544,25,0.134938645026699,1
780,545,25,0.108146712346601,1
781,543,25,0.146031602516037,1
781,544,25,0.149927897856553,1
781,545,25,0.125936796931042,1
782,543,25,0.152885098527475,1
782,545,25,0.157369202236775,1
782,546,25,0.14477782920548,1
783,546,25,0.177902139716603,1
783,547,25,0.120857645861113,1
784,545,25,0.174178799395467,1
784,546,25,0.149647227976979,1
785,545,25,0.158536788043479,1
785,546,25,0.116376475672392,1
786,545,25,0.146771920492714,1
787,544,25,0.158781686818503,1
787,545,25,0.128951284908783,1
788,544,25,0.145220500807064,1
788,545,25,0.11991667730765,1
789,544,25,0.14363792780211,1
789,545,25,0.120988048100993,1
789,546,25,0.104538314723436,1
790,545,25,0.128792607099825,1
790,546,25,0.143936622659843,1
790,547,25,0.140795424439604,1
790,548,25,0.120169004693722,1
791,545,25,0.135453829241529,1
791,548,25,0.181802740528387,1
791,549,25,0.120287717467569,1
792,546,25,0.14689947844458,1
792,547,25,0.165505249061028,1
792,548,25,0.182730324197079,1
792,549,25,0.149556221914608,1
793,546,25,0.12322545428522,1
793,547,25,0.131987322551006,1
793,548,25,0.172316571531367,1
793,549,25,0.171492854568498,1
793,550,25,0.119700533726742,1
794,547,25,0.133678803901712,1
794,548,25,0.185645128245489,1
794,549,25,0.181953365098342,1
794,550,25,0.130850310051932,1
795,548,25,0.202934751988347,1
795,549,25,0.194142533496343,1
795,550,25,0.135930364601584,1
796,550,25,0.145590135554082,1
797,551,25,0.129548830781237,1
798,552,25,0.140042178895053,1
798,553,25,0.109528869010253,1
799,555,25,0.122033407601597,1
800,556,25,0.120710412128633,1
801,556,25,0.123845107525687,1
755,573,26,0.105539470642085,1
756,575,26,0.103471126706584,1
756,576,26,0.117684625077331,1
756,577,26,0.10440416471582,1
757,575,26,0.124263809029461,1
757,576,26,0.133493077471445,1
758,573,26,0.112008218140784,1
766,567,26,0.106780461387686,1
767,564,26,0.115877375627428,1
768,564,26,0.115821025262542,1
768,565,26,0.119008479413735,1
770,555,26,0.122669044625295,1
770,556,26,0.111492308911362,1
771,554,26,0.123833406905583,1
777,545,26,0.1186232735841,1
778,545,26,0.121285917557498,1
779,544,26,0.152945007040896,1
779,545,26,0.113857841905058,1
780,543,26,0.157597157978493,1
780,544,26,0.14133450067375,1
780,545,26,0.112276194687968,1
781,543,26,0.150663419582854,1
781,545,26,0.135752044474224,1
781,546,26,0.112574242609603,1
782,546,26,0.166597991053721,1
782,547,26,0.107363205808398,1
783,547,26,0.12274866238154,1
784,546,26,0.1634143850569,1
785,546,26,0.133144970080767,1
786,545,26,0.16965948228515,1
786,546,26,0.115674315771383,1
787,544,26,0.164915209878116,1
787,545,26,0.145296538106633,1
787,546,26,0.111625120430501,1
788,544,26,0.149924428940584,1
788,545,26,0.129141026804481,1
788,546,26,0.108225036230652,1
789,544,26,0.144510421515899,1
789,545,26,0.122211683112675,1
789,546,26,0.10982746348135,1
790,544,26,0.130000760261455,1
790,545,26,0.12360970086478,1
790,546,26,0.130574581425653,1
790,547,26,0.132318018437411,1
790,548,26,0.120112977796885,1
791,545,26,0.123419044335289,1
791,546,26,0.146378371418238,1
791,547,26,0.165951924973973,1
791,548,26,0.174376538759815,1
791,549,26,0.122308645448769,1
792,546,26,0.128912636054007,1
792,547,26,0.152276186657037,1
792,548,26,0.190946156088637,1
792,549,26,0.164968537489858,1
793,546,26,0.119211985432605,1
793,547,26,0.131745769997174,1
793,548,26,0.182165738603373,1
793,549,26,0.189713787439642,1
793,550,26,0.133718032768161,1
794,547,26,0.133263002456305,1
794,548,26,0.19515458694201,1
794,549,26,0.207038267653258,1
794,550,26,0.153008830633111,1
795,547,26,0.161984633973818,1
795,548,26,0.23938103474261,1
795,549,26,0.241018340772206,1
795,550,26,0.164138295395662,1
796,550,26,0.166073392803269,1
796,551,26,0.111467000325074,1
797,551,26,0.14719431399387,1
797,552,26,0.120659203790314,1
798,552,26,0.163918760977279,1
798,553,26,0.122671676985967,1
799,555,26,0.128481151985277,1
800,556,26,0.113932741489422,1
801,556,26,0.116054379574452,1
755,573,27,0.107994916599229,1
757,575,27,0.111186876994961,1
757,576,27,0.1085401387263,1
758,573,27,0.106611834147714,1
763,568,27,0.108723355490672,1
767,563,27,0.10592972926572,1
767,564,27,0.105803242104636,1
767,565,27,0.106603401670309,1
768,564,27,0.112731570776014,1
768,565,27,0.120269725951623,1
769,564,27,0.112965862029857,1
769,565,27,0.112732998497056,1
770,555,27,0.136955657929103,1
770,556,27,0.120355032283896,1
770,557,27,0.108665086625636,1
771,554,27,0.152997944260164,1
771,555,27,0.13304882199183,1
772,553,27,0.10586512488856,1
777,545,27,0.112160303893993,1
778,545,27,0.127336811261792,1
779,544,27,0.168979652833567,1
779,545,27,0.131010482506357,1
780,543,27,0.162540965555248,1
780,544,27,0.15327829067169,1
780,545,27,0.124312496547815,1
781,546,27,0.12899480809243,1
782,547,27,0.113390586731778,1
783,547,27,0.120188825477254,1
786,546,27,0.154414712005019,1
787,543,27,0.173199583533772,1
787,546,27,0.153891106466854,1
788,543,27,0.176233256513018,1
788,544,27,0.169517914820556,1
788,545,27,0.159634270516195,1
788,546,27,0.134250829260536,1
789,544,27,0.155664882550759,1
789,545,27,0.136083710764776,1
789,546,27,0.1220497817773,1
789,547,27,0.104025138241321,1
790,544,27,0.14958560173668,1
790,545,27,0.137724586096977,1
790,546,27,0.131118286599116,1
790,547,27,0.130440297569189,1
790,548,27,0.116025959002455,1
791,545,27,0.143173293835431,1
791,546,27,0.138758568445527,1
791,547,27,0.151476919417015,1
791,548,27,0.163540905680197,1
791,549,27,0.115222486677801,1
792,546,27,0.134010447884122,1
792,547,27,0.158605095572093,1
792,548,27,0.197173830658543,1
792,549,27,0.164046675859406,1
793,546,27,0.133976427968663,1
793,547,27,0.150515918152679,1
793,548,27,0.193222501133477,1
793,549,27,0.191936169090714,1
793,550,27,0.13414689563029,1
794,546,27,0.13730826041025,1
794,547,27,0.145245396692738,1
794,548,27,0.198861263081606,1
794,549,27,0.221532937836758,1
794,550,27,0.168316242173969,1
795,547,27,0.181517631328697,1
795,550,27,0.195140778202555,1
796,551,27,0.121422800312421,1
797,550,27,0.184961450639534,1
797,551,27,0.172442411756355,1
797,552,27,0.142581514617499,1
798,551,27,0.227569409327712,1
798,552,27,0.206813178507694,1
798,553,27,0.144945776047142,1
799,555,27,0.130526730462597,1
800,556,27,0.107258290619935,1
801,556,27,0.110323953473784,1
802,555,27,0.157403077149316,1
755,573,28,0.109510955572801,1
763,567,28,0.107097337380566,1
764,596,28,0.104849747529842,1
766,564,28,0.112854934797318,1
769,556,28,0.122847342444514,1
769,559,28,0.116812153671684,1
769,564,28,0.120929968855158,1
769,565,28,0.117041336361173,1
770,555,28,0.148798882826131,1
770,556,28,0.136800147876207,1
770,557,28,0.128802534222696,1
770,558,28,0.112469227034505,1
770,564,28,0.113081529742419,1
771,554,28,0.174278706406211,1
771,555,28,0.167576905755509,1
771,556,28,0.139541639974976,1
771,557,28,0.107301144559343,1
772,553,28,0.118638956207423,1
772,554,28,0.126876226222756,1
772,555,28,0.118166280155811,1
774,548,28,0.106753345841954,1
777,545,28,0.105131153578079,1
778,545,28,0.131258270185678,1
779,544,28,0.186021990830283,1
779,545,28,0.148208085166416,1
779,546,28,0.106700877093653,1
780,543,28,0.162147461097055,1
780,544,28,0.16391079697084,1
780,545,28,0.136880914501728,1
780,546,28,0.106079550742589,1
781,546,28,0.146233279267322,1
782,547,28,0.124424494571135,1
783,547,28,0.119933876884581,1
786,547,28,0.108277148048693,1
787,543,28,0.176825247658292,1
787,547,28,0.111167335063196,1
788,543,28,0.189376867581818,1
788,544,28,0.192677357084901,1
788,546,28,0.168479024680924,1
789,543,28,0.175048281510183,1
789,544,28,0.16816779264779,1
789,545,28,0.161010437443912,1
789,546,28,0.140542070879033,1
789,547,28,0.112606210176064,1
790,544,28,0.166170857072542,1
790,545,28,0.161573182615962,1
790,546,28,0.141550108859268,1
790,547,28,0.132677235282449,1
790,548,28,0.107682502234607,1
791,544,28,0.203085131168748,1
791,545,28,0.184957457482244,1
791,546,28,0.146793715546749,1
791,547,28,0.149483307754819,1
791,548,28,0.152301930252079,1
792,545,28,0.180547740270059,1
792,546,28,0.149961270835916,1
792,547,28,0.175440893642724,1
792,548,28,0.200928736999596,1
792,549,28,0.150529693429922,1
793,545,28,0.170209032191629,1
793,546,28,0.156406427475206,1
793,547,28,0.177450065233467,1
793,548,28,0.19925966417681,1
793,549,28,0.178403604424543,1
793,550,28,0.120555972866519,1
794,542,28,0.266750201732522,2
794,546,28,0.154302568978781,1
794,547,28,0.161918590721544,1
794,550,28,0.17218292345693,1
795,551,28,0.103859767989977,1
795,604,28,0.104434247244342,1
796,551,28,0.125417753407769,1
797,551,28,0.184751664878892,1
797,552,28,0.149060066544293,1
798,551,28,0.252227690988698,1
798,552,28,0.241624319122066,1
798,553,28,0.165839480787827,1
799,555,28,0.12607670243911,1
801,556,28,0.103670661876306,1
802,555,28,0.166130624339735,1
753,573,29,0.11034108612629,1
754,573,29,0.105744683233763,1
754,583,29,0.114077186704241,1
755,573,29,0.106032369023772,1
756,573,29,0.108730427171459,1
757,573,29,0.105791385327543,1
758,572,29,0.120352098763317,1
759,570,29,0.112092765996253,1
759,590,29,0.103662184782617,1
762,567,29,0.108628601660564,1
763,566,29,0.1087618704966,1
764,596,29,0.11502470269717,1
765,565,29,0.109380296789296,1
765,597,29,0.10431630410137,1
766,564,29,0.107755639475809,1
768,556,29,0.117559822180913,1
769,556,29,0.116583829845634,1
769,557,29,0.131754815948465,1
769,558,29,0.147046332938658,1
769,559,29,0.118972016756805,1
769,564,29,0.119705965759145,1
769,565,29,0.112339337881874,1
770,555,29,0.157179259567806,1
770,556,29,0.148691959904953,1
770,557,29,0.145825162976588,1
770,558,29,0.130591613691524,1
770,563,29,0.117938759422847,1
770,564,29,0.137278021724739,1
770,565,29,0.103450670141026,1
771,554,29,0.177887048259024,1
771,555,29,0.188925685424333,1
771,556,29,0.171280112979135,1
771,557,29,0.135138827132518,1
772,553,29,0.137463413532886,1
772,554,29,0.156834933407075,1
772,555,29,0.153438675053457,1
772,556,29,0.123007146814607,1
773,552,29,0.121461359934632,1
773,553,29,0.127876456353542,1
773,554,29,0.149079597321988,1
773,555,29,0.127797351684546,1
774,548,29,0.117531970466519,1
774,549,29,0.108935606300926,1
774,550,29,0.107295957916495,1
774,553,29,0.104983986770023,1
774,554,29,0.118948169353772,1
778,545,29,0.130308724151891,1
778,546,29,0.104758886470389,1
779,545,29,0.154548850858565,1
779,546,29,0.115606097475334,1
780,544,29,0.165820753103219,1
780,545,29,0.145463057227253,1
780,546,29,0.119789375899408,1
781,546,29,0.167377448664282,1
781,547,29,0.117745950157723,1
782,547,29,0.136196757270736,1
784,547,29,0.106452163626469,1
785,547,29,0.110398808441865,1
786,547,29,0.124535087181555,1
787,547,29,0.126411413790946,1
788,543,29,0.200892575502573,1
788,546,29,0.200102064208006,1
788,547,29,0.114682395423226,1
789,543,29,0.192213169281047,1
789,544,29,0.188327381075076,1
789,545,29,0.198564364029247,1
789,546,29,0.165614402796334,1
789,547,29,0.118422310693336,1
790,543,29,0.173553948358081,1
790,544,29,0.183571820748552,1
790,545,29,0.19420584400131,1
790,546,29,0.160655091061387,1
790,547,29,0.131786616203866,1
791,540,29,0.220747312025132,1
791,541,29,0.247200417501326,1
791,544,29,0.247471617574925,1
791,545,29,0.230007666861997,1
791,546,29,0.170289285729901,1
791,547,29,0.15635700378819,1
791,548,29,0.142432016608679,1
792,540,29,0.252204200515925,1
792,541,29,0.267752015741338,2
792,542,29,0.248385158268678,2
792,543,29,0.281491131487665,2
792,544,29,0.294661166549817,2
792,545,29,0.227984653069587,1
792,546,29,0.180007838634685,1
792,547,29,0.198075034950165,1
792,548,29,0.196231267072978,1
792,549,29,0.127454709788482,1
793,542,29,0.278723918101995,2
793,543,29,0.309405643299424,2
793,545,29,0.197094904454677,1
793,546,29,0.186970778387266,1
793,547,29,0.203741079755085,1
793,548,29,0.194987833585906,1
793,549,29,0.151733931512757,1
794,541,29,0.274009248598446,2
794,542,29,0.306888548793839,2
794,543,29,0.273847202260154,2
794,546,29,0.184298118058431,1
794,547,29,0.187992558182533,1
794,550,29,0.161825844624153,1
795,542,29,0.296077153509726,2
795,546,29,0.208012754189,1
795,551,29,0.109849604311575,1
796,551,29,0.131888921339798,1
797,551,29,0.183238024030508,1
797,552,29,0.137248128815417,1
798,551,29,0.249080525340665,1
798,552,29,0.236709478666769,1
798,553,29,0.166831702295891,1
799,555,29,0.115103718133601,1
802,555,29,0.166831233824924,1
803,555,29,0.131686118027379,1
803,561,29,0.105067921151607,1
804,561,29,0.105939054068777,1
752,574,30,0.119511773389261,1
753,574,30,0.111608489711173,1
754,573,30,0.109404367273743,1
755,572,30,0.13021024486219,1
756,572,30,0.152901350008401,1
757,572,30,0.143056399175098,1
758,570,30,0.137911149082542,1
758,571,30,0.123858414331964,1
759,569,30,0.123306120524106,1
759,591,30,0.104277711016947,1
760,592,30,0.113134723505312,1
764,565,30,0.104409083660973,1
764,596,30,0.117282375827755,1
765,597,30,0.106033506738977,1
766,564,30,0.10906816127644,1
768,557,30,0.110175648950522,1
768,559,30,0.109501128836565,1
769,555,30,0.116036499599212,1
769,556,30,0.109019250676673,1
769,557,30,0.120307594021454,1
769,558,30,0.134440805391717,1
769,559,30,0.110856326111474,1
769,564,30,0.109144901282459,1
770,554,30,0.14188161899283,1
770,555,30,0.153710276673599,1
770,556,30,0.146357647154985,1
770,557,30,0.14789753353159,1
770,558,30,0.136598482278993,1
770,563,30,0.121767204551646,1
770,564,30,0.140243175248029,1
771,553,30,0.141420431633979,1
771,554,30,0.167626831375705,1
771,555,30,0.19434736684962,1
771,556,30,0.183003342384192,1
771,557,30,0.148245529381562,1
772,553,30,0.152527577101175,1
772,554,30,0.197701507432493,1
772,555,30,0.20484321347526,1
772,556,30,0.156099690532541,1
772,557,30,0.103574246089673,1
773,552,30,0.135733238711121,1
773,553,30,0.162276837162437,1
773,554,30,0.240065560057933,1
773,555,30,0.212694385335306,1
773,556,30,0.122922866656833,1
774,549,30,0.12890555321915,1
774,550,30,0.144351899863929,1
774,551,30,0.130867766172488,1
774,552,30,0.105120133356284,1
774,553,30,0.133083343840468,1
774,554,30,0.186294116691745,1
774,555,30,0.146113752246318,1
778,545,30,0.124670363750306,1
778,546,30,0.10643361440699,1
779,545,30,0.149301139473087,1
779,546,30,0.122235073198812,1
780,544,30,0.161537857674237,1
780,545,30,0.151334002309874,1
780,546,30,0.141288679751552,1
780,547,30,0.11305498305429,1
781,547,30,0.141548168050976,1
785,547,30,0.114128696202467,1
786,542,30,0.164923285425261,1
786,547,30,0.129073065052057,1
787,542,30,0.177663041058312,1
787,547,30,0.132681841913624,1
788,543,30,0.200276536180994,1
788,547,30,0.123094438571454,1
789,543,30,0.196859598180405,1
789,544,30,0.21366124248673,1
789,546,30,0.193679929570521,1
789,547,30,0.117745660151886,1
790,540,30,0.178722644307127,1
790,541,30,0.205639123340018,1
790,543,30,0.189693576263638,1
790,544,30,0.198398636847642,1
790,545,30,0.233052393525249,1
790,546,30,0.183733621697291,1
790,547,30,0.124033343621848,1
791,539,30,0.18181737466907,1
791,540,30,0.272631430868275,1
791,541,30,0.290867198653374,2
791,542,30,0.251127096530272,2
791,543,30,0.234404266887107,2
791,544,30,0.259242017544728,2
791,545,30,0.263132044297544,1
791,546,30,0.204068139414461,1
791,547,30,0.165111588445846,1
791,548,30,0.127837417106293,1
792,539,30,0.211033276518959,1
792,540,30,0.298900828800988,2
792,541,30,0.310343923721862,2
792,542,30,0.287919623945416,2
792,543,30,0.322794342762449,2
792,544,30,0.327712997909906,2
792,545,30,0.269181900673269,2
792,546,30,0.229887269823483,1
792,547,30,0.228964984338346,1
792,548,30,0.184867522210655,1
792,549,30,0.103676205449415,1
793,540,30,0.232415942254395,1
793,541,30,0.26024392078611,2
793,542,30,0.302424265868071,2
793,543,30,0.347753293551671,2
793,544,30,0.300365179811204,2
793,545,30,0.224718406563376,1
793,546,30,0.223336350286361,1
793,547,30,0.232509078744259,1
793,548,30,0.189284891115301,1
793,549,30,0.125904773594228,1
794,541,30,0.266668130080735,2
794,542,30,0.307601472373018,2
794,543,30,0.288272605664965,2
794,545,30,0.195548303327545,1
794,546,30,0.226485122120566,1
794,550,30,0.141978480942289,1
795,542,30,0.292650377618831,2
795,551,30,0.108008301484,1
797,551,30,0.18113359667648,1
797,552,30,0.118765945301687,1
798,551,30,0.229153822754322,1
798,552,30,0.201811894004919,1
798,553,30,0.148722789756209,1
799,551,30,0.244953006115732,1
799,554,30,0.188145123560779,1
800,555,30,0.149624785986847,1
801,555,30,0.168436036892669,1
802,554,30,0.229514188468636,1
802,555,30,0.157715123429607,1
803,554,30,0.183578133952536,1
803,555,30,0.134651907332695,1
803,561,30,0.108392168825158,1
804,560,30,0.113125164466772,1
804,561,30,0.110009865998565,1
752,575,31,0.110681307589024,1
753,574,31,0.130307921058805,1
754,573,31,0.114221475762071,1
755,572,31,0.109590327939492,1
755,590,31,0.103808548497587,1
756,570,31,0.10964081126322,1
756,571,31,0.133584050071605,1
756,572,31,0.124982086562548,1
757,569,31,0.120748871364208,1
757,570,31,0.114273130263216,1
757,571,31,0.132409292197478,1
757,572,31,0.111922610648604,1
758,568,31,0.127597783052612,1
758,569,31,0.117245076615527,1
758,570,31,0.106387893871427,1
759,568,31,0.120757381920108,1
759,592,31,0.120330883720955,1
760,568,31,0.102993632096454,1
760,593,31,0.112636716559271,1
761,567,31,0.114077309399018,1
762,565,31,0.12637135952327,1
762,566,31,0.103901986147358,1
763,565,31,0.106084625844731,1
766,564,31,0.121444963450787,1
767,598,31,0.103125584752153,1
768,558,31,0.110410107515425,1
769,556,31,0.103984236264275,1
769,557,31,0.108923626829056,1
769,558,31,0.11760924586793,1
770,554,31,0.125343835381622,1
770,555,31,0.143741158725905,1
770,556,31,0.13759215381624,1
770,557,31,0.139131359794537,1
770,558,31,0.130514516755243,1
770,563,31,0.117618347589574,1
770,564,31,0.127766332214089,1
771,553,31,0.132172613972517,1
771,554,31,0.160475120131572,1
771,555,31,0.196322172748714,1
771,556,31,0.182544118141775,1
771,557,31,0.148863922212047,1
771,558,31,0.107726360040372,1
772,552,31,0.144423085142769,1
772,553,31,0.165493894217114,1
772,554,31,0.241693898214733,1
772,555,31,0.266285835463538,1
772,556,31,0.191214768417847,1
772,557,31,0.120381556663884,1
773,552,31,0.152843605384686,1
773,553,31,0.196091484259688,1
773,554,31,0.325654558789136,3
773,555,31,0.304209430258103,3
773,556,31,0.165266217327162,1
774,549,31,0.152087024773012,1
774,551,31,0.158975466487773,1
774,552,31,0.123920074034475,1
774,553,31,0.158353571279107,1
774,554,31,0.241654546653507,1
774,555,31,0.195080858535064,1
775,549,31,0.10717676551761,1
775,550,31,0.114570152010352,1
775,551,31,0.103969970207923,1
775,553,31,0.104063095543717,1
775,554,31,0.116469188307571,1
778,545,31,0.116864644728127,1
778,546,31,0.103106065128529,1
779,545,31,0.137769113146982,1
779,546,31,0.1258565322387,1
779,547,31,0.107298266809118,1
780,544,31,0.155775865553651,1
780,546,31,0.167419744900158,1
780,547,31,0.128691618144229,1
781,547,31,0.153095731997486,1
784,604,31,0.107652653941567,1
785,547,31,0.118869020068493,1
785,604,31,0.117079371742063,1
786,547,31,0.130827667288528,1
786,604,31,0.103051287487604,1
787,542,31,0.18236415836603,1
787,547,31,0.140523175883364,1
788,542,31,0.192281387577096,1
788,543,31,0.198147134862797,1
788,547,31,0.134180134760805,1
789,543,31,0.193622419182289,1
789,544,31,0.229935522333082,1
789,546,31,0.217922209012828,1
789,547,31,0.11769467489498,1
790,540,31,0.195955248440862,1
790,541,31,0.220196546324952,1
790,542,31,0.235206824577968,1
790,543,31,0.200069338164741,1
790,544,31,0.204000791135923,1
790,545,31,0.251723995466629,1
790,546,31,0.197222640871674,1
790,547,31,0.116086324832771,1
791,539,31,0.187949191155875,1
791,540,31,0.30231781141786,1
791,541,31,0.303707162457076,2
791,542,31,0.271497195732792,2
791,543,31,0.250911912199439,2
791,544,31,0.24396741012563,2
791,545,31,0.263627931970163,1
791,546,31,0.227158761062942,1
791,547,31,0.167795603618595,1
791,548,31,0.110316391013888,1
792,539,31,0.206571559029439,1
792,540,31,0.309237395297854,2
792,541,31,0.316500948408319,2
792,542,31,0.30938525365829,2
792,543,31,0.331856735153553,2
792,544,31,0.309584219970409,2
792,545,31,0.280788804275596,2
792,546,31,0.273829868834376,1
792,547,31,0.249115549122482,1
792,548,31,0.164659357805721,1
793,540,31,0.213704988751789,1
793,541,31,0.247763095748952,2
793,542,31,0.299992276921487,2
793,543,31,0.338369530077219,2
793,544,31,0.294042450251283,2
793,545,31,0.236120454504286,1
793,546,31,0.245756344591538,1
793,548,31,0.190388452556517,1
793,549,31,0.114143999587389,1
794,542,31,0.279732580710186,2
794,543,31,0.276136731416493,2
794,545,31,0.196347581721637,1
794,550,31,0.123264649689457,1
795,551,31,0.103992757974246,1
796,603,31,0.107703628044403,1
797,552,31,0.10712919340632,1
797,602,31,0.108196883356351,1
798,551,31,0.213811287045011,1
798,552,31,0.165380903481507,1
798,553,31,0.124741961729759,1
799,551,31,0.239658927258594,1
799,553,31,0.234930627480721,1
799,554,31,0.156204628029144,1
800,554,31,0.215144176178635,1
800,555,31,0.119936431166758,1
801,554,31,0.212541842265201,1
801,555,31,0.139406932263827,1
802,554,31,0.200811886955546,1
802,555,31,0.147637030211737,1
803,554,31,0.190707012814064,1
803,555,31,0.149951756413658,1
803,556,31,0.109577288830912,1
804,559,31,0.103589426779817,1
804,560,31,0.125470132923506,1
804,561,31,0.113571193443619,1
753,575,32,0.107368225140187,1
753,586,32,0.104914240366296,1
755,591,32,0.108119474106093,1
756,571,32,0.103482838480758,1
758,567,32,0.121940549963499,1
758,568,32,0.104585083741639,1
759,567,32,0.11159957760873,1
760,566,32,0.131469004042324,1
760,567,32,0.111859367068062,1
761,565,32,0.122621461359935,1
761,566,32,0.119489275628775,1
762,564,32,0.11118147842477,1
762,565,32,0.10602939088691,1
763,564,32,0.104647100374411,1
764,564,32,0.116715492495497,1
766,564,32,0.117788558707577,1
766,597,32,0.103278830528709,1
767,598,32,0.11273046652302,1
768,599,32,0.109080531140782,1
769,562,32,0.105220832306043,1
769,563,32,0.112814267055756,1
770,555,32,0.124065076952826,1
770,556,32,0.123299695779416,1
770,557,32,0.121705020607815,1
770,558,32,0.113321732653702,1
770,563,32,0.113867624025012,1
770,564,32,0.105833257708734,1
771,553,32,0.120714561442912,1
771,554,32,0.153533741197542,1
771,555,32,0.191267058701018,1
771,556,32,0.174766496223544,1
771,557,32,0.140654570835532,1
771,558,32,0.107153799286157,1
772,552,32,0.142442334124023,1
772,553,32,0.18009127108309,1
772,554,32,0.27177809984785,3
772,555,32,0.309380546640479,3
772,556,32,0.214431810302988,1
772,557,32,0.131962727825239,1
773,552,32,0.178266810902185,1
773,553,32,0.232198437876868,3
773,554,32,0.367081981794594,3
773,555,32,0.357322816918601,3
773,556,32,0.195514908040042,3
773,557,32,0.105183934640358,1
774,551,32,0.180876294574901,1
774,552,32,0.15372018148833,1
774,553,32,0.184533491257127,1
774,554,32,0.262810940911891,3
774,555,32,0.224004769123676,3
774,556,32,0.122771795924053,1
775,549,32,0.120697228017134,1
775,550,32,0.133216311516596,1
775,551,32,0.12544502511049,1
775,552,32,0.113667296916274,1
775,553,32,0.117771872217896,1
775,554,32,0.127854326677387,1
775,555,32,0.104453209164434,1
776,551,32,0.11623336894605,1
776,552,32,0.106218809314559,1
777,550,32,0.109288175319861,1
777,551,32,0.126659402243539,1
779,545,32,0.124520564581578,1
779,546,32,0.125725717298206,1
779,547,32,0.116973831925645,1
780,547,32,0.147909490695319,1
785,547,32,0.122319308740303,1
786,547,32,0.125701234113146,1
787,542,32,0.168646949214446,1
787,547,32,0.13636159212669,1
788,542,32,0.175114815541564,1
788,547,32,0.133947326998357,1
789,543,32,0.177140439386505,1
789,546,32,0.226514635791485,1
789,547,32,0.115076624896011,1
790,540,32,0.188877299065887,1
790,541,32,0.209729231812016,1
790,542,32,0.214987885340794,1
790,543,32,0.1894991385042,1
790,544,32,0.193893820029159,1
790,545,32,0.23902838764518,1
790,546,32,0.195160543215733,1
790,547,32,0.109483360402032,1
791,539,32,0.174083030544932,1
791,540,32,0.27543692502439,1
791,541,32,0.277708339970005,1
791,542,32,0.259854219866007,1
791,543,32,0.241830178649842,1
791,544,32,0.214068276832612,1
791,545,32,0.233800296269963,1
791,546,32,0.228533344112627,1
791,547,32,0.158409285861966,1
792,539,32,0.182168237115197,1
792,540,32,0.269122784098864,1
792,541,32,0.284542818290998,2
792,542,32,0.292468410110371,2
792,543,32,0.299889057151763,2
792,544,32,0.259674327014686,2
792,545,32,0.255197819227494,1
792,546,32,0.282599221481562,1
792,547,32,0.23683676892094,1
792,548,32,0.133455421328957,1
793,540,32,0.183589901497064,1
793,541,32,0.22047865507964,1
793,542,32,0.266262657304743,2
793,543,32,0.287200922557644,2
793,544,32,0.250772397083844,1
793,545,32,0.217219569486782,1
793,546,32,0.238181592910151,1
793,548,32,0.179654399598239,1
793,603,32,0.107033145704019,1
794,545,32,0.182562667361253,1
794,549,32,0.180475785360345,1
795,550,32,0.179551023671526,1
796,551,32,0.154407528783525,1
798,552,32,0.132961005993662,1
799,551,32,0.223450746434869,1
799,552,32,0.212135254082144,1
799,553,32,0.168838721151,1
799,554,32,0.114149944707041,1
800,550,32,0.217772499076666,1
800,551,32,0.258013619744882,1
800,553,32,0.247240148300954,1
800,554,32,0.158686988758749,1
801,550,32,0.207200425532257,1
801,554,32,0.176709769564931,1
801,555,32,0.114562277236478,1
802,554,32,0.187176370217346,1
802,555,32,0.145396712815072,1
802,556,32,0.106550185599274,1
803,554,32,0.20579075177633,1
803,555,32,0.179124748553786,1
803,556,32,0.134875535295004,1
804,555,32,0.197928336613076,1
804,556,32,0.158557635001509,1
804,557,32,0.107876293057947,1
804,559,32,0.122303414189638,1
804,560,32,0.143131053369908,1
806,592,32,0.109700217843461,1
753,575,33,0.115799241362578,1
755,570,33,0.106401289910269,1
756,569,33,0.106081112312479,1
757,568,33,0.114368575645702,1
758,567,33,0.107931416475062,1
764,563,33,0.109818763306249,1
765,564,33,0.117693369868715,1
766,563,33,0.132326930539854,1
766,564,33,0.104894954978155,1
766,597,33,0.119465852080426,1
767,561,33,0.108156817934603,1
767,598,33,0.126109796566706,1
768,562,33,0.11552216309375,1
768,563,33,0.112967055515416,1
768,599,33,0.1164860086461,1
769,562,33,0.146929951365575,1
769,563,33,0.139769818798107,1
769,600,33,0.104088961833536,1
770,556,33,0.107335231399226,1
770,562,33,0.120406642168758,1
770,563,33,0.114152086288604,1
771,553,33,0.111137096377684,1
771,554,33,0.144717184523397,1
771,555,33,0.176679664728268,1
771,556,33,0.163155543693573,1
771,557,33,0.126737324581046,1
772,552,33,0.139255861531047,1
772,553,33,0.188145346642192,1
772,554,33,0.270986963925326,3
772,555,33,0.306061295990576,3
772,556,33,0.220009737949834,1
772,557,33,0.138966502630442,1
773,552,33,0.19564215367793,1
773,553,33,0.250981491292106,3
773,554,33,0.343294766126355,3
773,555,33,0.339779248449428,3
773,556,33,0.2073293219726,3
773,557,33,0.125069891406645,1
774,552,33,0.173971467530367,1
774,553,33,0.191191924881171,1
774,554,33,0.23497107214087,3
774,555,33,0.214951545378641,3
774,556,33,0.138301775790509,1
775,551,33,0.146959933507462,1
775,552,33,0.129171432801052,1
775,553,33,0.120738074223826,1
775,554,33,0.123752896823687,1
775,555,33,0.112586021308201,1
776,550,33,0.117595894445371,1
776,551,33,0.137945648623039,1
776,552,33,0.119057211548371,1
777,550,33,0.120432854234768,1
777,551,33,0.146058082279742,1
777,552,33,0.112933002137745,1
778,550,33,0.104718698353864,1
778,551,33,0.105249464805382,1
779,545,33,0.113684964964172,1
779,546,33,0.118648504091893,1
779,547,33,0.120821975143198,1
779,548,33,0.106330706951244,1
780,547,33,0.155774705530304,1
780,548,33,0.109771124270535,1
785,547,33,0.122873710667512,1
786,547,33,0.118455438283144,1
787,542,33,0.14597053397927,1
787,547,33,0.12260905803338,1
788,542,33,0.146280170980303,1
788,543,33,0.17335685592983,1
788,547,33,0.122511694150743,1
789,543,33,0.152730001175193,1
789,544,33,0.19553815312326,1
789,546,33,0.207470777896487,1
789,547,33,0.108964227646194,1
790,543,33,0.159626629977805,1
790,544,33,0.167224002114455,1
790,545,33,0.194935230988757,1
790,546,33,0.173255331578843,1
790,547,33,0.104295724841034,1
791,540,33,0.200204703966057,1
791,541,33,0.215247730570479,1
791,542,33,0.213788153502499,1
791,543,33,0.200693073795064,1
791,544,33,0.176145987064312,1
791,545,33,0.187452500390169,1
791,546,33,0.203454643220989,1
791,547,33,0.139823481031967,1
792,540,33,0.193396593868063,1
792,541,33,0.217684738848852,1
792,542,33,0.232630970428239,1
792,543,33,0.22719813493231,1
792,544,33,0.192605502561822,1
792,545,33,0.202816831153516,1
792,546,33,0.248787418672325,1
792,547,33,0.197974179843416,1
792,548,33,0.105769534503154,1
793,544,33,0.184232219809076,1
793,545,33,0.17598048296412,1
793,546,33,0.211815154562849,1
793,547,33,0.225249585715508,1
793,548,33,0.164762677962082,1
794,545,33,0.156045292130018,1
794,546,33,0.21551150203303,1
794,549,33,0.156493061141886,1
795,545,33,0.162478580838145,1
795,550,33,0.1309283997005,1
795,603,33,0.111118457925641,1
796,551,33,0.135337838060919,1
796,602,33,0.111452790039076,1
797,601,33,0.104646933063351,1
798,552,33,0.115328082264573,1
799,551,33,0.20523719755849,1
799,552,33,0.169562118402512,1
799,553,33,0.11737675041946,1
800,550,33,0.188932757105121,1
800,551,33,0.222951780238752,1
800,552,33,0.262253081222782,1
800,553,33,0.192548572185264,1
800,554,33,0.115361154084027,1
801,550,33,0.18088512859885,1
801,551,33,0.241148575701027,1
801,553,33,0.261357721664177,1
801,554,33,0.162778569568072,1
802,554,33,0.206949191245107,1
802,555,33,0.160703923582659,1
802,556,33,0.118839249853949,1
803,554,33,0.240678900094417,1
803,555,33,0.222545370520826,1
803,556,33,0.167951548680246,1
803,557,33,0.108829676092035,1
804,554,33,0.232631081968945,1
804,555,33,0.222532877961707,1
804,556,33,0.173045813515896,1
804,557,33,0.119142718653916,1
804,558,33,0.105173561354661,1
804,559,33,0.137876850315317,1
806,592,33,0.129314338754122,1
754,570,34,0.117306412849989,1
755,569,34,0.121731299598248,1
755,592,34,0.112226994082364,1
756,568,34,0.120286077819185,1
768,562,34,0.117119704861506,1
768,563,34,0.110997001250416,1
768,599,34,0.116096251955643,1
769,561,34,0.110447819428267,1
769,562,34,0.162875821910003,1
769,563,34,0.139417472860585,1
770,561,34,0.107538246638989,1
770,562,34,0.13254059791708,1
770,563,34,0.110336178335208,1
771,554,34,0.125845868947165,1
771,555,34,0.149559936220132,1
771,556,34,0.145392831198489,1
771,557,34,0.113777320669091,1
772,553,34,0.171495977708278,1
772,554,34,0.232014306478704,1
772,555,34,0.258572951771316,1
772,556,34,0.212564641185594,1
772,557,34,0.145717303113476,1
772,558,34,0.113439497331545,1
772,559,34,0.107210896973776,1
772,560,34,0.103959987314699,1
773,552,34,0.179632727238981,1
773,553,34,0.228526941676078,1
773,554,34,0.274345097665489,3
773,555,34,0.275799566169115,3
773,556,34,0.208738638798266,1
773,557,34,0.14580158327125,1
773,558,34,0.114226941256685,1
774,551,34,0.155808134280019,1
774,552,34,0.165311536316182,1
774,553,34,0.171042096265697,1
774,554,34,0.184875408138599,1
774,555,34,0.182569627501334,1
774,556,34,0.148774544643989,1
774,557,34,0.121749346884548,1
774,558,34,0.105657692636823,1
775,550,34,0.138751139834479,1
775,551,34,0.149338327144609,1
775,552,34,0.131669286534779,1
775,553,34,0.113901409704987,1
775,554,34,0.112328808439188,1
775,555,34,0.114675223355803,1
775,556,34,0.107943050170742,1
776,550,34,0.12086332328307,1
776,551,34,0.141972981985462,1
776,552,34,0.120771636822389,1
776,562,34,0.110211665444627,1
776,563,34,0.111532062019131,1
777,550,34,0.118013826318271,1
777,551,34,0.145237477302582,1
777,552,34,0.116233748184452,1
778,550,34,0.111817974311908,1
778,551,34,0.117704702404487,1
779,546,34,0.106868110074794,1
779,547,34,0.116872831815978,1
779,548,34,0.108141213389775,1
779,549,34,0.103328521913421,1
780,547,34,0.158097964596266,1
780,548,34,0.122594278889779,1
781,548,34,0.122831224812435,1
782,548,34,0.113225071477515,1
785,547,34,0.127746009497379,1
786,547,34,0.120424845612047,1
786,603,34,0.105049126542575,1
787,547,34,0.111898807861853,1
787,603,34,0.108829642629823,1
788,543,34,0.146831684003216,1
788,546,34,0.188807050728981,1
788,547,34,0.105690585991148,1
789,543,34,0.122702082982538,1
789,544,34,0.150197424819556,1
789,545,34,0.185406185744188,1
789,546,34,0.164117794213821,1
789,603,34,0.113619256334017,1
790,544,34,0.130486051566964,1
790,545,34,0.141437608902769,1
790,546,34,0.133652580681631,1
791,544,34,0.133661671249205,1
791,545,34,0.138944551419418,1
791,546,34,0.15272126753788,1
791,547,34,0.10961893813069,1
792,545,34,0.145089429322945,1
792,546,34,0.181170505496235,1
792,547,34,0.143420166880959,1
793,545,34,0.127751318835005,1
793,546,34,0.164182945140444,1
793,547,34,0.174262633390415,1
793,548,34,0.132513348522501,1
794,545,34,0.115414002070731,1
794,546,34,0.165030431427852,1
794,547,34,0.239644248501629,1
794,548,34,0.227145175404899,1
794,549,34,0.1234999671178,1
795,545,34,0.115184373218416,1
795,546,34,0.194935677151582,1
795,549,34,0.150627079620701,1
796,546,34,0.220812451797684,1
796,550,34,0.175867525690725,1
796,551,34,0.105491597370887,1
797,547,34,0.227902960656202,1
797,551,34,0.168055538080845,1
798,552,34,0.103534660292963,1
799,548,34,0.19510823062442,1
799,551,34,0.181927130724191,1
799,552,34,0.133965184665455,1
800,549,34,0.177784943896363,1
800,550,34,0.17959572918666,1
800,551,34,0.190356418065633,1
800,552,34,0.202182231458388,1
800,553,34,0.155059974991681,1
801,550,34,0.181148688134059,1
801,551,34,0.230263206620414,1
801,554,34,0.160442126390611,1
802,555,34,0.181210403606923,1
802,556,34,0.133217806162062,1
803,555,34,0.260864934823196,1
803,556,34,0.195222805238059,1
803,557,34,0.121322101362662,1
804,554,34,0.249972360212948,1
804,555,34,0.24135577371728,1
804,556,34,0.186954069589444,1
804,557,34,0.132086493393087,1
804,558,34,0.117739904651435,1
806,592,34,0.138972659677437,1
752,570,35,0.110381341167239,1
753,569,35,0.114885923750238,1
753,570,35,0.108152880547667,1
754,568,35,0.111093807429521,1
754,569,35,0.112606912882514,1
755,568,35,0.110393632953087,1
755,592,35,0.1147048597215,1
768,562,35,0.107522854021502,1
768,599,35,0.117349378330104,1
768,600,35,0.121746926451218,1
769,561,35,0.114943712990236,1
769,562,35,0.156351203671456,1
769,563,35,0.12531549288812,1
770,561,35,0.126089116919735,1
770,562,35,0.148576738355217,1
770,563,35,0.11881027157842,1
771,555,35,0.123069308450297,1
771,556,35,0.130759872847164,1
771,557,35,0.111317613856961,1
771,560,35,0.117341771253925,1
771,561,35,0.115335667032609,1
771,562,35,0.11213004290034,1
772,554,35,0.183885004744049,1
772,555,35,0.207712218909612,1
772,556,35,0.209940980689091,1
772,557,35,0.159843944736131,1
772,558,35,0.124939689940037,1
772,559,35,0.126758093460583,1
772,560,35,0.129354694181707,1
773,553,35,0.191511957476043,1
773,554,35,0.210027402428429,1
773,555,35,0.222974289153309,1
773,556,35,0.222708242260347,1
773,557,35,0.172264236631913,1
773,558,35,0.137593570383212,1
773,559,35,0.127196626901959,1
773,560,35,0.11328383112166,1
774,551,35,0.131062360088915,1
774,552,35,0.148143079242712,1
774,553,35,0.152756570171463,1
774,554,35,0.152481968106318,1
774,555,35,0.16282678861546,1
774,556,35,0.169954909000184,1
774,557,35,0.161189125655603,1
774,558,35,0.151808451858719,1
774,559,35,0.125053528385013,1
775,550,35,0.12615189202931,1
775,551,35,0.14245095622063,1
775,552,35,0.133494572116911,1
775,553,35,0.113679778321323,1
775,554,35,0.109694060796467,1
775,555,35,0.123751892957329,1
775,556,35,0.140865126227048,1
775,558,35,0.155277735912833,1
775,559,35,0.115031395139556,1
775,562,35,0.108381516687694,1
776,549,35,0.104614586258488,1
776,550,35,0.11990451937065,1
776,551,35,0.13887981319341,1
776,552,35,0.123355399208204,1
776,555,35,0.104899394298271,1
776,556,35,0.119921495866168,1
776,557,35,0.122860738483355,1
776,558,35,0.110538055859764,1
776,562,35,0.117504854920788,1
776,563,35,0.109257512779665,1
777,550,35,0.112687913743519,1
777,551,35,0.135930186136454,1
777,552,35,0.116626706093183,1
777,603,35,0.110938319684766,1
778,550,35,0.118212246080928,1
778,551,35,0.12817456004553,1
778,602,35,0.104979023208587,1
778,603,35,0.11389364647182,1
779,546,35,0.103021115726517,1
779,547,35,0.114537437121158,1
779,548,35,0.119062810891834,1
779,549,35,0.124838533673381,1
779,550,35,0.127443789953323,1
779,551,35,0.106178264267774,1
780,547,35,0.172074851666476,1
780,548,35,0.164128044804742,1
780,549,35,0.149754240130722,1
780,550,35,0.119914803423782,1
781,549,35,0.141034768487448,1
782,549,35,0.106662060927817,1
783,548,35,0.109353013932505,1
785,547,35,0.140609106843593,1
786,547,35,0.134558681610266,1
786,602,35,0.105850602288583,1
786,603,35,0.127365867615816,1
787,543,35,0.138324563556831,1
787,546,35,0.161963251620396,1
787,547,35,0.109475708709571,1
787,602,35,0.111854102346718,1
787,603,35,0.12540872976462,1
788,543,35,0.119441023119176,1
788,544,35,0.14527546806719,1
788,545,35,0.161090657519972,1
788,546,35,0.140727886541864,1
788,602,35,0.11280373761307,1
788,603,35,0.124315240449193,1
789,544,35,0.115206480586429,1
789,545,35,0.127699273941387,1
789,546,35,0.120010315730693,1
789,602,35,0.130996149525582,1
790,545,35,0.103029793593477,1
791,546,35,0.106116437254203,1
792,546,35,0.120381534355742,1
792,602,35,0.105586228506217,1
793,546,35,0.120271800608762,1
793,547,35,0.125928197142577,1
794,546,35,0.124407317302346,1
794,547,35,0.173119363457712,1
794,548,35,0.159618509814378,1
795,546,35,0.137710610046463,1
795,547,35,0.199601514133858,1
795,548,35,0.178209311668023,1
795,549,35,0.110426838621389,1
795,602,35,0.103760931770014,1
796,546,35,0.14879990900063,1
796,547,35,0.201951654510068,1
796,548,35,0.178378853541788,1
796,549,35,0.156489402606715,1
796,550,35,0.126224415796627,1
796,601,35,0.105088768109638,1
797,547,35,0.178226221239117,1
797,548,35,0.200863017215371,1
797,550,35,0.21953444069162,1
797,551,35,0.131393067129391,1
798,548,35,0.186102757455805,1
798,551,35,0.165624207224429,1
799,549,35,0.196656393321442,1
799,550,35,0.202135272820983,1
799,551,35,0.166554847108477,1
799,552,35,0.122359731092311,1
800,550,35,0.193018939344253,1
800,551,35,0.187561497968487,1
800,552,35,0.169518137901969,1
800,553,35,0.13752598786919,1
801,551,35,0.234278404353978,1
801,554,35,0.164059201880737,1
801,555,35,0.110346573929046,1
802,555,35,0.203229844081262,1
802,556,35,0.150323041963131,1
803,556,35,0.21499667474846,1
803,557,35,0.135610075463088,1
804,556,35,0.209415936275813,1
804,557,35,0.15672961667207,1
804,558,35,0.136618135751464,1
805,557,35,0.183585997572339,1
805,594,35,0.106686845272784,1
806,592,35,0.139225165528639,1
752,577,36,0.103466129682936,1
753,576,36,0.10340247340178,1
753,577,36,0.113695951723755,1
755,591,36,0.114638370306401,1
755,592,36,0.136653427230977,1
756,592,36,0.116803988891973,1
768,599,36,0.111859177448861,1
768,600,36,0.116159317071055,1
769,561,36,0.112758887095017,1
769,562,36,0.137616246608828,1
769,563,36,0.107076423498111,1
770,561,36,0.148689327544281,1
770,562,36,0.16806412671524,1
770,563,36,0.126306230904789,1
771,560,36,0.130449912378083,1
771,561,36,0.150167141517762,1
771,562,36,0.145568117418634,1
771,563,36,0.107699010259157,1
772,555,36,0.158231936138752,1
772,556,36,0.18925448511873,1
772,557,36,0.155993860710286,1
772,558,36,0.124431231629803,1
772,559,36,0.138463253271199,1
772,560,36,0.153096434703937,1
772,561,36,0.12338919604225,1
773,553,36,0.149300715618403,1
773,554,36,0.157206631657162,1
773,555,36,0.1812480262872,1
773,556,36,0.220677108304509,1
773,557,36,0.179886337343177,1
773,558,36,0.153834666869403,1
773,559,36,0.161760671389389,1
773,560,36,0.145187217060267,1
773,561,36,0.103331388509576,1
774,552,36,0.127432334722774,1
774,553,36,0.135668210479276,1
774,554,36,0.131943163585332,1
774,555,36,0.149316688247563,1
774,559,36,0.171911589534484,1
774,560,36,0.120699213441708,1
774,562,36,0.112314062757798,1
775,551,36,0.123873371940695,1
775,552,36,0.126288484778397,1
775,553,36,0.113302056873089,1
775,554,36,0.110535758121212,1
775,555,36,0.134915834952235,1
775,559,36,0.153431391445328,1
775,562,36,0.128719681785965,1
776,550,36,0.107381442713898,1
776,551,36,0.123351037966583,1
776,552,36,0.120588040819615,1
776,553,36,0.104714136338972,1
776,554,36,0.106587440195219,1
776,555,36,0.145692005681259,1
776,558,36,0.161762556427328,1
776,559,36,0.103261017477893,1
776,562,36,0.117122604919873,1
777,551,36,0.121272309591314,1
777,552,36,0.116916053839717,1
777,553,36,0.103295996643428,1
777,554,36,0.106165604397595,1
777,555,36,0.139305787151242,1
777,556,36,0.158885218902206,1
777,557,36,0.135241567277205,1
777,602,36,0.106570050999088,1
777,603,36,0.112562408140651,1
778,550,36,0.116433406048951,1
778,551,36,0.131507898286654,1
778,552,36,0.111199759946553,1
778,602,36,0.117203103847699,1
778,603,36,0.119527768326562,1
779,547,36,0.112281180557545,1
779,548,36,0.134903498550105,1
779,549,36,0.150604514935791,1
779,550,36,0.150174726285799,1
779,551,36,0.126546009961388,1
779,603,36,0.107971348047962,1
780,550,36,0.159808285172287,1
781,550,36,0.123548253089611,1
782,549,36,0.129997157496637,1
783,548,36,0.122215642807753,1
785,547,36,0.154599880731753,1
785,548,36,0.104291608988967,1
786,543,36,0.11396067128231,1
786,547,36,0.145747965653672,1
786,602,36,0.114862422123394,1
786,603,36,0.148972250546126,1
787,544,36,0.12084823182549,1
787,545,36,0.135087607640128,1
787,546,36,0.132066460682213,1
787,547,36,0.105780811268574,1
787,602,36,0.12432212251078,1
787,603,36,0.141561385624687,1
788,602,36,0.142946107724587,1
789,601,36,0.106016485627177,1
790,601,36,0.104758919932601,1
794,547,36,0.108582434962176,1
794,602,36,0.106250129944923,1
795,547,36,0.124217976953192,1
795,548,36,0.111242680810385,1
795,602,36,0.114159046428685,1
796,547,36,0.125307807733447,1
796,548,36,0.126784338988804,1
796,549,36,0.108933910882188,1
796,601,36,0.112519788436727,1
797,547,36,0.116521701672156,1
797,548,36,0.146263952961589,1
797,549,36,0.16105606874691,1
797,550,36,0.137687688431292,1
797,600,36,0.104399569238715,1
798,548,36,0.128008922096491,1
798,549,36,0.164788376940842,1
798,550,36,0.160503540703568,1
798,551,36,0.129954292403159,1
799,549,36,0.13994194841626,1
799,550,36,0.159280619552408,1
799,551,36,0.148498637552579,1
799,552,36,0.122085396724861,1
799,599,36,0.106871400525633,1
800,552,36,0.151633879499095,1
800,553,36,0.125494482259718,1
801,551,36,0.225569261380119,1
801,552,36,0.200076989857202,1
801,555,36,0.128410792107665,1
802,556,36,0.168418301920347,1
802,557,36,0.112024570008346,1
803,557,36,0.149554749577283,1
803,558,36,0.120105627264332,1
803,559,36,0.11039542875846,1
804,557,36,0.178348704088841,1
805,593,36,0.103859946455107,1
805,594,36,0.119585702569478,1
806,592,36,0.130132144059552,1
752,576,37,0.103224476742469,1
752,577,37,0.1045177354631,1
753,577,37,0.122282957624079,1
753,587,37,0.111171127447214,1
754,577,37,0.109775452049944,1
754,588,37,0.140265059534629,1
755,591,37,0.136142325406001,1
756,591,37,0.106077576472085,1
757,592,37,0.129663405394876,1
758,593,37,0.120970960064769,1
768,599,37,0.108613197889007,1
768,600,37,0.115565385117489,1
769,562,37,0.110897875024617,1
770,561,37,0.155904784302136,1
770,562,37,0.174935458085635,1
770,563,37,0.121209634868374,1
771,560,37,0.130648889844272,1
771,561,37,0.184127828861934,1
771,562,37,0.183852256392643,1
771,563,37,0.114846683729718,1
772,556,37,0.155579531602204,1
772,557,37,0.140186467952883,1
772,558,37,0.117446742212741,1
772,559,37,0.134908729809236,1
772,560,37,0.160532072816272,1
772,561,37,0.153466727541123,1
772,562,37,0.1216438182222,1
773,555,37,0.151895487071941,1
773,559,37,0.186906475170013,1
773,560,37,0.175402334020513,1
773,561,37,0.124818757506132,1
774,553,37,0.12978051198255,1
774,554,37,0.124179963880442,1
774,560,37,0.157989435488915,1
774,561,37,0.119588781092976,1
774,562,37,0.115658309680011,1
775,551,37,0.110642413344694,1
775,552,37,0.121137166871411,1
775,553,37,0.119062587810421,1
775,554,37,0.117481219445097,1
775,560,37,0.119163677152653,1
775,561,37,0.11847360826422,1
775,562,37,0.130409133095814,1
776,551,37,0.110728623156689,1
776,552,37,0.119495421521699,1
776,553,37,0.117130267766404,1
776,554,37,0.12867028040709,1
776,559,37,0.124225840572994,1
776,562,37,0.103554548000918,1
777,551,37,0.112600153515705,1
777,552,37,0.123664701587117,1
777,553,37,0.126063886411942,1
777,554,37,0.146430873628752,1
777,558,37,0.122353027495855,1
777,602,37,0.112387545775191,1
778,550,37,0.116118838948694,1
778,551,37,0.133094810225088,1
778,552,37,0.126867057576688,1
778,553,37,0.119507780231971,1
778,554,37,0.122140174365786,1
778,555,37,0.142196989186173,1
778,556,37,0.140188308374539,1
778,557,37,0.113383414664355,1
778,602,37,0.127856089020549,1
778,603,37,0.129801905490043,1
779,550,37,0.162622267576161,1
779,551,37,0.142600331534673,1
779,552,37,0.107325962366523,1
779,602,37,0.106390927778642,1
779,603,37,0.11576890229043,1
780,551,37,0.121331013465105,1
784,548,37,0.123896583561702,1
784,549,37,0.103506518572732,1
785,548,37,0.139377061662647,1
785,549,37,0.115785231849851,1
786,548,37,0.122051432579755,1
786,602,37,0.116041864707191,1
786,603,37,0.157304653629967,1
787,547,37,0.103059920738282,1
787,602,37,0.128878359594923,1
797,600,37,0.108068511157328,1
799,552,37,0.126651850937714,1
799,599,37,0.122603190992222,1
800,553,37,0.123502532554048,1
800,554,37,0.112805789962068,1
801,556,37,0.120913248903265,1
802,557,37,0.132276558756833,1
802,558,37,0.104370022105583,1
803,557,37,0.170864657309918,1
803,558,37,0.146783442647687,1
803,597,37,0.105075450149291,1
805,593,37,0.125973995756635,1
805,594,37,0.143940437352002,1
806,592,37,0.143038496891717,1
753,577,38,0.117878850909427,1
753,578,38,0.106812774730337,1
754,577,38,0.128233888547277,1
754,578,38,0.111867743775114,1
754,588,38,0.147619797172595,1
755,590,38,0.113749234719213,1
770,561,38,0.147394406867124,1
770,562,38,0.171647639606802,1
770,563,38,0.10901086281555,1
771,560,38,0.118657494272831,1
771,561,38,0.200134812559412,1
771,562,38,0.212284517855481,1
771,563,38,0.114889827674963,1
772,556,38,0.114326948654065,1
772,557,38,0.113118449716245,1
772,559,38,0.114932313530039,1
772,560,38,0.147228947383215,1
772,561,38,0.176514428325771,1
772,562,38,0.14849899448284,1
773,555,38,0.121498770687566,1
773,556,38,0.158156266923514,1
773,560,38,0.184437053162353,1
773,561,38,0.147055858514986,1
774,553,38,0.122440754261457,1
774,554,38,0.115008752376152,1
774,555,38,0.13863360939212,1
774,561,38,0.146904330465309,1
774,562,38,0.112284426392102,1
775,552,38,0.112993156040719,1
775,553,38,0.118123136210566,1
775,554,38,0.119655850519748,1
775,561,38,0.13630655794214,1
775,562,38,0.123141174127446,1
776,552,38,0.113241702196843,1
776,553,38,0.126663339630475,1
777,551,38,0.104403172003533,1
777,552,38,0.127405029557841,1
777,553,38,0.149166989465471,1
778,550,38,0.112200369315741,1
778,551,38,0.130210401019179,1
778,552,38,0.139406341098083,1
778,553,38,0.145679200808161,1
778,558,38,0.106383811481572,1
778,602,38,0.136354420059266,1
779,550,38,0.160489910429243,1
779,551,38,0.149092357578803,1
779,552,38,0.123507128031152,1
779,553,38,0.10868182888567,1
779,554,38,0.107205152627395,1
779,555,38,0.113630298863953,1
779,556,38,0.104665270355487,1
779,602,38,0.107769682450747,1
780,551,38,0.136100319175962,1
781,551,38,0.105623717337646,1
782,550,38,0.105669025172596,1
783,549,38,0.106211994177397,1
784,549,38,0.129534218948696,1
784,550,38,0.120425224850448,1
785,549,38,0.16757119487134,1
785,550,38,0.135884867147434,1
786,549,38,0.134729907748697,1
786,602,38,0.111183352308638,1
799,553,38,0.103335526669784,1
799,599,38,0.125267117683744,1
800,554,38,0.132804447458126,1
800,555,38,0.119609471894017,1
801,556,38,0.142175417213551,1
801,557,38,0.104521884777379,1
801,598,38,0.116313031318578,1
802,557,38,0.161421877647698,1
802,558,38,0.144115132406403,1
802,559,38,0.113427484397463,1
802,597,38,0.106870920900596,1
803,558,38,0.191238905826717,1
804,595,38,0.114288946735386,1
805,592,38,0.123094762039503,1
753,573,39,0.118301813268186,1
753,574,39,0.10313420684876,1
753,577,39,0.10662077971237,1
753,578,39,0.110504615955978,1
754,577,39,0.135179071019395,1
754,578,39,0.126891194985558,1
754,588,39,0.148015733218188,1
755,589,39,0.110219339445229,1
770,561,39,0.125563336337794,1
770,562,39,0.144290664016103,1
771,561,39,0.180300432215776,1
771,562,39,0.198718892523926,1
771,563,39,0.103057991084061,1
772,560,39,0.123920486735088,1
772,561,39,0.174427613249287,1
772,562,39,0.155704780661447,1
773,556,39,0.120902619073943,1
773,560,39,0.170300395184261,1
773,561,39,0.16135368165979,1
773,562,39,0.109161900086118,1
774,553,39,0.112058835313359,1
774,555,39,0.127597281119433,1
774,561,39,0.175621288427223,1
774,562,39,0.109552549102227,1
775,553,39,0.118366395337206,1
775,554,39,0.126365146705922,1
775,561,39,0.153350323659899,1
775,562,39,0.109548143244323,1
776,552,39,0.111192119408163,1
776,553,39,0.140663639094964,1
776,560,39,0.113962467087684,1
776,561,39,0.103543059308157,1
777,552,39,0.130737743171009,1
778,550,39,0.110203199505009,1
778,551,39,0.128514937665253,1
778,552,39,0.154860372897536,1
778,559,39,0.117620087624594,1
779,550,39,0.153357205721485,1
779,551,39,0.154504792279527,1
779,557,39,0.126698240717515,1
779,558,39,0.135677055657296,1
779,559,39,0.121109705549489,1
779,560,39,0.108610331292852,1
780,551,39,0.150269480115906,1
780,552,39,0.129027734908966,1
780,553,39,0.110896268838445,1
780,558,39,0.104121353254682,1
781,551,39,0.122453090663588,1
782,550,39,0.114583927287595,1
782,551,39,0.105264388951902,1
783,549,39,0.113649807333507,1
783,550,39,0.110046752510179,1
783,551,39,0.108097522895068,1
784,550,39,0.152516701882298,1
784,551,39,0.120460639024738,1
785,550,39,0.185054341739844,1
785,551,39,0.113191185410904,1
786,550,39,0.127174318760674,1
799,599,39,0.119080757791498,1
800,555,39,0.131763594202061,1
800,598,39,0.122167077984176,1
800,599,39,0.131730143144204,1
801,556,39,0.150481440920323,1
801,557,39,0.119164179085832,1
801,558,39,0.111974834007352,1
801,597,39,0.126321065818743,1
801,598,39,0.147245288096706,1
802,558,39,0.188234423050342,1
802,596,39,0.110133642720483,1
802,597,39,0.149520506580411,1
803,595,39,0.116921218174425,1
804,593,39,0.106980766188282,1
805,591,39,0.106434250189017,1
753,578,40,0.105807859889882,1
753,587,40,0.108337123486538,1
754,577,40,0.122228592683768,1
754,578,40,0.12162385243575,1
755,588,40,0.104874498412597,1
759,593,40,0.103570476013796,1
764,595,40,0.113653097784346,1
770,561,40,0.103023056534809,1
770,562,40,0.109110234430903,1
771,561,40,0.143414946775898,1
771,562,40,0.157185360844447,1
772,560,40,0.105612697115852,1
772,561,40,0.153522821362383,1
772,562,40,0.142808622649848,1
773,557,40,0.110973823091621,1
773,560,40,0.147017700439319,1
773,561,40,0.160638761501966,1
773,562,40,0.11403064076745,1
774,561,40,0.184108554627864,1
774,562,40,0.107348036272324,1
775,561,40,0.156182386812283,1
776,552,40,0.107009064065502,1
777,560,40,0.106115478004128,1
778,550,40,0.107584223718176,1
778,551,40,0.127186521313957,1
778,560,40,0.123849189915542,1
779,549,40,0.144315459515141,1
779,550,40,0.146568626401186,1
779,559,40,0.154153628673493,1
779,560,40,0.134395475248626,1
780,550,40,0.167500422293115,1
780,557,40,0.106235863888571,1
780,558,40,0.124409905046735,1
780,559,40,0.11093403652164,1
781,551,40,0.137427240881793,1
781,552,40,0.131853395624802,1
781,553,40,0.11426053731746,1
782,550,40,0.11974686773619,1
782,551,40,0.114878294365918,1
783,549,40,0.118988379778437,1
783,550,40,0.11639814803165,1
783,551,40,0.127119184189489,1
784,550,40,0.164586175948237,1
784,551,40,0.154964317681852,1
784,552,40,0.104561013257193,1
785,551,40,0.146052772942116,1
799,599,40,0.105959521788406,1
800,597,40,0.109230486466498,1
800,598,40,0.131424766998157,1
801,557,40,0.127364049502301,1
801,558,40,0.133233165317336,1
801,559,40,0.110467985987989,1
801,597,40,0.157713372240516,1
803,586,40,0.110128166071798,1
803,594,40,0.117930739646055,1
804,588,40,0.104476063855181,1
804,592,40,0.109455966004534,1
805,590,40,0.105571404746334,1
755,588,41,0.103514649890231,1
756,589,41,0.105033399302969,1
759,593,41,0.114153357852658,1
764,595,41,0.124151230994467,1
765,596,41,0.107598857858859,1
768,598,41,0.10383292014194,1
771,561,41,0.107600675972374,1
771,562,41,0.106245523313748,1
772,561,41,0.122562378247742,1
772,562,41,0.115202732818693,1
773,559,41,0.118671604172194,1
773,560,41,0.126410766854849,1
773,561,41,0.146081695447292,1
773,562,41,0.114806015988156,1
774,560,41,0.175591997837716,1
774,561,41,0.168092703444225,1
774,562,41,0.106039362626064,1
775,561,41,0.145005684560562,1
776,561,41,0.103532619098035,1
779,560,41,0.15505178790383,1
780,549,41,0.156470842233166,1
780,559,41,0.135760677724902,1
780,560,41,0.118544146606963,1
781,550,41,0.147547507640761,1
781,555,41,0.131357240254488,1
781,556,41,0.112083396576914,1
782,550,41,0.126817667351884,1
782,551,41,0.123863489434106,1
782,552,41,0.120729072888818,1
782,553,41,0.107679992568712,1
782,555,41,0.106315325487828,1
783,549,41,0.126528955387376,1
783,550,41,0.123227830102267,1
783,551,41,0.143772468202198,1
783,552,41,0.135387362134571,1
783,553,41,0.106161098153055,1
784,550,41,0.163225948187468,1
784,553,41,0.111496804001831,1
785,551,41,0.178812546116505,1
785,552,41,0.133449453901163,1
786,551,41,0.113349383594825,1
796,555,41,0.108398247793658,1
800,555,41,0.114502971042873,1
800,597,41,0.115866333097492,1
801,559,41,0.143931703714689,1
801,560,41,0.104319237621949,1
801,596,41,0.108629638989134,1
803,585,41,0.107931795713464,1
803,587,41,0.103172465311063,1
803,593,41,0.122473413380298,1
804,588,41,0.12507465419481,1
804,590,41,0.109288130703578,1
804,591,41,0.126818180439133,1
754,587,42,0.106422928807315,1
759,592,42,0.108075973230587,1
773,558,42,0.111429834961694,1
773,559,42,0.109210487217837,1
773,560,42,0.109029177799545,1
773,561,42,0.118069596671483,1
774,560,42,0.148529322400916,1
774,561,42,0.133950204748582,1
775,561,42,0.125642898323686,1
779,561,42,0.103077454937332,1
781,549,42,0.144097832442837,1
781,550,42,0.148934248627447,1
781,557,42,0.125223393726826,1
781,558,42,0.121640996242327,1
781,559,42,0.125429665955215,1
781,560,42,0.10978927194347,1
782,549,42,0.149077288429365,1
782,550,42,0.132101272536688,1
782,551,42,0.128877712658826,1
782,553,42,0.122273844748365,1
782,554,42,0.118300519395992,1
782,555,42,0.131523179363435,1
782,556,42,0.125488057515028,1
782,557,42,0.118748020710165,1
782,558,42,0.10647997072458,1
783,550,42,0.128880880414889,1
783,553,42,0.135862625930573,1
783,556,42,0.108072816628596,1
783,557,42,0.120621926886227,1
783,558,42,0.105754509969999,1
784,556,42,0.107852434500843,1
784,558,42,0.118135059912083,1
785,553,42,0.140431745966309,1
785,557,42,0.122257994813982,1
785,558,42,0.110683214935104,1
786,552,42,0.108243897764109,1
800,558,42,0.113297427933773,1
800,559,42,0.117395121173808,1
800,597,42,0.115159142710623,1
801,596,42,0.114081849105769,1
802,593,42,0.104851498718933,1
803,584,42,0.115689741851081,1
803,590,42,0.105189946684435,1
803,591,42,0.12097393820163,1
804,589,42,0.122267219230403,1
752,586,43,0.107211577372085,1
753,586,43,0.11014122748852,1
754,587,43,0.119701002197709,1
758,590,43,0.107016314211419,1
760,592,43,0.105643705432238,1
765,597,43,0.111670863274205,1
773,560,43,0.109058925705948,1
774,561,43,0.108490213106104,1
776,598,43,0.105176684494441,1
781,561,43,0.117584405752609,1
782,549,43,0.146060870797403,1
782,550,43,0.136024995736914,1
782,558,43,0.139022763762762,1
782,559,43,0.117707089375605,1
782,561,43,0.103428194688681,1
782,562,43,0.107919180459567,1
783,550,43,0.133696460795539,1
783,554,43,0.113705120369823,1
783,555,43,0.112245688304761,1
783,556,43,0.136543091164182,1
783,559,43,0.104394650293562,1
784,559,43,0.105077982123326,1
785,554,43,0.114974587457774,1
786,553,43,0.11594843821149,1
786,557,43,0.116662510659945,1
800,557,43,0.105294248399012,1
800,558,43,0.13097494563729,1
800,560,43,0.119259133689211,1
802,590,43,0.127744269462359,1
802,591,43,0.126415775032568,1
802,592,43,0.113982243254933,1
803,583,43,0.131078689648335,1
803,588,43,0.134362001882629,1
803,589,43,0.128599630523641,1
751,587,44,0.113319490685503,1
752,586,44,0.106200996263743,1
753,586,44,0.113740590314465,1
754,587,44,0.119127203341652,1
764,594,44,0.122554815787846,1
773,560,44,0.112340163283102,1
776,598,44,0.138034646952695,1
776,599,44,0.122298049081659,1
777,598,44,0.130250064894383,1
777,599,44,0.110340829582666,1
781,562,44,0.103617936584379,1
782,550,44,0.141902410180508,1
782,561,44,0.123407946035,1
782,562,44,0.123583734188324,1
783,554,44,0.122277536745747,1
786,554,44,0.112874320572095,1
786,555,44,0.103600536234177,1
788,555,44,0.104564247937679,1
789,555,44,0.106480126881569,1
789,559,44,0.109989074810887,1
789,560,44,0.138699663798464,1
789,561,44,0.106729743828475,1
790,559,44,0.116566686039057,1
790,560,44,0.152505670506433,1
790,561,44,0.116483019355168,1
791,556,44,0.105854985838346,1
791,560,44,0.114192776338308,1
792,556,44,0.107749828205004,1
792,557,44,0.112832704734528,1
793,557,44,0.109438119491506,1
794,556,44,0.108333431489155,1
794,557,44,0.103603101670425,1
795,557,44,0.111216446436234,1
796,558,44,0.11343733344184,1
796,559,44,0.111201254592019,1
797,559,44,0.126999467549284,1
798,559,44,0.107544649075537,1
799,557,44,0.114654097546006,1
799,558,44,0.117119983713272,1
800,557,44,0.111831983824634,1
801,590,44,0.125451293698191,1
801,591,44,0.118981731952334,1
802,583,44,0.10615578881543,1
802,588,44,0.126369731028956,1
751,587,45,0.116338852992115,1
752,586,45,0.104719612987657,1
753,586,45,0.113651290824902,1
754,587,45,0.117398779708979,1
762,591,45,0.104921668977344,1
765,594,45,0.123136121333445,1
773,560,45,0.119157040480621,1
775,599,45,0.105145966183892,1
776,598,45,0.168459136972969,1
776,599,45,0.153720962273275,1
777,598,45,0.164715641246183,1
777,599,45,0.141360813126396,1
781,562,45,0.110259371404764,1
782,561,45,0.141544687980936,1
782,562,45,0.130707582563992,1
786,559,45,0.11953398114391,1
787,554,45,0.1058795471019,1
787,555,45,0.121203767827216,1
787,559,45,0.130067138135848,1
787,560,45,0.114392099580687,1
788,555,45,0.133430112742669,1
788,560,45,0.135626683874275,1
789,561,45,0.127818321337353,1
790,558,45,0.117943934911625,1
790,561,45,0.138073518888883,1
791,558,45,0.11816053580943,1
791,559,45,0.128085963262418,1
791,560,45,0.146902456581442,1
791,561,45,0.104210251197702,1
792,559,45,0.12299278037162,1
792,560,45,0.114412478067751,1
793,559,45,0.116356007952763,1
794,559,45,0.103068487064535,1
795,559,45,0.111715468402704,1
796,559,45,0.141507823777463,1
796,560,45,0.120255192197576,1
797,560,45,0.126876058911696,1
799,559,45,0.11647333762185,1
800,561,45,0.103948007842829,1
800,581,45,0.122712612425224,1
800,582,45,0.109441499174911,1
801,581,45,0.111869260728721,1
802,581,45,0.127931914392776,1
802,582,45,0.128789338957127,1
751,587,46,0.117029468430009,1
752,587,46,0.140978250811503,1
753,586,46,0.103231570731397,1
754,587,46,0.108201467679385,1
763,591,46,0.121632898387041,1
764,592,46,0.103126845162136,1
765,593,46,0.11787039612388,1
766,594,46,0.103513846797144,1
773,560,46,0.116710049309023,1
775,599,46,0.103663567887377,1
776,598,46,0.181594449413211,1
776,599,46,0.17016372435668,1
776,600,46,0.107540109368786,1
777,598,46,0.179996773796607,1
777,599,46,0.159797198026069,1
781,562,46,0.117785045175325,1
782,562,46,0.129780043511583,1
783,561,46,0.106270374583139,1
786,560,46,0.115393400502254,1
787,560,46,0.142067735815569,1
788,561,46,0.107034941509392,1
791,561,46,0.11247209363066,1
792,560,46,0.136489964325713,1
793,560,46,0.110354225621507,1
794,563,46,0.108659833058363,1
795,560,46,0.113623606421568,1
796,560,46,0.1396205438707,1
796,561,46,0.112033582497425,1
796,562,46,0.107610993487718,1
796,563,46,0.112793118937818,1
797,561,46,0.117160160675726,1
799,560,46,0.104126785287085,1
799,581,46,0.112805187642253,1
800,561,46,0.125532350329549,1
800,562,46,0.111387706036878,1
800,580,46,0.133245479411326,1
800,581,46,0.167939580362447,1
800,582,46,0.120734582999715,1
801,580,46,0.13530797861381,1
801,581,46,0.152719159418528,1
801,582,46,0.114658191089932,1
801,592,46,0.106162135481625,1
802,580,46,0.12853571769886,1
803,579,46,0.121277395847527,1
752,587,47,0.125665942633633,1
753,587,47,0.118749281120147,1
765,592,47,0.12237863724205,1
766,592,47,0.121064486947105,1
766,593,47,0.151155637566232,1
766,594,47,0.119948656028182,1
776,598,47,0.174946433691147,1
776,599,47,0.166810197247693,1
777,598,47,0.173197386181855,1
777,599,47,0.16012296381325,1
781,563,47,0.106538005354132,1
782,562,47,0.125999806276101,1
786,571,47,0.106390146993697,1
786,572,47,0.136710881848856,1
786,573,47,0.129946060699025,1
787,572,47,0.126857520846289,1
787,573,47,0.111208638586785,1
794,564,47,0.10401627075516,1
796,564,47,0.126129706582802,1
797,564,47,0.118976645696122,1
798,561,47,0.127952739042665,1
798,562,47,0.105305904402833,1
798,564,47,0.107165142976001,1
798,565,47,0.105874405075334,1
799,561,47,0.112731816165568,1
799,565,47,0.11221494768607,1
799,566,47,0.115320296723264,1
799,581,47,0.118547782833992,1
800,563,47,0.104887091358353,1
800,565,47,0.108897202835704,1
800,566,47,0.111103623011687,1
800,580,47,0.192577461228227,1
800,581,47,0.209099986070797,1
800,582,47,0.125115110009029,1
801,572,47,0.119544042115629,1
801,579,47,0.111541174894846,1
801,580,47,0.189049272527051,1
801,582,47,0.132122788738957,1
802,579,47,0.111167981999293,1
803,577,47,0.103116984963688,1
803,578,47,0.115184228215498,1
752,587,48,0.111827968359203,1
753,588,48,0.116712893597037,1
754,588,48,0.120041770209904,1
761,588,48,0.112591096410343,1
761,589,48,0.120732129104174,1
765,591,48,0.10873184373843,1
766,592,48,0.169750053338766,1
767,593,48,0.113720691452439,1
768,595,48,0.107097303918354,1
769,595,48,0.107180948294101,1
776,598,48,0.159406292466335,1
777,598,48,0.152659585527227,1
780,563,48,0.111982429929459,1
781,563,48,0.131022116202037,1
782,562,48,0.118182040857628,1
786,571,48,0.126109751950423,1
786,572,48,0.155024861977299,1
786,573,48,0.146383524598875,1
787,571,48,0.116463722812957,1
787,572,48,0.139455630936252,1
787,573,48,0.126803992461276,1
792,561,48,0.110543789052074,1
793,561,48,0.107686015766859,1
794,564,48,0.111161044167354,1
797,565,48,0.115332655433536,1
798,564,48,0.130308266834995,1
798,565,48,0.124947073934802,1
798,566,48,0.12026325659065,1
798,567,48,0.110273302838997,1
799,563,48,0.11205572332765,1
799,564,48,0.120813854979771,1
799,565,48,0.137065157440599,1
799,566,48,0.164032889428092,1
799,567,48,0.171707470041728,1
799,568,48,0.146410740531243,1
799,569,48,0.103632760344263,1
799,580,48,0.104542988279035,1
799,581,48,0.106096438005542,1
800,564,48,0.123270003643366,1
800,565,48,0.131045372439327,1
800,566,48,0.147778675754825,1
800,567,48,0.156761316540835,1
800,568,48,0.150166249192111,1
800,569,48,0.126926118380739,1
800,570,48,0.107326006982805,1
800,579,48,0.107759197624344,1
800,580,48,0.211759674215474,1
800,582,48,0.116651289664879,1
801,565,48,0.115822174131818,1
801,566,48,0.111905556074592,1
801,570,48,0.140812824789806,1
801,572,48,0.144535083166089,1
801,573,48,0.11409488821435,1
801,579,48,0.119600983646259,1
802,574,48,0.111918093249994,1
802,576,48,0.103497952246479,1
802,577,48,0.107424620121355,1
802,578,48,0.109871588984811,1
754,588,49,0.104736801410517,1
761,588,49,0.138285847777632,1
762,588,49,0.105069895422111,1
762,589,49,0.105257149960055,1
766,591,49,0.118962680799677,1
767,592,49,0.124394255885624,1
774,560,49,0.125345463875936,1
779,562,49,0.13042954504509,1
780,563,49,0.117016195085945,1
781,563,49,0.144241920727395,1
782,562,49,0.112118688056426,1
786,571,49,0.133108931278522,1
786,572,49,0.153570293087037,1
786,573,49,0.139127678951225,1
787,571,49,0.11465937342142,1
787,572,49,0.128568466050266,1
787,573,49,0.119429958281099,1
794,564,49,0.113165330275155,1
798,565,49,0.133118044154236,1
798,566,49,0.133794672387545,1
798,567,49,0.129587156167965,1
799,563,49,0.135046783741577,1
799,564,49,0.140805697338666,1
799,565,49,0.150066542954638,1
799,568,49,0.181694032955906,1
799,569,49,0.118792034672919,1
800,565,49,0.150466115227261,1
800,569,49,0.147877511974787,1
800,570,49,0.120363977848551,1
800,571,49,0.113595698936821,1
800,582,49,0.10421212508157,1
801,566,49,0.130185717060847,1
801,567,49,0.135515778949877,1
801,573,49,0.154418281307625,1
801,574,49,0.11333645602695,1
802,575,49,0.1377631791814,1
761,588,50,0.13820784736163,1
767,594,50,0.113218167107788,1
779,562,50,0.114060924069244,1
780,562,50,0.158213186146002,1
780,563,50,0.110167718406296,1
781,562,50,0.157645945883483,1
781,563,50,0.134753944770932,1
782,562,50,0.10430987935668,1
786,571,50,0.119696562877593,1
786,572,50,0.128527195988889,1
786,573,50,0.109023098831044,1
798,568,50,0.104906131356939,1
799,569,50,0.127449958154389,1
800,570,50,0.13283942662366,1
800,571,50,0.121578488830448,1
800,572,50,0.116518255064327,1
800,573,50,0.104072576503763,1
800,580,50,0.135972683145601,1
800,585,50,0.111809441447866,1
801,579,50,0.116265224971805,1
780,561,51,0.161555916114607,1
780,562,51,0.132963169883367,1
781,562,51,0.142558202609856,1
781,563,51,0.114043914111514,1
790,562,51,0.103355135525974,1
791,562,51,0.120094049339005,1
792,562,51,0.127075850625043,1
797,566,51,0.110504136330941,1
798,568,51,0.105684072013892,1
800,585,51,0.113886095165995,1
801,586,51,0.109128549414898,1
780,561,52,0.127218210028652,1
780,562,52,0.10351898882371,1
781,561,52,0.14445157263919,1
781,562,52,0.117985561903263,1
782,568,52,0.112061601522879,1
782,569,52,0.126208699711092,1
783,568,52,0.115580655040199,1
783,569,52,0.105131075499584,1
785,562,52,0.116537651993174,1
793,563,52,0.105923605680938,1
796,566,52,0.111549016206508,1
797,566,52,0.129687988966572,1
798,568,52,0.110095897345429,1
799,570,52,0.110156776262995,1
800,584,52,0.109204530944114,1
800,585,52,0.10345439560062,1
801,585,52,0.153226993100806,1
780,561,53,0.104945315607106,1
781,561,53,0.119511382996788,1
782,561,53,0.117734071072489,1
782,568,53,0.106818440998223,1
782,569,53,0.131403841961632,1
782,570,53,0.105580796473815,1
783,568,53,0.110968056437099,1
783,569,53,0.103219780878728,1
784,562,53,0.105137132159943,1
785,562,53,0.117553821290908,1
786,562,53,0.103226261393772,1
792,563,53,0.104863478190803,1
793,563,53,0.107958866642913,1
794,565,53,0.111948655403554,1
795,566,53,0.118609699080128,1
797,567,53,0.117498240556897,1
798,569,53,0.10392719434701,1
801,580,53,0.103564753975556,1
801,581,53,0.106432989779034,1
801,582,53,0.119151441137158,1
801,583,53,0.126653423661674,1
801,584,53,0.128446719369204,1
801,585,53,0.122745684244679,1
782,569,54,0.120975533233732,1
782,570,54,0.106525914341556,1
783,561,54,0.123259016883783,1
784,561,54,0.15299300300687,1
784,562,54,0.106295359701378,1
785,562,54,0.105320348924315,1
791,563,54,0.1041105561143,1
792,563,54,0.117077285930853,1
796,567,54,0.148709070249318,1
797,568,54,0.136716737735943,1
798,570,54,0.104892824550663,1
799,571,54,0.11352953298977,1
801,577,54,0.103526941676078,1
802,581,54,0.117847507970922,1
802,582,54,0.119547734113012,1
779,563,55,0.116868950199395,1
780,562,55,0.108918618651337,1
780,563,55,0.105372728440051,1
782,560,55,0.120783962070449,1
783,560,55,0.134172839998604,1
783,561,55,0.115714470425696,1
784,560,55,0.145310670314137,1
784,561,55,0.125663243348538,1
785,558,55,0.123761418533657,1
785,561,55,0.128602385579089,1
791,563,55,0.110091112249124,1
793,564,55,0.118992964101471,1
794,566,55,0.119239759068505,1
795,567,55,0.128846403182533,1
796,568,55,0.127450080849166,1
797,569,55,0.113657514796321,1
798,570,55,0.123995553630512,1
799,571,55,0.136291990725881,1
800,573,55,0.103698926291313,1
801,576,55,0.118520064968446,1
802,580,55,0.105463611807646,1
779,564,56,0.128241863707786,1
780,562,56,0.140412427115956,1
780,563,56,0.135780420429939,1
782,560,56,0.106384703807223,1
783,559,56,0.148135193314768,1
783,560,56,0.119633018137143,1
783,561,56,0.108316231912224,1
783,570,56,0.117984602653188,1
784,559,56,0.140272978924785,1
784,560,56,0.13081693707257,1
784,561,56,0.111295394948241,1
785,558,56,0.130458177544429,1
785,559,56,0.146510234841373,1
785,560,56,0.14554218420439,1
785,561,56,0.112088928995953,1
786,561,56,0.116091935330305,1
788,562,56,0.110945703679532,1
790,563,56,0.10316963217712,1
791,563,56,0.116333789044043,1
792,564,56,0.116704226884148,1
797,569,56,0.131802990379569,1
800,572,56,0.117433747720443,1
801,575,56,0.123490608852531,1
801,576,56,0.110182798709804,1
802,576,56,0.150819543109635,1
802,577,56,0.144441801673307,1
802,578,56,0.135803576280592,1
802,579,56,0.115170821022586,1
803,576,56,0.143938050380885,1
781,561,57,0.103796401714657,1
781,562,57,0.120391182626848,1
781,563,57,0.103363679544086,1
783,559,57,0.125905621303597,1
783,560,57,0.113106615247293,1
783,561,57,0.107405702817545,1
783,562,57,0.104826134362292,1
783,570,57,0.129908906489715,1
783,571,57,0.111235687208092,1
784,559,57,0.139860981017467,1
784,560,57,0.129997045955931,1
784,561,57,0.125812551738157,1
784,562,57,0.126130375827041,1
784,563,57,0.112388415792701,1
785,560,57,0.144541909457322,1
785,561,57,0.135703111566316,1
785,562,57,0.13705336758793,1
785,563,57,0.118862405704602,1
786,561,57,0.12520055019015,1
786,562,57,0.11257696420284,1
787,561,57,0.128386409309241,1
788,562,57,0.119322020339492,1
789,563,57,0.105928770015645,1
790,563,57,0.117496355518958,1
793,565,57,0.119618149760977,1
794,567,57,0.104307313920432,1
795,568,57,0.111227756663866,1
796,569,57,0.134132930733846,1
796,570,57,0.103939564211352,1
797,570,57,0.108298151163713,1
800,572,57,0.11051436461372,1
801,574,57,0.121851797023398,1
801,575,57,0.111952559328279,1
802,575,57,0.133720408585208,1
802,576,57,0.118931505172232,1
802,577,57,0.113857128044537,1
781,561,58,0.113172781194344,1
781,562,58,0.13015069327903,1
781,563,58,0.11062393104964,1
782,562,58,0.103932146754375,1
782,566,58,0.104660987192361,1
783,560,58,0.10672201405752,1
783,561,58,0.11115282361729,1
783,562,58,0.117974296291914,1
783,563,58,0.110251061622136,1
783,570,58,0.122919933136254,1
783,571,58,0.109745380675492,1
784,560,58,0.125220159046339,1
784,561,58,0.153646151921476,1
784,564,58,0.122342643056087,1
785,564,58,0.131399068019397,1
786,561,58,0.14207469595565,1
786,562,58,0.144936462398156,1
786,563,58,0.123362292423861,1
787,561,58,0.148585315835541,1
787,562,58,0.120371551462517,1
788,562,58,0.141405228635694,1
789,563,58,0.12161499610366,1
791,564,58,0.105015140089327,1
796,570,58,0.118738829755955,1
797,570,58,0.119221243311238,1
799,571,58,0.118788666143585,1
801,572,58,0.121193718009568,1
801,573,58,0.110196640911471,1
781,562,59,0.138237740270951,1
781,563,59,0.114129376600776,1
781,566,59,0.115824237634887,1
781,567,59,0.103556221111515,1
782,561,59,0.120569257364654,1
782,562,59,0.118259662035229,1
782,565,59,0.11478889448972,1
782,566,59,0.133326536042684,1
782,567,59,0.11524799603736,1
783,560,59,0.111424860246187,1
783,561,59,0.12808826100097,1
783,564,59,0.114399550499876,1
783,565,59,0.110192815065241,1
784,560,59,0.122795152547978,1
784,565,59,0.123819564703916,1
785,565,59,0.124241110495704,1
786,564,59,0.127688454492864,1
787,562,59,0.150008642173934,1
787,563,59,0.103207611787658,1
788,563,59,0.107352207894744,1
792,565,59,0.110678072908538,1
793,566,59,0.117475765104552,1
795,569,59,0.103372692033165,1
796,570,59,0.115258815485883,1
797,570,59,0.12263022845946,1
799,571,59,0.103115222620527,1
800,571,59,0.130413349334517,1
781,563,60,0.105602290367942,1
781,565,60,0.112915880639308,1
781,566,60,0.126558692139709,1
781,567,60,0.108515164762131,1
782,563,60,0.103215553485955,1
782,565,60,0.132200432224699,1
782,566,60,0.146290733885201,1
782,567,60,0.124082644614087,1
783,565,60,0.133222312406601,1
783,566,60,0.113316914095185,1
784,566,60,0.105469434232521,1
786,565,60,0.108632104038746,1
787,563,60,0.111016097019356,1
793,566,60,0.123691973289838,1
797,570,60,0.111848770700951,1
799,573,60,0.123371851462401,1
799,574,60,0.111884675654349,1
800,573,60,0.115467485839461,1
781,565,61,0.125771080903508,1
781,566,61,0.126070009996724,1
781,567,61,0.110030601415889,1
782,564,61,0.109439625291043,1
782,565,61,0.140342892639572,1
782,566,61,0.142438608664429,1
782,567,61,0.121553905258752,1
783,565,61,0.150795729168814,1
783,566,61,0.127015317483667,1
784,566,61,0.119509642961768,1
786,565,61,0.114496100135357,1
793,566,61,0.122984894443676,1
796,569,61,0.121928035096239,1
797,569,61,0.134526022491425,1
799,573,61,0.151761024750347,1
