x,y,z,signal,mito.p
717,423,29,0.332753812439037,2
694,393,30,0.181913444679513,1
695,393,30,0.188065639653381,1
696,393,30,0.203558465310528,1
697,393,30,0.203944931550145,1
713,406,30,0.199392709931433,1
713,407,30,0.173562670841323,1
716,423,30,0.331133215207264,2
717,422,30,0.236321183159566,2
717,423,30,0.408400005675191,2
717,424,30,0.327029387228375,2
718,423,30,0.209283961311972,2
691,393,31,0.141266516613185,1
692,393,31,0.135780543124716,1
693,393,31,0.152740095609124,1
694,392,31,0.176718904748788,1
694,393,31,0.195105598263748,1
694,394,31,0.139243279739362,1
695,392,31,0.165596656669942,1
695,393,31,0.212383052915536,1
695,394,31,0.169449718832649,1
696,392,31,0.178557419058702,1
696,393,31,0.20550250828279,1
696,394,31,0.156407063257233,1
697,392,31,0.2023508810065,1
697,393,31,0.202764585486627,1
697,394,31,0.14227454343935,1
698,393,31,0.190278785733962,1
698,394,31,0.136124300427843,1
699,393,31,0.176128229783849,1
699,394,31,0.128144756368774,1
700,393,31,0.165767882808374,1
700,394,31,0.113373454079271,1
706,395,31,0.103143866273936,1
707,396,31,0.156634873996033,1
708,396,31,0.181386849850415,1
708,397,31,0.125748493910457,1
709,446,31,0.123970914288463,1
710,445,31,0.128061201225591,1
711,400,31,0.145937439851674,1
711,401,31,0.116654412804659,1
711,443,31,0.107916380787836,1
711,444,31,0.144782101214536,1
712,401,31,0.159449246792379,1
712,402,31,0.154632071379627,1
712,403,31,0.147894622319153,1
712,404,31,0.122151808061466,1
712,405,31,0.109870495885888,1
712,406,31,0.114238206868034,1
713,403,31,0.153023832858125,1
713,404,31,0.153517489716616,1
713,405,31,0.187543696071742,1
713,406,31,0.256745959616375,1
713,407,31,0.21798647876787,1
713,408,31,0.116665879189279,1
714,406,31,0.334317479294252,3
714,407,31,0.278968013783933,1
714,408,31,0.142180983094801,1
714,410,31,0.105333622268379,1
714,411,31,0.123874431577406,1
714,412,31,0.126504048347632,1
714,413,31,0.123349387164128,1
714,414,31,0.120344993620318,1
714,415,31,0.112126886298349,1
714,416,31,0.104958745108159,1
715,421,31,0.127582870060163,1
715,422,31,0.133055458663862,1
715,423,31,0.134485209746944,1
715,436,31,0.112145390901544,1
716,422,31,0.226297577576784,1
716,423,31,0.319610904076688,2
716,424,31,0.216335520155807,1
717,422,31,0.22421979729752,2
717,423,31,0.401146692001577,2
717,424,31,0.328578375326625,2
718,423,31,0.223014198418067,2
693,392,32,0.142918836021866,1
693,393,32,0.132309440957087,1
694,391,32,0.154161191133388,1
694,392,32,0.159633433960897,1
694,393,32,0.185724411379615,1
694,394,32,0.141904852921978,1
695,391,32,0.163319084677332,1
695,392,32,0.16109566569769,1
695,393,32,0.211682755744324,1
695,394,32,0.181198781065314,1
696,391,32,0.162518858187235,1
696,392,32,0.163059752534896,1
696,393,32,0.19324340386186,1
696,394,32,0.162456863862605,1
697,391,32,0.158064792390175,1
697,392,32,0.17351104980239,1
697,393,32,0.187082709486162,1
697,394,32,0.145383450625079,1
698,392,32,0.186931114512062,1
698,393,32,0.186619168618406,1
698,394,32,0.144541831378828,1
699,392,32,0.201824386564039,1
699,393,32,0.171615850505471,1
699,394,32,0.132708098595917,1
700,392,32,0.200962444601077,1
700,393,32,0.14788276554206,1
700,394,32,0.110960594363839,1
701,393,32,0.135149445807769,1
702,393,32,0.140951391809396,1
705,394,32,0.113039166582119,1
706,394,32,0.126427888353285,1
706,395,32,0.122211928502229,1
706,396,32,0.124821189093532,1
707,395,32,0.172005841431412,1
707,396,32,0.178749704082506,1
707,397,32,0.108620180337229,1
708,395,32,0.163409410341394,1
708,396,32,0.155874545616624,1
708,397,32,0.109338558256952,1
709,396,32,0.108466722633332,1
709,446,32,0.11099394503506,1
709,447,32,0.152344393799015,1
710,445,32,0.106667437189867,1
710,446,32,0.16816172483336,1
711,399,32,0.111897592068153,1
711,400,32,0.12652121446235,1
711,401,32,0.125216444740816,1
711,402,32,0.121129660181868,1
711,444,32,0.107455427664469,1
711,445,32,0.141484556386103,1
712,400,32,0.15133010953922,1
712,401,32,0.173510759796553,1
712,402,32,0.208120725592819,1
712,403,32,0.193743552389465,1
712,404,32,0.136651263341272,1
712,405,32,0.113186980326272,1
712,406,32,0.117078133640222,1
712,442,32,0.112767375342776,1
712,444,32,0.108409156474746,1
713,401,32,0.113278421397398,1
713,402,32,0.159951971910302,1
713,403,32,0.197678507738828,1
713,404,32,0.19880491271672,1
713,405,32,0.224864926435335,1
713,406,32,0.280489072089294,3
713,407,32,0.229635567065367,1
713,408,32,0.112106385116508,1
714,403,32,0.145891485080627,1
714,404,32,0.222059209197807,1
714,405,32,0.299008956361796,3
714,406,32,0.381466538992712,3
714,407,32,0.315283057743018,3
714,408,32,0.151545137713064,1
714,410,32,0.112272301917313,1
714,411,32,0.125716693655056,1
714,412,32,0.124452446672165,1
714,413,32,0.118038331811472,1
714,414,32,0.10536558983484,1
715,406,32,0.240263879433955,3
715,407,32,0.214464558654394,1
715,408,32,0.124949683987332,1
715,410,32,0.118301389413502,1
715,411,32,0.13031321924236,1
715,412,32,0.13829779378729,1
715,413,32,0.142777324327626,1
715,414,32,0.132277183384789,1
715,415,32,0.10691214634569,1
715,421,32,0.108986290397925,1
715,422,32,0.117464164871084,1
715,423,32,0.112316583577764,1
715,436,32,0.117791414149661,1
715,439,32,0.135515533560323,1
716,421,32,0.132310935602553,1
716,422,32,0.197894963633714,1
716,423,32,0.25712370337275,2
716,424,32,0.177828255152668,1
716,428,32,0.114601494948857,1
716,429,32,0.132985879571195,1
716,430,32,0.110273470150056,1
716,435,32,0.12652086868616,1
717,422,32,0.202066139891142,2
717,423,32,0.341039769972724,2
717,424,32,0.285727804447904,2
718,423,32,0.242077085157582,2
693,392,33,0.11261343801384,1
693,393,33,0.105484771079654,1
694,391,33,0.161579964290912,1
694,392,33,0.143671981179781,1
694,393,33,0.160292684152145,1
694,394,33,0.128121187817506,1
695,391,33,0.173159317338753,1
695,392,33,0.154130294357709,1
695,393,33,0.194076233700445,1
695,394,33,0.175691235604222,1
696,392,33,0.147439112382259,1
696,393,33,0.177208546141847,1
696,394,33,0.166678824603667,1
697,392,33,0.146859044938501,1
697,393,33,0.164665102152102,1
697,394,33,0.145200233860707,1
698,392,33,0.171045275175831,1
698,393,33,0.168364661994628,1
698,394,33,0.1426325779529,1
699,392,33,0.204120853552317,1
699,393,33,0.160857983606372,1
699,394,33,0.135545426469645,1
700,393,33,0.133682228201399,1
700,394,33,0.114220706131196,1
701,393,33,0.121426871548206,1
706,395,33,0.150669654708343,1
706,396,33,0.159855511507387,1
707,395,33,0.188491792076345,1
707,396,33,0.196729006321324,1
707,397,33,0.119298284477165,1
708,396,33,0.142118576069557,1
709,446,33,0.108193012893838,1
709,447,33,0.158274678537453,1
710,446,33,0.182878584104057,1
711,400,33,0.105588303163357,1
711,401,33,0.123303053154679,1
711,402,33,0.131352655931454,1
711,403,33,0.104563679080077,1
711,442,33,0.109117027259924,1
712,400,33,0.119604909879125,1
712,401,33,0.166369310297411,1
712,402,33,0.222519091530393,1
712,403,33,0.201695066269011,1
712,404,33,0.140418160308266,1
712,405,33,0.111848826471304,1
712,406,33,0.107464518232042,1
712,441,33,0.107163860257877,1
712,442,33,0.122096907725764,1
713,401,33,0.109979381923499,1
713,402,33,0.163251591395875,1
713,403,33,0.207572101474202,1
713,404,33,0.237945572775359,1
713,405,33,0.254945647998411,3
713,406,33,0.261572058285641,3
713,407,33,0.200488039668515,1
713,441,33,0.113149000715734,1
714,403,33,0.1661586768274,1
714,404,33,0.296766073528883,3
714,405,33,0.366334369055717,3
714,406,33,0.380614546460764,3
714,407,33,0.302369142450956,3
714,408,33,0.157231739470178,1
714,409,33,0.10535342074377,1
714,410,33,0.115910291289893,1
714,411,33,0.121082244227568,1
714,412,33,0.112882005726768,1
715,405,33,0.226842766241643,3
715,406,33,0.273207627849519,3
715,407,33,0.26608220674989,4
715,408,33,0.165618395953624,1
715,409,33,0.124244802493086,1
715,410,33,0.137590893406258,1
715,411,33,0.140563285921394,1
715,412,33,0.133967315092948,1
715,413,33,0.123137894830677,1
715,414,33,0.107724118072173,1
715,436,33,0.118052597867824,1
715,437,33,0.14789804661884,1
715,438,33,0.14335281860242,1
716,421,33,0.139371428856973,1
716,422,33,0.179197305783314,1
716,423,33,0.191116969526454,1
716,424,33,0.142191624078194,1
716,428,33,0.131644725271225,1
716,429,33,0.146591871484404,1
716,430,33,0.107607334952547,1
716,435,33,0.12172300096969,1
716,436,33,0.159682578796147,1
717,422,33,0.210771847411243,1
717,423,33,0.277167679857828,2
694,392,34,0.123357306554284,1
694,393,34,0.124333733898318,1
695,392,34,0.141246595443018,1
695,393,34,0.16117466998005,1
695,394,34,0.147351697930634,1
696,392,34,0.131322606865143,1
696,393,34,0.156280319552524,1
696,394,34,0.159291148995094,1
696,395,34,0.111380009728134,1
697,393,34,0.139702403595144,1
697,394,34,0.139599953456294,1
697,395,34,0.114463887179342,1
698,393,34,0.139318848567965,1
698,394,34,0.12867670515178,1
698,395,34,0.104213497032259,1
699,392,34,0.192991344173484,1
699,393,34,0.143058128056048,1
699,394,34,0.127914469426291,1
700,393,34,0.126004457523559,1
700,394,34,0.116139529749736,1
701,393,34,0.115629275634129,1
701,394,34,0.105978372167792,1
701,450,34,0.108446634152105,1
702,394,34,0.104667121931214,1
702,450,34,0.108653274464825,1
706,395,34,0.162312552496633,1
706,396,34,0.177786951629079,1
706,397,34,0.121930243602226,1
707,395,34,0.183068192150907,1
707,396,34,0.194753419637286,1
707,397,34,0.126615789827327,1
708,396,34,0.129621332240413,1
709,446,34,0.105283518183054,1
709,447,34,0.161925060082517,1
710,446,34,0.186761070705118,1
711,401,34,0.11884604268297,1
711,402,34,0.129199541059071,1
711,442,34,0.112647145615321,1
712,401,34,0.151076042118128,1
712,402,34,0.199872491126044,1
712,403,34,0.179024584999417,1
712,404,34,0.132885325624354,1
712,405,34,0.10732921935515,1
712,441,34,0.110215357442009,1
712,442,34,0.118545027778544,1
713,402,34,0.151052161252882,1
713,403,34,0.188685449050838,1
713,404,34,0.233445396050263,1
713,405,34,0.247859310762313,3
713,406,34,0.214808483268582,3
713,407,34,0.151681908927281,1
713,441,34,0.112929600146199,1
714,403,34,0.167502039633358,1
714,404,34,0.303394469240687,3
714,405,34,0.369731765124541,3
714,406,34,0.336766734742191,3
714,407,34,0.261773500801442,3
714,408,34,0.16260332796421,1
714,409,34,0.116577806647487,1
714,410,34,0.111492576609057,1
714,411,34,0.108617715287618,1
715,405,34,0.236741535465795,3
715,406,34,0.289031595555897,3
715,407,34,0.32181626461596,4
715,408,34,0.231115890704742,4
715,409,34,0.158150779120758,1
715,410,34,0.149102875867419,1
715,411,34,0.147620644881964,1
715,412,34,0.128009624802941,1
715,413,34,0.104969642635177,1
715,417,34,0.11150634073223,1
715,418,34,0.10788657711108,1
715,436,34,0.106329033840647,1
715,437,34,0.135051490759388,1
716,407,34,0.308302461096609,4
716,409,34,0.140376265618934,1
716,416,34,0.113126123716847,1
716,417,34,0.14890738962534,1
716,418,34,0.137692027364772,1
716,420,34,0.107621723703676,1
716,421,34,0.147659851440272,1
716,422,34,0.165331914803245,1
716,423,34,0.143632228072012,1
716,424,34,0.114867240681912,1
716,428,34,0.126411770721207,1
716,429,34,0.125971742634365,1
717,422,34,0.233556267512449,1
695,393,35,0.128027649781099,1
696,393,35,0.130981080376144,1
696,394,35,0.135334413761232,1
696,395,35,0.10616811406349,1
697,393,35,0.117812004564067,1
697,394,35,0.130075626383607,1
697,395,35,0.125974218838047,1
698,393,35,0.115658142368951,1
698,394,35,0.114874223130134,1
698,395,35,0.116228762314875,1
699,393,35,0.127656063071719,1
699,394,35,0.113245628429709,1
700,394,35,0.111211215177103,1
701,394,35,0.11222883450402,1
701,395,35,0.106008287385255,1
701,450,35,0.12229078778167,1
702,449,35,0.107947032173961,1
702,450,35,0.112041613428287,1
706,395,35,0.153087132209021,1
706,396,35,0.167920428823154,1
706,397,35,0.129911170766055,1
707,396,35,0.17913177561829,1
707,397,35,0.129548083458504,1
709,446,35,0.103116984963688,1
709,447,35,0.156372831414432,1
710,446,35,0.177989119159472,1
711,401,35,0.109866647731516,1
711,402,35,0.117537145955298,1
711,442,35,0.106233532687807,1
712,401,35,0.132143568772564,1
712,402,35,0.160548480454187,1
712,403,35,0.149882735024522,1
712,404,35,0.125960622025934,1
712,405,35,0.108189856291846,1
712,441,35,0.106300367879096,1
712,442,35,0.109582943944727,1
713,402,35,0.139881906053992,1
713,403,35,0.16992411261114,1
713,404,35,0.209340200136151,1
713,405,35,0.225337055937486,1
713,406,35,0.175751902594446,1
713,407,35,0.116851371384062,1
713,441,35,0.106662395549936,1
714,403,35,0.169415475835777,1
714,404,35,0.266002098214537,1
714,405,35,0.326357555245443,3
714,406,35,0.282251192169378,3
714,407,35,0.220764444677639,4
714,408,35,0.164118351917354,1
714,409,35,0.12400455496552,1
714,410,35,0.105158168737174,1
715,405,35,0.23989655357956,1
715,406,35,0.287720434551884,4
715,407,35,0.339041652065988,4
715,408,35,0.276033377797921,4
715,409,35,0.182456893309351,1
715,410,35,0.155002854995922,1
715,411,35,0.156807003614187,1
715,412,35,0.13176028144308,1
715,417,35,0.121687486408765,1
715,418,35,0.108753873027949,1
716,406,35,0.242349222173115,4
716,407,35,0.359080475370429,4
716,408,35,0.288041694094526,4
716,409,35,0.164089964807569,1
716,410,35,0.128437573031278,1
716,412,35,0.128784040773571,1
716,415,35,0.112624937860672,1
716,416,35,0.158305731470122,1
716,417,35,0.203178624588872,1
716,418,35,0.175646028155908,1
716,419,35,0.128133457295213,1
716,420,35,0.130644383599733,1
716,421,35,0.159049194894719,1
716,422,35,0.155838451044025,1
716,423,35,0.117199322617752,1
716,428,35,0.10481152252975,1
717,407,35,0.196888063368685,4
717,417,35,0.178810147991317,1
717,418,35,0.154698371175526,1
717,421,35,0.218248287113988,1
717,422,35,0.251021623638278,1
717,425,35,0.12482983349828,1
717,426,35,0.1161333503946,1
697,394,36,0.11356929725161,1
697,395,36,0.121591505630887,1
698,394,36,0.104067969872587,1
698,395,36,0.122649000760351,1
701,450,36,0.115904033856263,1
702,449,36,0.108319589287488,1
706,396,36,0.141866438302686,1
706,397,36,0.123648059713719,1
707,396,36,0.151169357073122,1
707,397,36,0.124813838560979,1
711,402,36,0.104447989059374,1
712,402,36,0.134027268222651,1
712,403,36,0.132862995174928,1
712,404,36,0.125158934352583,1
712,405,36,0.114287351703285,1
713,403,36,0.1633513534037,1
713,404,36,0.187204121545105,1
713,405,36,0.199174090146842,1
713,406,36,0.152586794062215,1
714,404,36,0.22717990918088,1
714,405,36,0.273919659103047,1
714,406,36,0.245521372939386,4
714,407,36,0.197088747407682,4
714,408,36,0.161450019367928,1
714,409,36,0.128055746885047,1
714,410,36,0.104709708172927,1
715,405,36,0.258849394258116,4
715,406,36,0.306371535311423,4
715,407,36,0.335634351182434,4
715,408,36,0.28426903047301,4
715,409,36,0.195375526773294,1
715,410,36,0.161079146519069,1
715,411,36,0.159946841037807,1
715,412,36,0.133509708190773,1
715,413,36,0.104212403933336,1
715,416,36,0.11032613967163,1
715,417,36,0.119678013658115,1
716,406,36,0.277705060673237,4
716,407,36,0.370589044685973,4
716,408,36,0.312774395714838,4
716,409,36,0.190059585937697,1
716,410,36,0.145456944796541,1
716,411,36,0.153805498974673,1
716,412,36,0.144340556174086,1
716,413,36,0.128903411637586,1
716,414,36,0.126033056560686,1
716,415,36,0.153980762886677,1
716,416,36,0.209856075903361,1
716,417,36,0.242907327251777,1
716,418,36,0.191236808861436,1
716,419,36,0.138166142291498,1
716,420,36,0.138599935252851,1
716,421,36,0.155520504260364,1
716,422,36,0.137927244406479,1
717,407,36,0.211150639650258,4
717,416,36,0.190743352776217,1
717,417,36,0.229252536279507,1
717,418,36,0.182896776393275,1
717,420,36,0.176770592712144,1
717,421,36,0.23911467553567,1
717,422,36,0.237969442486533,1
717,423,36,0.1698359062205,1
717,424,36,0.121792758527488,1
717,425,36,0.108016789731759,1
717,426,36,0.111561051448731,1
718,421,36,0.171148550715908,1
718,422,36,0.203637436130676,1
698,395,37,0.118754088524594,1
698,396,37,0.105541433758518,1
702,449,37,0.103252506921993,1
706,396,37,0.113171710403562,1
706,397,37,0.109090837502056,1
707,397,37,0.115015745978444,1
712,402,37,0.118932297111247,1
712,403,37,0.12326382428823,1
712,404,37,0.127553568316586,1
712,405,37,0.120302329300111,1
713,403,37,0.166013885836392,1
713,404,37,0.178354727286988,1
713,405,37,0.177344614649614,1
713,406,37,0.138546998033582,1
714,404,37,0.212066366541857,1
714,405,37,0.234589736773748,1
714,406,37,0.221219329986577,4
714,407,37,0.185555148357617,4
714,408,37,0.154871482351896,1
714,409,37,0.128475017246424,1
714,410,37,0.106377319812458,1
715,405,37,0.282349637996868,4
715,406,37,0.328929639319295,4
715,407,37,0.31487887883922,4
715,408,37,0.259092530689979,4
715,409,37,0.201604718296807,1
715,410,37,0.168558441663898,1
715,411,37,0.154900828711756,1
715,412,37,0.132350878329524,1
715,413,37,0.110038152721714,1
715,415,37,0.104575156618768,1
715,416,37,0.108911078499583,1
715,417,37,0.107370455954315,1
716,405,37,0.243434937101303,4
716,406,37,0.313193989544263,4
716,407,37,0.344750305420762,4
716,408,37,0.29970026335207,4
716,409,37,0.224685591287547,1
716,410,37,0.170630656061912,1
716,411,37,0.159467996785129,1
716,412,37,0.152999963146951,1
716,413,37,0.141926971444062,1
716,414,37,0.15149888178211,1
716,415,37,0.184386157138012,1
716,416,37,0.229143962555874,1
716,417,37,0.245851778819955,1
716,418,37,0.18520585863545,1
716,419,37,0.132593445903784,1
716,420,37,0.126243455795213,1
716,421,37,0.133669791412633,1
716,422,37,0.112613449167911,1
717,406,37,0.168500183952933,4
717,407,37,0.211360492335324,4
717,412,37,0.121735616223587,1
717,415,37,0.16181104317241,1
717,416,37,0.221005662609351,1
717,417,37,0.259373858659722,1
717,418,37,0.197870446986442,1
717,419,37,0.148222027754719,1
717,420,37,0.175060673682666,1
717,421,37,0.219424996950477,1
717,422,37,0.195768997769275,1
717,423,37,0.13937450738047,1
718,420,37,0.113312999016389,1
718,421,37,0.156085312935483,1
718,422,37,0.163914555892646,1
700,397,38,0.117255126433175,1
701,397,38,0.115809536569781,1
701,398,38,0.10952447430642,1
712,403,38,0.122867877088566,1
712,404,38,0.138374009551989,1
712,405,38,0.130971164407343,1
713,404,38,0.187798968132463,1
713,405,38,0.17063809582703,1
713,406,38,0.133558284168421,1
713,407,38,0.10857227360382,1
714,405,38,0.220470177985951,1
714,406,38,0.210309087328431,4
714,407,38,0.183849612877901,1
714,408,38,0.152334879376757,1
714,409,38,0.136274222291348,1
714,410,38,0.120670224012109,1
715,405,38,0.295367107680773,4
715,406,38,0.338926363591828,4
715,407,38,0.299994641584463,4
715,408,38,0.23526571807096,1
715,409,38,0.218808154535812,1
715,410,38,0.192296110950344,1
715,411,38,0.153609086944731,1
715,412,38,0.12386477215223,1
715,413,38,0.107441987009345,1
715,414,38,0.103560214268805,1
716,405,38,0.285476391695625,4
716,406,38,0.327977126302717,4
716,407,38,0.313184330119087,4
716,408,38,0.27831128441265,4
716,409,38,0.272737327614954,1
716,410,38,0.215264394752019,1
716,411,38,0.168709668553668,1
716,412,38,0.154266329403263,1
716,413,38,0.145327133722405,1
716,414,38,0.165161949074797,1
716,415,38,0.202952821582788,1
716,416,38,0.230284443970917,1
716,417,38,0.223729018189255,1
716,418,38,0.164483569652397,1
716,419,38,0.113479440058515,1
716,421,38,0.103259589756851,1
717,406,38,0.17794237244941,4
717,407,38,0.211868627177509,4
717,412,38,0.152244732177825,1
717,413,38,0.146928356333473,1
717,414,38,0.165280316072454,1
717,415,38,0.218787921051666,1
717,416,38,0.27772527184924,5
717,417,38,0.279336745051229,1
717,418,38,0.198925666685495,1
717,420,38,0.151503666878416,1
717,421,38,0.177121800934461,1
717,422,38,0.14812534427039,1
700,397,39,0.126348326367393,1
700,398,39,0.107331706712903,1
701,397,39,0.145002048333533,1
701,398,39,0.149451719426759,1
702,397,39,0.110612208121395,1
702,398,39,0.120201708428846,1
711,404,39,0.115902617289291,1
711,405,39,0.111625343511914,1
712,403,39,0.13252845113415,1
712,404,39,0.159877395793987,1
712,405,39,0.149760943727178,1
712,406,39,0.109043399239614,1
713,404,39,0.204189094156507,1
713,405,39,0.176542413889013,1
713,406,39,0.135712179825748,1
713,407,39,0.119800652664828,1
713,408,39,0.110871484493477,1
714,405,39,0.220697297172372,1
714,406,39,0.209162091936133,4
714,407,39,0.195016432623033,1
714,408,39,0.164955598767912,1
714,409,39,0.152298327487262,1
714,410,39,0.137550627211239,1
715,403,39,0.274007263173872,5
715,404,39,0.272551255408497,5
715,405,39,0.285416985115383,4
715,406,39,0.320745763840127,4
715,407,39,0.295894405216322,4
715,408,39,0.237923576948052,1
715,409,39,0.242370816453878,1
715,410,39,0.220372312170135,1
715,411,39,0.156814833771778,1
715,412,39,0.118876247906269,1
715,413,39,0.106179390828909,1
716,404,39,0.303294640308438,5
716,406,39,0.306799048531004,4
716,407,39,0.286764441465267,4
716,409,39,0.303995517491323,5
716,410,39,0.262006420104597,1
716,411,39,0.190740140403872,1
716,412,39,0.168435523805419,1
716,413,39,0.161410388954936,1
716,414,39,0.176149467134352,1
716,415,39,0.208721305372488,1
716,416,39,0.214572596982637,5
716,417,39,0.179836958272443,1
716,418,39,0.132168565044874,1
717,412,39,0.200598152653897,1
717,413,39,0.196156847113652,1
717,414,39,0.215348920299347,1
717,415,39,0.29736263784312,5
717,416,39,0.339019834703812,5
717,417,39,0.263665699653358,5
718,415,39,0.265437546083043,5
718,416,39,0.296966601410892,5
700,397,40,0.115024981548936,1
700,449,40,0.10345959339754,1
701,397,40,0.153523646763611,1
701,398,40,0.15899972659142,1
702,397,40,0.141368342124079,1
702,398,40,0.153909287602001,1
711,402,40,0.104172528130789,1
711,403,40,0.112398097526018,1
711,404,40,0.135297873025808,1
711,405,40,0.133924483461681,1
711,406,40,0.10517580332286,1
712,403,40,0.155028977829366,1
712,404,40,0.195926024775779,1
712,405,40,0.183285439984809,1
712,406,40,0.129477110107007,1
712,407,40,0.111595372524097,1
712,408,40,0.113809020537856,1
713,404,40,0.228679350897336,1
713,405,40,0.201293675882874,1
713,406,40,0.153665682699171,1
713,407,40,0.143606361782192,1
713,408,40,0.143776673286831,1
713,409,40,0.130863750707057,1
713,410,40,0.107735963695195,1
714,401,40,0.279954836721806,5
714,402,40,0.303132950900406,5
714,403,40,0.266299688819276,5
714,404,40,0.258013664361165,5
714,406,40,0.216999098126464,1
714,407,40,0.222903036950045,1
714,408,40,0.203415983212142,1
714,409,40,0.187803095138601,1
714,410,40,0.161528733644452,1
714,411,40,0.118863521111666,1
715,401,40,0.252145619336911,1
715,402,40,0.272881482823936,5
715,403,40,0.296673985521659,5
715,404,40,0.30065092479292,5
715,405,40,0.27193889693023,5
715,406,40,0.285799078959309,4
715,408,40,0.275145736856199,5
715,409,40,0.278392642203916,5
715,410,40,0.248384979803547,1
715,411,40,0.168223038759682,1
715,412,40,0.125037555755853,1
715,413,40,0.111572763222905,1
716,403,40,0.307434272854088,5
716,404,40,0.326698802882676,5
716,405,40,0.273550927835751,5
716,408,40,0.264843524896912,5
716,409,40,0.311522038971252,5
716,410,40,0.30368309197263,5
716,411,40,0.225941405793032,1
716,412,40,0.19547078253658,1
716,413,40,0.203867031520779,1
716,414,40,0.195187156828286,1
716,415,40,0.207954641480954,5
716,416,40,0.196605218445335,5
716,417,40,0.138071533464309,1
717,404,40,0.205155817459083,5
717,409,40,0.259172973847452,5
717,410,40,0.275882061675586,5
717,411,40,0.247612917341823,5
717,412,40,0.256537467727927,5
717,413,40,0.286064278142903,5
717,414,40,0.287774442561935,5
717,415,40,0.371918476057698,5
717,416,40,0.387334606325108,5
717,417,40,0.234576887284368,5
718,413,40,0.253752474753653,5
718,414,40,0.250081848570374,5
718,415,40,0.34602144561931,5
718,416,40,0.36933865105882,5
718,417,40,0.210847605859046,5
719,415,40,0.163887674582398,5
719,416,40,0.167327378041169,5
700,449,41,0.12669570874348,1
701,397,41,0.135275263724615,1
701,398,41,0.133298115470687,1
702,398,41,0.156039447397001,1
707,400,41,0.117326624025993,1
707,445,41,0.107812469465732,1
707,446,41,0.114894211224725,1
708,400,41,0.132358820027821,1
708,401,41,0.117207297778261,1
708,444,41,0.10884522486651,1
708,445,41,0.141500740942605,1
709,401,41,0.121861467602645,1
709,444,41,0.156423403970724,1
711,403,41,0.128268020003443,1
711,404,41,0.145037384429328,1
711,405,41,0.147463695953955,1
711,406,41,0.132177488301388,1
711,407,41,0.120358456583583,1
711,408,41,0.113594550067545,1
712,404,41,0.223935881583389,1
712,405,41,0.210677617822456,1
712,406,41,0.157246295532366,1
712,407,41,0.139979035701146,1
712,408,41,0.151531306665467,1
712,409,41,0.146448340903378,1
712,410,41,0.107676624039378,1
713,401,41,0.245141197595611,5
713,402,41,0.24225035249094,5
713,405,41,0.228205704441578,1
713,406,41,0.180424331632471,1
713,407,41,0.171065687125106,1
713,408,41,0.177914866511206,1
713,409,41,0.171119315896755,1
713,410,41,0.140821993435874,1
713,411,41,0.116979174725483,1
714,400,41,0.235823376986797,5
714,401,41,0.304542290034213,5
714,402,41,0.307910507054236,5
714,403,41,0.279107528899528,5
714,404,41,0.278645125746977,5
714,407,41,0.246476719089906,1
714,408,41,0.249497241419865,5
714,409,41,0.230478904038496,5
714,410,41,0.185908944324323,1
714,411,41,0.142431492367359,1
714,412,41,0.113970274937133,1
715,400,41,0.255106712778487,1
715,401,41,0.292526009731168,5
715,402,41,0.287364530465827,5
715,403,41,0.313002362610627,5
715,404,41,0.339777843036527,5
715,405,41,0.27468215137216,5
715,407,41,0.295227860262874,5
715,408,41,0.315695758356786,5
715,409,41,0.310641915873144,5
715,410,41,0.26499559949605,5
715,411,41,0.184307889024314,1
715,412,41,0.13830943863704,1
715,413,41,0.119767480458737,1
716,401,41,0.226036616940035,1
716,402,41,0.230899300961008,5
716,403,41,0.2954658435141,5
716,404,41,0.329569035264799,5
716,405,41,0.256930938723908,5
716,408,41,0.270948750079305,5
716,409,41,0.310727757600808,5
716,410,41,0.335513061818269,5
716,411,41,0.269185336127026,5
716,412,41,0.222573590319552,5
716,413,41,0.247472197586598,5
716,414,41,0.218581570744782,5
716,415,41,0.196204943466262,5
716,416,41,0.165838041912714,5
717,404,41,0.217192442786979,5
717,409,41,0.268180867449397,5
717,410,41,0.339329449396703,5
717,411,41,0.313492316317665,5
717,412,41,0.29896527702116,5
717,413,41,0.371784091814599,5
717,414,41,0.360601444443225,5
717,415,41,0.39429479102224,5
717,416,41,0.364008053774399,5
717,417,41,0.189531507617204,5
718,410,41,0.238385556245918,5
718,411,41,0.256068996760947,5
718,412,41,0.278089296098725,5
718,413,41,0.302035925744586,5
718,414,41,0.294214156014752,5
718,415,41,0.37082531021032,5
718,416,41,0.366015697257464,5
718,417,41,0.196055211221959,5
719,413,41,0.210871587110927,5
719,414,41,0.159236850979207,5
719,415,41,0.175473887383684,5
719,416,41,0.171911634150766,5
707,401,42,0.139768067609016,1
707,402,42,0.106124300874006,1
707,445,42,0.117638458378942,1
708,401,42,0.166634331015874,1
708,402,42,0.126464663324193,1
708,444,42,0.107039693143486,1
709,402,42,0.116817072616837,1
710,405,42,0.107268864678904,1
710,406,42,0.120439691680072,1
710,407,42,0.111746688646432,1
711,404,42,0.144986164936938,1
711,405,42,0.157796882767416,1
711,406,42,0.166001426739484,1
711,407,42,0.156613380101905,1
711,408,42,0.147663063812617,1
711,409,42,0.14402617869303,1
711,410,42,0.103540594258545,1
712,405,42,0.228951086366326,1
712,406,42,0.198378091049519,1
712,407,42,0.17861121514141,1
712,408,42,0.18414564191275,1
712,409,42,0.191771691165021,1
712,410,42,0.148372038850788,1
713,401,42,0.261782401749815,5
713,402,42,0.256729050045281,5
713,403,42,0.266440475498924,5
713,404,42,0.274642442880673,5
713,406,42,0.211415928066417,1
713,407,42,0.207675700482329,1
713,408,42,0.221443236800652,5
713,409,42,0.218645907424248,1
713,410,42,0.177872726432319,1
713,411,42,0.135816671159526,1
714,400,42,0.238798078394556,5
714,401,42,0.336297126060005,5
714,402,42,0.315178276403403,5
714,403,42,0.290905947894785,5
714,404,42,0.296488604867583,5
714,405,42,0.255819413276253,5
714,407,42,0.275989899230557,5
714,408,42,0.318085272602363,5
714,409,42,0.288016418970451,5
714,410,42,0.210497814203701,1
714,411,42,0.155860959958582,1
714,412,42,0.132239850710349,1
715,400,42,0.258163998925283,5
715,401,42,0.3487806726904,5
715,402,42,0.315398033903199,5
715,403,42,0.315415032706858,5
715,404,42,0.364609035100611,5
715,405,42,0.299510644151149,5
715,406,42,0.235887557509273,5
715,407,42,0.288886815718959,5
715,408,42,0.352757701194226,5
715,409,42,0.340790811115986,5
715,410,42,0.274975949592881,5
715,411,42,0.194832658155129,5
715,412,42,0.145438306344498,1
715,413,42,0.11960187597191,1
716,401,42,0.272901738616222,5
716,402,42,0.252809085766862,5
716,403,42,0.273767629120191,5
716,404,42,0.324011118020686,5
716,405,42,0.269653606320735,5
716,408,42,0.282130862055288,5
716,409,42,0.331093819029755,5
716,410,42,0.368082881169618,5
716,411,42,0.306120858727806,5
716,412,42,0.229271275118186,5
716,413,42,0.246974436030111,5
716,414,42,0.222380959519558,5
716,415,42,0.178902459079953,5
716,416,42,0.133039999121952,1
717,404,42,0.225262524437453,5
717,409,42,0.280891800963908,5
717,410,42,0.377616555353503,5
717,411,42,0.360038520806045,5
717,412,42,0.312376240009187,5
717,413,42,0.385065332961055,5
717,414,42,0.396493659892398,5
717,415,42,0.380410739281987,5
717,416,42,0.298967820149266,5
718,402,42,0.252719005492354,5
718,410,42,0.249537418382319,5
718,411,42,0.277071308687477,5
718,412,42,0.289173096096066,5
718,413,42,0.314471175249099,5
718,414,42,0.333207426183922,5
718,415,42,0.374270869556178,5
718,416,42,0.319972987517881,5
719,412,42,0.279436507059054,5
719,413,42,0.223451571836097,5
719,414,42,0.189073343011497,5
719,415,42,0.200811619257851,5
707,402,43,0.159956980088021,1
707,403,43,0.135051546529741,1
707,404,43,0.117073203540998,1
708,402,43,0.196574299361514,1
708,403,43,0.151540653776666,1
708,404,43,0.11734687981828,1
709,404,43,0.10523639223459,1
710,405,43,0.128103463999255,1
710,406,43,0.141422751680673,1
710,407,43,0.128093224562406,1
710,408,43,0.116860963884815,1
710,409,43,0.108619221087154,1
711,405,43,0.171144312169064,1
711,406,43,0.202180246033813,1
711,407,43,0.190066189147518,1
711,408,43,0.175863186757245,1
711,409,43,0.181991679330998,1
711,410,43,0.148612174837648,1
712,403,43,0.221621880396061,1
712,406,43,0.251150185456502,1
712,407,43,0.230712916440574,1
712,408,43,0.213648638386904,1
712,409,43,0.22652565601328,1
712,410,43,0.199792650288386,1
712,411,43,0.124682398992529,1
713,401,43,0.253005464334591,5
713,402,43,0.268458782273523,5
713,403,43,0.295511887517712,5
713,404,43,0.289671415356086,5
713,407,43,0.249955852188397,5
713,408,43,0.269225178467361,5
713,409,43,0.265997971208399,5
713,410,43,0.221435919730311,1
713,411,43,0.149862122301975,1
713,412,43,0.1032491607008,1
714,400,43,0.233883751026509,5
714,401,43,0.327651137434123,5
714,402,43,0.309799962004774,5
714,403,43,0.295493081754608,5
714,404,43,0.306864366768686,5
714,405,43,0.273772536911274,5
714,406,43,0.244424503940555,5
714,407,43,0.297495505132613,5
714,408,43,0.374715113881723,5
714,409,43,0.336863752848638,5
714,410,43,0.237490352844301,5
714,411,43,0.163350539156543,1
714,412,43,0.139723060933974,1
715,400,43,0.254426403701866,5
715,401,43,0.368735929697588,5
715,402,43,0.327996802083331,5
715,403,43,0.295184671701346,5
715,404,43,0.35410917300954,5
715,405,43,0.333553291606401,5
715,406,43,0.250544407879914,5
715,407,43,0.280629836460801,5
715,408,43,0.367036004715406,5
715,409,43,0.359387123080529,5
715,410,43,0.283721744842871,5
715,411,43,0.198326983097835,5
716,400,43,0.224629107073813,5
716,401,43,0.300368816038233,5
716,402,43,0.275362036594096,5
716,403,43,0.25554223462079,5
716,404,43,0.315337154985633,5
716,405,43,0.311119555486192,5
716,406,43,0.221538336406949,5
716,407,43,0.218413835830462,5
716,408,43,0.296553543866863,5
716,409,43,0.375234492027115,5
716,410,43,0.400696379861602,5
716,411,43,0.32181818311611,5
716,412,43,0.227956901741829,5
716,413,43,0.210271721191779,5
716,414,43,0.196166082684144,5
716,415,43,0.147235952139578,5
717,401,43,0.258447223087034,5
717,402,43,0.290283639985505,5
717,404,43,0.230114969021577,5
717,405,43,0.212167266264888,5
717,408,43,0.212545389259665,5
717,409,43,0.302824384690155,5
717,410,43,0.385231483997344,5
717,411,43,0.370294733378003,5
717,412,43,0.316326855673732,5
717,413,43,0.334210043285825,5
717,414,43,0.368075921029537,5
717,415,43,0.32510734008342,5
717,416,43,0.21227807080265,5
718,400,43,0.244575440824487,5
718,401,43,0.272724455817432,5
718,402,43,0.35981497092223,5
718,403,43,0.299445325913467,5
718,409,43,0.190274391030128,5
718,410,43,0.240901847658417,5
718,411,43,0.275709686667878,5
718,412,43,0.292253248087679,5
718,413,43,0.30539026710073,5
718,414,43,0.367738822706583,5
718,415,43,0.374229532570377,5
718,416,43,0.257080670968212,5
719,402,43,0.234437974488588,5
719,412,43,0.248899182460161,5
719,413,43,0.23235544257523,5
719,414,43,0.249129134780525,5
719,415,43,0.251703382744082,5
711,406,44,0.228604596315891,1
711,407,44,0.207000946132888,1
711,408,44,0.188600566573249,1
711,409,44,0.205622079920076,1
712,402,44,0.195353530945987,1
712,403,44,0.211210960864292,1
712,404,44,0.208593457414784,1
712,407,44,0.278993378140574,5
712,408,44,0.241441414671672,5
712,409,44,0.256933838782275,5
712,410,44,0.272704958501949,1
713,401,44,0.229841538133849,5
713,402,44,0.268661674818508,5
713,403,44,0.300082736434397,5
713,404,44,0.276541713413377,5
713,405,44,0.249191240645862,1
713,406,44,0.26837626445891,5
713,407,44,0.285231961391568,5
713,408,44,0.307793367004349,5
713,409,44,0.307040444927847,5
713,410,44,0.268711176584019,5
713,411,44,0.169521539893515,1
714,400,44,0.245687144737273,5
714,401,44,0.299309134710924,5
714,402,44,0.297932566236664,5
714,403,44,0.298196203850367,5
714,404,44,0.296486976373269,5
714,405,44,0.281364488169591,5
714,406,44,0.259659469792591,5
714,407,44,0.300625961982823,5
714,408,44,0.390243498716077,5
714,409,44,0.363496305013326,5
714,410,44,0.257502651768755,5
715,400,44,0.278089853802258,5
715,401,44,0.361664494299868,5
715,402,44,0.318729554030809,5
715,403,44,0.272951284998016,5
715,404,44,0.312861665163544,5
715,405,44,0.342315617189083,5
715,406,44,0.262995183850762,5
715,407,44,0.263714019087381,5
715,408,44,0.354218103663434,5
715,409,44,0.367563213018389,5
715,410,44,0.285435634721498,5
715,411,44,0.194059190280503,5
716,400,44,0.236098057130436,5
716,401,44,0.315979495605787,5
716,402,44,0.292817420980771,5
716,403,44,0.253721243355855,5
716,404,44,0.30029479762545,5
716,405,44,0.33932244464034,5
716,406,44,0.237304526027399,5
716,407,44,0.210568508703432,5
716,408,44,0.305605629896693,5
716,409,44,0.414535993784416,5
716,410,44,0.40259538269661,5
716,411,44,0.305336303706962,5
716,412,44,0.222112547963619,5
717,400,44,0.232502653999569,5
717,401,44,0.272727400492082,5
717,402,44,0.309731520627312,5
717,403,44,0.273317116206945,5
717,404,44,0.231736681660415,5
717,405,44,0.218325294817703,5
717,408,44,0.215562453827725,5
717,409,44,0.320636788569951,5
717,410,44,0.365321869447225,5
717,411,44,0.351823391620937,5
717,412,44,0.322459207555928,5
717,413,44,0.279009997705831,5
717,414,44,0.3016972435436,5
717,415,44,0.257922401755169,5
718,399,44,0.297529391199224,5
718,400,44,0.317853691787686,5
718,401,44,0.305184206799682,5
718,402,44,0.387835022550408,5
718,403,44,0.325974502151442,5
718,404,44,0.20246112784073,5
718,409,44,0.188688929120878,5
718,410,44,0.225562658170299,5
718,411,44,0.261735220030998,5
718,412,44,0.298084551603237,5
718,413,44,0.306295576090348,5
718,414,44,0.394508235318053,5
718,415,44,0.368679133169877,5
718,416,44,0.205861870130746,5
719,400,44,0.288978279098226,5
719,401,44,0.229350402095323,5
719,402,44,0.268678495157036,5
719,403,44,0.21439033946834,5
719,413,44,0.257887957985025,5
719,414,44,0.334015560910104,5
719,415,44,0.307672969965836,5
720,414,44,0.194886130769789,5
711,407,45,0.204569537197978,5
711,409,45,0.218749104885831,5
712,402,45,0.196676649113729,1
712,403,45,0.200372706578073,1
712,406,45,0.302326935447645,5
712,407,45,0.305306009251097,5
712,408,45,0.268928502496415,5
712,409,45,0.284673343225656,5
712,410,45,0.316325762574809,5
713,401,45,0.217103143297416,1
713,402,45,0.273341811319347,5
713,403,45,0.298411410489342,5
713,404,45,0.248964723779256,5
713,405,45,0.239721546211181,5
713,406,45,0.296255239401603,5
713,407,45,0.32655649924942,5
713,408,45,0.341017729529135,5
713,409,45,0.330087610317105,5
713,410,45,0.285948677354765,5
714,400,45,0.266364248580154,5
714,401,45,0.274789364299175,5
714,402,45,0.301529530937421,5
714,403,45,0.320752010119687,5
714,404,45,0.289134324546513,5
714,405,45,0.292019771080993,5
714,406,45,0.295457790275096,5
714,407,45,0.304033218250094,5
714,408,45,0.369636710134526,5
714,409,45,0.356543035839992,5
714,410,45,0.260660525324604,5
715,399,45,0.218501819139689,5
715,400,45,0.312464781021947,5
715,401,45,0.333189111199927,5
715,402,45,0.298025702726528,5
715,403,45,0.27213770708536,5
715,404,45,0.285532452054673,5
715,405,45,0.333975517796498,5
715,406,45,0.283518339210636,5
715,407,45,0.250501665481212,5
715,408,45,0.330695685632245,5
715,409,45,0.364690325967453,5
715,410,45,0.283385070374601,5
715,411,45,0.187783687055683,5
716,400,45,0.258325041397218,5
716,401,45,0.31995161631853,5
716,402,45,0.303904790280718,5
716,403,45,0.270002193336451,5
716,404,45,0.287881744721515,5
716,405,45,0.333452503424077,5
716,406,45,0.255833757411099,5
716,407,45,0.212343835203157,5
716,408,45,0.314888092101571,5
716,409,45,0.427641491393831,5
716,410,45,0.376139711784169,5
716,411,45,0.269639061412618,5
717,400,45,0.234451470914065,5
717,401,45,0.278997215140875,5
717,402,45,0.317433540254729,5
717,403,45,0.29536289144207,5
717,404,45,0.241191251175304,5
717,405,45,0.221382134801673,5
717,408,45,0.227180422268129,5
717,409,45,0.331717576968218,5
717,410,45,0.340427500727022,5
717,411,45,0.315665776214899,5
717,412,45,0.301594603785549,5
717,413,45,0.231770433878178,5
717,414,45,0.222960748111549,5
718,399,45,0.281957103942821,5
718,400,45,0.333220364905867,5
718,401,45,0.307893307477305,5
718,402,45,0.354855692649494,5
718,403,45,0.311642101387647,5
718,409,45,0.200526677369221,5
718,410,45,0.221904413005432,5
718,411,45,0.24254499842103,5
718,412,45,0.284969149179092,5
718,413,45,0.302608486498801,5
718,414,45,0.374375762436499,5
718,415,45,0.31708890178002,5
719,400,45,0.324300499229432,5
719,401,45,0.264281158963264,5
719,402,45,0.277327941544817,5
719,413,45,0.284828206342454,5
719,414,45,0.389041089900828,5
719,415,45,0.322051124727406,5
719,416,45,0.174178554005913,5
720,414,45,0.259908004794644,5
720,415,45,0.195188584549328,5
711,407,46,0.198911389475072,5
711,408,46,0.203184603170736,5
711,409,46,0.247961749747093,5
711,410,46,0.239083377213447,5
712,402,46,0.210573037256113,1
712,403,46,0.203675404587143,1
712,406,46,0.289085715106654,5
712,407,46,0.313664445935818,5
712,408,46,0.312050050367321,5
712,409,46,0.346362135553011,5
712,410,46,0.338073367193522,5
712,411,46,0.199847684472936,5
713,401,46,0.229367200125711,1
713,402,46,0.280811313190153,5
713,403,46,0.291681021955583,5
713,404,46,0.226928563353024,1
713,405,46,0.237098064179809,5
713,406,46,0.330564290680078,5
713,407,46,0.376766570554271,5
713,408,46,0.377656308461273,5
713,409,46,0.362708849934115,5
713,410,46,0.292030255907397,5
714,400,46,0.295001744942811,5
714,401,46,0.279160756124633,5
714,402,46,0.305728703912161,5
714,403,46,0.325928212758276,5
714,404,46,0.274580113933924,5
714,405,46,0.289022605374959,5
714,406,46,0.329280278684009,5
714,407,46,0.319795503945819,5
714,408,46,0.33995430043409,5
714,409,46,0.338390165107908,5
714,410,46,0.255310876887525,5
715,399,46,0.226184519916753,5
715,400,46,0.335639861293331,5
715,401,46,0.308692095092289,5
715,402,46,0.274313531645571,5
715,403,46,0.271487246301779,5
715,404,46,0.269842846283254,5
715,405,46,0.305858804992134,5
715,406,46,0.288341872443654,5
715,407,46,0.244537918530846,5
715,408,46,0.307738801290767,5
715,409,46,0.361960478718435,5
715,410,46,0.287870367569459,5
715,411,46,0.186623630246663,5
716,400,46,0.281638075214308,5
716,401,46,0.315220617255561,5
716,402,46,0.300798961618486,5
716,403,46,0.279165931613411,5
716,404,46,0.265511363722554,1
716,405,46,0.292775147053037,5
716,407,46,0.219378662941029,5
716,408,46,0.314217174752431,5
716,409,46,0.410507143468386,5
716,410,46,0.339881174346958,5
716,411,46,0.234897767588609,5
717,400,46,0.236384605205239,5
717,401,46,0.287603450658987,5
717,402,46,0.317489243683517,5
717,403,46,0.300925649552842,5
717,408,46,0.241249765429894,5
717,409,46,0.332497201889839,5
717,410,46,0.322355050844269,5
717,411,46,0.276005269539902,5
717,414,46,0.160657611881352,5
718,400,46,0.29693079684413,5
718,401,46,0.291373705001244,5
718,402,46,0.296912370319428,5
718,403,46,0.270413555461742,5
718,409,46,0.217822313156155,5
718,410,46,0.231102126581569,5
718,413,46,0.280406018879291,5
718,414,46,0.319502218812348,5
718,415,46,0.245210508990582,5
719,401,46,0.281041042429103,5
719,402,46,0.258509842039621,5
719,413,46,0.296126922972933,5
719,414,46,0.401074369007531,5
719,415,46,0.30811130263394,5
720,413,46,0.245133188972889,5
720,414,46,0.323456470703923,5
720,415,46,0.233703746634482,5
721,414,46,0.201816734871578,5
711,407,47,0.192119898942335,5
711,408,47,0.220791169830898,5
711,409,47,0.282194239484678,5
711,410,47,0.224559148742744,5
712,402,47,0.221308250237738,1
712,403,47,0.204247675335521,1
712,406,47,0.263195734040912,5
712,407,47,0.300165678103694,5
712,408,47,0.344357882907422,5
712,409,47,0.40452619694109,5
712,410,47,0.325617170344342,5
712,411,47,0.168149711899279,5
713,400,47,0.227664776631704,1
713,401,47,0.245421878629256,5
713,402,47,0.269558172092319,1
713,403,47,0.269251189760099,1
713,404,47,0.221689295599023,1
713,405,47,0.238840040008313,5
713,406,47,0.338544158207196,5
713,407,47,0.39379455326207,5
713,408,47,0.395068303513149,5
713,409,47,0.3968576395256,5
713,410,47,0.294674796824142,5
713,411,47,0.15405200393587,5
714,399,47,0.223639406385714,1
714,400,47,0.309811606854524,5
714,401,47,0.294646599333558,5
714,402,47,0.288740675085402,5
714,403,47,0.293342688475463,5
714,404,47,0.256367078144794,1
714,405,47,0.270260053141562,5
714,406,47,0.329982695128643,5
714,407,47,0.326440206908903,5
714,408,47,0.31489866616054,5
714,409,47,0.320650909623384,5
714,410,47,0.248645605818177,5
715,399,47,0.222865425423839,5
715,400,47,0.316964913130759,5
715,401,47,0.287807480919178,5
715,402,47,0.254106415723278,5
715,403,47,0.258811046563248,1
715,404,47,0.254849656066463,1
715,405,47,0.264105482350646,5
715,406,47,0.270365191411437,5
715,407,47,0.2441502476516,5
715,408,47,0.288385351011018,5
715,409,47,0.345025520959793,5
715,410,47,0.285038705963618,5
716,400,47,0.277917813416669,5
716,401,47,0.29259150643398,5
716,402,47,0.279543764602352,5
716,403,47,0.266378325017304,1
716,407,47,0.226722168429858,5
716,408,47,0.303113565125629,5
716,409,47,0.371071458241256,5
716,410,47,0.306608001609042,5
716,411,47,0.207499756172016,5
717,401,47,0.27713455226802,5
717,402,47,0.29042576515363,5
717,408,47,0.264867216142956,5
717,409,47,0.338778951394219,5
717,410,47,0.312407337558138,5
717,411,47,0.240756621658653,5
718,401,47,0.247905934777598,5
718,402,47,0.233146935428014,5
718,409,47,0.261042886866225,5
718,410,47,0.256710021200765,5
718,414,47,0.249665244031881,5
719,413,47,0.285233679118446,5
719,414,47,0.366101940531671,5
719,415,47,0.269818731182525,5
720,413,47,0.272203449177726,5
720,414,47,0.366328591247124,5
720,415,47,0.264329790711265,5
721,414,47,0.247288623891966,5
711,407,48,0.201865857398687,5
711,408,48,0.241025457069276,5
711,409,48,0.295512913692211,5
712,401,48,0.258763463297887,1
712,402,48,0.239747825201614,1
712,403,48,0.207458062255955,1
712,406,48,0.261719760489087,5
712,407,48,0.297584916162882,5
712,408,48,0.353365419579106,5
712,409,48,0.415637212870798,5
712,410,48,0.297146650419201,5
713,400,48,0.253046399773849,1
713,401,48,0.264944268462954,5
713,402,48,0.255201901617349,1
713,403,48,0.24944836428231,1
713,404,48,0.247577871251864,1
713,405,48,0.276968535080578,5
713,406,48,0.339536848186228,5
713,407,48,0.383117564529199,5
713,408,48,0.38808335677919,5
713,409,48,0.418765394290597,5
713,410,48,0.315592560895202,5
713,411,48,0.154257305760114,5
714,399,48,0.227520465265733,1
714,400,48,0.311503880144246,5
714,401,48,0.307802892580678,5
714,402,48,0.266161311418886,5
714,403,48,0.254462386733759,1
714,404,48,0.255188472116296,1
714,405,48,0.270912789355554,5
714,406,48,0.31118723838685,5
714,407,48,0.321400128548433,5
714,408,48,0.30278246769268,5
714,409,48,0.318702427331007,5
714,410,48,0.261276899268302,5
715,400,48,0.277972490670958,5
715,401,48,0.277455008717575,5
715,402,48,0.250410871346183,1
715,403,48,0.245453980044565,1
715,406,48,0.239918237092889,5
715,407,48,0.24295201045877,5
715,408,48,0.268843976949087,5
715,409,48,0.310187253645619,5
715,410,48,0.265906106282588,5
716,401,48,0.274097120366967,5
716,402,48,0.266301540395002,1
716,408,48,0.269017891218543,5
716,409,48,0.31107732617474,5
716,410,48,0.264105348501799,5
717,408,48,0.266544476053593,5
717,409,48,0.32599444562975,5
717,410,48,0.278325873937051,5
718,409,48,0.30028281815358,5
719,414,48,0.299693771682956,5
720,413,48,0.278399446187008,5
720,414,48,0.384056157265614,5
720,415,48,0.274745484185268,5
721,413,48,0.271394712131729,5
721,414,48,0.311505620179266,5
722,413,48,0.281810338681309,5
711,407,49,0.230287567110697,5
711,408,49,0.263385241701126,5
711,409,49,0.278265218100897,5
712,405,49,0.258203752033052,5
712,406,49,0.271550779888158,5
712,407,49,0.297367300244649,5
712,408,49,0.338644790232532,5
712,409,49,0.367980352952273,5
712,410,49,0.261762792893626,5
713,401,49,0.274114476100887,1
713,402,49,0.237428068513834,1
713,403,49,0.223020533930192,1
713,404,49,0.265090119090674,5
713,405,49,0.330665123478685,5
713,406,49,0.338451356339452,5
713,407,49,0.349817131242632,5
713,408,49,0.363573758879867,5
713,409,49,0.404973609022697,5
713,410,49,0.341914896047185,5
713,411,49,0.170528217077132,5
714,400,49,0.293435869581609,1
714,401,49,0.29273804861408,5
714,402,49,0.242251222508451,1
714,403,49,0.221237890360126,1
714,405,49,0.286272346176666,5
714,406,49,0.292997403064657,5
714,407,49,0.310931921709846,5
714,408,49,0.314028604034151,5
714,409,49,0.328807680710891,5
714,410,49,0.296173792377772,5
715,401,49,0.266991285815386,1
715,406,49,0.220710012812904,5
715,407,49,0.24594511608309,5
715,408,49,0.268625535629626,5
715,409,49,0.278922215169875,5
716,409,49,0.256875636841663,5
717,409,49,0.292611717609984,5
719,414,49,0.221035622443097,5
720,413,49,0.26459797918579,5
720,414,49,0.35313716267748,5
720,415,49,0.244020213496051,5
721,412,49,0.203422564113821,5
721,413,49,0.313599953099364,5
721,414,49,0.361643457722637,5
721,415,49,0.220773011003892,5
722,412,49,0.276936455973411,5
722,413,49,0.324659102600585,5
722,414,49,0.257001030903825,5
723,413,49,0.231540325400826,5
711,407,50,0.269610016212665,5
711,408,50,0.302993346552246,5
711,409,50,0.251338666942217,5
712,405,50,0.286174101122448,5
712,406,50,0.277426008133905,5
712,407,50,0.291064491854896,5
712,408,50,0.325168865937083,5
712,409,50,0.306751978352894,5
712,410,50,0.228417029463968,5
713,404,50,0.272651686660561,5
713,405,50,0.384145211365623,5
713,406,50,0.343070881620421,5
713,407,50,0.30441653904179,5
713,408,50,0.321793510311849,5
713,409,50,0.352681518891739,5
713,410,50,0.341337405193746,5
713,411,50,0.192885402810522,5
714,401,50,0.265156976590104,1
714,404,50,0.238722743801438,5
714,405,50,0.307176747671097,5
714,406,50,0.286942215043165,5
714,407,50,0.291011063856519,5
714,408,50,0.32045392873584,5
714,409,50,0.323746788854603,5
714,410,50,0.324236452555804,5
714,411,50,0.209439538289292,5
715,405,50,0.210988794085237,5
715,406,50,0.211931089973106,5
715,407,50,0.241478513110628,5
715,408,50,0.269040690138936,5
715,409,50,0.247519223148427,5
715,410,50,0.225847845448483,5
720,413,50,0.253705672273238,5
720,414,50,0.302092053028058,5
721,412,50,0.247936742320712,5
721,413,50,0.365710588809112,5
721,414,50,0.403332086754398,5
721,415,50,0.245324860522808,5
722,412,50,0.322672785700588,5
722,413,50,0.368354795103738,5
722,414,50,0.315334522624962,5
722,415,50,0.18166701779681,5
723,413,50,0.21706934646337,5
723,414,50,0.151542739587876,5
712,407,51,0.289813674373059,5
712,408,51,0.33588569701029,5
712,409,51,0.273349418395525,5
713,405,51,0.377662643973398,5
713,406,51,0.335750018894996,5
713,407,51,0.272776255321496,5
713,408,51,0.284396320727181,5
713,409,51,0.292261189785977,5
713,410,51,0.303359713156565,5
714,405,51,0.305122078626204,5
714,406,51,0.300170050499386,5
714,407,51,0.286217713538659,5
714,408,51,0.306872776937951,5
714,409,51,0.300465410289996,5
714,410,51,0.329737662504771,5
720,413,51,0.241372995602351,5
720,414,51,0.242312815286538,5
721,412,51,0.284548529175167,5
721,413,51,0.387261346389128,5
721,414,51,0.389999403034139,5
721,415,51,0.258075279447393,5
722,412,51,0.338802129553014,5
722,413,51,0.385769913295393,5
722,414,51,0.350785572272087,5
723,413,51,0.204302486438658,5
