x,y,z,signal,mito.p
616,659,1,0.188951875182202,1
616,660,1,0.1723317187593,1
617,659,1,0.164301356754383,1
617,660,1,0.124176952281369,1
618,659,1,0.125222880639576,1
618,661,1,0.103244598685908,1
619,658,1,0.111454228914189,1
620,664,1,0.133487968907091,1
621,665,1,0.150556150885486,1
622,666,1,0.125074286110478,1
622,667,1,0.142632477566264,1
628,675,1,0.113340337643534,1
629,679,1,0.137409115516999,1
630,678,1,0.111749042155338,1
630,679,1,0.159423023572299,1
630,680,1,0.197636657665778,1
631,679,1,0.13718932455499,1
631,680,1,0.167744094120368,1
631,681,1,0.156911751491589,1
632,680,1,0.112228377187124,1
632,681,1,0.11533672666932,1
632,682,1,0.119340603021183,1
634,683,1,0.149927920164695,1
635,683,1,0.137996901577641,1
636,683,1,0.115233941908351,1
638,645,1,0.108359822020295,1
638,684,1,0.138182092612516,1
639,645,1,0.144429755277013,1
639,684,1,0.112648617952646,1
640,646,1,0.121055184452189,1
640,684,1,0.106003212283112,1
640,685,1,0.18575627855944,1
641,639,1,0.112402202224015,1
641,646,1,0.13880307318739,1
641,685,1,0.155313205857475,1
642,639,1,0.128534736140643,1
642,646,1,0.157512253192763,1
642,685,1,0.126128089242559,1
643,639,1,0.154474553594016,1
643,645,1,0.164481305376057,1
643,646,1,0.132983838376267,1
643,685,1,0.105923739529785,1
643,686,1,0.185592257950644,1
644,639,1,0.180087668318272,1
644,645,1,0.123375576921996,1
644,686,1,0.15565829049501,1
645,639,1,0.163342207065774,1
645,640,1,0.224426192220687,1
645,644,1,0.125745370770678,1
645,686,1,0.141510623449194,1
646,639,1,0.125260046002957,1
646,640,1,0.178336713462901,1
646,641,1,0.2238884990913,1
646,642,1,0.216179586248227,1
646,643,1,0.154852676588793,1
646,644,1,0.103615728078392,1
646,686,1,0.144149698871324,1
647,639,1,0.117942596423148,1
647,640,1,0.176444614997621,1
647,641,1,0.265153184206086,1
647,642,1,0.264182133124101,1
647,643,1,0.174863993955029,1
647,644,1,0.104286924279298,1
647,686,1,0.158966097068434,1
648,639,1,0.140454801430327,1
648,640,1,0.203613588727643,1
648,642,1,0.315920133641828,1
648,643,1,0.202412986871837,1
648,644,1,0.111544576886392,1
648,685,1,0.106647192551651,1
649,643,1,0.209384749494297,1
649,644,1,0.12297646196627,1
649,685,1,0.113499718158943,1
650,644,1,0.157244343570004,1
650,685,1,0.122157585870059,1
650,686,1,0.21780156658476,1
651,644,1,0.20939574740795,1
651,645,1,0.123574732853316,1
651,685,1,0.143473561417124,1
651,686,1,0.197975429099328,1
652,645,1,0.161879406471378,1
652,646,1,0.104118430888174,1
652,654,1,0.118188052901705,1
652,655,1,0.11944613168353,1
652,684,1,0.126292645246746,1
652,685,1,0.17666893451231,1
652,686,1,0.198246316858949,1
653,646,1,0.14281472392649,1
653,653,1,0.124736128150813,1
653,654,1,0.160317847735514,1
653,655,1,0.155992778765434,1
653,656,1,0.113856514570652,1
653,684,1,0.136493444395753,1
653,685,1,0.183984733289663,1
654,647,1,0.143743344923751,1
654,648,1,0.108537907912171,1
654,653,1,0.11147613550893,1
654,654,1,0.144296687214249,1
654,655,1,0.137470474059603,1
654,684,1,0.134847627810257,1
655,648,1,0.152960421966523,1
655,649,1,0.12351281660718,1
655,650,1,0.107873314921086,1
656,649,1,0.157530088551721,1
656,650,1,0.12218677607293,1
657,650,1,0.14812812163398,1
658,651,1,0.118300876326252,1
659,651,1,0.145066630402552,1
660,651,1,0.161526157054133,1
661,651,1,0.164084030841987,1
661,652,1,0.112742289837901,1
662,651,1,0.192731320478668,1
662,652,1,0.14355892351975,1
662,676,1,0.103582332790889,1
662,677,1,0.118137513807624,1
662,678,1,0.11393479383842,1
662,679,1,0.108218600331892,1
663,653,1,0.146019221497624,1
663,676,1,0.140171989969189,1
663,677,1,0.158180672030079,1
663,678,1,0.144322653890705,1
664,654,1,0.161888898585494,1
664,655,1,0.120259531131056,1
664,674,1,0.117448660712891,1
664,675,1,0.16181259358823,1
664,676,1,0.200495423663281,1
664,677,1,0.197176753025051,1
665,655,1,0.214484479824562,1
665,656,1,0.166126307714396,1
665,657,1,0.135831394532774,1
665,658,1,0.121534218324068,1
665,659,1,0.115559016143153,1
665,660,1,0.11104481875126,1
665,661,1,0.111955515156999,1
665,662,1,0.110031705668882,1
665,663,1,0.118698496636512,1
665,664,1,0.156020128546649,1
665,665,1,0.187705095473937,1
665,666,1,0.153820713127029,1
665,672,1,0.10537929818766,1
666,657,1,0.203451073918383,1
666,660,1,0.169201217292807,1
666,661,1,0.145508766608746,1
666,662,1,0.147813900309914,1
666,663,1,0.180504741327732,1
666,669,1,0.124767783403296,1
666,670,1,0.125921761243816,1
666,671,1,0.139065394620758,1
616,659,2,0.16203172646007,1
617,659,2,0.163304238609307,1
617,660,2,0.118111647517804,1
618,659,2,0.14334483228784,1
619,658,2,0.124231272605397,1
620,664,2,0.124337849750385,1
621,665,2,0.151398193986421,1
622,666,2,0.118222552442202,1
622,667,2,0.137254531251966,1
628,675,2,0.109731036540646,1
630,678,2,0.109639740472438,1
631,679,2,0.14298020571854,1
631,680,2,0.164537533046165,1
631,681,2,0.140047979011787,1
633,683,2,0.118877028691214,1
634,683,2,0.126353847632361,1
635,683,2,0.115525531623084,1
638,645,2,0.106089065164847,1
638,684,2,0.112255370038078,1
639,645,2,0.149793502459383,1
640,646,2,0.130754206579278,1
640,685,2,0.155919831143432,1
641,646,2,0.14325210849859,1
641,685,2,0.131676681683615,1
642,646,2,0.152539389261985,1
642,685,2,0.106947605136262,1
643,639,2,0.125849293246853,1
643,646,2,0.115505298138939,1
644,639,2,0.160029883093739,1
644,645,2,0.112534299882632,1
644,686,2,0.131868565160876,1
645,639,2,0.155022039997427,1
645,640,2,0.226518160477808,1
645,644,2,0.12935197258847,1
645,686,2,0.124224736320001,1
646,639,2,0.120789617184265,1
646,640,2,0.166449084210646,1
646,641,2,0.198925845150625,1
646,642,2,0.194029587377019,1
646,643,2,0.147198563694785,1
646,686,2,0.126453397712844,1
647,639,2,0.117858885122977,1
647,640,2,0.146683669485791,1
647,641,2,0.22584309381439,1
647,642,2,0.236720655045553,1
647,643,2,0.1584756860445,1
648,639,2,0.138696250652848,1
648,640,2,0.175713030658257,1
648,643,2,0.187594045546621,1
649,644,2,0.11511046634634,1
650,644,2,0.15361080467161,1
650,685,2,0.105415046984069,1
651,644,2,0.206943368820232,1
651,645,2,0.113871539103807,1
651,685,2,0.128614733135291,1
651,686,2,0.17048094612575,1
652,645,2,0.148003776054459,1
652,684,2,0.114623055767409,1
652,685,2,0.173985912051848,1
652,686,2,0.185461030309536,1
653,646,2,0.125146832185936,1
653,654,2,0.128670447718149,1
653,655,2,0.13153682079183,1
653,684,2,0.13151546074655,1
653,685,2,0.189405042764261,1
654,647,2,0.114601796108764,1
654,654,2,0.122733135915206,1
654,655,2,0.124121616936912,1
654,684,2,0.136072300150509,1
655,648,2,0.120565464980635,1
656,649,2,0.125817325680392,1
657,650,2,0.113888448674901,1
659,651,2,0.115893593646142,1
660,651,2,0.1335709440386,1
661,651,2,0.136247084437475,1
662,651,2,0.15660685497058,1
662,652,2,0.126765923618173,1
662,676,2,0.103220885131722,1
662,677,2,0.124286496409148,1
662,678,2,0.120343788980688,1
662,679,2,0.109981166574802,1
663,653,2,0.133501164172661,1
663,676,2,0.138763520852892,1
663,677,2,0.162246007311181,1
663,678,2,0.142294709999071,1
664,654,2,0.149983813212684,1
664,655,2,0.110149102262394,1
664,675,2,0.14172622048064,1
664,676,2,0.188293896555007,1
664,677,2,0.194372820438826,1
665,656,2,0.153184239548033,1
665,657,2,0.12244010732536,1
665,658,2,0.109656527348755,1
665,659,2,0.103983176627564,1
665,664,2,0.130024708051124,1
665,665,2,0.166418644751863,1
665,666,2,0.133197204593585,1
666,661,2,0.126190061259048,1
666,662,2,0.126543132211162,1
666,663,2,0.15126586209232,1
666,669,2,0.110013691844795,1
666,670,2,0.116431409470306,1
666,671,2,0.130668554470815,1
617,659,3,0.151471074683998,1
617,660,3,0.108531349318634,1
618,659,3,0.156431434901587,1
619,658,3,0.136128327047345,1
619,663,3,0.109444811933892,1
620,664,3,0.123616861778132,1
621,665,3,0.163611209787456,1
622,666,3,0.117733803374793,1
628,675,3,0.110252500497248,1
631,680,3,0.150742133859377,1
633,683,3,0.104717248324681,1
634,683,3,0.104451034120659,1
637,684,3,0.127997221476387,1
638,645,3,0.103559232710588,1
639,645,3,0.150685270407242,1
639,646,3,0.103615460380696,1
640,646,3,0.132195089424861,1
640,685,3,0.127632773372217,1
641,646,3,0.144047427197604,1
641,685,3,0.11153307703956,1
642,646,3,0.136707435241027,1
643,639,3,0.10409821971217,1
644,639,3,0.135025635623639,1
644,686,3,0.122299800270749,1
645,639,3,0.140939501570092,1
645,640,3,0.222575308046431,1
645,644,3,0.129932876587525,1
645,686,3,0.122488995616986,1
646,639,3,0.118867770812581,1
646,640,3,0.154807915303305,1
646,641,3,0.168133226182869,1
646,642,3,0.16074249435894,1
646,643,3,0.136922117638681,1
646,686,3,0.121175815726187,1
647,640,3,0.116494095347316,1
647,641,3,0.166763517462055,1
647,642,3,0.185698991252621,1
647,643,3,0.136330539194021,1
648,639,3,0.140938743093288,1
648,640,3,0.142658031542106,1
648,641,3,0.227208485909866,1
648,642,3,0.251740235793484,1
648,643,3,0.168011301036677,1
649,643,3,0.177511278773152,1
649,644,3,0.106323222569843,1
650,643,3,0.204209528413924,1
650,644,3,0.143454108717923,1
650,686,3,0.150921000536198,1
651,643,3,0.231049724757691,1
651,644,3,0.19242141577994,1
651,685,3,0.112938779946337,1
651,686,3,0.139240792381609,1
652,645,3,0.141442293612439,1
652,685,3,0.168680166036819,1
653,646,3,0.111715167242797,1
653,684,3,0.128072366450304,1
653,685,3,0.191835537065378,1
654,646,3,0.158339416763462,1
654,683,3,0.10897891755723,1
654,684,3,0.138311279058696,1
655,683,3,0.112485913524186,1
655,684,3,0.120592156671682,1
658,650,3,0.104545866029261,1
660,651,3,0.108796448115591,1
661,650,3,0.15690725640112,1
661,651,3,0.11047183414236,1
662,651,3,0.129817811194779,1
662,652,3,0.114635938719,1
662,677,3,0.123634674828948,1
662,678,3,0.123276138382219,1
662,679,3,0.109813688204106,1
663,653,3,0.129228485872388,1
663,676,3,0.132486712601807,1
663,677,3,0.154987797000554,1
663,678,3,0.135255621406214,1
664,654,3,0.140852589051646,1
664,655,3,0.103958481515162,1
664,675,3,0.125733447069161,1
664,676,3,0.171996973945251,1
664,677,3,0.186610881143919,1
665,656,3,0.135422207451258,1
665,657,3,0.109465870819265,1
665,665,3,0.129655564083214,1
665,666,3,0.108387785275395,1
666,657,3,0.149008400889078,1
666,660,3,0.128249638095024,1
666,661,3,0.108889015747852,1
666,662,3,0.104589244209989,1
666,663,3,0.119276333266141,1
666,664,3,0.155122270476219,1
666,665,3,0.190592371276002,1
666,670,3,0.115706060256431,1
666,671,3,0.132895654293768,1
617,659,4,0.141807689812612,1
617,660,4,0.104417917684922,1
618,659,4,0.155481342318339,1
619,656,4,0.142365627580215,1
619,658,4,0.139113390586732,1
621,665,4,0.172259986930999,1
622,666,4,0.119225236468528,1
637,684,4,0.112613404551628,1
638,645,4,0.105331982619995,1
639,645,4,0.159981574813787,1
639,646,4,0.10531713655197,1
640,646,4,0.134409339758435,1
640,685,4,0.110917773886643,1
641,646,4,0.147885141359107,1
642,646,4,0.129422778628908,1
643,640,4,0.115403483782115,1
643,645,4,0.130290721481875,1
644,639,4,0.114886157985721,1
644,640,4,0.168629693867162,1
644,645,4,0.105361362442067,1
644,686,4,0.116186187227233,1
645,639,4,0.127665265179999,1
645,640,4,0.208292721362124,1
645,641,4,0.219384039203078,1
645,644,4,0.14578179594993,1
645,686,4,0.11738248361177,1
646,639,4,0.122154696965763,1
646,640,4,0.150741698850622,1
646,641,4,0.157685855148242,1
646,642,4,0.151569174735298,1
646,643,4,0.145790529587243,1
646,644,4,0.107883097041039,1
646,686,4,0.115606186707899,1
647,640,4,0.110882315096071,1
647,641,4,0.139107858167693,1
647,642,4,0.160483652995613,1
647,643,4,0.136261640499663,1
648,639,4,0.15309771742206,1
648,640,4,0.131517033470511,1
648,641,4,0.186852188308196,1
648,642,4,0.217986099529468,1
648,643,4,0.166819031271642,1
649,640,4,0.175850437654501,1
649,641,4,0.1936066473264,1
649,642,4,0.206889695432301,1
649,643,4,0.178715427623422,1
649,644,4,0.107354583711791,1
650,641,4,0.196902340579107,1
650,642,4,0.170276614705652,1
650,643,4,0.186478448863182,1
650,644,4,0.130458746402031,1
650,686,4,0.137664543734709,1
651,642,4,0.170216036947993,1
651,643,4,0.202743147362852,1
651,644,4,0.172405614477306,1
651,685,4,0.103496546833578,1
652,642,4,0.188853674744266,1
652,643,4,0.222663023657962,1
652,644,4,0.224311394525636,1
652,645,4,0.139771458446491,1
652,685,4,0.157913911276596,1
653,641,4,0.21157728285233,1
653,642,4,0.21067612317699,1
653,645,4,0.208820398136074,1
653,646,4,0.106347772679326,1
653,684,4,0.124949338211142,1
653,685,4,0.18323058426539,1
654,646,4,0.145675776508474,1
654,683,4,0.112494825626629,1
654,684,4,0.136424389544406,1
655,683,4,0.121783087948241,1
655,684,4,0.121763345243204,1
657,649,4,0.115217801968131,1
659,650,4,0.121804224912108,1
660,650,4,0.154684919366331,1
661,650,4,0.13900067870289,1
662,650,4,0.1378734371697,1
662,651,4,0.117082762579539,1
662,652,4,0.106171326435835,1
662,677,4,0.112220792419087,1
662,678,4,0.114922375253097,1
662,679,4,0.104793731787076,1
663,651,4,0.169555637887469,1
663,652,4,0.160418870153322,1
663,653,4,0.130618595388408,1
663,676,4,0.121017628696336,1
663,677,4,0.137186078720434,1
663,678,4,0.123356079606513,1
664,654,4,0.14911349454267,1
664,655,4,0.110191298111634,1
664,675,4,0.117071073113505,1
664,676,4,0.160734719971703,1
664,677,4,0.182676394265523,1
665,656,4,0.133622063144354,1
665,657,4,0.10682290262648,1
665,665,4,0.104088950679466,1
666,657,4,0.142340843235248,1
666,658,4,0.134355554829797,1
666,660,4,0.121729369944027,1
666,661,4,0.105338128512919,1
666,663,4,0.107563677920053,1
666,664,4,0.128796388329772,1
666,665,4,0.154614537180578,1
666,666,4,0.141195487491334,1
666,669,4,0.114496858612161,1
666,670,4,0.137684665678148,1
666,671,4,0.153885083268707,1
617,658,5,0.209823796022922,1
617,659,5,0.12283113557987,1
618,656,5,0.192850490569412,1
618,658,5,0.239048398047913,1
618,659,5,0.133257124261076,1
619,656,5,0.148518871036724,1
619,657,5,0.175258346122591,1
619,658,5,0.133614667995518,1
634,683,5,0.103240382447205,1
635,645,5,0.109099849991135,1
638,644,5,0.146971277197305,1
638,645,5,0.109740952509447,1
639,645,5,0.183196084724893,1
639,646,5,0.110924466329028,1
640,646,5,0.143965913249349,1
641,646,5,0.152867608944708,1
642,646,5,0.125487109419024,1
644,640,5,0.14059793046481,1
644,645,5,0.118868038510277,1
644,686,5,0.106642240144285,1
645,639,5,0.114339218131772,1
645,640,5,0.182302877901921,1
645,641,5,0.215113480176227,1
645,644,5,0.185397050560331,1
645,645,5,0.108274571458375,1
645,686,5,0.112953860249846,1
646,639,5,0.125153535782392,1
646,640,5,0.147666476958233,1
646,641,5,0.160879053645815,1
646,642,5,0.174553118852155,1
646,643,5,0.186330992049289,1
646,644,5,0.140236828581833,1
646,686,5,0.109855549431227,1
646,687,5,0.144445036353793,1
647,640,5,0.116302390335185,1
647,641,5,0.132238757611426,1
647,642,5,0.162324610046998,1
647,643,5,0.164087644760875,1
647,644,5,0.114553298209611,1
647,686,5,0.121125968184486,1
648,640,5,0.130928187773158,1
648,641,5,0.164177345796981,1
648,642,5,0.20992706040893,1
648,643,5,0.197571428660661,1
648,644,5,0.118805464173973,1
649,640,5,0.159728176636933,1
649,641,5,0.173524501611585,1
649,642,5,0.205467462192831,1
649,643,5,0.202188990825197,1
649,644,5,0.122129622614959,1
650,641,5,0.17286461563831,1
650,642,5,0.163167411624737,1
650,643,5,0.178025079883223,1
650,644,5,0.122619910944115,1
650,686,5,0.126103583749358,1
651,642,5,0.167074046788739,1
651,643,5,0.188583701618438,1
651,644,5,0.154269329848266,1
652,642,5,0.202823791293596,1
652,645,5,0.136263202069553,1
652,685,5,0.134691024658438,1
653,641,5,0.219870847462195,1
653,684,5,0.112840389889201,1
653,685,5,0.15305863355853,1
654,646,5,0.131577923542147,1
654,683,5,0.109053047510719,1
654,684,5,0.124797241303863,1
655,647,5,0.118337595526807,1
655,683,5,0.125249940414955,1
655,684,5,0.117903122167145,1
656,648,5,0.128240324446038,1
656,683,5,0.104333815992278,1
660,650,5,0.120664078119185,1
661,650,5,0.121514375232395,1
662,650,5,0.12808635365489,1
662,651,5,0.111392346130265,1
662,678,5,0.103056953755491,1
663,650,5,0.166492094307043,1
663,651,5,0.159715717540026,1
663,652,5,0.159167639970871,1
663,653,5,0.136150490185712,1
663,676,5,0.108553122064527,1
663,677,5,0.119191562329259,1
663,678,5,0.112207775618647,1
664,654,5,0.163999137210328,1
664,655,5,0.122202246768911,1
664,675,5,0.106626914451223,1
664,676,5,0.146560283156345,1
665,656,5,0.151781882862449,1
665,657,5,0.116402810433179,1
665,673,5,0.106759681354079,1
666,657,5,0.15649591658397,1
666,658,5,0.134107332141722,1
666,660,5,0.120280545400146,1
666,661,5,0.109436781003029,1
666,664,5,0.109967904384808,1
666,665,5,0.126389529504346,1
666,666,5,0.132681206131598,1
618,657,6,0.225181188954329,1
618,658,6,0.18723269827409,1
618,659,6,0.103825156908773,1
619,656,6,0.159038598527609,1
619,657,6,0.185447968892814,1
619,658,6,0.128192016166085,1
622,665,6,0.103874312898094,1
634,683,6,0.118590469462341,1
638,644,6,0.141733604475406,1
638,645,6,0.107212904706491,1
639,645,6,0.197846354193855,1
639,646,6,0.115180424677409,1
640,646,6,0.156384520880465,1
640,685,6,0.104236898272466,1
641,646,6,0.159788642853886,1
642,646,6,0.122356429487401,1
642,686,6,0.126359670057236,1
643,686,6,0.105740589689837,1
644,640,6,0.11597395872512,1
644,645,6,0.116875252249308,1
644,686,6,0.11055205421842,1
645,639,6,0.103268334548235,1
645,640,6,0.148830370767554,1
645,641,6,0.208017528131235,1
645,645,6,0.110319402612962,1
645,686,6,0.121617985394592,1
645,687,6,0.168843015468197,1
646,640,6,0.138556434377345,1
646,641,6,0.165134945069771,1
646,642,6,0.207230742296263,1
646,644,6,0.167762621031705,1
646,686,6,0.112058723772653,1
646,687,6,0.140119755456371,1
646,688,6,0.1806738258846,1
647,640,6,0.120878336662154,1
647,641,6,0.13613535411185,1
647,642,6,0.180053514553965,1
647,643,6,0.204902151584534,1
647,644,6,0.141128507297127,1
647,686,6,0.112046565835653,1
648,640,6,0.130631210642304,1
648,641,6,0.157588268184191,1
648,642,6,0.226673648222563,1
648,643,6,0.25066467106958,1
648,644,6,0.15119831304051,1
649,640,6,0.145019984079126,1
649,641,6,0.160784344431991,1
649,642,6,0.214267957005252,1
649,643,6,0.233486576879075,1
649,644,6,0.139866870366766,1
650,640,6,0.186186491064117,1
650,641,6,0.159656957895882,1
650,642,6,0.163946445380613,1
650,643,6,0.174811235200891,1
650,644,6,0.11770179119205,1
650,686,6,0.11677545677927,1
651,641,6,0.20931604041914,1
651,642,6,0.1739626781227,1
651,643,6,0.184353364170323,1
651,644,6,0.14128622585601,1
652,642,6,0.22200821278683,1
652,645,6,0.129550414659269,1
653,641,6,0.232468790241098,1
654,646,6,0.123549335034463,1
655,647,6,0.112668851436792,1
655,683,6,0.122778019895471,1
656,648,6,0.11428068156904,1
658,649,6,0.127492321314688,1
660,650,6,0.107342336542226,1
661,650,6,0.115107064354794,1
662,650,6,0.127347028390501,1
662,651,6,0.108752634926108,1
663,651,6,0.164682848278494,1
663,652,6,0.171828592094834,1
663,653,6,0.151933645147609,1
663,654,6,0.108237818795608,1
664,655,6,0.137480378874333,1
664,656,6,0.104753376359492,1
665,656,6,0.184296958035085,1
665,657,6,0.13493866733484,1
666,657,6,0.192681439474756,1
666,658,6,0.1423672672286,1
666,659,6,0.123347881364591,1
666,660,6,0.124362042929609,1
666,661,6,0.121465966565807,1
666,662,6,0.104311507850993,1
666,665,6,0.116302758419516,1
666,666,6,0.138515666249147,1
618,656,7,0.116856558026911,1
618,657,7,0.166559308736734,1
618,658,7,0.138764022786071,1
619,656,7,0.158177437349593,1
619,657,7,0.187899689390364,1
619,658,7,0.122432031778215,1
620,656,7,0.109825433440493,1
620,657,7,0.109722704449876,1
634,645,7,0.104378856129532,1
634,682,7,0.103815943646423,1
635,683,7,0.117300121954147,1
638,644,7,0.149466710497703,1
638,645,7,0.10756413523695,1
639,646,7,0.126379066986084,1
640,685,7,0.106946199723361,1
642,646,7,0.13008089110495,1
643,686,7,0.119795767181887,1
644,645,7,0.122734150935635,1
644,686,7,0.120005430247752,1
644,687,7,0.186879605013835,1
645,640,7,0.124745519878294,1
645,645,7,0.117742202389987,1
645,686,7,0.134019036518517,1
645,687,7,0.172011139614967,1
645,688,7,0.191731090347883,1
646,640,7,0.135430416847251,1
646,641,7,0.187313364512976,1
646,645,7,0.103341862181909,1
646,686,7,0.117082238338218,1
646,687,7,0.142729685291912,1
647,640,7,0.132366605569129,1
647,641,7,0.159264747309884,1
647,644,7,0.176469555499577,1
647,686,7,0.103851960140527,1
648,640,7,0.139592000603926,1
648,641,7,0.167318465938725,1
648,642,7,0.269705249667809,1
648,644,7,0.182537213772047,1
648,686,7,0.119281664911908,1
649,640,7,0.14154198869584,1
649,641,7,0.159314728700432,1
649,642,7,0.235765152738043,1
649,643,7,0.26655848556632,1
649,644,7,0.151836459730102,1
649,686,7,0.123757614995568,1
650,640,7,0.171134072732215,1
650,641,7,0.163187756649588,1
650,642,7,0.179678815858875,1
650,643,7,0.182249884912299,1
650,644,7,0.11667440089925,1
651,641,7,0.214165228014635,1
651,642,7,0.190338549244463,1
651,643,7,0.195599678976924,1
651,644,7,0.141944182175063,1
652,642,7,0.240676646972147,1
652,645,7,0.127459929893543,1
653,662,7,0.112916616807971,1
654,646,7,0.117674753724813,1
654,662,7,0.135339812331423,1
655,646,7,0.189516561162543,1
655,647,7,0.107096790831104,1
656,647,7,0.189681150628942,1
657,648,7,0.152813857478282,1
658,649,7,0.116788930896606,1
660,650,7,0.107101029377948,1
661,650,7,0.120750377163745,1
662,649,7,0.174692120880501,1
662,650,7,0.132264746596023,1
662,651,7,0.111869037647308,1
662,652,7,0.102990564727027,1
663,649,7,0.197008148093221,1
663,651,7,0.174781978073596,1
663,652,7,0.199195193648497,1
663,653,7,0.178887668782282,1
663,654,7,0.117390704161834,1
664,655,7,0.153167631136847,1
664,656,7,0.116736897157059,1
665,657,7,0.164668035672681,1
665,658,7,0.10570244276824,1
666,658,7,0.157273288383321,1
666,659,7,0.121949919382839,1
666,660,7,0.130542558088838,1
666,661,7,0.136324917542417,1
666,662,7,0.11206422272948,1
666,665,7,0.115386228434831,1
666,666,7,0.150757247625098,1
667,661,7,0.193956238208474,1
618,657,8,0.113791486338807,1
619,656,8,0.128814212534659,1
619,657,8,0.161502276188888,1
619,658,8,0.105515690163475,1
620,657,8,0.10607332677117,1
624,651,8,0.114809752601821,1
625,650,8,0.111074008954131,1
626,649,8,0.122799859565789,1
626,650,8,0.112350648109505,1
627,648,8,0.125614868144162,1
627,649,8,0.141755990695185,1
628,647,8,0.124062411129942,1
628,648,8,0.145842418323872,1
628,649,8,0.128659940583604,1
629,647,8,0.156545284500634,1
629,648,8,0.135753572581902,1
630,647,8,0.11544941624502,1
638,645,8,0.1111719305403,1
639,646,8,0.136152419839933,1
642,646,8,0.133483641127682,1
643,686,8,0.136936651392728,1
644,686,8,0.121805552246515,1
644,687,8,0.164729472293779,1
645,640,8,0.108521834896376,1
645,686,8,0.134835157559279,1
645,687,8,0.16024763286082,1
646,640,8,0.138037792400616,1
646,645,8,0.109059081862937,1
646,686,8,0.115721597876836,1
647,640,8,0.162859726586066,1
648,640,8,0.178780980096587,1
648,641,8,0.193194482108023,1
649,640,8,0.17134495159178,1
649,641,8,0.179776280128149,1
649,642,8,0.257585124967084,1
649,644,8,0.143250758856042,1
650,640,8,0.194960662269821,1
650,641,8,0.192728978123834,1
650,642,8,0.20677090457996,1
650,643,8,0.184420946684345,1
650,644,8,0.108610409371347,1
651,641,8,0.2394273910602,1
651,642,8,0.203531896314258,1
651,643,8,0.198689401161148,1
651,644,8,0.139251344132437,1
652,642,8,0.233770782599043,1
652,644,8,0.24639620900801,1
652,645,8,0.118424485737111,1
653,641,8,0.206222213536919,1
653,645,8,0.160695189945346,1
653,662,8,0.10481586146323,1
654,645,8,0.190003414037942,1
654,646,8,0.104051963781216,1
654,662,8,0.148775883132466,1
655,646,8,0.171733827110656,1
656,647,8,0.156907881029076,1
657,648,8,0.122199012088425,1
660,650,8,0.111160263382409,1
661,650,8,0.138254292911784,1
662,649,8,0.185190655637165,1
662,650,8,0.150968862653325,1
662,651,8,0.123567884253941,1
662,652,8,0.1096076502112,1
663,649,8,0.175195894481064,1
663,650,8,0.172135819816607,1
663,651,8,0.183311417815335,1
663,654,8,0.123428291059852,1
664,656,8,0.129191153197948,1
665,657,8,0.202007536403987,1
665,658,8,0.121033099392317,1
666,659,8,0.130886616551873,1
666,660,8,0.135797240768467,1
666,661,8,0.140150629923909,1
666,662,8,0.11272109710368,1
666,665,8,0.112855258265367,1
666,666,8,0.152349212357532,1
619,657,9,0.120016127001498,1
624,651,9,0.129521291380821,1
625,650,9,0.125961659354504,1
625,651,9,0.10784977983203,1
626,648,9,0.123550751601435,1
626,649,9,0.165363179663256,1
626,650,9,0.132476941635924,1
627,648,9,0.198218320141637,1
627,649,9,0.209303570168161,1
627,650,9,0.114791894934722,1
628,648,9,0.235301589562146,1
628,649,9,0.186515290758513,1
629,647,9,0.221748702179264,1
629,648,9,0.209859265967565,1
629,649,9,0.129269209384303,1
630,647,9,0.159940271290198,1
630,648,9,0.124237853507076,1
637,684,9,0.111333720334968,1
638,645,9,0.124847334235118,1
639,646,9,0.143623661745758,1
640,685,9,0.105256123785556,1
642,646,9,0.135481669801853,1
643,645,9,0.172969419286066,1
643,686,9,0.15296609938848,1
644,686,9,0.118138082665227,1
644,687,9,0.141937445116395,1
645,686,9,0.122260816793854,1
646,640,9,0.153272401322391,1
646,645,9,0.120029824200246,1
646,686,9,0.108751764908598,1
647,640,9,0.213809569318132,1
648,640,9,0.230767861392558,1
648,644,9,0.15850642666319,1
649,640,9,0.210902416962183,1
649,641,9,0.202320608858777,1
649,643,9,0.24038186719321,1
649,644,9,0.119980723981279,1
650,641,9,0.22780360019492,1
650,642,9,0.219511931777064,1
650,643,9,0.171236634411771,1
651,642,9,0.196414573069915,1
651,643,9,0.190455466212937,1
651,644,9,0.133879008315672,1
651,684,9,0.105580941476733,1
651,685,9,0.110158516298016,1
652,642,9,0.205343138921451,1
652,643,9,0.29679884418843,1
652,644,9,0.228028733956766,1
652,645,9,0.106412667062324,1
652,684,9,0.120185958881099,1
653,641,9,0.171979305897353,1
653,642,9,0.193733000638637,1
653,644,9,0.264907348489128,1
653,645,9,0.134950434879368,1
654,641,9,0.166647358970385,1
654,642,9,0.177673637425423,1
654,643,9,0.216360951436872,1
654,644,9,0.216398473730513,1
654,645,9,0.164957896506465,1
654,662,9,0.121317160109367,1
655,645,9,0.238561433631807,1
655,646,9,0.155144054376184,1
656,646,9,0.226055712708975,1
656,647,9,0.133707581403969,1
657,647,9,0.186772592860092,1
658,648,9,0.153599605984685,1
659,649,9,0.150098566291453,1
660,650,9,0.120909623830306,1
661,650,9,0.168967104504094,1
662,649,9,0.205249422419914,1
662,650,9,0.179899108754063,1
662,651,9,0.138998525967256,1
662,652,9,0.115591061788108,1
663,649,9,0.153000944705167,1
663,650,9,0.169657106468103,1
663,651,9,0.190133336652785,1
663,652,9,0.226534400804664,1
663,654,9,0.127427159233996,1
664,651,9,0.230848906869846,1
664,657,9,0.108271057926123,1
665,658,9,0.143245996067878,1
666,660,9,0.14547792560342,1
666,661,9,0.137255925510796,1
666,662,9,0.113266731931365,1
666,663,9,0.104429361761401,1
666,665,9,0.108604921568591,1
666,666,9,0.140027511292158,1
624,651,10,0.115769872694576,1
625,650,10,0.122159013591101,1
626,649,10,0.19511084067695,1
626,650,10,0.135477208173596,1
627,648,10,0.280335368995842,1
627,649,10,0.269822612799109,1
627,650,10,0.127328512633234,1
628,649,10,0.238922870136903,1
629,648,10,0.282783174414596,1
629,649,10,0.15623859217425,1
630,647,10,0.205200522974218,1
630,648,10,0.163142303811721,1
631,647,10,0.121906987364936,1
639,646,10,0.135183521493582,1
639,685,10,0.129985824960865,1
640,685,10,0.104195873600644,1
642,646,10,0.123538716359211,1
643,645,10,0.198640457099169,1
643,686,10,0.161016672569401,1
644,686,10,0.110461951635771,1
646,640,10,0.162065099439432,1
647,640,10,0.259738485229021,1
648,641,10,0.225380266807154,1
648,644,10,0.129074704700441,1
649,640,10,0.244026660548882,1
649,641,10,0.223680921836645,1
649,642,10,0.232193753167198,1
649,643,10,0.187787925602527,1
650,640,10,0.265616948155255,1
650,641,10,0.255131318658324,1
650,642,10,0.209183619292473,1
650,643,10,0.143374490961678,1
650,684,10,0.114505949179734,1
650,685,10,0.126152048186299,1
651,641,10,0.232507829488347,1
651,642,10,0.174415410696004,1
651,643,10,0.166731215273474,1
651,644,10,0.117578505249239,1
651,684,10,0.146314993988848,1
652,641,10,0.181834641170424,1
652,642,10,0.170996944587737,1
652,643,10,0.243237153120673,1
652,644,10,0.187833032664205,1
652,683,10,0.11835032232141,1
652,684,10,0.141875963879015,1
653,641,10,0.140050254442198,1
653,642,10,0.155124490136277,1
653,643,10,0.22926978047272,1
653,644,10,0.198007954369322,1
653,645,10,0.106263459059341,1
654,642,10,0.139669599473385,1
654,643,10,0.157250779468765,1
654,644,10,0.162593333916914,1
654,645,10,0.133485816171457,1
655,642,10,0.17964851024894,1
655,643,10,0.170379343696268,1
655,644,10,0.180788467422663,1
655,645,10,0.198719115605339,1
655,646,10,0.131547651394424,1
656,645,10,0.242833554228548,1
656,646,10,0.18239350472589,1
656,647,10,0.11228353406645,1
657,646,10,0.199510987696525,1
657,647,10,0.152168170636936,1
658,646,10,0.185566726282943,1
658,647,10,0.172321267395108,1
658,648,10,0.122399171886102,1
659,649,10,0.130068621627243,1
660,650,10,0.125955781159276,1
661,649,10,0.283547451335013,1
661,650,10,0.18787755971421,1
662,648,10,0.187201288411162,1
662,649,10,0.207786861950351,1
662,650,10,0.194697537743367,1
662,651,10,0.148026006117249,1
662,652,10,0.119552496901176,1
663,649,10,0.132671468627927,1
663,650,10,0.160883258730447,1
663,651,10,0.188546870877177,1
663,652,10,0.219198948554838,1
663,653,10,0.198938159244614,1
663,654,10,0.136290272999002,1
664,650,10,0.184177051775679,1
664,651,10,0.196567071523738,1
664,652,10,0.259721062570678,1
664,656,10,0.143576424256588,1
664,657,10,0.112907693551457,1
665,658,10,0.161249134555659,1
666,661,10,0.131532526474633,1
666,662,10,0.117083164126082,1
666,663,10,0.113904376687778,1
666,664,10,0.106554390683906,1
666,665,10,0.111180675331684,1
666,666,10,0.130757050867291,1
625,649,11,0.105193538295182,1
625,650,11,0.106424133446944,1
626,650,11,0.124305380250745,1
627,649,11,0.285805615244706,1
627,650,11,0.125881104656325,1
629,649,11,0.164290291916306,1
630,648,11,0.192605904108365,1
631,647,11,0.155517046498465,1
631,648,11,0.120715833006965,1
632,647,11,0.132768040571549,1
632,676,11,0.109036204864049,1
633,647,11,0.114673405242288,1
637,653,11,0.105563842286438,1
638,653,11,0.122221565619264,1
639,646,11,0.126095619742919,1
639,685,11,0.124855309395627,1
640,685,11,0.104390132894952,1
642,646,11,0.113440133113571,1
642,685,11,0.115896538320791,1
643,646,11,0.105662109648798,1
643,686,11,0.168736661404622,1
644,646,11,0.118374850122753,1
644,686,11,0.106774003180784,1
646,640,11,0.162648769648007,1
649,641,11,0.23377611424481,1
649,642,11,0.197954682527934,1
649,643,11,0.138650050492247,1
650,640,11,0.260256324112665,1
650,641,11,0.241855587622765,1
650,642,11,0.173183599750541,1
650,643,11,0.117402137084242,1
650,684,11,0.170840575671401,1
651,641,11,0.187557794817034,1
651,642,11,0.145600843461899,1
651,643,11,0.141700800353646,1
651,644,11,0.10405516499949,1
651,683,11,0.125342028422178,1
651,684,11,0.186935988840932,1
652,641,11,0.143562236278731,1
652,642,11,0.145219195780799,1
652,643,11,0.183761752263451,1
652,644,11,0.145098754126002,1
652,683,11,0.122791070158123,1
653,642,11,0.129227080459487,1
653,643,11,0.158582709352313,1
653,644,11,0.139846781885539,1
654,642,11,0.111484902608455,1
654,643,11,0.115150866390206,1
654,644,11,0.120204407713941,1
654,645,11,0.106676973920266,1
655,643,11,0.124155536465735,1
655,644,11,0.138354434158012,1
655,645,11,0.155139035044395,1
655,646,11,0.111572528987422,1
656,643,11,0.182878662182552,1
656,644,11,0.17931426736807,1
656,645,11,0.186251363138973,1
656,646,11,0.144605409581489,1
657,644,11,0.182790210402358,1
657,645,11,0.166573329403531,1
657,646,11,0.148873458942446,1
657,647,11,0.120206047362326,1
658,645,11,0.135275944122925,1
658,646,11,0.136108930118498,1
658,647,11,0.128842410025243,1
659,646,11,0.13744039153108,1
659,647,11,0.153279629160167,1
659,648,11,0.152166107133867,1
659,649,11,0.109333271227468,1
660,646,11,0.173379509847304,1
660,649,11,0.204971128357386,1
660,650,11,0.126949675777936,1
661,647,11,0.215139179154987,1
661,648,11,0.250163429443052,1
661,649,11,0.253150110322682,1
661,650,11,0.192972649951087,1
661,651,11,0.119573087315582,1
662,648,11,0.154581041506438,1
662,649,11,0.18951876966853,1
662,650,11,0.197896859825723,1
662,651,11,0.167234966565896,1
662,652,11,0.139759679747893,1
662,653,11,0.112008006213442,1
663,649,11,0.118679735489692,1
663,650,11,0.150229057763898,1
663,651,11,0.182152454105238,1
663,652,11,0.210876584134575,1
663,653,11,0.203375583168275,1
663,654,11,0.155519110001534,1
663,655,11,0.10551369358483,1
664,651,11,0.156526211039835,1
664,652,11,0.212678457322429,1
664,653,11,0.266748060150958,1
664,654,11,0.262803400760137,1
664,655,11,0.207621246309453,1
664,656,11,0.150514646588626,1
664,657,11,0.124824267617029,1
665,652,11,0.161179923547323,1
665,659,11,0.119722451475554,1
666,661,11,0.12618940316888,1
666,662,11,0.129257676075259,1
666,663,11,0.134988626417247,1
666,664,11,0.123900855570758,1
666,665,11,0.125056138437543,1
666,666,11,0.126794500347159,1
666,667,11,0.117771515287635,1
626,649,12,0.169458307467044,1
626,650,12,0.103051343257958,1
627,649,12,0.256043721636871,1
627,650,12,0.110132817319256,1
629,649,12,0.159772023288629,1
630,649,12,0.108963234933907,1
631,648,12,0.150559965577646,1
631,675,12,0.105954491302546,1
632,648,12,0.11955464963681,1
632,675,12,0.125534023440146,1
632,676,12,0.137780780304874,1
633,676,12,0.125878137673534,1
633,677,12,0.129250437083412,1
635,679,12,0.103749855777867,1
636,652,12,0.132505049893943,1
637,652,12,0.125738934871917,1
637,653,12,0.128360297629867,1
637,683,12,0.114713236428552,1
637,684,12,0.125316563678902,1
638,653,12,0.137142031295467,1
638,685,12,0.165250010462518,1
639,646,12,0.112389687356754,1
639,685,12,0.110801503854267,1
642,685,12,0.118120180381846,1
643,685,12,0.110570134966932,1
643,686,12,0.163605420824793,1
644,646,12,0.119700968735497,1
647,641,12,0.200026417300909,1
648,642,12,0.215230687150537,1
648,643,12,0.164259160905143,1
649,641,12,0.228446386977899,1
649,642,12,0.161832358601408,1
650,641,12,0.1978242245177,1
650,642,12,0.130227678674604,1
650,683,12,0.126064633734675,1
650,684,12,0.19764955177144,1
651,642,12,0.114933384320821,1
651,643,12,0.107784963527527,1
651,683,12,0.141323090059483,1
652,642,12,0.11725624184024,1
652,643,12,0.12377848426174,1
653,642,12,0.102933957818517,1
653,643,12,0.103955168756181,1
655,645,12,0.110490082201931,1
656,644,12,0.12194490005105,1
656,645,12,0.130528091259215,1
656,646,12,0.110773864067215,1
657,645,12,0.119384962760127,1
657,646,12,0.107217344026607,1
659,647,12,0.107535803897518,1
659,648,12,0.110755303693666,1
660,647,12,0.142765545629028,1
660,648,12,0.174181911381176,1
660,649,12,0.168185181843921,1
660,650,12,0.137666406464507,1
660,651,12,0.103387828107027,1
661,648,12,0.174539510885971,1
661,649,12,0.20177231936228,1
661,650,12,0.204736201321516,1
661,651,12,0.1757158637922,1
661,652,12,0.127670630287978,1
662,649,12,0.156714647909268,1
662,650,12,0.204367492362362,1
662,651,12,0.223178520186771,1
662,652,12,0.196287952059983,1
662,653,12,0.143415761023055,1
663,650,12,0.141486564118818,1
663,651,12,0.185365105302012,1
663,652,12,0.215981199947781,1
663,653,12,0.215112186304033,1
663,654,12,0.173785640713464,1
663,655,12,0.124681707440149,1
664,651,12,0.125049445995158,1
664,652,12,0.169761809729223,1
664,653,12,0.225503318514481,1
664,654,12,0.241689771208595,1
664,655,12,0.211644898828564,1
664,656,12,0.160216914550271,1
664,657,12,0.133081336107752,1
664,658,12,0.104490151446402,1
665,652,12,0.12131843167342,1
665,653,12,0.176366804200819,1
665,654,12,0.239177562185952,1
665,655,12,0.260935740863634,1
665,656,12,0.240674550006866,1
665,659,12,0.126784115907391,1
665,663,12,0.104732975564287,1
665,664,12,0.103735757032575,1
666,661,12,0.121831797774736,1
666,662,12,0.145223122013665,1
666,663,12,0.176271001888072,1
666,664,12,0.177046254414,1
666,666,12,0.133150736735289,1
667,667,12,0.165434231093248,1
628,671,13,0.115756342806887,1
629,649,13,0.146196894688887,1
630,649,13,0.118756821271901,1
632,675,13,0.135305792415964,1
632,676,13,0.13580214855955,1
633,675,13,0.116065823650931,1
633,676,13,0.157837438968272,1
633,677,13,0.145667143257797,1
634,676,13,0.106742269849806,1
634,677,13,0.11825100647641,1
634,678,13,0.13609473098657,1
635,652,13,0.116890511017946,1
635,679,13,0.159728834727101,1
636,651,13,0.115298624364006,1
636,652,13,0.172272457181977,1
636,653,13,0.123380551637502,1
636,680,13,0.112287794921436,1
637,652,13,0.15261395422423,1
637,653,13,0.142838805565007,1
637,682,13,0.130789721140203,1
637,683,13,0.140852566743505,1
637,684,13,0.132309775579206,1
638,652,13,0.103001930725012,1
638,653,13,0.133340277857715,1
638,685,13,0.144529428052274,1
640,646,13,0.111054065475822,1
641,685,13,0.107264648440201,1
642,685,13,0.12210829603189,1
643,685,13,0.12390401217275,1
644,646,13,0.115810105427383,1
646,645,13,0.135279937280215,1
647,641,13,0.170731221162823,1
647,642,13,0.228390772781676,1
647,644,13,0.134665437220384,1
648,642,13,0.175084208771722,1
648,643,13,0.130962352691535,1
649,641,13,0.200260005848302,1
649,642,13,0.128664602985133,1
650,683,13,0.143777454071776,1
660,648,13,0.1150173967809,1
660,649,13,0.133931800532022,1
660,650,13,0.147493388090005,1
660,651,13,0.149144424780562,1
660,652,13,0.116399787680035,1
661,648,13,0.112799554836579,1
661,649,13,0.146636275839632,1
661,650,13,0.211121036746773,1
661,652,13,0.22212019965608,1
661,653,13,0.123190408195262,1
662,649,13,0.120361222793102,1
662,650,13,0.20277765805742,1
662,653,13,0.189642334463107,1
662,654,13,0.113035139962617,1
663,650,13,0.132417869677802,1
663,651,13,0.190298327665727,1
663,652,13,0.224542016090238,1
663,653,13,0.220004941699457,1
663,654,13,0.178134010537117,1
663,655,13,0.136510811283743,1
663,656,13,0.106374007053477,1
664,651,13,0.104087076795598,1
664,652,13,0.134601859017723,1
664,653,13,0.181716854184441,1
664,654,13,0.204812339007721,1
664,655,13,0.1967956184312,1
664,656,13,0.166834323502492,1
664,657,13,0.140917048425888,1
664,658,13,0.105467348421311,1
665,653,13,0.132987742300992,1
665,654,13,0.188642438954441,1
665,655,13,0.208092171171974,1
665,656,13,0.198590419938267,1
665,657,13,0.218576930651395,1
665,659,13,0.129831787245293,1
665,663,13,0.145049207744209,1
665,664,13,0.159632508173034,1
665,665,13,0.1259716534018,1
666,655,13,0.197017383663712,1
666,656,13,0.193514916249438,1
666,662,13,0.155820091443748,1
666,663,13,0.228436236773615,1
666,666,13,0.15072030534313,1
667,667,13,0.144949691125937,1
632,675,14,0.120115755160475,1
632,676,14,0.114332046064349,1
633,675,14,0.127306896044329,1
633,676,14,0.165110997280102,1
633,677,14,0.139895904412649,1
634,676,14,0.142868363852209,1
634,677,14,0.150681723412778,1
634,678,14,0.159989561128367,1
635,651,14,0.107352040583684,1
635,652,14,0.132077447441796,1
635,678,14,0.113398138037603,1
635,679,14,0.217409969472647,1
636,651,14,0.125491649125775,1
636,652,14,0.190058314373644,1
636,653,14,0.147558806714322,1
636,680,14,0.164223501341299,1
637,652,14,0.166290138703992,1
637,653,14,0.151949338925003,1
637,681,14,0.144907573355192,1
637,683,14,0.164984833587066,1
637,684,14,0.1442791530152,1
638,652,14,0.107129472258086,1
638,653,14,0.122457251131937,1
638,682,14,0.132246018911414,1
638,683,14,0.117359885464649,1
638,684,14,0.11048624520163,1
644,646,14,0.110963617116983,1
646,645,14,0.116342544989498,1
647,641,14,0.161219386649256,1
647,642,14,0.170633221498159,1
647,643,14,0.164731836956756,1
647,644,14,0.105843787151421,1
648,642,14,0.13776838813239,1
660,649,14,0.112502209621394,1
660,650,14,0.159563174469921,1
660,652,14,0.162879011974207,1
661,649,14,0.108108264265097,1
661,653,14,0.165023950912809,1
662,654,14,0.127566540500743,1
663,650,14,0.1158680396703,1
663,653,14,0.212104513463454,1
663,654,14,0.171292081296935,1
663,655,14,0.138413160339944,1
663,656,14,0.11673674100007,1
664,652,14,0.111460252112336,1
664,653,14,0.147493756174336,1
664,654,14,0.170517252625691,1
664,655,14,0.1717828604052,1
664,656,14,0.160773725756739,1
664,657,14,0.139857300174155,1
665,653,14,0.108560528367434,1
665,654,14,0.155181944754156,1
665,655,14,0.169191502097278,1
665,656,14,0.166077218649499,1
665,657,14,0.184672348282554,1
665,658,14,0.171794694874151,1
665,659,14,0.129583408400229,1
665,662,14,0.108028178037885,1
665,663,14,0.185932222869753,1
665,666,14,0.103998123082225,1
666,655,14,0.16165945935238,1
666,656,14,0.1615580465421,1
666,657,14,0.220297959135233,1
666,662,14,0.154325211742185,1
633,675,15,0.114884986808304,1
633,676,15,0.141924216388614,1
634,676,15,0.151529566630447,1
634,677,15,0.160652358314079,1
635,651,15,0.12289085447409,1
635,652,15,0.144689065111307,1
635,653,15,0.117314231853509,1
635,677,15,0.105456830132695,1
635,678,15,0.148149593219967,1
636,651,15,0.140934147616183,1
636,652,15,0.198044762802442,1
636,653,15,0.177897633472063,1
636,654,15,0.117300623887326,1
636,679,15,0.134707521528918,1
637,651,15,0.11418084148272,1
637,652,15,0.173526397803594,1
637,653,15,0.166399013587532,1
637,680,15,0.119765316569033,1
637,681,15,0.220781934260406,1
637,683,15,0.169732786837411,1
638,652,15,0.110789736309739,1
638,653,15,0.113141371331415,1
638,681,15,0.154547601602653,1
638,682,15,0.186060728917624,1
638,683,15,0.129958664798851,1
643,646,15,0.117331799514771,1
644,646,15,0.112898870681579,1
645,645,15,0.195380367639953,1
646,643,15,0.15597223296731,1
646,644,15,0.140606764488759,1
647,642,15,0.142271386837358,1
647,643,15,0.108517830585015,1
659,649,15,0.107148099556059,1
659,652,15,0.106268612239977,1
660,649,15,0.103657065064193,1
660,653,15,0.107934004219451,1
662,654,15,0.140658653225387,1
663,653,15,0.184540351010572,1
663,654,15,0.159090398031672,1
663,655,15,0.13737839720645,1
663,656,15,0.121030690113059,1
664,653,15,0.116744359230319,1
664,654,15,0.139545722364831,1
664,655,15,0.146024843149228,1
664,656,15,0.144519322464272,1
664,657,15,0.128466897082996,1
664,665,15,0.112866144638314,1
665,655,15,0.137259662124461,1
665,656,15,0.141175900943286,1
665,657,15,0.152195565034434,1
665,658,15,0.147123184485384,1
665,659,15,0.131700004845328,1
665,660,15,0.113991489979495,1
665,662,15,0.108180609567284,1
665,666,15,0.125720653350134,1
666,662,15,0.151008928075072,1
633,676,16,0.106985272432821,1
634,676,16,0.128621057493345,1
634,677,16,0.139022440294714,1
635,651,16,0.132551495444098,1
635,652,16,0.151277373093223,1
635,653,16,0.138573756649053,1
635,654,16,0.117211201702986,1
635,677,16,0.105843363296736,1
635,678,16,0.164042548853268,1
636,651,16,0.159579939038096,1
636,652,16,0.204149608746433,1
636,653,16,0.211964418336186,1
636,654,16,0.175803278243825,1
636,679,16,0.152770111213223,1
637,651,16,0.138730895196263,1
637,652,16,0.181100167926764,1
637,653,16,0.188559764982839,1
637,654,16,0.144057276241981,1
637,680,16,0.164342905667526,1
637,681,16,0.296637310937387,1
637,682,16,0.297533362048373,1
638,652,16,0.117076003212729,1
638,653,16,0.112265576012716,1
638,680,16,0.110635475512755,1
638,681,16,0.221275613427038,1
638,682,16,0.230310946042763,1
639,681,16,0.106324594520532,1
639,682,16,0.105557986399351,1
644,646,16,0.116898285405184,1
645,645,16,0.156066551788662,1
646,643,16,0.117105695348779,1
662,655,16,0.120175418284342,1
663,656,16,0.126610692417043,1
664,656,16,0.133363567557217,1
664,657,16,0.119795544100474,1
628,665,17,0.104922416300077,1
629,665,17,0.127469332775094,1
635,651,17,0.135954568934878,1
635,652,17,0.160674621839081,1
635,653,17,0.161058979959347,1
635,654,17,0.151487794635891,1
636,651,17,0.179741490581815,1
636,652,17,0.218784307132778,1
636,653,17,0.244060702772483,1
636,654,17,0.231050907089179,1
636,655,17,0.123056425498705,1
637,651,17,0.174316451781265,1
637,652,17,0.198637311651248,1
637,653,17,0.213475906448936,1
637,654,17,0.195062900481329,1
637,655,17,0.105510258131072,1
637,680,17,0.189460166181375,1
637,681,17,0.334872572773842,1
638,651,17,0.133557603770112,1
638,652,17,0.134148546432745,1
638,653,17,0.118288908008453,1
638,680,17,0.135587990403216,1
638,681,17,0.258456547890092,1
639,681,17,0.11240472304398,1
644,646,17,0.116034436096143,1
645,644,17,0.168530634565787,1
645,645,17,0.120949354629934,1
653,670,17,0.104343508879666,1
654,670,17,0.117819611640245,1
628,665,18,0.12959194126427,1
629,665,18,0.131319751423059,1
635,651,18,0.134617073170079,1
635,652,18,0.17942487113256,1
635,653,18,0.187128786951986,1
635,654,18,0.179860069506814,1
635,655,18,0.110527303335665,1
635,678,18,0.136640878901504,1
636,651,18,0.190572695495388,1
636,652,18,0.243870392019182,1
636,653,18,0.271255933184797,1
636,654,18,0.269276777198153,1
636,655,18,0.1440890318811,1
636,680,18,0.194592444089775,1
637,651,18,0.199805856708027,1
637,652,18,0.221601245365372,1
637,653,18,0.238815902599443,1
637,654,18,0.24809107004212,1
637,655,18,0.138144637243299,1
637,680,18,0.175477969773539,1
638,651,18,0.168565524498756,1
638,652,18,0.159984385639589,1
638,653,18,0.13166998924123,1
638,654,18,0.123064132961519,1
639,651,18,0.103739828268359,1
644,645,18,0.198192799628007,1
644,646,18,0.103595171126198,1
653,670,18,0.129627690060679,1
654,670,18,0.147957921670048,1
654,671,18,0.109453355952004,1
635,652,19,0.193596184808138,1
635,653,19,0.211665913097654,1
635,654,19,0.193054676986591,1
636,651,19,0.179347551114867,1
636,652,19,0.25668267141955,1
636,653,19,0.277654666582074,1
636,654,19,0.262953066080016,1
637,651,19,0.192248951539668,1
637,652,19,0.221763135546676,1
637,653,19,0.232916336171554,1
637,654,19,0.253086085957195,1
643,646,19,0.156731256320454,1
