x,y,z,fucci_ch00,fucci_ch02
935,588,8,0.00950637064164187,0.0101167315175097
936,588,8,0.0972152285038529,0.00953688868543526
931,589,8,0.0665445944914931,0.0231631952391852
932,589,8,0.0251773861295491,0.00746166170748455
933,589,8,0.0131532768749523,0.00744640268558785
934,589,8,0.00921644922560464,0.0238193331807431
935,589,8,0.00286869611657893,0.0136873426413367
936,589,8,0.00474555580987259,0.0132295719844358
937,589,8,0.0457160296025025,0.0148928053711757
938,589,8,0.00329594872968643,0.00790417334248875
939,589,8,0.0343480582894636,0.00761425192645151
930,590,8,0.0400244144350347,0.00775158312352178
931,590,8,0.00175478751812009,0.00772106507972839
932,590,8,0.00204470893415732,0.00791943236438544
933,590,8,0.024979018844892,0.0239108873121233
934,590,8,0.0588540474555581,0.00778210116731518
935,590,8,0.027191577019913,0.00805676356145571
936,590,8,0.00247196154726482,0.00784313725490196
937,590,8,0.00498970016021973,0.0181887541008621
938,590,8,0.00659189745937285,0.00804150453955901
939,590,8,0.00280766002899214,0.013168535896849
940,590,8,0.0232394903486687,0.00952162966353857
929,591,8,0.0448767833981842,0.00906385900663768
930,591,8,0.0164492256046387,0.00796520943007553
931,591,8,0.00863660639353018,0.0081177996490425
932,591,8,0.00230411230640116,0.012466620889601
933,591,8,0.00282291905088884,0.00747692072938125
934,591,8,0.00431830319676509,0.00828564888990616
935,591,8,0.00228885328450446,0.00772106507972839
936,591,8,0.00140383001449607,0.00790417334248875
937,591,8,0.0164187075608454,0.00837720302128634
938,591,8,0.00440985732814527,0.00816357671473259
939,591,8,0.079163805600061,0.018448157473106
940,591,8,0.0628519111924926,0.00775158312352178
941,591,8,0.0443732356755932,0.00831616693369955
929,592,8,0.00253299763485161,0.0210574502174411
930,592,8,0.00248722056916152,0.00735484855420768
931,592,8,0.0482337682154574,0.0169985503929198
932,592,8,0.0261997405966278,0.00822461280231937
933,592,8,0.036087586785687,0.00782787823300526
934,592,8,0.005981536583505,0.00781261921110857
935,592,8,0.0206149385824369,0.00778210116731518
936,592,8,0.0021210040436408,0.00848401617456321
937,592,8,0.00202944991226062,0.0130464637216754
938,592,8,0.00196841382467384,0.00779736018921187
939,592,8,0.016433966582742,0.0141145952544442
940,592,8,0.0187228198672465,0.00825513084611276
941,592,8,0.0131074998092622,0.00688181887541009
942,592,8,0.0255893797207599,0.00788891432059205
928,593,8,0.0401922636758984,0.014724956130312
929,593,8,0.0327611200122072,0.0151522087434195
930,593,8,0.0337987335011826,0.00842298008697642
931,593,8,0.0318303196765087,0.00788891432059205
932,593,8,0.00761425192645151,0.0123903257801175
933,593,8,0.0378271152819104,0.00994888227664607
934,593,8,0.00221255817502098,0.00823987182421607
935,593,8,0.00245670252536812,0.0160219729915312
936,593,8,0.00303654535744259,0.00759899290455482
937,593,8,0.00717174029144732,0.00738536659800107
938,593,8,0.0522011139085985,0.00802624551766232
939,593,8,0.0183718623636225,0.010757610437171
940,593,8,0.00663767452506294,0.00828564888990616
941,593,8,0.0133974212252995,0.009399557488365
942,593,8,0.0155031662470436,0.00782787823300526
928,594,8,0.0152132448310063,0.00756847486076143
929,594,8,0.00613412680247196,0.00773632410162509
930,594,8,0.0119020370794232,0.00817883573662928
931,594,8,0.010406652933547,0.00762951094834821
932,594,8,0.00222781719691768,0.0137178606851301
933,594,8,0.00190737773708705,0.0081025406271458
934,594,8,0.00399786373693446,0.0142519264515145
935,594,8,0.0330205233844511,0.0076600289921416
936,594,8,0.00175478751812009,0.00793469138628214
937,594,8,0.0142519264515145,0.0080872816052491
938,594,8,0.00228885328450446,0.007690547035935
939,594,8,0.0501716639963378,0.00733958953231098
940,594,8,0.00160219729915312,0.00799572747386892
941,594,8,0.0362554360265507,0.00837720302128634
942,594,8,0.00331120775158312,0.00967421988250553
943,594,8,0.0690470740825513,0.0076600289921416
928,595,8,0.00685130083161669,0.00849927519645991
929,595,8,0.0218966964217594,0.00854505226215
930,595,8,0.00329594872968643,0.00775158312352178
931,595,8,0.0343633173113603,0.00799572747386892
932,595,8,0.00236514839398795,0.00828564888990616
933,595,8,0.0155642023346304,0.0103456168459602
934,595,8,0.00788891432059205,0.00747692072938125
935,595,8,0.00241092545967803,0.00794995040817884
936,595,8,0.0021362630655375,0.00778210116731518
937,595,8,0.00202944991226062,0.00762951094834821
938,595,8,0.00283817807278553,0.0123903257801175
939,595,8,0.00195315480277714,0.00817883573662928
940,595,8,0.0304417486839094,0.00773632410162509
941,595,8,0.0363622491798276,0.0101777676050965
942,595,8,0.0672922865644312,0.00831616693369955
943,595,8,0.0257572289616236,0.00794995040817884
928,596,8,0.0021515220874342,0.00732433051041428
929,596,8,0.0151216906996262,0.00706492713817044
930,596,8,0.00239566643778134,0.00784313725490196
931,596,8,0.0021515220874342,0.0180209048599985
932,596,8,0.00201419089036393,0.00923170824750134
933,596,8,0.00227359426260777,0.009399557488365
934,596,8,0.0603341725795377,0.00839246204318303
935,596,8,0.0106507972838941,0.0131990539406424
936,596,8,0.00219729915312428,0.0165712977798123
937,596,8,0.0216067750057221,0.00805676356145571
938,596,8,0.0228885328450446,0.0179140917067216
939,596,8,0.00885023270008392,0.0196231021591516
940,596,8,0.042221713588159,0.00778210116731518
941,596,8,0.00520332646677348,0.00956740672922866
942,596,8,0.00462348363469902,0.00755321583886473
943,596,8,0.064286259250782,0.00747692072938125
928,597,8,0.0185549706263828,0.0125886930647745
929,597,8,0.0396887159533074,0.0141603723201343
930,597,8,0.0168307011520562,0.00794995040817884
931,597,8,0.0101930266269932,0.0188754100862135
932,597,8,0.0174715800717174,0.0085297932402533
933,597,8,0.0217441062027924,0.00782787823300526
934,597,8,0.00201419089036393,0.00782787823300526
935,597,8,0.0265812161440452,0.00796520943007553
936,597,8,0.0134126802471962,0.00788891432059205
937,597,8,0.0183871213855192,0.00746166170748455
938,597,8,0.0234988937209125,0.00796520943007553
939,597,8,0.00241092545967803,0.00764476997024491
940,597,8,0.0148317692835889,0.00720225833524071
941,597,8,0.0628366521705959,0.00772106507972839
942,597,8,0.0501411459525444,0.00819409475852598
943,597,8,0.0340733958953231,0.0089723048752575
928,598,8,0.0138094148165103,0.00830090791180285
929,598,8,0.00175478751812009,0.0118257419699397
930,598,8,0.0359502555886168,0.00802624551766232
931,598,8,0.00161745632104982,0.00849927519645991
932,598,8,0.0116273746852827,0.0108033875028611
933,598,8,0.0198977645532921,0.00775158312352178
934,598,8,0.00483710994125277,0.00805676356145571
935,598,8,0.00819409475852598,0.00802624551766232
936,598,8,0.00134279392690929,0.00746166170748455
937,598,8,0.00199893186846723,0.0132600900282292
938,598,8,0.00224307621881437,0.0101472495613031
939,598,8,0.00675974670023652,0.0104219119554437
940,598,8,0.00378423743038071,0.0106660563057908
941,598,8,0.012970168612192,0.00849927519645991
942,598,8,0.00167849240863661,0.0215762569619287
943,598,8,0.0472419317921721,0.00802624551766232
929,599,8,0.0164644846265354,0.015732051575494
930,599,8,0.00508125429159991,0.0193331807431144
931,599,8,0.00930800335698482,0.00802624551766232
932,599,8,0.0440070191500725,0.00787365529869535
933,599,8,0.00178530556191348,0.0289463645380331
934,599,8,0.00175478751812009,0.00721751735713741
935,599,8,0.00210574502174411,0.014175631342031
936,599,8,0.0171206225680934,0.019501029983978
937,599,8,0.00268558785381857,0.00860608834973678
938,599,8,0.031113145647364,0.0114747844663157
939,599,8,0.0289768825818265,0.0129549095902953
940,599,8,0.0143587396047913,0.0080872816052491
941,599,8,0.00137331197070268,0.00770580605783169
942,599,8,0.00241092545967803,0.00830090791180285
943,599,8,0.0107270923933776,0.00827038986800946
930,600,8,0.0907911802853437,0.00825513084611276
931,600,8,0.0448920424200809,0.02050812542916
932,600,8,0.0379949645227741,0.00750743877317464
933,600,8,0.0115358205539025,0.00770580605783169
934,600,8,0.0278019378957809,0.0118715190356298
935,600,8,0.0139009689478904,0.00799572747386892
936,600,8,0.0394903486686503,0.00756847486076143
937,600,8,0.0144502937361715,0.00791943236438544
938,600,8,0.00286869611657893,0.0100862134737163
939,600,8,0.0654154268711376,0.0080872816052491
933,588,9,0.00563057907988098,0.0161287861448081
934,588,9,0.00204470893415732,0.00752269779507134
935,588,9,0.0038605325398642,0.00794995040817884
936,588,9,0.00564583810177768,0.00898756389715419
937,588,9,0.00567635614557107,0.0130312046997787
931,589,9,0.0316319523918517,0.00790417334248875
932,589,9,0.0100251773861295,0.0153047989623865
933,589,9,0.00703440909437705,0.0080872816052491
934,589,9,0.00207522697795071,0.00791943236438544
935,589,9,0.0120241092545968,0.0155184252689403
936,589,9,0.00207522697795071,0.0124055848020142
937,589,9,0.00303654535744259,0.00814831769283589
938,589,9,0.00216678110933089,0.00823987182421607
939,589,9,0.00430304417486839,0.0076600289921416
940,589,9,0.00241092545967803,0.0147859922178988
930,590,9,0.027542534523537,0.011810482948043
931,590,9,0.00161745632104982,0.0180209048599985
932,590,9,0.00549324788281071,0.00885023270008392
933,590,9,0.0101625085831998,0.0102845807583734
934,590,9,0.00253299763485161,0.00750743877317464
935,590,9,0.0207217517357137,0.0362706950484474
936,590,9,0.00225833524071107,0.00863660639353018
937,590,9,0.0038605325398642,0.00746166170748455
938,590,9,0.00193789578088045,0.00764476997024491
939,590,9,0.00190737773708705,0.0114137483787289
940,590,9,0.0345922026398108,0.00807202258335241
941,590,9,0.0110780498970016,0.0143587396047913
929,591,9,0.00834668497749294,0.00749217975127794
930,591,9,0.00183108262760357,0.00759899290455482
931,591,9,0.00201419089036393,0.00779736018921187
932,591,9,0.0263523308155947,0.00756847486076143
933,591,9,0.00190737773708705,0.00758373388265812
934,591,9,0.00161745632104982,0.0122682536049439
935,591,9,0.0046692607003891,0.0081025406271458
936,591,9,0.00180056458381018,0.0121461814297704
937,591,9,0.00964370183871214,0.0146181429770352
938,591,9,0.0257419699397269,0.00791943236438544
939,591,9,0.00389105058365759,0.0076752880140383
940,591,9,0.00222781719691768,0.00793469138628214
941,591,9,0.0181734950789654,0.0108339055466545
942,591,9,0.0166323338673991,0.00865186541542687
928,592,9,0.00230411230640116,0.0211490043488212
929,592,9,0.00210574502174411,0.00782787823300526
930,592,9,0.0135500114442664,0.00708018616006714
931,592,9,0.0151064316777295,0.00958266575112535
932,592,9,0.0149385824368658,0.0113527122911421
933,592,9,0.0104676890211337,0.007690547035935
934,592,9,0.0192568856336309,0.00968947890440223
935,592,9,0.00219729915312428,0.00805676356145571
936,592,9,0.00274662394140536,0.0141603723201343
937,592,9,0.0154421301594568,0.0126955062180514
938,592,9,0.0154879072251469,0.00740062561989776
939,592,9,0.0207370107576104,0.00793469138628214
940,592,9,0.0432593270771344,0.0081025406271458
941,592,9,0.00721751735713741,0.0194399938963912
942,592,9,0.0435339894712749,0.00825513084611276
943,592,9,0.0199282825970855,0.0107270923933776
928,593,9,0.00166323338673991,0.0110933089188983
929,593,9,0.0422064545662623,0.0132295719844358
930,593,9,0.0213473716334783,0.0285343709468223
931,593,9,0.00431830319676509,0.0101625085831998
932,593,9,0.0735790035858701,0.0172274357213703
933,593,9,0.00236514839398795,0.00993362325474937
934,593,9,0.00181582360570687,0.00784313725490196
935,593,9,0.0125123979552911,0.0113374532692454
936,593,9,0.0341649500267033,0.0192263675898375
937,593,9,0.0227664606698711,0.00836194399938964
938,593,9,0.0583352407110704,0.00775158312352178
939,593,9,0.0101930266269932,0.00794995040817884
940,593,9,0.0197604333562219,0.00750743877317464
941,593,9,0.0412756542305638,0.00787365529869535
942,593,9,0.0144655527580682,0.00779736018921187
943,593,9,0.0783855954833295,0.00781261921110857
928,594,9,0.0104219119554437,0.00781261921110857
929,594,9,0.0029755092698558,0.00791943236438544
930,594,9,0.00465400167849241,0.00816357671473259
931,594,9,0.0252689402609293,0.00782787823300526
932,594,9,0.0025787747005417,0.0105134660868238
933,594,9,0.00659189745937285,0.00784313725490196
934,594,9,0.0397344930189975,0.0106965743495842
935,594,9,0.0314030670634012,0.0214084077210651
936,594,9,0.028046082246128,0.0104371709773404
937,594,9,0.00267032883192187,0.00758373388265812
938,594,9,0.0306401159685664,0.00823987182421607
939,594,9,0.0202487220569162,0.00820935378042268
940,594,9,0.0193942168307012,0.00776684214541848
941,594,9,0.0025787747005417,0.0139772640573739
942,594,9,0.00178530556191348,0.0105134660868238
943,594,9,0.00578316929884794,0.0175783932249943
944,594,9,0.0696269169146258,0.0072480354009308
928,595,9,0.0186770428015564,0.00990310521095598
929,595,9,0.015228503852903,0.0213168535896849
930,595,9,0.0339818417639429,0.00762951094834821
931,595,9,0.0117189288166629,0.00772106507972839
932,595,9,0.00192263675898375,0.0076752880140383
933,595,9,0.00207522697795071,0.00799572747386892
934,595,9,0.0247348744945449,0.00816357671473259
935,595,9,0.0695201037613489,0.00708018616006714
936,595,9,0.0408331425955596,0.0124513618677043
937,595,9,0.00738536659800107,0.010757610437171
938,595,9,0.00721751735713741,0.00781261921110857
939,595,9,0.00218204013122759,0.0245212481879911
940,595,9,0.0585488670176242,0.00794995040817884
941,595,9,0.0452277409018082,0.0085297932402533
942,595,9,0.0276493476768139,0.0125581750209812
943,595,9,0.00889600976577401,0.00755321583886473
944,595,9,0.00132753490501259,0.00828564888990616
928,596,9,0.0848249027237354,0.0076752880140383
929,596,9,0.0306248569466697,0.00749217975127794
930,596,9,0.0291599908445869,0.00778210116731518
931,596,9,0.0134889753566796,0.00802624551766232
932,596,9,0.0423285267414359,0.00830090791180285
933,596,9,0.00154116121156634,0.00756847486076143
934,596,9,0.00177004654001678,0.0105287251087205
935,596,9,0.00918593118181125,0.0102082856488899
936,596,9,0.0771953917753872,0.00790417334248875
937,596,9,0.0194857709620813,0.00959792477302205
938,596,9,0.0563820859082933,0.0131837949187457
939,596,9,0.00144960708018616,0.0160372320134279
940,596,9,0.00860608834973678,0.00762951094834821
941,596,9,0.00329594872968643,0.0295109483482109
942,596,9,0.0767986572060731,0.00772106507972839
943,596,9,0.0203860532539864,0.00775158312352178
944,596,9,0.00231937132829786,0.00790417334248875
928,597,9,0.0192721446555276,0.00747692072938125
929,597,9,0.00451667048142214,0.00946059357595178
930,597,9,0.0267338063630121,0.00892652780956741
931,597,9,0.00233463035019455,0.00755321583886473
932,597,9,0.00198367284657053,0.00988784618905928
933,597,9,0.0128023193713283,0.00791943236438544
934,597,9,0.00721751735713741,0.00822461280231937
935,597,9,0.00816357671473259,0.0142366674296178
936,597,9,0.0341802090486,0.00798046845197223
937,597,9,0.00154116121156634,0.011810482948043
938,597,9,0.00175478751812009,0.0113984893568322
939,597,9,0.0361181048294804,0.0089417868314641
940,597,9,0.0081025406271458,0.00885023270008392
941,597,9,0.00823987182421607,0.0080872816052491
942,597,9,0.0144502937361715,0.00802624551766232
943,597,9,0.0169527733272297,0.00778210116731518
944,597,9,0.026337071793698,0.00741588464179446
928,598,9,0.00338750286106661,0.00900282291905089
929,598,9,0.00703440909437705,0.0102388036926833
930,598,9,0.00233463035019455,0.0256046387426566
931,598,9,0.043427176317998,0.00793469138628214
932,598,9,0.00144960708018616,0.0172732127870604
933,598,9,0.0799114976729992,0.017792019531548
934,598,9,0.0059510185397116,0.0081025406271458
935,598,9,0.0152742809185931,0.0155184252689403
936,598,9,0.0395361257343404,0.00788891432059205
937,598,9,0.00347905699244678,0.0170443274586099
938,598,9,0.00225833524071107,0.00816357671473259
939,598,9,0.00135805294880598,0.00848401617456321
940,598,9,0.00918593118181125,0.00883497367818723
941,598,9,0.00480659189745937,0.00863660639353018
942,598,9,0.0113679713130388,0.00804150453955901
943,598,9,0.00184634164950027,0.00758373388265812
944,598,9,0.00868238345922026,0.0203860532539864
929,599,9,0.0130922407873655,0.0188754100862135
930,599,9,0.00195315480277714,0.00831616693369955
931,599,9,0.00547798886091402,0.0146944380865187
932,599,9,0.049256122682536,0.00787365529869535
933,599,9,0.0633707179369802,0.00906385900663768
934,599,9,0.0354619668879225,0.011612115663386
935,599,9,0.0179903868162051,0.00779736018921187
936,599,9,0.00486762798504616,0.00907911802853437
937,599,9,0.0191958495460441,0.00776684214541848
938,599,9,0.0158693827725643,0.00735484855420768
939,599,9,0.0081177996490425,0.00805676356145571
940,599,9,0.0540169375143053,0.00830090791180285
941,599,9,0.00170901045243,0.00775158312352178
942,599,9,0.00602731364919509,0.0076752880140383
943,599,9,0.00683604180972,0.00889600976577401
944,599,9,0.00437933928435187,0.0234531166552224
929,600,9,0.0219272144655528,0.00836194399938964
930,600,9,0.0288853284504463,0.0107118333714809
931,600,9,0.0158541237506676,0.00833142595559625
932,600,9,0.0148165102616922,0.00729381246662089
933,600,9,0.00332646677347982,0.00758373388265812
934,600,9,0.00187685969329366,0.00820935378042268
935,600,9,0.00653086137178607,0.0116731517509728
936,600,9,0.0719462882429236,0.0168459601739528
937,600,9,0.0487678339818418,0.0172732127870604
938,600,9,0.00358587014572366,0.00801098649576562
939,600,9,0.00163271534294652,0.00773632410162509
940,600,9,0.0164797436484321,0.00747692072938125
941,600,9,0.0804150453955901,0.00744640268558785
942,600,9,0.00122072175173571,0.00790417334248875
943,600,9,0.0453650720988785,0.00799572747386892
944,600,9,0.0264591439688716,0.0157015335317006
931,589,11,0.0480659189745937,0.00971999694819562
932,589,11,0.00155642023346304,0.00749217975127794
933,589,11,0.0333714808880751,0.00802624551766232
934,589,11,0.0534981307698177,0.01538109407187
935,589,11,0.0473945220111391,0.00788891432059205
936,589,11,0.00907911802853437,0.0179140917067216
937,589,11,0.00544747081712062,0.0149080643930724
938,589,11,0.0392919813839933,0.0085297932402533
939,589,11,0.00140383001449607,0.00733958953231098
940,589,11,0.0324864576180667,0.00842298008697642
930,590,11,0.0127870603494316,0.0076752880140383
931,590,11,0.0283207446402686,0.00761425192645151
932,590,11,0.0331883726253147,0.00758373388265812
933,590,11,0.0504921034561685,0.00749217975127794
934,590,11,0.0101319905394064,0.00733958953231098
935,590,11,0.0290226596475166,0.00869764248111696
936,590,11,0.0141298542763409,0.0144960708018616
937,590,11,0.00286869611657893,0.00755321583886473
938,590,11,0.00363164721141375,0.00746166170748455
939,590,11,0.00967421988250553,0.00743114366369116
940,590,11,0.0227054245822843,0.00798046845197223
941,590,11,0.0139009689478904,0.0110627908751049
942,590,11,0.0217441062027924,0.0161440451667048
943,590,11,0.0201266498817426,0.0152132448310063
929,591,11,0.00201419089036393,0.0072480354009308
930,591,11,0.0128023193713283,0.0143282215609979
931,591,11,0.0337834744792859,0.00793469138628214
932,591,11,0.00538643472953384,0.00727855344472419
933,591,11,0.00187685969329366,0.0117647058823529
934,591,11,0.0180514229037919,0.016235599298085
935,591,11,0.00502021820401312,0.0115815976195926
936,591,11,0.0365758754863813,0.00747692072938125
937,591,11,0.00218204013122759,0.00735484855420768
938,591,11,0.0487830930037385,0.00849927519645991
939,591,11,0.00486762798504616,0.0130617227435721
940,591,11,0.023071641107805,0.014373998626688
941,591,11,0.0213473716334783,0.00762951094834821
942,591,11,0.0146181429770352,0.00773632410162509
943,591,11,0.0244907301441978,0.00721751735713741
944,591,11,0.00274662394140536,0.00770580605783169
928,592,11,0.00415045395590143,0.00712596322575723
929,592,11,0.00613412680247196,0.00756847486076143
930,592,11,0.00704966811627375,0.0164187075608454
931,592,11,0.00886549172198062,0.00746166170748455
932,592,11,0.00904859998474098,0.00706492713817044
933,592,11,0.00480659189745937,0.00784313725490196
934,592,11,0.00540169375143053,0.00758373388265812
935,592,11,0.016433966582742,0.00752269779507134
936,592,11,0.021362630655375,0.0123903257801175
937,592,11,0.00520332646677348,0.00770580605783169
938,592,11,0.0181124589913787,0.0155184252689403
939,592,11,0.0319523918516823,0.0081177996490425
940,592,11,0.0439002059967956,0.0131990539406424
941,592,11,0.0212405584802014,0.00741588464179446
942,592,11,0.00952162966353857,0.00755321583886473
943,592,11,0.0181124589913787,0.0164187075608454
944,592,11,0.0577706569008927,0.0143587396047913
928,593,11,0.00375371938658732,0.00790417334248875
929,593,11,0.00370794232089723,0.00744640268558785
930,593,11,0.0234683756771191,0.013870450904097
931,593,11,0.0246128023193713,0.0131227588311589
932,593,11,0.00184634164950027,0.00781261921110857
933,593,11,0.0292973220416571,0.0152590218966964
934,593,11,0.0193484397650111,0.010406652933547
935,593,11,0.025482566567483,0.0104371709773404
936,593,11,0.0406958113984894,0.007690547035935
937,593,11,0.0181124589913787,0.00874341954680705
938,593,11,0.0109254596780346,0.0184939345387961
939,593,11,0.00459296559090562,0.00747692072938125
940,593,11,0.0247501335164416,0.0150911726558328
941,593,11,0.0116426337071794,0.00788891432059205
942,593,11,0.00163271534294652,0.0166170748455024
943,593,11,0.00175478751812009,0.00875867856870375
944,593,11,0.0199130235751888,0.00807202258335241
928,594,11,0.0292973220416571,0.00740062561989776
929,594,11,0.0196841382467384,0.0147707331960021
930,594,11,0.0700389105058366,0.010757610437171
931,594,11,0.00827038986800946,0.00796520943007553
932,594,11,0.013015945677882,0.00917067215991455
933,594,11,0.0431525139238575,0.0152590218966964
934,594,11,0.00173952849622339,0.00772106507972839
935,594,11,0.0128480964370184,0.00781261921110857
936,594,11,0.0055390249485008,0.00775158312352178
937,594,11,0.0336614023041123,0.00790417334248875
938,594,11,0.0364843213550011,0.00738536659800107
939,594,11,0.082230869001297,0.00758373388265812
940,594,11,0.00184634164950027,0.0137788967727169
941,594,11,0.0107728694590677,0.0150606546120394
942,594,11,0.022415503166247,0.00706492713817044
943,594,11,0.0187075608453498,0.00830090791180285
928,595,11,0.0245670252536812,0.00746166170748455
929,595,11,0.0134737163347829,0.00782787823300526
930,595,11,0.00524910353246357,0.00747692072938125
931,595,11,0.0072327763790341,0.0137483787289235
932,595,11,0.00244144350347143,0.011306935225452
933,595,11,0.00238040741588464,0.00787365529869535
934,595,11,0.0140688181887541,0.00761425192645151
935,595,11,0.00218204013122759,0.00888075074387732
936,595,11,0.0017242694743267,0.0116273746852827
937,595,11,0.01367208361944,0.00750743877317464
938,595,11,0.00448615243762875,0.0151216906996262
939,595,11,0.00976577401388571,0.00775158312352178
940,595,11,0.0219577325093461,0.00720225833524071
941,595,11,0.0117647058823529,0.0121004043640803
942,595,11,0.00196841382467384,0.00798046845197223
943,595,11,0.01879911497673,0.00787365529869535
928,596,11,0.0017242694743267,0.0102998397802701
929,596,11,0.00173952849622339,0.00764476997024491
930,596,11,0.0200198367284657,0.0203250171663996
931,596,11,0.0188906691081102,0.00791943236438544
932,596,11,0.00184634164950027,0.0190280003051804
933,596,11,0.0105134660868238,0.00996414129854276
934,596,11,0.00698863202868696,0.0141145952544442
935,596,11,0.0310063324940871,0.00704966811627375
936,596,11,0.024429694056611,0.00772106507972839
937,596,11,0.00524910353246357,0.0124818799114977
938,596,11,0.00360112916762036,0.00880445563439384
939,596,11,0.0158236057068742,0.00679026474402991
940,596,11,0.0267338063630121,0.00833142595559625
941,596,11,0.0269321736476692,0.00816357671473259
942,596,11,0.0802319371328298,0.0105745021744106
943,596,11,0.00204470893415732,0.00784313725490196
928,597,11,0.00137331197070268,0.00840772106507973
929,597,11,0.04101625085832,0.0175020981155108
930,597,11,0.0370336461432822,0.00738536659800107
931,597,11,0.0168154421301595,0.00762951094834821
932,597,11,0.0166018158236057,0.00819409475852598
933,597,11,0.0480354009308003,0.0135805294880598
934,597,11,0.0139009689478904,0.00709544518196384
935,597,11,0.010955977721828,0.00770580605783169
936,597,11,0.0462043183031968,0.00750743877317464
937,597,11,0.0105134660868238,0.00796520943007553
938,597,11,0.0238956282902266,0.0186770428015564
939,597,11,0.0021515220874342,0.0132295719844358
940,597,11,0.0402990768291753,0.00756847486076143
941,597,11,0.007690547035935,0.00755321583886473
942,597,11,0.0248874647135119,0.00790417334248875
943,597,11,0.00357061112382696,0.007690547035935
928,598,11,0.00302128633554589,0.00743114366369116
929,598,11,0.00227359426260777,0.0174715800717174
930,598,11,0.00148012512397955,0.0081177996490425
931,598,11,0.00267032883192187,0.00787365529869535
932,598,11,0.00500495918211643,0.00834668497749294
933,598,11,0.0146181429770352,0.00744640268558785
934,598,11,0.00210574502174411,0.00802624551766232
935,598,11,0.0021210040436408,0.0157625696192874
936,598,11,0.0145723659113451,0.0191348134584573
937,598,11,0.0792858777752346,0.00787365529869535
938,598,11,0.0150759136339361,0.00753795681696803
939,598,11,0.0021362630655375,0.00798046845197223
940,598,11,0.00244144350347143,0.00862134737163348
941,598,11,0.041214618142977,0.0109407186999313
942,598,11,0.00588998245212482,0.0130922407873655
943,598,11,0.0126039520866712,0.00799572747386892
929,599,11,0.004272526131075,0.00741588464179446
930,599,11,0.0275883115892271,0.00787365529869535
931,599,11,0.00244144350347143,0.0072327763790341
932,599,11,0.00173952849622339,0.00775158312352178
933,599,11,0.0484931715877012,0.00782787823300526
934,599,11,0.0017242694743267,0.00791943236438544
935,599,11,0.00238040741588464,0.00772106507972839
936,599,11,0.015579461356527,0.0191042954146639
937,599,11,0.029907682917525,0.010406652933547
938,599,11,0.00527962157625696,0.00761425192645151
939,599,11,0.00569161516746777,0.00764476997024491
940,599,11,0.0313420309758144,0.00775158312352178
941,599,11,0.00601205462729839,0.0109102006561379
942,599,11,0.0137941557946136,0.0101319905394064
943,599,11,0.00741588464179446,0.0146944380865187
929,600,11,0.0203860532539864,0.022720683604181
930,600,11,0.00245670252536812,0.00924696726939803
931,600,11,0.0128938735027085,0.00807202258335241
932,600,11,0.0257267109178302,0.00781261921110857
933,600,11,0.0291142137788968,0.00737010757610437
934,600,11,0.00500495918211643,0.0133363851377127
935,600,11,0.0343633173113603,0.00854505226215
936,600,11,0.061219195849546,0.0150453955901427
937,600,11,0.00292973220416571,0.00759899290455482
938,600,11,0.00224307621881437,0.00711070420386053
939,600,11,0.011810482948043,0.0150606546120394
940,600,11,0.00204470893415732,0.00750743877317464
941,600,11,0.00306706340123598,0.0149843595025559
942,600,11,0.0452277409018082,0.00773632410162509
931,601,11,0.0278324559395743,0.0268253604943923
932,601,11,0.0422980086976425,0.00918593118181125
933,601,11,0.00465400167849241,0.00778210116731518
934,601,11,0.0240482185091936,0.00950637064164187
935,601,11,0.0552681773098344,0.018142977035172
936,601,11,0.00512703135729,0.00794995040817884
937,601,11,0.0319981689173724,0.00793469138628214
938,601,11,0.0182040131227588,0.00779736018921187
939,601,11,0.0151827267872129,0.00740062561989776
940,601,11,0.0178530556191348,0.00761425192645151
941,601,11,0.0477302204928664,0.00779736018921187
942,601,11,0.0766308079652094,0.00761425192645151
943,601,11,0.00173952849622339,0.00822461280231937
942,602,11,0.00756847486076143,0.00781261921110857
943,602,11,0.0123292896925307,0.00776684214541848
932,589,12,0.0213321126115816,0.0197299153124285
933,589,12,0.0174258030060273,0.00741588464179446
934,589,12,0.0113374532692454,0.00807202258335241
935,589,12,0.0190127412832837,0.00752269779507134
936,589,12,0.00993362325474937,0.00770580605783169
937,589,12,0.0117189288166629,0.00801098649576562
938,589,12,0.00485236896314946,0.00790417334248875
939,589,12,0.00141908903639277,0.00758373388265812
930,590,12,0.00233463035019455,0.0160524910353246
931,590,12,0.0131227588311589,0.0104829480430304
932,590,12,0.0272983901731899,0.00772106507972839
933,590,12,0.00183108262760357,0.00793469138628214
934,590,12,0.00708018616006714,0.0125276569771878
935,590,12,0.0315251392385748,0.00961318379491875
936,590,12,0.017944609750515,0.00836194399938964
937,590,12,0.0284122987716487,0.0123750667582208
938,590,12,0.00360112916762036,0.00698863202868696
939,590,12,0.0636911573968109,0.00814831769283589
940,590,12,0.00308232242313268,0.0118257419699397
941,590,12,0.00144960708018616,0.00688181887541009
942,590,12,0.030411230640116,0.007690547035935
943,590,12,0.00450141145952544,0.0116426337071794
929,591,12,0.0496223392080568,0.00761425192645151
930,591,12,0.00271610589761196,0.0144045166704814
931,591,12,0.0197756923781186,0.00834668497749294
932,591,12,0.00917067215991455,0.00773632410162509
933,591,12,0.0042877851529717,0.0072327763790341
934,591,12,0.0126192111085679,0.0201419089036393
935,591,12,0.00454718852521553,0.0081177996490425
936,591,12,0.00201419089036393,0.00721751735713741
937,591,12,0.00567635614557107,0.00753795681696803
938,591,12,0.0161287861448081,0.0123445487144274
939,591,12,0.0396734569314107,0.00805676356145571
940,591,12,0.00193789578088045,0.0133974212252995
941,591,12,0.0325627527275502,0.00801098649576562
942,591,12,0.0218051422903792,0.00828564888990616
943,591,12,0.00199893186846723,0.00799572747386892
929,592,12,0.00219729915312428,0.0105439841306172
930,592,12,0.0313572899977111,0.00764476997024491
931,592,12,0.00308232242313268,0.00708018616006714
932,592,12,0.00219729915312428,0.00776684214541848
933,592,12,0.0424811169604028,0.00775158312352178
934,592,12,0.00195315480277714,0.00744640268558785
935,592,12,0.0364232852674144,0.0177462424658579
936,592,12,0.0701609826810101,0.00775158312352178
937,592,12,0.00909437705043107,0.00770580605783169
938,592,12,0.00207522697795071,0.00755321583886473
939,592,12,0.025986114290074,0.0106813153276875
940,592,12,0.0222629129472801,0.00935378042267491
941,592,12,0.00207522697795071,0.0128633554589151
942,592,12,0.0278629739833677,0.00755321583886473
928,593,12,0.0239719233997101,0.00801098649576562
929,593,12,0.00692759594110018,0.00764476997024491
930,593,12,0.0280613412680247,0.0179903868162051
931,593,12,0.0190737773708705,0.00816357671473259
932,593,12,0.0216830701152056,0.00755321583886473
933,593,12,0.0760204470893416,0.00758373388265812
934,593,12,0.00587472343022812,0.0103150988021668
935,593,12,0.0364995803768978,0.00782787823300526
936,593,12,0.0541237506675822,0.00827038986800946
937,593,12,0.00837720302128634,0.00846875715266651
938,593,12,0.060868238345922,0.00752269779507134
939,593,12,0.0164950026703288,0.00773632410162509
940,593,12,0.0404669260700389,0.0076752880140383
941,593,12,0.0384832532234684,0.0102082856488899
942,593,12,0.0189211871519036,0.00782787823300526
928,594,12,0.038300144960708,0.0179598687724117
929,594,12,0.00222781719691768,0.00773632410162509
930,594,12,0.022369726100557,0.00773632410162509
931,594,12,0.0172121766994736,0.00798046845197223
932,594,12,0.0321355001144427,0.018951705195697
933,594,12,0.0569924467841611,0.00906385900663768
934,594,12,0.00543221179522393,0.0103761348897536
935,594,12,0.0480201419089036,0.0204928664072633
936,594,12,0.0311436636911574,0.00866712443732357
937,594,12,0.00135805294880598,0.00787365529869535
938,594,12,0.00645456626230259,0.00785839627679866
939,594,12,0.0230563820859083,0.00730907148851759
940,594,12,0.00578316929884794,0.00798046845197223
941,594,12,0.00158693827725643,0.00798046845197223
942,594,12,0.017944609750515,0.00750743877317464
928,595,12,0.00701915007248035,0.00793469138628214
929,595,12,0.00157167925535973,0.00802624551766232
930,595,12,0.00355535210193027,0.00750743877317464
931,595,12,0.0296177615014878,0.0085145342183566
932,595,12,0.085145342183566,0.00970473792629892
933,595,12,0.0151827267872129,0.00776684214541848
934,595,12,0.0501869230182345,0.00785839627679866
935,595,12,0.00253299763485161,0.00788891432059205
936,595,12,0.00190737773708705,0.0203097581445029
937,595,12,0.0439612420843824,0.00756847486076143
938,595,12,0.0296025024795911,0.0160982681010147
939,595,12,0.055893797207599,0.00779736018921187
940,595,12,0.00714122224765393,0.010406652933547
941,595,12,0.0506446936751354,0.0165560387579156
942,595,12,0.00326543068589303,0.00843823910887312
928,596,12,0.0343938353551537,0.0076600289921416
929,596,12,0.0456855115587091,0.00733958953231098
930,596,12,0.00363164721141375,0.0156862745098039
931,596,12,0.00415045395590143,0.00750743877317464
932,596,12,0.0184786755168994,0.00845349813076982
933,596,12,0.0906996261539635,0.015228503852903
934,596,12,0.00209048599984741,0.0142214084077211
935,596,12,0.0264286259250782,0.00700389105058366
936,596,12,0.0511635004196231,0.00932326237888151
937,596,12,0.0146334019989319,0.00762951094834821
938,596,12,0.0507057297627222,0.0104982070649271
939,596,12,0.0182345311665522,0.00932326237888151
940,596,12,0.0152895399404898,0.00796520943007553
941,596,12,0.0245059891660945,0.0223239490348669
942,596,12,0.0135805294880598,0.00943007553215839
928,597,12,0.0595864805065995,0.00813305867093919
929,597,12,0.00535591668574044,0.0115053025101091
930,597,12,0.0021362630655375,0.0207827878233005
931,597,12,0.022720683604181,0.0110780498970016
932,597,12,0.0438696879530022,0.0114747844663157
933,597,12,0.00479133287556268,0.0132448310063325
934,597,12,0.00199893186846723,0.00740062561989776
935,597,12,0.00196841382467384,0.00885023270008392
936,597,12,0.00668345159075303,0.00802624551766232
937,597,12,0.0281681544213016,0.00740062561989776
938,597,12,0.0108796826123445,0.0186617837796597
939,597,12,0.0352635996032654,0.00778210116731518
940,597,12,0.00854505226215,0.0139772640573739
941,597,12,0.0103913939116503,0.0120241092545968
928,598,12,0.0144350347142748,0.0167086289768826
929,598,12,0.0375371938658732,0.00814831769283589
930,598,12,0.0141603723201343,0.00831616693369955
931,598,12,0.00805676356145571,0.00791943236438544
932,598,12,0.00218204013122759,0.0110475318532082
933,598,12,0.0276340886549172,0.0113984893568322
934,598,12,0.0170748455024033,0.0081025406271458
935,598,12,0.0105592431525139,0.00785839627679866
936,598,12,0.0333714808880751,0.00833142595559625
937,598,12,0.00155642023346304,0.00804150453955901
938,598,12,0.00204470893415732,0.00842298008697642
939,598,12,0.00187685969329366,0.00685130083161669
940,598,12,0.0192416266117342,0.00794995040817884
941,598,12,0.0101319905394064,0.00859082932784009
929,599,12,0.023575188830396,0.0127260242618448
930,599,12,0.00877393759060044,0.0150453955901427
931,599,12,0.0344548714427405,0.00965896086060884
932,599,12,0.00727855344472419,0.00762951094834821
933,599,12,0.0178530556191348,0.0158388647287709
934,599,12,0.00230411230640116,0.0147554741741054
935,599,12,0.0397192339971008,0.0125429159990845
936,599,12,0.016586556801709,0.00764476997024491
937,599,12,0.070572976272221,0.00781261921110857
938,599,12,0.0313115129320211,0.00762951094834821
939,599,12,0.0357061112382696,0.00831616693369955
940,599,12,0.0157625696192874,0.00872816052491035
941,599,12,0.0314335851071946,0.0103913939116503
930,600,12,0.0585793850614176,0.0155947203784237
931,600,12,0.00196841382467384,0.0149538414587625
932,600,12,0.0526588845654994,0.00738536659800107
933,600,12,0.0214084077210651,0.00752269779507134
934,600,12,0.0188601510643168,0.0240024414435035
935,600,12,0.00231937132829786,0.0106202792401007
936,600,12,0.00280766002899214,0.00770580605783169
937,600,12,0.02050812542916,0.00738536659800107
938,600,12,0.0252079041733425,0.00753795681696803
939,600,12,0.0214236667429618,0.00752269779507134
940,600,12,0.00178530556191348,0.0293430991073472
941,600,12,0.028702220187686,0.00761425192645151
932,601,12,0.0493476768139162,0.00943007553215839
933,601,12,0.0558785381857023,0.00805676356145571
934,601,12,0.0411383230334936,0.00778210116731518
935,601,12,0.00187685969329366,0.00741588464179446
936,601,12,0.01196307316701,0.00927748531319142
937,601,12,0.0273289082169833,0.00798046845197223
938,601,12,0.00166323338673991,0.00773632410162509
939,601,12,0.00366216525520714,0.00784313725490196
940,601,12,0.00430304417486839,0.0076752880140383
941,601,12,0.0308079652094301,0.00743114366369116
935,589,13,0.00993362325474937,0.00933852140077821
936,589,13,0.0283817807278553,0.0141298542763409
937,589,13,0.00222781719691768,0.00779736018921187
931,590,13,0.0210269321736477,0.0282902265964752
932,590,13,0.00207522697795071,0.00839246204318303
933,590,13,0.0111696040283818,0.0104829480430304
934,590,13,0.0170595864805066,0.00782787823300526
935,590,13,0.00161745632104982,0.00833142595559625
936,590,13,0.0373998626688029,0.00869764248111696
937,590,13,0.0169222552834363,0.00720225833524071
938,590,13,0.0187533379110399,0.0251926451514458
939,590,13,0.054184786755169,0.00761425192645151
940,590,13,0.0147554741741054,0.00764476997024491
941,590,13,0.0139925230792706,0.0147402151522087
942,590,13,0.00181582360570687,0.00837720302128634
930,591,13,0.0402838178072786,0.00820935378042268
931,591,13,0.0222629129472801,0.00718699931334401
932,591,13,0.0467689021133745,0.00759899290455482
933,591,13,0.00613412680247196,0.00781261921110857
934,591,13,0.0300297550926986,0.00805676356145571
935,591,13,0.00326543068589303,0.016235599298085
936,591,13,0.00193789578088045,0.0142366674296178
937,591,13,0.00923170824750134,0.0161287861448081
938,591,13,0.00691233691920348,0.00804150453955901
939,591,13,0.00721751735713741,0.00804150453955901
940,591,13,0.00175478751812009,0.00816357671473259
941,591,13,0.0274357213702602,0.00737010757610437
942,591,13,0.0021210040436408,0.00787365529869535
929,592,13,0.00503547722590982,0.00762951094834821
930,592,13,0.0390936140993362,0.0093690394445716
931,592,13,0.00181582360570687,0.0112764171816587
932,592,13,0.0102388036926833,0.0076600289921416
933,592,13,0.015228503852903,0.00706492713817044
934,592,13,0.00199893186846723,0.0225986114290074
935,592,13,0.0377508201724269,0.0089570458533608
936,592,13,0.00184634164950027,0.0076752880140383
937,592,13,0.024429694056611,0.0072480354009308
938,592,13,0.0204623483634699,0.0278782330052644
939,592,13,0.0161593041886015,0.0174258030060273
940,592,13,0.0175478751812009,0.00836194399938964
941,592,13,0.00515754940108339,0.00814831769283589
942,592,13,0.030914778362707,0.0119783321889067
928,593,13,0.00239566643778134,0.00706492713817044
929,593,13,0.00201419089036393,0.00784313725490196
930,593,13,0.0104219119554437,0.00874341954680705
931,593,13,0.00656137941557946,0.00823987182421607
932,593,13,0.0164644846265354,0.00764476997024491
933,593,13,0.00199893186846723,0.00781261921110857
934,593,13,0.0386816205081254,0.007690547035935
935,593,13,0.00247196154726482,0.007690547035935
936,593,13,0.0142824444953079,0.00798046845197223
937,593,13,0.0169832913710231,0.00785839627679866
938,593,13,0.0151522087434195,0.0156862745098039
939,593,13,0.0025482566567483,0.00802624551766232
940,593,13,0.0186923018234531,0.00787365529869535
941,593,13,0.00480659189745937,0.0098268101014725
942,593,13,0.0317387655451286,0.00880445563439384
928,594,13,0.00546272983901732,0.00770580605783169
929,594,13,0.0021515220874342,0.00756847486076143
930,594,13,0.00263981078812848,0.0107881284809644
931,594,13,0.00224307621881437,0.00773632410162509
932,594,13,0.0290989547570001,0.00788891432059205
933,594,13,0.0139009689478904,0.00746166170748455
934,594,13,0.0213931486991684,0.00787365529869535
935,594,13,0.0109102006561379,0.00791943236438544
936,594,13,0.0352025635156786,0.00755321583886473
937,594,13,0.00221255817502098,0.00738536659800107
938,594,13,0.00280766002899214,0.00801098649576562
939,594,13,0.0110170138094148,0.0127565423056382
940,594,13,0.00575265125505455,0.00738536659800107
941,594,13,0.0380560006103609,0.00752269779507134
942,594,13,0.0038452735179675,0.0155642023346304
928,595,13,0.00474555580987259,0.00720225833524071
929,595,13,0.0468909742885481,0.00840772106507973
930,595,13,0.0142824444953079,0.00796520943007553
931,595,13,0.0285954070344091,0.0068055237659266
932,595,13,0.0104829480430304,0.00778210116731518
933,595,13,0.00222781719691768,0.00775158312352178
934,595,13,0.00376897840848402,0.00756847486076143
935,595,13,0.027695124742504,0.0105897611963073
936,595,13,0.00250247959105821,0.0114442664225223
937,595,13,0.0626535439078355,0.00798046845197223
938,595,13,0.0476844434271763,0.0151979858091096
939,595,13,0.0642710002288853,0.0114442664225223
940,595,13,0.0417639429312581,0.00830090791180285
941,595,13,0.0148622873273823,0.0081177996490425
942,595,13,0.00216678110933089,0.007690547035935
928,596,13,0.0217898832684825,0.00819409475852598
929,596,13,0.00433356221866178,0.00801098649576562
930,596,13,0.00216678110933089,0.00750743877317464
931,596,13,0.00190737773708705,0.0081177996490425
932,596,13,0.00390630960555428,0.00791943236438544
933,596,13,0.0493324177920195,0.0173800259403372
934,596,13,0.00167849240863661,0.00755321583886473
935,596,13,0.00462348363469902,0.0081177996490425
936,596,13,0.00241092545967803,0.0076752880140383
937,596,13,0.0175783932249943,0.0150911726558328
938,596,13,0.0178988326848249,0.0170443274586099
939,596,13,0.0112458991378653,0.00793469138628214
940,596,13,0.00622568093385214,0.00732433051041428
941,596,13,0.0553139543755245,0.00738536659800107
928,597,13,0.00227359426260777,0.00773632410162509
929,597,13,0.0229800869764248,0.0120698863202869
930,597,13,0.0063935301747158,0.00930800335698482
931,597,13,0.0291752498664836,0.00756847486076143
932,597,13,0.00321965362020294,0.00712596322575723
933,597,13,0.0298924238956283,0.0155947203784237
934,597,13,0.0498817425803006,0.0151064316777295
935,597,13,0.00750743877317464,0.0072480354009308
936,597,13,0.0106507972838941,0.00762951094834821
937,597,13,0.0030060273136492,0.0116578927290761
938,597,13,0.0218814373998627,0.0214541847867552
939,597,13,0.0397344930189975,0.0103303578240635
940,597,13,0.013321126115816,0.0190432593270771
941,597,13,0.00816357671473259,0.0183871213855192
928,598,13,0.014175631342031,0.00842298008697642
929,598,13,0.0104982070649271,0.00830090791180285
930,598,13,0.00230411230640116,0.00761425192645151
931,598,13,0.0356603341725795,0.0133516441596094
932,598,13,0.00849927519645991,0.0081025406271458
933,598,13,0.0263065537499046,0.00779736018921187
934,598,13,0.0579690241855497,0.0269779507133593
935,598,13,0.00735484855420768,0.0261539635309377
936,598,13,0.00205996795605402,0.00975051499198901
937,598,13,0.0540932326237888,0.0101625085831998
938,598,13,0.0832990005340658,0.00874341954680705
939,598,13,0.0234378576333257,0.0080872816052491
940,598,13,0.0250247959105821,0.00831616693369955
941,598,13,0.062073701075761,0.00791943236438544
929,599,13,0.0240329594872969,0.00788891432059205
930,599,13,0.0537270160982681,0.0115510795757992
931,599,13,0.0250705729762722,0.00775158312352178
932,599,13,0.00274662394140536,0.0105287251087205
933,599,13,0.00250247959105821,0.00778210116731518
934,599,13,0.0352483405813687,0.0102998397802701
935,599,13,0.00267032883192187,0.00912489509422446
936,599,13,0.00398260471503777,0.00994888227664607
937,599,13,0.0253452353704128,0.00820935378042268
938,599,13,0.00325017166399634,0.00920119020370794
939,599,13,0.00173952849622339,0.0076600289921416
940,599,13,0.00178530556191348,0.0081177996490425
941,599,13,0.00410467689021134,0.00752269779507134
929,600,13,0.0125886930647745,0.00773632410162509
930,600,13,0.00222781719691768,0.0103456168459602
931,600,13,0.00950637064164187,0.0120393682764935
932,600,13,0.00222781719691768,0.00831616693369955
933,600,13,0.0034332799267567,0.0174563210498207
934,600,13,0.0104829480430304,0.0195468070496681
935,600,13,0.00196841382467384,0.0108491645685512
936,600,13,0.00227359426260777,0.0107728694590677
937,600,13,0.00221255817502098,0.0316319523918517
938,600,13,0.00152590218966964,0.00906385900663768
939,600,13,0.0100099183642329,0.0097962920576791
940,600,13,0.0554055085069047,0.00749217975127794
941,600,13,0.129854276340887,0.00755321583886473
930,601,13,0.0838330663004501,0.0109407186999313
931,601,13,0.0153505760280766,0.00752269779507134
932,601,13,0.0198672465094987,0.00888075074387732
933,601,13,0.0242008087281605,0.0206759746700237
934,601,13,0.00270084687571527,0.0276340886549172
935,601,13,0.0195162890058747,0.00779736018921187
936,601,13,0.0390630960555428,0.00788891432059205
937,601,13,0.0021210040436408,0.00816357671473259
938,601,13,0.00186160067139696,0.00788891432059205
939,601,13,0.067154955367361,0.00943007553215839
940,601,13,0.0284428168154421,0.011459525444419
941,601,13,0.00338750286106661,0.00762951094834821
933,590,14,0.00187685969329366,0.0076600289921416
934,590,14,0.0089570458533608,0.0117189288166629
935,590,14,0.0148470283054856,0.0117036697947662
936,590,14,0.00207522697795071,0.00999465934233616
937,590,14,0.0313420309758144,0.00781261921110857
938,590,14,0.0172579537651637,0.00779736018921187
939,590,14,0.00286869611657893,0.00805676356145571
940,590,14,0.0443274586099031,0.0124818799114977
941,590,14,0.0464332036316472,0.0129396505683986
931,591,14,0.00660715648126955,0.00805676356145571
932,591,14,0.00218204013122759,0.00730907148851759
933,591,14,0.0202029449912261,0.00743114366369116
934,591,14,0.0515297169451438,0.0121004043640803
935,591,14,0.0347295338368811,0.00798046845197223
936,591,14,0.00671396963454643,0.00746166170748455
937,591,14,0.00515754940108339,0.009399557488365
938,591,14,0.0595864805065995,0.012115663385977
939,591,14,0.00251773861295491,0.00740062561989776
940,591,14,0.0280308232242313,0.00711070420386053
941,591,14,0.0172579537651637,0.0140535591668574
942,591,14,0.00189211871519036,0.00888075074387732
930,592,14,0.00187685969329366,0.00843823910887312
931,592,14,0.00248722056916152,0.0384374761577783
932,592,14,0.0293583581292439,0.0463263904783703
933,592,14,0.0145113298237583,0.0142366674296178
934,592,14,0.0311894407568475,0.00755321583886473
935,592,14,0.0163118944075685,0.00791943236438544
936,592,14,0.00204470893415732,0.00994888227664607
937,592,14,0.0411078049897002,0.00971999694819562
938,592,14,0.00935378042267491,0.00968947890440223
939,592,14,0.00590524147402152,0.0076752880140383
940,592,14,0.0199282825970855,0.0113527122911421
941,592,14,0.00787365529869535,0.00807202258335241
942,592,14,0.00230411230640116,0.00816357671473259
929,593,14,0.00520332646677348,0.00746166170748455
930,593,14,0.00250247959105821,0.00764476997024491
931,593,14,0.0378728923476005,0.0197909514000153
932,593,14,0.0153963530937667,0.00764476997024491
933,593,14,0.0109407186999313,0.00743114366369116
934,593,14,0.0339818417639429,0.0257724879835203
935,593,14,0.033676661326009,0.0175173571374075
936,593,14,0.00662241550316625,0.0126192111085679
937,593,14,0.0369573510337987,0.00701915007248035
938,593,14,0.00207522697795071,0.0108186465247578
939,593,14,0.0192416266117342,0.00773632410162509
940,593,14,0.0346227206836042,0.00831616693369955
941,593,14,0.00228885328450446,0.0076752880140383
942,593,14,0.00178530556191348,0.0174715800717174
929,594,14,0.0034027618829633,0.00950637064164187
930,594,14,0.00692759594110018,0.00869764248111696
931,594,14,0.0100099183642329,0.00817883573662928
932,594,14,0.0193484397650111,0.00747692072938125
933,594,14,0.0149843595025559,0.0115663385976959
934,594,14,0.00157167925535973,0.00758373388265812
935,594,14,0.00686655985351339,0.00764476997024491
936,594,14,0.00228885328450446,0.00749217975127794
937,594,14,0.0131990539406424,0.00990310521095598
938,594,14,0.00224307621881437,0.0081025406271458
939,594,14,0.00231937132829786,0.0102235446707866
940,594,14,0.00218204013122759,0.00820935378042268
941,594,14,0.0301518272678721,0.00776684214541848
942,594,14,0.0269321736476692,0.0122682536049439
928,595,14,0.0151979858091096,0.00857557030594339
929,595,14,0.0093690394445716,0.0133363851377127
930,595,14,0.00231937132829786,0.0080872816052491
931,595,14,0.0152742809185931,0.0134584573128862
932,595,14,0.00175478751812009,0.00801098649576562
933,595,14,0.00599679560540169,0.00791943236438544
934,595,14,0.00613412680247196,0.016937514305333
935,595,14,0.00959792477302205,0.00781261921110857
936,595,14,0.00302128633554589,0.0133058670939193
937,595,14,0.00210574502174411,0.00790417334248875
938,595,14,0.00224307621881437,0.0127565423056382
939,595,14,0.0356450751506828,0.00898756389715419
940,595,14,0.0997177080949111,0.00784313725490196
941,595,14,0.0221255817502098,0.00822461280231937
942,595,14,0.0115358205539025,0.0112764171816587
928,596,14,0.0149996185244526,0.00791943236438544
929,596,14,0.0146028839551385,0.00880445563439384
930,596,14,0.0243686579690242,0.0115968566414893
931,596,14,0.00227359426260777,0.012664988174258
932,596,14,0.0189822232394903,0.00881971465629053
933,596,14,0.0115205615320058,0.00776684214541848
934,596,14,0.0421606775005722,0.00802624551766232
935,596,14,0.00189211871519036,0.00816357671473259
936,596,14,0.0190890363927672,0.00778210116731518
937,596,14,0.0106965743495842,0.00805676356145571
938,596,14,0.0250095368886854,0.0076600289921416
939,596,14,0.018295567254139,0.0147707331960021
940,596,14,0.00360112916762036,0.0081177996490425
941,596,14,0.0220950637064164,0.00746166170748455
942,596,14,0.0185397116044862,0.007690547035935
928,597,14,0.0021515220874342,0.00750743877317464
929,597,14,0.00227359426260777,0.00730907148851759
930,597,14,0.00184634164950027,0.00836194399938964
931,597,14,0.00199893186846723,0.00796520943007553
932,597,14,0.00604257267109178,0.00775158312352178
933,597,14,0.0034332799267567,0.00785839627679866
934,597,14,0.0496375982299535,0.00801098649576562
935,597,14,0.0307469291218433,0.00778210116731518
936,597,14,0.0176241702906844,0.00727855344472419
937,597,14,0.00222781719691768,0.0081177996490425
938,597,14,0.0021362630655375,0.00782787823300526
939,597,14,0.0132906080720226,0.0076752880140383
940,597,14,0.0229648279545281,0.00721751735713741
941,597,14,0.00389105058365759,0.00820935378042268
942,597,14,0.0148470283054856,0.0109407186999313
928,598,14,0.0180209048599985,0.00801098649576562
929,598,14,0.00604257267109178,0.0109407186999313
930,598,14,0.0146639200427253,0.00747692072938125
931,598,14,0.00285343709468223,0.00778210116731518
932,598,14,0.0402990768291753,0.00807202258335241
933,598,14,0.0608377203021286,0.00759899290455482
934,598,14,0.00190737773708705,0.0123903257801175
935,598,14,0.0809185931181811,0.0243076218814374
936,598,14,0.00244144350347143,0.0106965743495842
937,598,14,0.00117494468604562,0.00785839627679866
938,598,14,0.0234531166552224,0.0103913939116503
939,598,14,0.0103303578240635,0.00823987182421607
940,598,14,0.0410467689021134,0.00779736018921187
941,598,14,0.058960860608835,0.00776684214541848
942,598,14,0.0046692607003891,0.00807202258335241
928,599,14,0.0029907682917525,0.0307164110780499
929,599,14,0.00926222629129473,0.00819409475852598
930,599,14,0.0205539024948501,0.0130006866559854
931,599,14,0.0685740444037537,0.0157778286411841
932,599,14,0.111070420386053,0.00807202258335241
933,599,14,0.0142366674296178,0.0113374532692454
934,599,14,0.00665293354695964,0.0178530556191348
935,599,14,0.00207522697795071,0.0150453955901427
936,599,14,0.0296330205233844,0.00759899290455482
937,599,14,0.00901808194094758,0.0080872816052491
938,599,14,0.00248722056916152,0.00883497367818723
939,599,14,0.0151827267872129,0.0110627908751049
940,599,14,0.00624093995574884,0.00746166170748455
941,599,14,0.00836194399938964,0.00784313725490196
929,600,14,0.0219424734874495,0.00737010757610437
930,600,14,0.0409094377050431,0.0293888761730373
931,600,14,0.020004577706569,0.0134279392690929
932,600,14,0.00943007553215839,0.028198672465095
933,600,14,0.0249485008010987,0.00817883573662928
934,600,14,0.00642404821850919,0.0186923018234531
935,600,14,0.00564583810177768,0.00997940032043946
936,600,14,0.0563363088426032,0.00886549172198062
937,600,14,0.00205996795605402,0.00727855344472419
938,600,14,0.00192263675898375,0.00761425192645151
939,600,14,0.00205996795605402,0.017288471808957
940,600,14,0.00198367284657053,0.00749217975127794
941,600,14,0.00218204013122759,0.00737010757610437
929,601,14,0.0124818799114977,0.0119172961013199
930,601,14,0.047348744945449,0.0152437628747997
931,601,14,0.0223849851224537,0.0157015335317006
932,601,14,0.0411078049897002,0.00689707789730678
933,601,14,0.00526436255436027,0.00788891432059205
934,601,14,0.00242618448157473,0.00819409475852598
935,601,14,0.00563057907988098,0.00747692072938125
936,601,14,0.0584725719081407,0.00743114366369116
937,601,14,0.00965896086060884,0.00814831769283589
938,601,14,0.00181582360570687,0.00874341954680705
939,601,14,0.0104219119554437,0.00718699931334401
940,601,14,0.0196688792248417,0.00756847486076143
941,601,14,0.0105592431525139,0.0108949416342412
934,590,15,0.044937819485771,0.014679179064622
935,590,15,0.0193179217212177,0.0109407186999313
936,590,15,0.0188906691081102,0.00962844281681544
937,590,15,0.0595407034409094,0.0177157244220645
938,590,15,0.0025482566567483,0.0168917372396429
939,590,15,0.0118257419699397,0.00976577401388571
940,590,15,0.00772106507972839,0.00912489509422446
932,591,15,0.0068207827878233,0.0104829480430304
933,591,15,0.0183108262760357,0.0137331197070268
934,591,15,0.010101472495613,0.0117036697947662
935,591,15,0.0161287861448081,0.0195162890058747
936,591,15,0.00250247959105821,0.00782787823300526
937,591,15,0.00752269779507134,0.0184176394293126
938,591,15,0.00959792477302205,0.0262607766842145
939,591,15,0.00196841382467384,0.0072632944228275
940,591,15,0.00221255817502098,0.00741588464179446
941,591,15,0.00164797436484321,0.00801098649576562
942,591,15,0.00218204013122759,0.00790417334248875
931,592,15,0.0291905088883803,0.00874341954680705
932,592,15,0.0146639200427253,0.0174105439841306
933,592,15,0.00285343709468223,0.00930800335698482
934,592,15,0.00712596322575723,0.0103761348897536
935,592,15,0.0224612802319371,0.00770580605783169
936,592,15,0.00135805294880598,0.00828564888990616
937,592,15,0.00183108262760357,0.012314030670634
938,592,15,0.0133821622034028,0.0076752880140383
939,592,15,0.069916838330663,0.00796520943007553
940,592,15,0.0662088960097658,0.0076752880140383
941,592,15,0.0401312275883116,0.00749217975127794
942,592,15,0.00178530556191348,0.0126039520866712
930,593,15,0.00280766002899214,0.00791943236438544
931,593,15,0.0594491493095293,0.007690547035935
932,593,15,0.00216678110933089,0.0120241092545968
933,593,15,0.02905317769131,0.00791943236438544
934,593,15,0.0278171969176776,0.0111848630502785
935,593,15,0.0279392690928511,0.0212252994583047
936,593,15,0.00535591668574044,0.00721751735713741
937,593,15,0.0564888990615702,0.00834668497749294
938,593,15,0.010452429999237,0.00782787823300526
939,593,15,0.0179598687724117,0.0162813763637751
940,593,15,0.0164187075608454,0.012466620889601
941,593,15,0.00685130083161669,0.0187228198672465
942,593,15,0.064438849469749,0.0102845807583734
929,594,15,0.0209201190203708,0.0167086289768826
930,594,15,0.032318608377203,0.00848401617456321
931,594,15,0.0130006866559854,0.00770580605783169
932,594,15,0.0229495689326314,0.0245517662317845
933,594,15,0.00479133287556268,0.0102998397802701
934,594,15,0.0287479972533761,0.00837720302128634
935,594,15,0.00202944991226062,0.00856031128404669
936,594,15,0.00498970016021973,0.020859082932784
937,594,15,0.0828107118333715,0.0225833524071107
938,594,15,0.00837720302128634,0.00791943236438544
939,594,15,0.0426337071793698,0.00762951094834821
940,594,15,0.0402990768291753,0.00784313725490196
941,594,15,0.0377355611505302,0.00762951094834821
942,594,15,0.00189211871519036,0.00941481651026169
929,595,15,0.00526436255436027,0.00830090791180285
930,595,15,0.0249637598229953,0.0076752880140383
931,595,15,0.00650034332799268,0.00747692072938125
932,595,15,0.00209048599984741,0.00802624551766232
933,595,15,0.0381780727855345,0.0108949416342412
934,595,15,0.0634012359807736,0.00778210116731518
935,595,15,0.00370794232089723,0.0157625696192874
936,595,15,0.0136415655756466,0.00822461280231937
937,595,15,0.0170748455024033,0.00801098649576562
938,595,15,0.0208285648889906,0.0221713588158999
939,595,15,0.00251773861295491,0.0081177996490425
940,595,15,0.0156252384222171,0.0105897611963073
941,595,15,0.00912489509422446,0.00733958953231098
942,595,15,0.00874341954680705,0.00755321583886473
929,596,15,0.01196307316701,0.00782787823300526
930,596,15,0.0283665217059586,0.0132448310063325
931,596,15,0.0125276569771878,0.00778210116731518
932,596,15,0.0437323567559319,0.00772106507972839
933,596,15,0.00221255817502098,0.0119172961013199
934,596,15,0.0282291905088884,0.00775158312352178
935,596,15,0.00244144350347143,0.0144960708018616
936,596,15,0.00627145799954223,0.0275120164797436
937,596,15,0.00227359426260777,0.00794995040817884
938,596,15,0.0236667429617761,0.014679179064622
939,596,15,0.00227359426260777,0.00817883573662928
940,596,15,0.00163271534294652,0.00715648126955062
941,596,15,0.00146486610208286,0.00802624551766232
942,596,15,0.00207522697795071,0.012115663385977
929,597,15,0.00985732814526589,0.0101472495613031
930,597,15,0.00524910353246357,0.00819409475852598
931,597,15,0.00164797436484321,0.00729381246662089
932,597,15,0.00195315480277714,0.00787365529869535
933,597,15,0.0225833524071107,0.00840772106507973
934,597,15,0.0259250782024872,0.0081025406271458
935,597,15,0.0431372549019608,0.0125581750209812
936,597,15,0.0246890974288548,0.00827038986800946
937,597,15,0.0269474326695659,0.0130922407873655
938,597,15,0.00231937132829786,0.00770580605783169
939,597,15,0.0219119554436561,0.00758373388265812
940,597,15,0.0281834134431983,0.00901808194094758
941,597,15,0.00201419089036393,0.00823987182421607
942,597,15,0.014373998626688,0.00730907148851759
929,598,15,0.00224307621881437,0.00762951094834821
930,598,15,0.0616617074845502,0.00889600976577401
931,598,15,0.0021210040436408,0.0110017547875181
932,598,15,0.00605783169298848,0.0126192111085679
933,598,15,0.022415503166247,0.00915541313801785
934,598,15,0.0407568474860761,0.00831616693369955
935,598,15,0.0535591668574044,0.00799572747386892
936,598,15,0.00178530556191348,0.00762951094834821
937,598,15,0.0425268940260929,0.00770580605783169
938,598,15,0.0115053025101091,0.00784313725490196
939,598,15,0.0117647058823529,0.00752269779507134
940,598,15,0.0333104448004883,0.0117036697947662
941,598,15,0.0055542839703975,0.00782787823300526
942,598,15,0.00195315480277714,0.0104219119554437
929,599,15,0.00498970016021973,0.00805676356145571
930,599,15,0.0100709544518196,0.0114137483787289
931,599,15,0.00190737773708705,0.00779736018921187
932,599,15,0.00221255817502098,0.00750743877317464
933,599,15,0.00201419089036393,0.0104829480430304
934,599,15,0.00187685969329366,0.0229953459983215
935,599,15,0.0350652323186084,0.00796520943007553
936,599,15,0.00260929274433509,0.00866712443732357
937,599,15,0.0507362478065156,0.0103303578240635
938,599,15,0.0122377355611505,0.00790417334248875
939,599,15,0.0539101243610285,0.0223239490348669
940,599,15,0.00277714198519875,0.0101930266269932
941,599,15,0.00898756389715419,0.0120088502327001
942,599,15,0.00465400167849241,0.00785839627679866
929,600,15,0.0588845654993515,0.0184023804074159
930,600,15,0.00569161516746777,0.0110170138094148
931,600,15,0.0364385442893111,0.00825513084611276
932,600,15,0.0131837949187457,0.00781261921110857
933,600,15,0.00222781719691768,0.00900282291905089
934,600,15,0.00485236896314946,0.0180209048599985
935,600,15,0.00224307621881437,0.00794995040817884
936,600,15,0.00170901045243,0.00762951094834821
937,600,15,0.0311741817349508,0.00729381246662089
938,600,15,0.00329594872968643,0.0085297932402533
939,600,15,0.0029907682917525,0.00971999694819562
940,600,15,0.00167849240863661,0.00782787823300526
941,600,15,0.0021362630655375,0.00787365529869535
930,601,15,0.0380407415884642,0.0175478751812009
931,601,15,0.018951705195697,0.020706492713817
932,601,15,0.0103456168459602,0.00727855344472419
933,601,15,0.00221255817502098,0.0226901655603876
934,601,15,0.0107423514152743,0.0559853513389792
935,601,15,0.0180819409475853,0.0205844205386435
936,601,15,0.0273594262607767,0.007690547035935
937,601,15,0.00228885328450446,0.0076600289921416
938,601,15,0.0351110093842985,0.00753795681696803
939,601,15,0.00506599526970321,0.00770580605783169
940,601,15,0.00592050049591821,0.0149996185244526
941,601,15,0.00196841382467384,0.00970473792629892
934,591,16,0.0344090943770504,0.0157473105973907
935,591,16,0.0140383001449607,0.00752269779507134
936,591,16,0.0388189517051957,0.02563515678645
937,591,16,0.0156099794003204,0.014679179064622
938,591,16,0.0252536812390326,0.00784313725490196
939,591,16,0.00248722056916152,0.0081025406271458
940,591,16,0.00798046845197223,0.00816357671473259
941,591,16,0.00720225833524071,0.0156099794003204
932,592,16,0.0174258030060273,0.0108491645685512
933,592,16,0.0442664225223163,0.0113527122911421
934,592,16,0.0361486228732738,0.0142671854734112
935,592,16,0.00566109712367437,0.0119325551232166
936,592,16,0.00219729915312428,0.00758373388265812
937,592,16,0.0475318532082094,0.00823987182421607
938,592,16,0.00210574502174411,0.00831616693369955
939,592,16,0.016937514305333,0.0112306401159686
940,592,16,0.0021210040436408,0.0265964751659419
941,592,16,0.00167849240863661,0.00790417334248875
942,592,16,0.00192263675898375,0.0097962920576791
931,593,16,0.00199893186846723,0.0155031662470436
932,593,16,0.00309758144502937,0.00758373388265812
933,593,16,0.00186160067139696,0.0164797436484321
934,593,16,0.00207522697795071,0.00910963607232776
935,593,16,0.0016937514305333,0.00752269779507134
936,593,16,0.0359349965667201,0.00785839627679866
937,593,16,0.00379949645227741,0.00807202258335241
938,593,16,0.0161440451667048,0.00944533455405508
939,593,16,0.0328831921873808,0.00740062561989776
940,593,16,0.00674448767833982,0.00784313725490196
941,593,16,0.0188143739986267,0.00819409475852598
942,593,16,0.00990310521095598,0.010101472495613
931,594,16,0.0383306630045014,0.0105439841306172
932,594,16,0.0100404364080262,0.00791943236438544
933,594,16,0.00151064316777295,0.00880445563439384
934,594,16,0.00170901045243,0.00762951094834821
935,594,16,0.00173952849622339,0.00798046845197223
936,594,16,0.0318455786984054,0.00788891432059205
937,594,16,0.05981536583505,0.0139620050354772
938,594,16,0.0113221942473487,0.00772106507972839
939,594,16,0.0335393301289387,0.0145418478675517
940,594,16,0.0571908140688182,0.0168459601739528
941,594,16,0.00173952849622339,0.0123445487144274
942,594,16,0.0469825284199283,0.00857557030594339
930,595,16,0.0252384222171359,0.007690547035935
931,595,16,0.00205996795605402,0.0106965743495842
932,595,16,0.00192263675898375,0.0220798046845197
933,595,16,0.00218204013122759,0.00755321583886473
934,595,16,0.00175478751812009,0.0157778286411841
935,595,16,0.00199893186846723,0.00796520943007553
936,595,16,0.0297245746547646,0.00778210116731518
937,595,16,0.00334172579537652,0.0076600289921416
938,595,16,0.0249942778667887,0.0076752880140383
939,595,16,0.0208743419546807,0.0081177996490425
940,595,16,0.0110322728313115,0.00784313725490196
941,595,16,0.0385137712672618,0.0114137483787289
942,595,16,0.0144197756923781,0.0130769817654688
930,596,16,0.00218204013122759,0.0179140917067216
931,596,16,0.00672922865644312,0.0162966353856718
932,596,16,0.0498359655146105,0.00740062561989776
933,596,16,0.0431372549019608,0.0101319905394064
934,596,16,0.0241855497062638,0.0101319905394064
935,596,16,0.0101625085831998,0.00828564888990616
936,596,16,0.0021362630655375,0.00746166170748455
937,596,16,0.0847486076142519,0.0172579537651637
938,596,16,0.0237888151369497,0.00984206912336919
939,596,16,0.0140383001449607,0.00732433051041428
940,596,16,0.0273746852826734,0.00773632410162509
941,596,16,0.00662241550316625,0.00814831769283589
930,597,16,0.0416418707560845,0.0210727092393378
931,597,16,0.0189669642175937,0.00747692072938125
932,597,16,0.00950637064164187,0.0104676890211337
933,597,16,0.00453192950331884,0.00970473792629892
934,597,16,0.0330052643625544,0.014877546349279
935,597,16,0.00561532005798428,0.00987258716716258
936,597,16,0.0549019607843137,0.0172579537651637
937,597,16,0.0624246585793851,0.0122224765392538
938,597,16,0.00193789578088045,0.00743114366369116
939,597,16,0.0101777676050965,0.00822461280231937
940,597,16,0.0262760357061112,0.00807202258335241
941,597,16,0.00175478751812009,0.0076752880140383
930,598,16,0.00178530556191348,0.0076600289921416
931,598,16,0.00996414129854276,0.00845349813076982
932,598,16,0.0439154650186923,0.00773632410162509
933,598,16,0.00122072175173571,0.00730907148851759
934,598,16,0.00199893186846723,0.00875867856870375
935,598,16,0.0156862745098039,0.00915541313801785
936,598,16,0.0770733196002136,0.012115663385977
937,598,16,0.00166323338673991,0.00737010757610437
938,598,16,0.00225833524071107,0.00793469138628214
939,598,16,0.00244144350347143,0.00749217975127794
940,598,16,0.00161745632104982,0.009399557488365
941,598,16,0.00199893186846723,0.00752269779507134
930,599,16,0.00802624551766232,0.00975051499198901
931,599,16,0.0143587396047913,0.00756847486076143
932,599,16,0.00187685969329366,0.0141145952544442
933,599,16,0.0034027618829633,0.00817883573662928
934,599,16,0.00457770656900893,0.016739147020676
935,599,16,0.0465857938506142,0.00770580605783169
936,599,16,0.0523384451056687,0.00805676356145571
937,599,16,0.104310673685817,0.007690547035935
938,599,16,0.0192111085679408,0.00782787823300526
939,599,16,0.0190890363927672,0.00813305867093919
940,599,16,0.040009155413138,0.0115510795757992
941,599,16,0.00238040741588464,0.0162050812542916
930,600,16,0.0413519493400473,0.00752269779507134
931,600,16,0.0660410467689021,0.0157015335317006
932,600,16,0.00373846036469062,0.007690547035935
933,600,16,0.00189211871519036,0.0144808117799649
934,600,16,0.00161745632104982,0.00787365529869535
935,600,16,0.00175478751812009,0.00758373388265812
936,600,16,0.0112458991378653,0.0076752880140383
937,600,16,0.0136263065537499,0.00755321583886473
938,600,16,0.00183108262760357,0.00788891432059205
939,600,16,0.00190737773708705,0.011810482948043
940,600,16,0.0168612191958495,0.00775158312352178
941,600,16,0.0016937514305333,0.032669565880827
941,601,16,0.0021210040436408,0.0093690394445716
