x,y,z,signal,cytoplasm.p
670,384,8,0.0368063746825914,1
671,384,8,0.0366715871052938,1
671,385,8,0.0425898884776263,1
672,383,8,0.0366931360884244,1
672,384,8,0.0408536527900002,1
672,385,8,0.0451894160865918,1
672,386,8,0.045367622386327,1
669,384,9,0.0362619756359674,1
670,378,9,0.0365239197095269,1
670,379,9,0.0366490525259117,1
670,384,9,0.0366177525550154,1
670,385,9,0.0432598402396298,1
671,378,9,0.0390655595765291,1
671,379,9,0.0423131983678433,1
671,380,9,0.037460160333299,1
671,383,9,0.0360160722871982,1
671,384,9,0.0389032686150789,1
671,385,9,0.04311939860573,1
671,386,9,0.0449532870533103,1
672,383,9,0.0379857339083275,1
672,384,9,0.042358069240971,1
672,385,9,0.0459304590811696,1
672,386,9,0.0467816934862375,1
672,387,9,0.0460639927934135,1
673,383,9,0.0348906671663154,1
673,384,9,0.0392208143138529,1
673,385,9,0.043036051571248,1
673,386,9,0.0468616929926229,1
668,378,10,0.0363602553284483,1
668,379,10,0.0371298572865959,1
669,378,10,0.0400062674590503,1
669,379,10,0.0401402998013504,1
669,380,10,0.0350555999922739,1
669,384,10,0.0361493698062577,1
670,377,10,0.0347145428657621,1
670,378,10,0.0414327372431653,1
670,379,10,0.0422854646224366,1
670,380,10,0.0376178149100161,1
670,383,10,0.0352427612212641,1
670,384,10,0.03798001570049,1
670,385,10,0.0426223752463757,1
671,378,10,0.0393569811427094,1
671,379,10,0.0437892395610544,1
671,380,10,0.0410336815680111,1
671,382,10,0.0345390425817704,1
671,383,10,0.0360915637113211,1
671,384,10,0.0391271885018965,1
671,385,10,0.0425279358801172,1
672,380,10,0.041209100204976,1
672,381,10,0.034552470601705,1
672,383,10,0.035134543919242,1
672,384,10,0.0387602667636976,1
672,385,10,0.0410976316017103,1
672,386,10,0.0435901549501939,1
667,379,11,0.0362198020306875,1
668,378,11,0.0441739428552926,1
668,379,11,0.0479388680484205,1
668,380,11,0.0400389991688799,1
669,377,11,0.0370199574726298,1
669,378,11,0.0476877480378353,1
669,379,11,0.0522901151204415,1
669,380,11,0.0440588088837191,1
670,377,11,0.0364726016372515,1
670,378,11,0.0432277033867093,1
670,379,11,0.0469163236014121,1
670,380,11,0.0431074256524507,1
670,381,11,0.0353772105465937,1
670,384,11,0.0364576952229398,1
671,378,11,0.035159848665603,1
671,379,11,0.039522858741406,1
671,380,11,0.0397993622294136,1
671,381,11,0.0347698878860353,1
671,384,11,0.0362838424593092,1
672,380,11,0.0351864539324614,1
664,384,12,0.0347527449263838,1
665,384,12,0.0372960964649823,1
665,385,12,0.0364439406148982,1
666,377,12,0.0453461521342579,1
666,384,12,0.0376495231160462,1
667,378,12,0.0370052785036069,1
667,379,12,0.0368166038886566,1
667,386,12,0.0368930225897261,1
667,387,12,0.0362737298918536,1
668,377,12,0.049609987316251,1
668,378,12,0.0497800405771726,1
668,379,12,0.0547192424686216,1
668,380,12,0.0414811364342345,1
668,385,12,0.0351434521930531,1
668,386,12,0.0362258234989101,1
668,387,12,0.0372105682885001,1
668,388,12,0.0394930109211996,1
669,376,12,0.0372373776729254,1
669,377,12,0.0393500440614012,1
669,378,12,0.0523193447560168,1
669,379,12,0.0592846467758336,1
669,380,12,0.0460116395534775,1
669,385,12,0.0346767607041352,1
669,386,12,0.0371005343401329,1
669,387,12,0.0385073650983501,1
669,388,12,0.0433596537298275,1
670,376,12,0.0352426824902026,1
670,377,12,0.0363344723637878,1
670,378,12,0.0422981869787829,1
670,379,12,0.0472277399412496,1
670,380,12,0.0433523754805861,1
670,381,12,0.0356705653977288,1
670,385,12,0.0371881445157972,1
670,386,12,0.0398280844870369,1
670,387,12,0.0399471112722072,1
670,388,12,0.0464890763743084,1
671,379,12,0.0351720928036497,1
671,380,12,0.0377435338354143,1
671,385,12,0.0360505652400334,1
671,386,12,0.0395242175812082,1
671,387,12,0.0399256235243466,1
671,388,12,0.0463797364256686,1
672,388,12,0.0384011277367267,1
661,383,13,0.0363003672343297,1
665,384,13,0.0346520129071352,1
666,377,13,0.0446152625306491,1
666,389,13,0.0400079237273071,1
667,378,13,0.0378971614641337,1
667,379,13,0.0370548586605987,1
667,388,13,0.0362868109119245,1
667,389,13,0.0387570417061411,1
668,377,13,0.0505627964545222,1
668,378,13,0.0522399021989924,1
668,379,13,0.056474566064715,1
668,380,13,0.039876299972296,1
668,388,13,0.0353976368831066,1
668,389,13,0.0382232101175503,1
668,390,13,0.0426676776823591,1
669,376,13,0.0388087446858283,1
669,377,13,0.0427187420656586,1
669,378,13,0.0548371582710351,1
669,379,13,0.0592739860069127,1
669,380,13,0.04171646649304,1
669,388,13,0.037495353117792,1
669,389,13,0.0420374122072849,1
669,390,13,0.0435108465275706,1
670,376,13,0.0344700566761001,1
670,377,13,0.0359896798858024,1
670,378,13,0.0412297160792295,1
670,379,13,0.0435622520788033,1
670,380,13,0.0378410320492107,1
670,387,13,0.035442274479015,1
670,388,13,0.039847799328031,1
670,389,13,0.0453798811042,1
670,390,13,0.0421406169650578,1
671,375,13,0.0352812432145489,1
671,387,13,0.0356436743662768,1
671,388,13,0.0397779969520932,1
671,389,13,0.0440202102518246,1
671,390,13,0.0398140966017761,1
672,374,13,0.0363149528924649,1
672,388,13,0.0352526696711528,1
672,389,13,0.038347156136082,1
672,390,13,0.0386580271904194,1
673,389,13,0.0370265650498658,1
673,390,13,0.0415945091628026,1
674,389,13,0.0346814874837907,1
674,390,13,0.0400597900010479,1
660,383,14,0.0389837084322157,1
664,389,14,0.0352766126617463,1
665,389,14,0.0371942972024556,1
666,376,14,0.0608499660768268,1
666,377,14,0.0373561041136758,1
666,389,14,0.037919349043652,1
666,390,14,0.0408865273821267,1
667,377,14,0.0539491535442788,1
667,389,14,0.0371651288021504,1
667,390,14,0.0406106129190977,1
668,376,14,0.0562032238351839,1
668,377,14,0.0435872885563621,1
668,378,14,0.0455701799117895,1
668,379,14,0.047065516047,1
668,389,14,0.0355930707054854,1
668,390,14,0.0400533194741782,1
668,391,14,0.0465523761477589,1
669,376,14,0.0380871599273034,1
669,377,14,0.0407413735483975,1
669,378,14,0.0488635935254561,1
669,379,14,0.0489617507473969,1
669,389,14,0.0361834195323762,1
669,390,14,0.0393437193327936,1
669,391,14,0.0439577152847806,1
670,378,14,0.0362591004942398,1
670,379,14,0.0357927939127336,1
670,389,14,0.0367337496523003,1
670,390,14,0.0373490941332366,1
670,391,14,0.0376608837166249,1
671,375,14,0.0346723138571427,1
671,389,14,0.035352235304305,1
671,390,14,0.0354400437656057,1
671,391,14,0.0355723615203442,1
672,374,14,0.0351881043687878,1
672,390,14,0.0366116815153837,1
672,391,14,0.0370635453210515,1
673,389,14,0.0346113526878155,1
673,390,14,0.0398844384312835,1
673,391,14,0.0397879637212867,1
674,390,14,0.0370048411088207,1
674,391,14,0.0386561114012561,1
675,391,14,0.03837526895697,1
676,391,14,0.0356760124207989,1
664,390,15,0.0346099996799437,1
665,390,15,0.036409144401678,1
666,376,15,0.0431956306850242,1
666,390,15,0.0372863804687995,1
666,391,15,0.0399333100087218,1
667,376,15,0.0539376879689514,1
667,377,15,0.0396628746443805,1
667,390,15,0.037151896151887,1
667,391,15,0.0401763032241804,1
668,376,15,0.0409273713072566,1
668,377,15,0.0344940317423112,1
668,378,15,0.0355778289551709,1
668,379,15,0.035768436855076,1
668,390,15,0.0350414225692724,1
668,391,15,0.0388042045279482,1
668,392,15,0.0417623871136544,1
669,378,15,0.038290531007068,1
669,379,15,0.0374077808496759,1
669,391,15,0.0359914352968775,1
670,375,15,0.0358027956735101,1
670,392,15,0.0348630646393446,1
673,390,15,0.0351909036954191,1
673,391,15,0.0361189941963427,1
673,392,15,0.034661836794032,1
674,391,15,0.0355872241951773,1
674,392,15,0.0369783874721549,1
675,391,15,0.0367626760274905,1
675,392,15,0.0412733097595817,1
676,391,15,0.034569074107787,1
676,392,15,0.0390543593540386,1
677,392,15,0.0360479554511427,1
680,389,15,0.0397208207056487,1
680,390,15,0.0456886439156682,1
681,388,15,0.0437987980951142,1
665,391,16,0.0363213155286206,1
666,391,16,0.0374887222128341,1
666,392,16,0.0418544762119288,1
667,375,16,0.0362478681961316,1
667,376,16,0.0346276062780685,1
667,391,16,0.0374925246315083,1
667,392,16,0.0409576594382143,1
668,375,16,0.0351440149743446,1
668,392,16,0.0375164792859627,1
670,371,16,0.0357264265438496,1
670,374,16,0.0406557024896185,1
671,374,16,0.0363328160955309,1
673,393,16,0.0357239042339162,1
674,392,16,0.0375127614302805,1
674,393,16,0.0395218731451545,1
675,391,16,0.0350604113349214,1
675,392,16,0.0416568116761407,1
675,393,16,0.0442653233740135,1
676,392,16,0.0384351074796795,1
676,393,16,0.0422255736123528,1
677,392,16,0.0355696759163572,1
677,393,16,0.038735233202104,1
678,392,16,0.0368568996123213,1
679,391,16,0.036213865125457,1
680,388,16,0.0349536432676241,1
680,389,16,0.0432290855542335,1
680,390,16,0.0480148930941825,1
680,391,16,0.0441375224494332,1
681,387,16,0.0358876415141259,1
681,388,16,0.0508572914480665,1
681,389,16,0.0693439628742105,1
681,390,16,0.0742151236327272,1
682,387,16,0.0356531949927885,1
682,388,16,0.0543787685351581,1
656,376,17,0.0360997021703086,1
657,376,17,0.037491964766182,1
657,379,17,0.0379682352009165,1
657,380,17,0.0360189124373429,1
658,375,17,0.0356066736833344,1
658,376,17,0.0347863864173686,1
666,391,17,0.0346099151169517,1
666,392,17,0.0415476379375196,1
667,392,17,0.0396763318239675,1
668,392,17,0.0349159952403982,1
670,372,17,0.0344987351942448,1
670,373,17,0.0349489748072734,1
673,393,17,0.0361707088398909,1
673,394,17,0.0401266472520923,1
674,392,17,0.0368974286132052,1
674,393,17,0.040230648068376,1
674,394,17,0.0407541483921181,1
675,392,17,0.0381441087284591,1
675,393,17,0.0432500746720379,1
675,394,17,0.0440257243420953,1
676,392,17,0.0344978487408116,1
676,393,17,0.0398507619487158,1
677,393,17,0.0363549191120573,1
678,392,17,0.0346150559636715,1
679,392,17,0.0382980541973897,1
680,388,17,0.0348729147699285,1
680,389,17,0.0398868120269896,1
680,390,17,0.0427279127763414,1
680,391,17,0.0424662602993059,1
680,392,17,0.0417531318399797,1
681,388,17,0.0483855181082375,1
681,389,17,0.0617387814419201,1
681,390,17,0.0639625548539717,1
681,391,17,0.0525027939612553,1
682,388,17,0.0488922895393923,1
682,389,17,0.0649616112009643,1
682,390,17,0.065493238319833,1
683,388,17,0.0355316954690939,1
656,375,18,0.0357287855597296,1
656,376,18,0.0428813975227639,1
656,377,18,0.0402357568394781,1
656,378,18,0.0355386412982978,1
656,379,18,0.0386663376913561,1
656,380,18,0.0371323008654678,1
657,375,18,0.0430816310239293,1
657,376,18,0.0520920394335544,1
657,377,18,0.0469862047084114,1
657,378,18,0.03878419809043,1
657,379,18,0.0421656621905123,1
657,380,18,0.0414990987801188,1
657,381,18,0.0359329177064221,1
658,375,18,0.0409202184445206,1
658,376,18,0.0469143436610135,1
658,377,18,0.0412613834617462,1
658,379,18,0.0354098722732576,1
658,380,18,0.0372389056387116,1
658,381,18,0.0361903420338582,1
665,392,18,0.0391841722946351,1
666,392,18,0.0402389294096603,1
666,393,18,0.0473395322166571,1
667,392,18,0.0370959446108437,1
668,393,18,0.0351626334124081,1
673,392,18,0.0347224626273565,1
673,393,18,0.0364654021190716,1
674,392,18,0.0366969939104382,1
674,393,18,0.0399001350721755,1
674,394,18,0.0410875219502199,1
675,392,18,0.035109335399734,1
675,393,18,0.0406677775016812,1
675,394,18,0.0433446248449756,1
676,393,18,0.0370821958347326,1
677,393,18,0.0346343888132189,1
678,393,18,0.0354578369855059,1
679,392,18,0.0364682714288687,1
680,390,18,0.0364675045300103,1
680,391,18,0.039910862908297,1
680,392,18,0.0405751402019416,1
681,388,18,0.0395691263618841,1
681,389,18,0.0474994583302968,1
681,390,18,0.0495917683654256,1
681,391,18,0.0469838894320101,1
682,388,18,0.0395056662103453,1
682,389,18,0.0503394451809265,1
682,390,18,0.0506981089055631,1
683,389,18,0.0431969807769307,1
655,377,19,0.0364757333839203,1
655,379,19,0.0371806942246066,1
655,380,19,0.0355930532096939,1
656,376,19,0.0440703502741427,1
656,377,19,0.0453879204203693,1
656,378,19,0.0428511356354933,1
656,379,19,0.0443403803193155,1
656,380,19,0.0429030777243303,1
656,381,19,0.0382197692785659,1
657,375,19,0.0419201175054678,1
657,376,19,0.0566618526802106,1
657,377,19,0.0534052152201628,1
657,378,19,0.0441230155223595,1
657,379,19,0.0442466582805062,1
657,380,19,0.0443531464151403,1
657,381,19,0.0411744556219483,1
657,382,19,0.0387021399125845,1
657,383,19,0.0382867898236639,1
657,384,19,0.0354110794828673,1
658,375,19,0.0392301279068324,1
658,376,19,0.0499014380420838,1
658,377,19,0.0455734224651374,1
658,378,19,0.0377458753555028,1
658,379,19,0.0378208827293957,1
658,380,19,0.039308713170076,1
658,381,19,0.0389610018108844,1
658,382,19,0.0361095785445797,1
659,376,19,0.034508346215679,1
659,389,19,0.041468833976883,1
660,389,19,0.0349481408412144,1
660,390,19,0.0499680445201175,1
661,390,19,0.040348934198375,1
662,391,19,0.0403602714712318,1
664,392,19,0.0373668815212063,1
665,392,19,0.0385990372135951,1
665,393,19,0.0455635285950749,1
666,392,19,0.0384208921491298,1
667,393,19,0.0391005948988991,1
672,394,19,0.0391992011794869,1
673,393,19,0.0367265297223637,1
674,392,19,0.034914455610751,1
674,393,19,0.0383945347393169,1
674,394,19,0.0414979994612229,1
675,393,19,0.0369994232454031,1
675,394,19,0.0418546074303646,1
679,393,19,0.0351297646522121,1
680,392,19,0.0361917621089306,1
681,390,19,0.0360363440775533,1
681,391,19,0.0384500430536436,1
681,392,19,0.037606570948047,1
682,389,19,0.0378506926420539,1
682,390,19,0.0383400936682684,1
682,391,19,0.0369376426898431,1
683,388,19,0.0352142401652424,1
683,389,19,0.0468109406176042,1
684,388,19,0.0389416164739626,1
655,377,20,0.0441739603510841,1
655,378,20,0.0518721464947345,1
655,379,20,0.0503593145680784,1
655,380,20,0.043291198529831,1
655,381,20,0.0359440187860944,1
656,376,20,0.0425829076568395,1
656,377,20,0.0484737668802895,1
656,378,20,0.0544586834785515,1
656,379,20,0.0564138848280509,1
656,380,20,0.0516359999656616,1
656,381,20,0.0429090700329005,1
656,382,20,0.0431703988377942,1
656,383,20,0.0452460178878838,1
656,384,20,0.0374971726801024,1
657,375,20,0.0382051486288478,1
657,376,20,0.0523623377475293,1
657,377,20,0.0519379598302227,1
657,378,20,0.04867333554138,1
657,379,20,0.04890073417473,1
657,380,20,0.0471028491499798,1
657,381,20,0.0435353843750732,1
657,382,20,0.048992298399261,1
657,383,20,0.0531977384613389,1
657,384,20,0.0434485935856416,1
658,375,20,0.0362163407799465,1
658,376,20,0.0457968349740031,1
658,377,20,0.0432565102073247,1
658,378,20,0.0387310750356704,1
658,379,20,0.0382605723801825,1
658,380,20,0.0378516461626877,1
658,381,20,0.037423757423231,1
658,382,20,0.0398514967719565,1
658,383,20,0.0415820813189457,1
658,384,20,0.0347775306309318,1
658,388,20,0.0353064546500221,1
659,389,20,0.0445248880199364,1
660,389,20,0.0367493004949303,1
660,390,20,0.0564300392754857,1
661,389,20,0.0347090287754915,1
661,390,20,0.0434143105823038,1
661,391,20,0.0626855720279339,1
662,391,20,0.041578599656448,1
662,392,20,0.055003391617491,1
663,392,20,0.040394595298083,1
664,392,20,0.0370319799973182,1
664,393,20,0.0460780185862225,1
665,392,20,0.036023160998699,1
665,393,20,0.0429334824938977,1
666,393,20,0.039902887743363,1
667,393,20,0.0348697859392249,1
670,394,20,0.0376465867390485,1
671,394,20,0.0365013734662839,1
672,394,20,0.038480036672112,1
673,393,20,0.035442685630114,1
673,394,20,0.0410587763648747,1
674,393,20,0.0363805037910814,1
674,394,20,0.0406414579994164,1
675,394,20,0.0402256705157097,1
676,374,20,0.0383217201712852,1
677,374,20,0.0395808660379441,1
683,388,20,0.0345901069650699,1
683,389,20,0.0501161755543576,1
683,390,20,0.0408200171309459,1
684,388,20,0.04502498772262,1
684,389,20,0.0640050462994628,1
685,388,20,0.039190257914093,1
655,376,21,0.0349789130224022,1
655,377,21,0.0475851731285545,1
655,378,21,0.0617697839843618,1
655,379,21,0.062941628767672,1
655,380,21,0.0526284254076963,1
655,381,21,0.0432183110626682,1
655,382,21,0.0380996490064303,1
655,383,21,0.0358044840173846,1
656,376,21,0.0381142113368436,1
656,377,21,0.0494204554075199,1
656,378,21,0.0655614194190968,1
656,379,21,0.0725622029039655,1
656,380,21,0.0629965305612286,1
656,381,21,0.0522608329974919,1
656,382,21,0.0509752247462714,1
656,383,21,0.0533965256437448,1
656,384,21,0.041606531687491,1
657,375,21,0.034590252763332,1
657,376,21,0.0421355723451909,1
657,377,21,0.0470840032666276,1
657,378,21,0.0532605483526289,1
657,379,21,0.0578939179776769,1
657,380,21,0.0523585878162294,1
657,381,21,0.0496736311736,1
657,382,21,0.057331125022313,1
657,383,21,0.0644723122335333,1
657,384,21,0.0499447459578423,1
657,385,21,0.0351882385031889,1
657,389,21,0.0455928632053988,1
658,376,21,0.0378985407156926,1
658,377,21,0.0387382716378851,1
658,378,21,0.0391467604605937,1
658,379,21,0.0406717519623046,1
658,380,21,0.0386347956953448,1
658,381,21,0.0381849118300756,1
658,382,21,0.042250228098465,1
658,383,21,0.0464750651613257,1
658,384,21,0.0376575974237984,1
658,388,21,0.03725086692813,1
658,389,21,0.0513726299850992,1
659,389,21,0.0460932340928497,1
660,389,21,0.0397109676590995,1
660,390,21,0.0582822778923273,1
661,389,21,0.036632682297049,1
661,390,21,0.044782414406156,1
661,391,21,0.0647332852906676,1
662,391,21,0.0429095453352348,1
662,392,21,0.057225304643719,1
662,393,21,0.0721874313873379,1
663,392,21,0.0431777674819581,1
663,393,21,0.0595831483056189,1
664,392,21,0.037867092030569,1
664,393,21,0.0501168870498764,1
665,393,21,0.0422362402132042,1
665,394,21,0.0486341508004721,1
666,393,21,0.0367294602674309,1
668,394,21,0.0376830508843866,1
669,394,21,0.0376154004907966,1
670,394,21,0.0366659680402745,1
670,395,21,0.0506853661374602,1
671,367,21,0.0383104412177332,1
671,394,21,0.0366318629108163,1
672,394,21,0.0379274379312304,1
673,394,21,0.0398016133545796,1
674,394,21,0.0391537791889287,1
675,394,21,0.0385838858582031,1
676,394,21,0.0369848988225379,1
683,389,21,0.0473527794467467,1
683,390,21,0.0397805075981656,1
684,388,21,0.0454689813381024,1
684,389,21,0.0638197716999835,1
684,390,21,0.0518847434645754,1
685,387,21,0.0365980318820909,1
685,388,21,0.0387317486236411,1
685,389,21,0.0461179527301973,1
654,377,22,0.044828970707193,1
654,378,22,0.0517291883828318,1
655,376,22,0.0362289639934746,1
655,377,22,0.0491957919495658,1
655,378,22,0.0647627890269755,1
655,379,22,0.0702498133082414,1
655,380,22,0.06135708159188,1
655,381,22,0.053463295415832,1
655,382,22,0.0433696788183258,1
655,383,22,0.0374133707550428,1
656,373,22,0.0346566172162507,1
656,376,22,0.0359612171490855,1
656,377,22,0.0511563236835257,1
656,378,22,0.0725386477367491,1
656,379,22,0.0858970635810125,1
656,380,22,0.0757366684635233,1
656,381,22,0.0645155559980565,1
656,382,22,0.0551150789181498,1
656,383,22,0.0534490421777343,1
656,384,22,0.0409042622827221,1
657,376,22,0.0350536958669715,1
657,377,22,0.0445100690845819,1
657,378,22,0.0569655504600553,1
657,379,22,0.0682593171154656,1
657,380,22,0.0621397033348285,1
657,381,22,0.0582842782444825,1
657,382,22,0.0580313824110656,1
657,383,22,0.0625392197324907,1
657,384,22,0.0487783861051504,1
657,385,22,0.0347266062139639,1
657,388,22,0.034978560190608,1
657,389,22,0.0493625093462518,1
658,377,22,0.0344909495670515,1
658,378,22,0.0378109946912637,1
658,379,22,0.0429287032268678,1
658,380,22,0.0416194231698212,1
658,381,22,0.0404919418816868,1
658,382,22,0.0404481819913159,1
658,383,22,0.0429368591816467,1
658,384,22,0.0351531157018616,1
658,388,22,0.0358419920782789,1
658,389,22,0.051167340200206,1
659,389,22,0.0471091767945527,1
660,389,22,0.0435202096919593,1
660,390,22,0.0640052562489602,1
661,389,22,0.037592314793984,1
661,390,22,0.0496697354440381,1
661,391,22,0.0686427490488588,1
662,391,22,0.0431471702586848,1
662,392,22,0.0581471170714788,1
663,392,22,0.0441889396645268,1
663,393,22,0.0666822756342038,1
664,392,22,0.0361187492552625,1
664,393,22,0.0536539878787291,1
664,394,22,0.0791077342315564,1
665,393,22,0.0409239917035423,1
665,394,22,0.0569207262423715,1
666,394,22,0.0428400287238906,1
667,394,22,0.0407713963265183,1
668,394,22,0.0384464651642929,1
668,395,22,0.0506604871220244,1
669,394,22,0.0371026075914192,1
669,395,22,0.0509003369269533,1
670,394,22,0.0359439458869634,1
670,395,22,0.0488967976216548,1
671,366,22,0.037449219631715,1
671,394,22,0.0376417783123662,1
671,395,22,0.0509356609298822,1
672,394,22,0.0390412550062458,1
672,395,22,0.0533304790310373,1
673,394,22,0.0400745914406109,1
673,395,22,0.0536063118470396,1
674,394,22,0.038426788230847,1
675,394,22,0.0372033629383897,1
676,394,22,0.0355657685229344,1
677,394,22,0.0360027725697343,1
683,389,22,0.0365230915753985,1
684,388,22,0.0371741099750925,1
684,389,22,0.0488611936860628,1
684,390,22,0.0440781271534403,1
684,391,22,0.0344957521618033,1
685,389,22,0.037616313187917,1
685,390,22,0.038923359615589,1
654,375,23,0.0352070144033753,1
654,376,23,0.0410022212190265,1
654,377,23,0.0481612162299733,1
654,378,23,0.0517720938953871,1
654,379,23,0.0489250329130829,1
654,380,23,0.047628346909912,1
654,381,23,0.0451417867103461,1
655,373,23,0.0352251196315564,1
655,374,23,0.0373299187458121,1
655,375,23,0.0364442788668662,1
655,376,23,0.0411357957547838,1
655,377,23,0.0519144104949368,1
655,378,23,0.0657250458926273,1
655,379,23,0.0687887281007511,1
655,380,23,0.0665055623086719,1
655,381,23,0.0609090726922608,1
655,382,23,0.0513735397662544,1
655,383,23,0.0389887763798044,1
656,373,23,0.0371600141991178,1
656,374,23,0.0370404304645865,1
656,376,23,0.0378383347813628,1
656,377,23,0.0514023786624873,1
656,378,23,0.0715682261684226,1
656,379,23,0.0811751535873884,1
656,380,23,0.0784324841607101,1
656,381,23,0.0676483115908079,1
656,382,23,0.0565482058509099,1
656,383,23,0.0466286344707402,1
656,384,23,0.037951733753618,1
656,388,23,0.0347652427534065,1
657,377,23,0.0422108538198165,1
657,378,23,0.0564745135773407,1
657,379,23,0.0680530125746685,1
657,380,23,0.0690164124986948,1
657,381,23,0.0620728402518535,1
657,382,23,0.0547543798497751,1
657,383,23,0.0502665343860419,1
657,384,23,0.0418791365299715,1
657,388,23,0.0384351570510885,1
657,389,23,0.0544658159295309,1
658,378,23,0.0353885507354158,1
658,379,23,0.041647678873006,1
658,380,23,0.0449196164026731,1
658,381,23,0.0430054193563919,1
658,382,23,0.0396099790349098,1
658,383,23,0.0365511460769817,1
658,388,23,0.0365454278691442,1
658,389,23,0.0521645594890968,1
658,390,23,0.0695441438880016,1
659,389,23,0.0505270992080425,1
660,389,23,0.0479344357812543,1
660,390,23,0.0711779008931998,1
661,389,23,0.0365708813297324,1
661,390,23,0.0522430164498697,1
661,391,23,0.0668560554987033,1
662,391,23,0.042185228317279,1
662,392,23,0.0578134198412353,1
663,392,23,0.0430082390947799,1
664,393,23,0.0561129747109765,1
665,393,23,0.0415839387888041,1
665,394,23,0.0610179373385663,1
666,394,23,0.0433022675338856,1
666,395,23,0.0522493965818169,1
667,394,23,0.042471380734269,1
667,395,23,0.0566248082577896,1
668,394,23,0.0416434740511286,1
668,395,23,0.058113414345224,1
669,394,23,0.0381324681952172,1
669,395,23,0.0522343618650346,1
670,366,23,0.0349964438054308,1
670,394,23,0.0361630340193768,1
671,366,23,0.0359281996746623,1
671,394,23,0.0378499723986394,1
671,395,23,0.0497511200339129,1
672,366,23,0.0363085202731434,1
672,394,23,0.0392390915839831,1
672,395,23,0.0519365659988375,1
673,394,23,0.0390814020156831,1
673,395,23,0.0509363257699571,1
674,394,23,0.0367879691099905,1
674,395,23,0.0479045908770132,1
675,394,23,0.0354153746996672,1
675,395,23,0.0476688904906221,1
676,394,23,0.0348011120418354,1
677,394,23,0.0358616602638291,1
678,394,23,0.0369336303216716,1
680,394,23,0.0384461735677689,1
685,390,23,0.0371448366000387,1
686,389,23,0.038655916031585,1
654,374,24,0.0389343148969992,1
654,375,24,0.0404623535823869,1
654,376,24,0.0442947658750513,1
654,377,24,0.0500442853473073,1
654,378,24,0.0522461073730251,1
654,379,24,0.0496343881133873,1
654,380,24,0.0469343617623926,1
654,381,24,0.045707145715122,1
654,382,24,0.0400906963166367,1
655,373,24,0.0351969718190855,1
655,374,24,0.0402607904010717,1
655,375,24,0.0397395178747736,1
655,376,24,0.0428301931731328,1
655,377,24,0.0534462895065468,1
655,378,24,0.0679057796577226,1
655,379,24,0.0708573838258453,1
655,380,24,0.0680642157131243,1
655,381,24,0.0641078748977196,1
655,382,24,0.0555661262535501,1
655,383,24,0.0394205258572401,1
656,374,24,0.0353190312081063,1
656,376,24,0.0369573866904896,1
656,377,24,0.0496649474291124,1
656,378,24,0.0688708941693106,1
656,379,24,0.0766185205036213,1
656,380,24,0.0757750717257466,1
656,381,24,0.067848457613016,1
656,382,24,0.0577299999076222,1
656,383,24,0.0424259237521278,1
656,388,24,0.0364578964245414,1
656,389,24,0.0499754510718295,1
657,377,24,0.0389478741353697,1
657,378,24,0.0522792968893976,1
657,379,24,0.062464069476301,1
657,380,24,0.067800472489011,1
657,381,24,0.0622164515399702,1
657,382,24,0.0526129066406839,1
657,383,24,0.0410275055536308,1
657,388,24,0.0390734326826796,1
657,389,24,0.0591027313683118,1
657,390,24,0.0795321646362373,1
658,379,24,0.0354438520162103,1
658,380,24,0.0421520154731846,1
658,381,24,0.0422864239750009,1
658,382,24,0.038819379211062,1
658,388,24,0.036831277025749,1
658,389,24,0.0589580994923608,1
659,388,24,0.0350917171377482,1
659,389,24,0.0582565882385545,1
660,389,24,0.0495953899942548,1
660,390,24,0.0763819424116927,1
661,390,24,0.04979537855434,1
661,391,24,0.0618775172361539,1
662,391,24,0.0380853636927149,1
662,392,24,0.0516763394288049,1
663,392,24,0.0380231778179865,1
664,393,24,0.0548948710550839,1
665,393,24,0.0399777259912719,1
665,394,24,0.0609482516012382,1
665,395,24,0.0689724397428613,1
666,394,24,0.041306376805414,1
666,395,24,0.0512385947268338,1
667,394,24,0.0418943841122164,1
667,395,24,0.0597452643091546,1
668,394,24,0.0420416549367105,1
668,395,24,0.0621038602900868,1
669,364,24,0.0445910162796706,1
669,394,24,0.0358306460575263,1
670,364,24,0.0429409940203584,1
671,394,24,0.0348099036770368,1
671,395,24,0.0460252250355351,1
672,365,24,0.0364287950914367,1
672,366,24,0.0345346161465347,1
672,394,24,0.0367213597159915,1
672,395,24,0.0498458889042437,1
672,396,24,0.0576501316196727,1
673,365,24,0.0369998723040502,1
673,366,24,0.0365246137092543,1
673,394,24,0.0351406003790475,1
673,395,24,0.0464685654748036,1
673,396,24,0.0559516926734997,1
674,367,24,0.0349039931274665,1
674,395,24,0.043863602506629,1
674,396,24,0.0548566719104275,1
675,395,24,0.0478067135877355,1
676,394,24,0.0353630593672794,1
677,394,24,0.0367047037225352,1
677,395,24,0.0469648890025001,1
678,394,24,0.0361457248497065,1
678,395,24,0.0433564199243753,1
679,394,24,0.0372407077052305,1
680,394,24,0.0351053726029716,1
680,395,24,0.0457662610784518,1
685,390,24,0.0345964754331561,1
653,374,25,0.041568592063741,1
654,373,25,0.0412296081885156,1
654,374,25,0.050768057079763,1
654,375,25,0.0495833878813231,1
654,376,25,0.045227020374339,1
654,377,25,0.0462398925646432,1
654,378,25,0.0481247112611218,1
654,379,25,0.0482957122107467,1
654,380,25,0.0439018308109379,1
654,381,25,0.0427702730033966,1
654,382,25,0.0357748228189536,1
655,371,25,0.0364819035663701,1
655,373,25,0.037964391958729,1
655,374,25,0.0469767686448917,1
655,375,25,0.0455677829883614,1
655,376,25,0.0419646822022452,1
655,377,25,0.0479674911632257,1
655,378,25,0.0592948234945245,1
655,379,25,0.0661598454697051,1
655,380,25,0.0616401343378188,1
655,381,25,0.0597641189404026,1
655,382,25,0.0494465532964264,1
655,383,25,0.0350986892106393,1
656,370,25,0.0363367701443977,1
656,371,25,0.035518602785162,1
656,377,25,0.0430057867680122,1
656,378,25,0.0558504736880559,1
656,379,25,0.0653709369056971,1
656,380,25,0.0630286994897667,1
656,381,25,0.0605705466235782,1
656,382,25,0.0501541122621424,1
656,383,25,0.0363039422077151,1
656,388,25,0.0366219486289971,1
656,389,25,0.0487199764054089,1
657,378,25,0.0415093950533846,1
657,379,25,0.0498550858586137,1
657,380,25,0.0532249735766894,1
657,381,25,0.0522496181951752,1
657,382,25,0.04390693958204,1
657,388,25,0.0368471602884165,1
657,389,25,0.057417595055568,1
657,390,25,0.087255139400401,1
658,381,25,0.0354017163184786,1
658,388,25,0.0356547404543662,1
658,389,25,0.0623265059000941,1
659,389,25,0.0565051312123706,1
660,389,25,0.042793574481637,1
660,390,25,0.0670002499798682,1
661,390,25,0.0405862850210925,1
661,391,25,0.051514754130943,1
662,392,25,0.0450567192563719,1
662,393,25,0.0564774995257474,1
663,392,25,0.0348158143385802,1
663,393,25,0.052160447978107,1
664,393,25,0.0517990024226306,1
664,394,25,0.080454350307548,1
664,395,25,0.0833289788252402,1
665,364,25,0.0359150370075646,1
665,393,25,0.0378114933213199,1
665,394,25,0.0560444903513276,1
665,395,25,0.0587272483561654,1
666,394,25,0.0401723083518003,1
666,395,25,0.0486924876010825,1
667,394,25,0.0395400658522928,1
667,395,25,0.0556535993788481,1
668,364,25,0.0376486629063001,1
668,394,25,0.0389856767087533,1
669,363,25,0.0428798054057423,1
669,364,25,0.0390178135616738,1
670,363,25,0.0405413616605904,1
670,364,25,0.0366540971457786,1
671,395,25,0.0403880926955957,1
672,395,25,0.0436989146217508,1
672,396,25,0.0509786597533252,1
673,395,25,0.0395911010759399,1
673,396,25,0.0479597930149896,1
674,395,25,0.0397386197574794,1
674,396,25,0.0506988962161782,1
675,395,25,0.0466736219824775,1
675,396,25,0.0626447368506997,1
676,394,25,0.0384285319780611,1
676,395,25,0.0546202104571086,1
677,394,25,0.0392665658084833,1
677,395,25,0.0493802909022911,1
677,396,25,0.0594477483756207,1
678,394,25,0.0367905497392287,1
678,395,25,0.0436497485318232,1
678,396,25,0.0468400098750912,1
679,394,25,0.0353217372238499,1
679,395,25,0.0431950912314546,1
679,396,25,0.0450713865615339,1
680,395,25,0.0461308675402494,1
685,391,25,0.0358176816760651,1
686,390,25,0.0377977387132783,1
653,374,26,0.048532733529392,1
653,375,26,0.0520672828886587,1
653,376,26,0.0524657378749733,1
653,377,26,0.0496473874864314,1
653,378,26,0.0405932833376707,1
654,373,26,0.0428551305078734,1
654,374,26,0.0586702412357049,1
654,375,26,0.0605226781381828,1
654,376,26,0.0529637497465443,1
654,377,26,0.0471014669824556,1
654,378,26,0.0441052018907025,1
654,379,26,0.0433423562240182,1
654,380,26,0.0395272851766417,1
654,381,26,0.037482065064189,1
655,370,26,0.0406250032075618,1
655,373,26,0.0362116927313524,1
655,374,26,0.0481902155042945,1
655,375,26,0.0488315937229019,1
655,376,26,0.0432301965369903,1
655,377,26,0.0432446684724812,1
655,378,26,0.0499441744286551,1
655,379,26,0.0561134879208589,1
655,380,26,0.0525187909465671,1
655,381,26,0.0500380101901088,1
655,382,26,0.0414188310049312,1
656,369,26,0.0393709311204221,1
656,370,26,0.0384722218852662,1
656,371,26,0.0350125574293522,1
656,377,26,0.0379976572901977,1
656,378,26,0.0468048754099031,1
656,379,26,0.0544230562152376,1
656,380,26,0.0518896656139021,1
656,381,26,0.0502102679207526,1
656,382,26,0.0424633268382735,1
656,388,26,0.0345575764568419,1
656,389,26,0.0437965586338092,1
657,378,26,0.035767772015001,1
657,379,26,0.0411820546273662,1
657,380,26,0.0421442998291571,1
657,381,26,0.0420871235827126,1
657,382,26,0.0369692021816459,1
657,389,26,0.0495635359899627,1
657,390,26,0.0781038373822638,1
658,389,26,0.0568203237271952,1
659,389,26,0.0476850507699874,1
660,389,26,0.0352382560549668,1
660,390,26,0.0530328814504767,1
660,393,26,0.0737830592310455,1
661,391,26,0.0433313688669903,1
661,392,26,0.0538121789930505,1
661,393,26,0.063069184751172,1
661,394,26,0.0751306725671495,1
662,392,26,0.0403776943635465,1
662,393,26,0.0506049671438368,1
662,394,26,0.0661353455297506,1
663,393,26,0.0441039421937184,1
663,394,26,0.0623462761444277,1
663,395,26,0.0687705966288829,1
664,393,26,0.043394744455537,1
664,394,26,0.0638248629752942,1
664,395,26,0.0639610910394208,1
665,394,26,0.0469299382431221,1
665,395,26,0.047983409417476,1
666,361,26,0.0394662190325658,1
666,394,26,0.0368161956535229,1
667,394,26,0.0353364599323515,1
668,361,26,0.0418804574622257,1
668,363,26,0.0384583389747541,1
668,395,26,0.0453083903843877,1
669,361,26,0.0502804143805888,1
669,362,26,0.0423904335391803,1
669,363,26,0.0369592295805218,1
669,395,26,0.0362891057765691,1
670,361,26,0.066731823715578,1
670,362,26,0.0490591673141665,1
670,363,26,0.0350652576691519,1
671,361,26,0.0634891245693819,1
671,362,26,0.0474445273770879,1
672,362,26,0.0402167359982114,1
672,395,26,0.0353866582739744,1
674,395,26,0.0346660037083613,1
675,395,26,0.0427069703139809,1
675,396,26,0.0576178752121773,1
676,394,26,0.0399356865203931,1
676,395,26,0.0548664695536371,1
676,396,26,0.0702524551727497,1
677,394,26,0.0414478565229396,1
677,395,26,0.0519097507824818,1
677,396,26,0.0605296297993172,1
678,394,26,0.0365462472553769,1
678,395,26,0.0442083162535529,1
678,396,26,0.0474979361964411,1
679,395,26,0.0394494930559437,1
679,396,26,0.0423035231951738,1
680,395,26,0.0431548159195466,1
680,396,26,0.0524537882494159,1
681,395,26,0.049938739069446,1
653,375,27,0.0528337851757553,1
653,376,27,0.0602028492386251,1
653,377,27,0.0590830252752135,1
653,378,27,0.0454369261322086,1
654,373,27,0.0387331191273043,1
654,374,27,0.0524016624547687,1
654,375,27,0.057650038308785,1
654,376,27,0.0564738953927096,1
654,377,27,0.0513984129497596,1
654,378,27,0.0428371885737459,1
654,379,27,0.0369103988265969,1
655,374,27,0.0409430212927048,1
655,375,27,0.043164829344184,1
655,376,27,0.0404904926469621,1
655,377,27,0.038428663196497,1
655,378,27,0.0391955095674919,1
655,379,27,0.0409166230593785,1
655,380,27,0.0400906000897837,1
655,381,27,0.03723241178412,1
656,370,27,0.0358672239255088,1
656,378,27,0.0361602755162588,1
656,379,27,0.0392426636414033,1
656,380,27,0.0386726828317204,1
656,381,27,0.0364097130149,1
656,389,27,0.0390532804468994,1
657,368,27,0.0394947750801704,1
657,369,27,0.035603244508211,1
657,389,27,0.041379847465625,1
657,390,27,0.0619677546965003,1
657,391,27,0.0747833286195783,1
658,389,27,0.0435146693580015,1
658,390,27,0.0805819471145614,1
658,392,27,0.079214627685359,1
659,390,27,0.0615023608121145,1
659,392,27,0.0725723737907259,1
659,393,27,0.0572183879741674,1
660,390,27,0.039011147665133,1
660,391,27,0.0553462274827998,1
660,392,27,0.0584813275116048,1
660,393,27,0.057642450967228,1
661,391,27,0.036690106400539,1
661,392,27,0.0459395306490341,1
661,393,27,0.0528939940260503,1
661,394,27,0.062454266001161,1
662,392,27,0.0359119635802007,1
662,393,27,0.0438315822923182,1
662,394,27,0.0568041926074822,1
662,395,27,0.071049960002288,1
663,393,27,0.0365478656160856,1
663,394,27,0.0492451300814427,1
663,395,27,0.0587070698766981,1
664,394,27,0.0436640192657124,1
665,394,27,0.0348526604753649,1
666,361,27,0.0388518893075334,1
666,362,27,0.0389488247400382,1
666,363,27,0.0352299251422734,1
666,395,27,0.0344781922191223,1
667,360,27,0.0345958105930812,1
667,361,27,0.0391331254071271,1
667,363,27,0.0356369034949873,1
667,395,27,0.0348293035937849,1
668,360,27,0.0390030821052765,1
668,361,27,0.0396944078924962,1
668,362,27,0.036630842322982,1
668,363,27,0.0346754572676725,1
669,359,27,0.0406163806983443,1
669,360,27,0.0514491507449521,1
669,361,27,0.0496745584505466,1
669,362,27,0.0390454773239147,1
670,359,27,0.0501811607557174,1
670,360,27,0.0676970956892889,1
670,361,27,0.065203321391717,1
670,362,27,0.0451112011509338,1
671,359,27,0.0464562251099039,1
671,360,27,0.061455326292778,1
671,361,27,0.0602153762253003,1
671,362,27,0.0425044886036147,1
672,360,27,0.0436723006069967,1
672,361,27,0.0450381416418219,1
672,362,27,0.0363717063239495,1
672,396,27,0.0364806263735946,1
673,396,27,0.0378256969880085,1
674,396,27,0.0428119363147593,1
675,395,27,0.0379604670695146,1
675,396,27,0.0523408995710778,1
675,397,27,0.0634810356818035,1
676,394,27,0.0368173678715497,1
676,395,27,0.047944029306897,1
676,396,27,0.058778266084021,1
676,397,27,0.0659025465287743,1
677,394,27,0.0394795916491608,1
677,395,27,0.0489397118821058,1
677,396,27,0.0539274995863995,1
677,397,27,0.0557569470189178,1
678,395,27,0.0421642537793009,1
678,396,27,0.0448875582808141,1
678,397,27,0.0441553506609164,1
679,395,27,0.0362131565459034,1
679,396,27,0.0405890668519323,1
679,397,27,0.0409343637919044,1
680,395,27,0.0380215827849997,1
680,396,27,0.0466687756482471,1
681,395,27,0.0421466938366199,1
687,383,27,0.0387230444673968,1
652,378,28,0.0490596863559794,1
653,374,28,0.039848429176523,1
653,375,28,0.0505773237933526,1
653,376,28,0.0695194981497851,1
653,377,28,0.0794172931015354,1
653,378,28,0.062644946800197,1
653,379,28,0.038488484223415,1
654,374,28,0.0426034127244138,1
654,375,28,0.0498812129071726,1
654,376,28,0.0576788888688789,1
654,377,28,0.0606744191373912,1
654,378,28,0.0489015739727194,1
654,379,28,0.0349587899462744,1
655,375,28,0.0381563586984363,1
655,376,28,0.0381854891911934,1
655,377,28,0.0361706505205861,1
656,369,28,0.0363506297271879,1
656,389,28,0.0376569005081058,1
656,390,28,0.0440559191621653,1
657,368,28,0.0351676401247268,1
657,369,28,0.0354155234138945,1
657,370,28,0.0360796374134856,1
657,371,28,0.034894014694412,1
657,389,28,0.0379007276896234,1
657,390,28,0.0521535313085555,1
657,391,28,0.0599639558702953,1
658,368,28,0.0352035823122867,1
658,369,28,0.0353115021858542,1
658,370,28,0.0357706384088329,1
658,371,28,0.0348166308088477,1
658,390,28,0.055759297286902,1
658,391,28,0.0725072486230346,1
658,392,28,0.0604730250820599,1
659,390,28,0.0414753132516484,1
659,391,28,0.0584949509012105,1
659,392,28,0.0541763655558534,1
659,393,28,0.0455934901379256,1
660,391,28,0.0408592310315061,1
660,392,28,0.044969572719181,1
660,393,28,0.04437855613625,1
660,394,28,0.0429024507918035,1
661,392,28,0.0369885233673324,1
661,393,28,0.0419544821558324,1
661,394,28,0.0476204475600742,1
662,393,28,0.0359700525237656,1
662,394,28,0.0462637539082099,1
662,395,28,0.0590235104246457,1
663,394,28,0.0392411444235127,1
668,360,28,0.0347690947434898,1
668,361,28,0.0351626858997824,1
669,359,28,0.03847123920498,1
669,360,28,0.0471343823980954,1
669,361,28,0.0446208990914599,1
669,362,28,0.0350802224027684,1
670,359,28,0.0464268409281709,1
670,360,28,0.0595244207656662,1
670,361,28,0.056143090799985,1
670,362,28,0.0391305272820974,1
671,359,28,0.0438270771260209,1
671,360,28,0.054577071667334,1
671,361,28,0.0519723973797183,1
671,362,28,0.0365544498655997,1
672,359,28,0.0355126396362443,1
672,360,28,0.0416913367045935,1
672,361,28,0.0406599189753569,1
672,396,28,0.0345928683841531,1
673,360,28,0.0348666425286952,1
673,396,28,0.0403579795225524,1
673,397,28,0.0495635184941713,1
674,396,28,0.0454389439801554,1
674,397,28,0.0613566675248158,1
675,396,28,0.0509772600900096,1
675,397,28,0.0711981551877634,1
676,395,28,0.0391997814565699,1
676,396,28,0.0500010415827841,1
676,397,28,0.0628638774704874,1
677,395,28,0.0421304314984711,1
677,396,28,0.0463788674680268,1
677,397,28,0.0508171561024901,1
678,395,28,0.0380320277724928,1
678,396,28,0.0416638333204409,1
678,397,28,0.0422580662130327,1
679,396,28,0.0415718725246371,1
679,397,28,0.0432040432447443,1
680,395,28,0.0351472983512059,1
680,396,28,0.046240446598039,1
681,395,28,0.0357402686308484,1
687,383,28,0.035716736791354,1
688,383,28,0.0485153835362083,1
652,377,29,0.068021152738446,1
652,378,29,0.0574045898505934,1
653,375,29,0.0467439025767148,1
653,376,29,0.0706664055983547,1
653,377,29,0.0911161048247048,1
653,378,29,0.0767789919027611,1
653,379,29,0.0467149703695942,1
654,374,29,0.0346278599670445,1
654,375,29,0.0436147540329666,1
654,376,29,0.0554078709879934,1
654,377,29,0.0660132307373902,1
654,378,29,0.0559000975845264,1
654,379,29,0.038274254089093,1
655,375,29,0.0374858937265504,1
655,376,29,0.0381041979122062,1
655,377,29,0.0366573630268484,1
656,368,29,0.0346434603810835,1
656,389,29,0.0362458824238026,1
656,390,29,0.0405344041675255,1
657,369,29,0.0351944086856387,1
657,370,29,0.0359033469029137,1
657,371,29,0.0350809105705653,1
657,389,29,0.0358758522666568,1
657,390,29,0.0438556127618688,1
657,391,29,0.04823627025931,1
658,368,29,0.0354978207008898,1
658,369,29,0.0374066115476143,1
658,370,29,0.0371397890642066,1
658,371,29,0.0363054672575361,1
658,390,29,0.0403171326814573,1
658,391,29,0.0494144310233321,1
658,392,29,0.0478453151355952,1
659,369,29,0.0365403599215554,1
659,391,29,0.0427175873434232,1
659,392,29,0.0440230795616217,1
659,393,29,0.0403601081771783,1
660,391,29,0.0346129623006285,1
660,392,29,0.038440802359795,1
660,393,29,0.0381290215243024,1
661,393,29,0.0360163318081047,1
661,394,29,0.0377677888342885,1
662,394,29,0.037781409307929,1
669,360,29,0.0372248156946674,1
669,361,29,0.0346234743553221,1
670,359,29,0.0380757030998717,1
670,360,29,0.0439599285023985,1
670,361,29,0.0402641875005774,1
671,359,29,0.0385913448972894,1
671,360,29,0.0432508299070353,1
671,361,29,0.0388027611251539,1
672,359,29,0.0353191536786465,1
672,360,29,0.0376528327365947,1
672,396,29,0.034958507097646,1
673,360,29,0.0344668403664393,1
673,396,29,0.0438157894245732,1
673,397,29,0.0559206493075446,1
674,396,29,0.0506453415985629,1
674,397,29,0.0706685225891196,1
675,396,29,0.0526040596021429,1
675,397,29,0.0743588340636621,1
676,395,29,0.0346551883932826,1
676,396,29,0.0472827671213115,1
676,397,29,0.0601064124361765,1
677,395,29,0.0358022328922186,1
677,396,29,0.0419502190146501,1
677,397,29,0.0467258294241515,1
678,396,29,0.040048621854175,1
678,397,29,0.0420648397763413,1
679,396,29,0.0425253465029832,1
679,397,29,0.0442733743540437,1
680,396,29,0.0469213128179394,1
652,376,30,0.047290360294799,1
652,377,30,0.0592825939363039,1
653,375,30,0.0420169392153282,1
653,376,30,0.0626364905009983,1
653,377,30,0.0821274786754295,1
653,378,30,0.0765702029595788,1
653,379,30,0.0493546770636146,1
654,375,30,0.0391732899123559,1
654,376,30,0.0505249472256947,1
654,377,30,0.0609349081442956,1
654,378,30,0.0578356336644408,1
654,379,30,0.0418020792325142,1
655,375,30,0.0372918070801129,1
655,376,30,0.0383341013596983,1
655,377,30,0.0366868201077125,1
655,378,30,0.035564190985739,1
656,375,30,0.0361352536185262,1
657,369,30,0.0352184741467722,1
657,370,30,0.0351426298908552,1
657,390,30,0.0363069952233223,1
658,368,30,0.0348975284325273,1
658,369,30,0.03697149121436,1
658,370,30,0.0358122171572036,1
658,391,30,0.0378746443805431,1
659,369,30,0.0361972382916531,1
659,391,30,0.0353523023715055,1
659,392,30,0.0373026690506354,1
673,396,30,0.0445007438277414,1
673,397,30,0.0590575980583124,1
674,396,30,0.0521495306042449,1
674,397,30,0.0741811876292531,1
675,396,30,0.0494597801147593,1
675,397,30,0.0688782190739958,1
676,396,30,0.0430013807445332,1
677,396,30,0.037430545790312,1
678,396,30,0.0364943868135666,1
678,397,30,0.0415340582873925,1
679,396,30,0.0385962553827552,1
679,397,30,0.0418808423696375,1
680,396,30,0.041962719757638,1
652,376,31,0.0389632587679809,1
653,375,31,0.0366187964705717,1
653,376,31,0.0504178029988813,1
653,377,31,0.0630615507541712,1
653,378,31,0.0636388010651998,1
653,379,31,0.0469448942288429,1
654,375,31,0.0351239764612088,1
654,376,31,0.0447837324224449,1
654,377,31,0.0538672032571472,1
654,378,31,0.0560583703458745,1
654,379,31,0.0464283718099224,1
654,380,31,0.0346866050027886,1
655,376,31,0.0368261857504384,1
655,377,31,0.0379090236107339,1
655,378,31,0.039838928961768,1
655,379,31,0.0375008205526188,1
656,368,31,0.0352893700096754,1
656,375,31,0.0356570440669065,1
657,367,31,0.0350479514154469,1
657,368,31,0.0358601643736605,1
657,369,31,0.0359018597606408,1
658,368,31,0.0351569851877364,1
658,369,31,0.0354960390461276,1
673,396,31,0.0416800548350763,1
674,396,31,0.0464757212535049,1
675,396,31,0.0412315181457484,1
675,397,31,0.0538004334850599,1
676,396,31,0.036929775415623,1
677,396,31,0.0346595448453526,1
678,396,31,0.0348204565552438,1
653,376,32,0.0405614439132048,1
653,377,32,0.0516291007919015,1
653,378,32,0.0550504203048971,1
654,376,32,0.0395921828990442,1
654,377,32,0.0528571537211962,1
654,378,32,0.0597184957482427,1
654,379,32,0.05223309633612,1
654,380,32,0.0356353580334096,1
655,369,32,0.0377043170188888,1
655,377,32,0.0419224094541472,1
655,378,32,0.0481357715172808,1
655,379,32,0.0441293110913147,1
656,366,32,0.0428220663780063,1
656,367,32,0.0457380024593018,1
656,368,32,0.0453434840260625,1
656,369,32,0.0396654902652017,1
657,365,32,0.036309290087967,1
657,366,32,0.042520007370627,1
657,367,32,0.0433920296918977,1
657,368,32,0.0419966732569036,1
657,369,32,0.0388867409240932,1
657,370,32,0.0347758160433702,1
658,366,32,0.0350004299299151,1
658,367,32,0.036556826377271,1
658,368,32,0.0371324758233823,1
658,369,32,0.0359117244710509,1
659,368,32,0.0350451375089893,1
675,396,32,0.0347963648504231,1
653,377,33,0.0434871659738489,1
653,378,33,0.050450595943981,1
654,376,33,0.0345788630031008,1
654,377,33,0.0500392698870929,1
654,378,33,0.0642753679411597,1
654,379,33,0.0554207362266365,1
654,380,33,0.0369814171600402,1
655,368,33,0.0468064267034113,1
655,369,33,0.0515963020148713,1
655,370,33,0.0398424106242657,1
655,377,33,0.0453003131606702,1
655,378,33,0.0583906934799857,1
655,379,33,0.0500180941475131,1
656,366,33,0.0473120900677745,1
656,367,33,0.0517150167917608,1
656,368,33,0.0495596169326789,1
656,369,33,0.049786193263831,1
656,370,33,0.0395503621255586,1
656,378,33,0.0375249530809529,1
657,365,33,0.0416051174443492,1
657,366,33,0.0439178890315198,1
657,367,33,0.0453365731884414,1
657,368,33,0.040133432703208,1
657,369,33,0.0396506771617777,1
657,370,33,0.0350386407384325,1
658,365,33,0.0353308233715407,1
658,366,33,0.0347143008406471,1
658,367,33,0.0350142049497134,1
654,377,34,0.0463961708057666,1
654,378,34,0.0636532117654205,1
654,379,34,0.0543753218642433,1
655,368,34,0.0478044245550214,1
655,369,34,0.0590729010438969,1
655,370,34,0.0431233759823187,1
655,377,34,0.0462195857827053,1
655,378,34,0.0604486067891322,1
655,379,34,0.0496641601184974,1
656,365,34,0.0461512588851794,1
656,366,34,0.0550153004195351,1
656,367,34,0.0559807181915081,1
656,368,34,0.0488359122674238,1
656,369,34,0.0528228269783798,1
656,370,34,0.0390766023368965,1
656,377,34,0.0345151141710032,1
656,378,34,0.0393332072780999,1
657,365,34,0.0463607185003671,1
657,366,34,0.0485281612958941,1
657,367,34,0.0457413616512593,1
657,368,34,0.0375894075766388,1
657,369,34,0.0382640948661936,1
658,365,34,0.0389310140243465,1
658,366,34,0.0364270805038751,1
658,388,34,0.0365410597532132,1
666,368,34,0.0487520899306075,1
666,369,34,0.0447960465436574,1
667,368,34,0.0414236685912659,1
667,369,34,0.0373374477680642,1
673,359,34,0.0349638054064888,1
675,394,34,0.0354403470259907,1
675,395,34,0.0490325270557252,1
676,395,34,0.0394184846815715,1
684,360,34,0.035397642715037,1
654,377,35,0.0412200350746296,1
654,378,35,0.0519614041907599,1
655,367,35,0.0358669935642548,1
655,368,35,0.0433787766298776,1
655,369,35,0.0518498102009889,1
655,370,35,0.0390078351286193,1
655,376,35,0.0350931284649249,1
655,377,35,0.0425790760785129,1
655,378,35,0.0505905972671294,1
655,379,35,0.0433917497592346,1
656,365,35,0.0463122464101669,1
656,366,35,0.0572339475646931,1
656,367,35,0.0494137253597438,1
656,368,35,0.04294706505999,1
656,369,35,0.0445740162023159,1
656,378,35,0.0371245618937183,1
657,364,35,0.0349837826843546,1
657,365,35,0.0449098712468378,1
657,366,35,0.0497347323092588,1
657,367,35,0.0397625744119338,1
657,368,35,0.0345317526686681,1
658,364,35,0.0355062857479843,1
658,365,35,0.040329703407611,1
658,366,35,0.0391848138069881,1
658,388,35,0.0362160229397353,1
659,365,35,0.0346966563349741,1
665,368,35,0.0357097647184629,1
666,368,35,0.0576115592314654,1
666,369,35,0.0532508381883766,1
667,368,35,0.0452808520086522,1
667,369,35,0.040828368455396,1
674,394,35,0.0416316323162851,1
675,394,35,0.0417216131716903,1
683,360,35,0.0401727719902736,1
683,361,35,0.0368802010905617,1
684,359,35,0.0354484038379515,1
684,360,35,0.0430667887608529,1
684,361,35,0.0398609328354762,1
654,376,36,0.0381155147733063,1
654,377,36,0.0405767002433455,1
654,378,36,0.0404363869119163,1
655,368,36,0.0373971113328593,1
655,369,36,0.038654137292788,1
655,376,36,0.0388516327025922,1
655,377,36,0.0408189848792506,1
655,378,36,0.0405063234222552,1
655,379,36,0.0367374062727125,1
656,365,36,0.0552755269895678,1
656,366,36,0.0650636466566756,1
656,367,36,0.0473831084012178,1
656,368,36,0.039200376313479,1
656,369,36,0.036215766334794,1
657,364,36,0.0410784241386682,1
657,365,36,0.0558922769657501,1
657,366,36,0.0598705341759058,1
657,367,36,0.0401011529679907,1
658,364,36,0.0385706065524958,1
658,365,36,0.0457887869099381,1
658,366,36,0.0435915487815791,1
659,365,36,0.0372142365727732,1
666,368,36,0.0545652503442472,1
666,369,36,0.0504661030471324,1
667,368,36,0.040691035240443,1
667,369,36,0.0368765240583928,1
671,359,36,0.0353619279727659,1
671,360,36,0.0354940095343199,1
675,394,36,0.0414065781189887,1
683,359,36,0.0394808425982491,1
683,360,36,0.0448726897740505,1
683,361,36,0.0390124656814219,1
684,359,36,0.0407529907539174,1
684,360,36,0.047268939614139,1
684,361,36,0.0411850318278772,1
654,376,37,0.0439667343652709,1
655,376,37,0.039941614677728,1
655,377,37,0.0387156116719977,1
655,378,37,0.035215494030296,1
656,366,37,0.0572506968690371,1
656,367,37,0.0408590123341131,1
656,368,37,0.0349433732380455,1
657,365,37,0.0572197409820392,1
657,366,37,0.0562551571761251,1
657,367,37,0.0375624057385076,1
658,364,37,0.0365613927788384,1
658,365,37,0.0431235684360246,1
658,366,37,0.0398957815360708,1
659,365,37,0.0347729904730517,1
666,368,37,0.0432361421901166,1
666,369,37,0.0397059813585375,1
673,393,37,0.0394572028680408,1
674,393,37,0.0390332973371032,1
682,360,37,0.0346217043644208,1
683,359,37,0.0396941133800068,1
683,360,37,0.0443449875443962,1
683,361,37,0.03719737646175,1
684,359,37,0.0413339822483501,1
684,360,37,0.0458083676165311,1
684,361,37,0.0379332115424075,1
685,360,37,0.0344852109474573,1
655,376,38,0.0398894947150113,1
656,366,38,0.04170866045409,1
657,365,38,0.0481435367327174,1
657,366,38,0.0440767479018814,1
658,365,38,0.0351602073293276,1
673,393,38,0.0472304692847151,1
674,393,38,0.0434125610031592,1
683,359,38,0.0377454671203691,1
683,360,38,0.0404993455174336,1
684,359,38,0.038657368182275,1
684,360,38,0.0399707160108327,1
657,365,39,0.0359330839164408,1
660,365,39,0.037524518602132,1
661,364,39,0.0371633471473882,1
661,365,39,0.0476690741964323,1
661,366,39,0.0371473210024239,1
662,365,39,0.0409706500633628,1
673,392,39,0.0345970586262043,1
660,364,40,0.039518563524606,1
660,365,40,0.0569680231985797,1
660,366,40,0.0417671722126148,1
661,364,40,0.0593710759855753,1
661,365,40,0.0870047804567437,1
661,366,40,0.0604517327038705,1
662,364,40,0.0452992954888012,1
662,365,40,0.0657256990688413,1
662,366,40,0.043371168876564,1
670,360,40,0.0350322197829719,1
671,359,40,0.0346658083386902,1
671,360,40,0.038913387014465,1
660,364,41,0.0436665707352982,1
660,365,41,0.0689248570220595,1
660,366,41,0.0455798171769108,1
660,386,41,0.0363007492257762,1
660,387,41,0.0357281440473766,1
661,364,41,0.0764253844618523,1
661,365,41,0.11684925896692,1
661,366,41,0.0750769196638979,1
661,387,41,0.0347896260547513,1
662,364,41,0.0520131859015087,1
662,365,41,0.0818017770218766,1
662,366,41,0.0487049562684528,1
669,359,41,0.034939034281767,1
670,359,41,0.0375318230950606,1
670,360,41,0.0368556661590243,1
671,359,41,0.0364676153366895,1
671,360,41,0.0388094532653819,1
658,366,42,0.0366979270193153,1
659,365,42,0.0344895353239096,1
659,366,42,0.0365029743312012,1
660,364,42,0.0415245347449156,1
660,365,42,0.0657770842083173,1
660,366,42,0.043287483590114,1
660,386,42,0.0431139865742429,1
660,387,42,0.0404686258236202,1
661,364,42,0.0742339082808094,1
661,365,42,0.113124883186432,1
661,366,42,0.0706478075720479,1
661,386,42,0.0436527548919866,1
661,387,42,0.0432740526542142,1
661,388,42,0.0370825807421444,1
662,364,42,0.0480736352139614,1
662,365,42,0.0763118601030917,1
662,366,42,0.0435810950461903,1
662,386,42,0.03467827117413,1
662,387,42,0.0390224849379898,1
662,388,42,0.0357425139240839,1
668,389,42,0.0351225272264841,1
668,390,42,0.0414554438644965,1
669,359,42,0.0366533185830592,1
669,360,42,0.0355247438079595,1
669,389,42,0.0366058816605195,1
669,390,42,0.0419586694819184,1
670,359,42,0.0402848092067613,1
670,360,42,0.0388983406338217,1
671,359,42,0.0356679701886643,1
671,360,42,0.0362112699163925,1
690,386,42,0.0367783697524173,1
690,387,42,0.0474893340989803,1
691,386,42,0.0347802687222931,1
657,375,43,0.0349613297519993,1
658,366,43,0.0360001569489131,1
659,365,43,0.0370191672460495,1
659,366,43,0.037935322701242,1
659,386,43,0.0347520392627955,1
660,364,43,0.0359432314754793,1
660,365,43,0.0508734633912928,1
660,366,43,0.0386717351430171,1
660,385,43,0.0345045117213871,1
660,386,43,0.0433204719048849,1
660,387,43,0.0403521971634796,1
661,364,43,0.0543813987358054,1
661,365,43,0.0768134002926043,1
661,366,43,0.0521044439496894,1
661,385,43,0.0366660496873012,1
661,386,43,0.0473945914723366,1
661,387,43,0.0439660753571264,1
661,388,43,0.0377764142594713,1
662,364,43,0.0379589886751375,1
662,365,43,0.0532994356650822,1
662,386,43,0.0408675415324428,1
662,387,43,0.0425333362477434,1
662,388,43,0.0393102615476189,1
667,390,43,0.0348769242221348,1
668,389,43,0.0429860748429834,1
668,390,43,0.0549310756795155,1
668,391,43,0.0398288018144862,1
669,360,43,0.0352215038346576,1
669,389,43,0.0429110703850558,1
669,390,43,0.0535796715885983,1
669,391,43,0.0387133867905188,1
670,360,43,0.0364336705853196,1
688,386,43,0.0355835938184523,1
689,386,43,0.0448905325653598,1
689,387,43,0.0498461571730459,1
690,386,43,0.0530651145302501,1
690,387,43,0.0639488439854088,1
691,386,43,0.0486753504733615,1
691,387,43,0.0624419373001222,1
692,386,43,0.0384879855933588,1
657,375,44,0.0358219419012821,1
658,375,44,0.0354685502418012,1
659,365,44,0.0371649363484445,1
659,366,44,0.0373845814302189,1
660,365,44,0.0397879870490086,1
660,366,44,0.0360578259934834,1
660,386,44,0.0416400798675881,1
661,364,44,0.0355601494579151,1
661,365,44,0.043390411331189,1
661,366,44,0.035287078060996,1
661,385,44,0.0377166223922056,1
661,386,44,0.0469237184892631,1
661,387,44,0.043561546415215,1
662,385,44,0.0346638138184653,1
662,386,44,0.0441863415394971,1
662,387,44,0.0450524502832592,1
662,388,44,0.0416412025142059,1
663,387,44,0.0368437369452236,1
663,388,44,0.0364826179778542,1
667,390,44,0.0351510249547839,1
668,389,44,0.0442121128402966,1
668,390,44,0.0555648140691917,1
669,389,44,0.0422156972380817,1
669,390,44,0.0520305009031094,1
687,386,44,0.0364330290729666,1
688,385,44,0.0345429470592281,1
688,386,44,0.0447329654676,1
688,387,44,0.0469762466871136,1
689,385,44,0.039603289810647,1
689,386,44,0.0589631616080191,1
689,387,44,0.0639409883750497,1
690,385,44,0.0443407593947968,1
690,386,44,0.0750815152251176,1
690,387,44,0.0860033330182536,1
691,385,44,0.0395000121537431,1
691,386,44,0.0659005928320629,1
691,387,44,0.0788023276960805,1
692,386,44,0.0467041812982027,1
698,379,44,0.0402342288736919,1
658,375,45,0.0345168375064606,1
659,366,45,0.0348649425209597,1
661,385,45,0.035521929901502,1
661,386,45,0.0407322349133324,1
662,385,45,0.0344670094924233,1
662,386,45,0.0408475321789595,1
662,387,45,0.0407086447545331,1
663,386,45,0.0360590215392321,1
663,387,45,0.0376411193042218,1
663,388,45,0.0357242978892237,1
668,389,45,0.0395161199457341,1
668,390,45,0.0423588098961422,1
669,389,45,0.0376680482432219,1
669,390,45,0.0392656268676757,1
686,387,45,0.0359010549542343,1
687,386,45,0.0411490896403173,1
687,387,45,0.0460019235572947,1
688,357,45,0.0353456102312776,1
688,385,45,0.0394153791785899,1
688,386,45,0.0527763406605086,1
688,387,45,0.0573458623106407,1
689,357,45,0.0420808396776183,1
689,358,45,0.0360520698780977,1
689,385,45,0.046445491441852,1
689,386,45,0.0701954772119416,1
689,387,45,0.0772819200917283,1
690,385,45,0.0548744301387449,1
690,386,45,0.0934536067130839,1
690,387,45,0.10393854292996,1
691,385,45,0.0477489279045556,1
691,386,45,0.0790580928392945,1
692,385,45,0.0371279910688417,1
698,379,45,0.0380707663707187,1
662,385,46,0.0349556727794318,1
662,386,46,0.0390149938232858,1
663,386,46,0.0388132498521256,1
663,387,46,0.0372119300442676,1
668,388,46,0.0359968210846775,1
668,389,46,0.0346809859377693,1
669,388,46,0.0357287972235905,1
669,389,46,0.0344679367693699,1
686,387,46,0.037106404178163,1
687,386,46,0.0428458694022682,1
687,387,46,0.0501073926670519,1
688,357,46,0.0393347235800252,1
688,358,46,0.0359601440738768,1
688,385,46,0.0434271233335725,1
688,386,46,0.0603780345983708,1
688,387,46,0.0668675560656136,1
689,356,46,0.037089643209958,1
689,357,46,0.0506689200935012,1
689,358,46,0.0449139944216885,1
689,385,46,0.0565551633439748,1
689,386,46,0.0849037283578226,1
689,387,46,0.0909055138150035,1
690,357,46,0.0409904319715573,1
690,358,46,0.0381583503026959,1
690,385,46,0.0671033585107881,1
690,386,46,0.109095159189774,1
690,387,46,0.115225637856899,1
691,385,46,0.0571938413787691,1
691,386,46,0.0895618428639052,1
692,385,46,0.0424825459651766,1
661,384,47,0.0352801205679311,1
661,385,47,0.0354473278467776,1
662,385,47,0.034898505280883,1
662,386,47,0.0356206994761433,1
663,386,47,0.0361847783721785,1
668,388,47,0.0355744580993524,1
669,388,47,0.0364223653880804,1
686,359,47,0.036868890061392,1
686,387,47,0.036368058451433,1
687,359,47,0.0389055868074454,1
687,386,47,0.0416319064170177,1
688,357,47,0.0402145927637593,1
688,358,47,0.0407844277751801,1
688,359,47,0.0362249341295116,1
688,385,47,0.0434823662950623,1
688,386,47,0.061358679540832,1
688,387,47,0.0655377826048537,1
689,356,47,0.0361884000010078,1
689,357,47,0.0501596234364478,1
689,358,47,0.0477102388777388,1
689,359,47,0.035228298033669,1
689,384,47,0.0352016956827758,1
689,385,47,0.0603596581854224,1
689,386,47,0.0877111905321548,1
689,387,47,0.0881268963688348,1
690,357,47,0.0414839795003445,1
690,358,47,0.0403254344344982,1
690,384,47,0.0381787970509654,1
690,385,47,0.068960455125721,1
690,386,47,0.103340781719427,1
690,387,47,0.1030129805709,1
691,384,47,0.0352357133332767,1
691,385,47,0.0605960788152279,1
691,386,47,0.0864195928883294,1
692,385,47,0.0463229130110182,1
660,383,48,0.0362419487866925,1
661,383,48,0.0347116356484169,1
661,384,48,0.037917762758561,1
662,385,48,0.0363861928392665,1
668,388,48,0.0345514587617664,1
669,388,48,0.0362691664062515,1
670,384,48,0.0404747026951824,1
670,385,48,0.0369782358419623,1
685,360,48,0.0355868451196959,1
686,359,48,0.0424907864829475,1
686,360,48,0.0381832963853322,1
686,387,48,0.0358957449815305,1
687,359,48,0.0502833653374126,1
687,360,48,0.0401647093463824,1
687,386,48,0.0417020703726454,1
687,387,48,0.0466202802303249,1
688,357,48,0.0405065071280654,1
688,359,48,0.0451020246083206,1
688,360,48,0.0352003280950778,1
688,385,48,0.0491685626661459,1
688,386,48,0.0646091234907081,1
688,387,48,0.0632490881426776,1
689,356,48,0.0345089206608314,1
689,357,48,0.0458561048834906,1
689,358,48,0.0466505304537345,1
689,359,48,0.0381003750817753,1
689,384,48,0.0444081998388894,1
689,385,48,0.0696065921996017,1
689,386,48,0.0898929448850844,1
689,387,48,0.0831372774383698,1
690,357,48,0.0401788197021834,1
690,358,48,0.0398662398922147,1
690,384,48,0.0473434775176281,1
690,385,48,0.0738060487010051,1
690,386,48,0.0958097182916307,1
691,384,48,0.0419677760413658,1
691,385,48,0.0659799654059215,1
660,382,49,0.0346093814953126,1
661,383,49,0.0351989459275536,1
663,374,49,0.0368224212393123,1
663,375,49,0.0390169066964838,1
664,374,49,0.0430902477012163,1
664,375,49,0.0452194913520869,1
669,384,49,0.0388428789749388,1
669,385,49,0.0356890584492869,1
670,384,49,0.0516030903819523,1
670,385,49,0.0459241635122144,1
671,384,49,0.0368516392110266,1
685,360,49,0.0383437415407848,1
685,361,49,0.0353109219087713,1
685,388,49,0.0358706531006322,1
686,360,49,0.0430594142847585,1
686,361,49,0.0345535028534003,1
686,387,49,0.0347730458763913,1
687,360,49,0.0455698562396477,1
687,386,49,0.0406083063905921,1
687,387,49,0.0435051283197331,1
688,360,49,0.0389966582338507,1
688,384,49,0.0368173620396192,1
688,385,49,0.0516602666283968,1
688,386,49,0.0606178727394388,1
688,387,49,0.0580186163152408,1
689,357,49,0.0382067903172785,1
689,361,49,0.0370665254375278,1
689,362,49,0.0350472719955457,1
689,384,49,0.0478004005229889,1
689,385,49,0.0701780514036617,1
689,386,49,0.0794927641139016,1
689,387,49,0.0726360643035187,1
690,357,49,0.0369091420455781,1
690,358,49,0.0377310593361136,1
690,384,49,0.0497141106030748,1
690,385,49,0.0704808568981427,1
690,386,49,0.0799808966952363,1
691,357,49,0.0347331846315475,1
691,358,49,0.036162141734013,1
691,384,49,0.0446324638096055,1
691,385,49,0.0642889155156691,1
692,384,49,0.0378087873055763,1
663,374,50,0.0423961371671916,1
663,375,50,0.0450038207309359,1
664,374,50,0.0511474824769151,1
664,375,50,0.0535631322337516,1
664,376,50,0.0354009610834812,1
665,374,50,0.0360742457937551,1
665,375,50,0.0368696365484937,1
669,384,50,0.0404783039122549,1
669,385,50,0.037820716519377,1
670,383,50,0.034640803936749,1
670,384,50,0.0540551197211348,1
670,385,50,0.0492058520296471,1
671,384,50,0.0369602472523909,1
680,362,50,0.0349057893620549,1
680,363,50,0.0353346811935545,1
681,362,50,0.0351320099454477,1
681,363,50,0.03514662184727,1
684,360,50,0.035315529133852,1
684,361,50,0.0351797705401291,1
685,360,50,0.039592264546071,1
685,361,50,0.0363199246132007,1
685,388,50,0.0352387255253706,1
686,360,50,0.0446773580104551,1
686,361,50,0.0361144657023235,1
686,387,50,0.0348726144255087,1
687,385,50,0.036512871117229,1
687,386,50,0.0409089657346557,1
687,387,50,0.0429225330444179,1
688,360,50,0.0403175846560696,1
688,361,50,0.0349700339082435,1
688,384,50,0.0388868633946333,1
688,385,50,0.0509920731934336,1
688,386,50,0.0568925288584915,1
688,387,50,0.0553173827546363,1
689,357,50,0.0356140569073245,1
689,360,50,0.0363469439471233,1
689,361,50,0.0415212076285756,1
689,362,50,0.0429656018510267,1
689,384,50,0.0476496247082752,1
689,385,50,0.0656048673011869,1
689,386,50,0.0713054685405608,1
689,387,50,0.0667494069859809,1
690,356,50,0.0346367711568208,1
690,357,50,0.0373407923801956,1
690,358,50,0.0394637375461457,1
690,361,50,0.0376238422101692,1
690,362,50,0.0388815067664857,1
690,384,50,0.0489366384547418,1
690,385,50,0.0646615175541574,1
690,386,50,0.0700805473579349,1
691,357,50,0.0373486858981028,1
691,358,50,0.0405556877978192,1
691,359,50,0.0367230014044222,1
691,384,50,0.0455166136303133,1
691,385,50,0.05994646591078,1
692,358,50,0.0345647118237865,1
692,384,50,0.0397250984266571,1
693,362,50,0.0347999194120518,1
694,362,50,0.0381809840248961,1
695,362,50,0.034862029471684,1
662,375,51,0.0351431664284595,1
663,374,51,0.041096925938122,1
663,375,51,0.0436514018841148,1
663,376,51,0.0347923874738345,1
664,374,51,0.0475047391433482,1
664,375,51,0.0499577628266779,1
664,376,51,0.0368337147726905,1
665,374,51,0.0365466088350668,1
665,375,51,0.0378872996696888,1
669,384,51,0.0376087316782906,1
669,385,51,0.0372636213600939,1
670,384,51,0.046496926152737,1
670,385,51,0.0447521204432678,1
671,384,51,0.0346419120035406,1
679,363,51,0.0348778864906643,1
679,364,51,0.0365142678645794,1
680,361,51,0.0344950144225974,1
680,362,51,0.0385706707037311,1
680,363,51,0.0369015109645425,1
680,364,51,0.0351558275495357,1
681,362,51,0.0383540436459811,1
681,363,51,0.0359322907738953,1
684,360,51,0.0351906937459217,1
684,361,51,0.0345933466024526,1
685,360,51,0.037325343596349,1
685,361,51,0.0345385731113666,1
685,388,51,0.0348290732325308,1
686,360,51,0.0404214746656741,1
686,387,51,0.0349939827307674,1
687,385,51,0.0362578582930471,1
687,386,51,0.0393336359249904,1
687,387,51,0.0416935907457247,1
688,360,51,0.0375854476958416,1
688,384,51,0.0383190637269507,1
688,385,51,0.0451158696112846,1
688,386,51,0.0493668891260437,1
688,387,51,0.0502147701710846,1
689,357,51,0.0353283039775725,1
689,360,51,0.0352251108836606,1
689,361,51,0.0395664232621057,1
689,362,51,0.0442328016136812,1
689,384,51,0.0441233654381884,1
689,385,51,0.0542660548147345,1
689,386,51,0.05901956803964,1
689,387,51,0.0580577369049133,1
690,356,51,0.0355914348489852,1
690,357,51,0.0378183137640184,1
690,358,51,0.0402024069450174,1
690,361,51,0.0363107713983094,1
690,362,51,0.040609720633734,1
690,383,51,0.0347326393460474,1
690,384,51,0.0464163113776858,1
690,385,51,0.0555094107296137,1
690,386,51,0.0602613435013586,1
691,356,51,0.0350705997174733,1
691,357,51,0.0377852992055604,1
691,358,51,0.0404921780748713,1
691,359,51,0.0370128862569205,1
691,384,51,0.0445664959279595,1
691,385,51,0.0532375705465303,1
692,358,51,0.0356765285466465,1
692,384,51,0.039911892244027,1
693,362,51,0.0379821618509073,1
694,361,51,0.0365401033166142,1
694,362,51,0.0432039528498218,1
694,363,51,0.0372264923746809,1
695,361,51,0.0347348408998044,1
695,362,51,0.0383050583458984,1
662,375,52,0.0348687449396339,1
663,374,52,0.0372901158202732,1
663,375,52,0.0397550891291603,1
663,376,52,0.0353664827104723,1
664,374,52,0.0405167625778178,1
664,375,52,0.0441876158163074,1
664,376,52,0.0374235416418032,1
665,374,52,0.0356129750842201,1
665,375,52,0.0399669456677761,1
665,376,52,0.0345029633438442,1
669,385,52,0.0368752235378954,1
670,384,52,0.0379164651540288,1
670,385,52,0.0386879974811659,1
679,362,52,0.0378117557581916,1
679,363,52,0.0375220283678162,1
679,364,52,0.037774075655348,1
679,365,52,0.0364317285524691,1
680,361,52,0.0365477460615107,1
680,362,52,0.0408745311011254,1
680,363,52,0.0386730910668542,1
680,364,52,0.0373527769973359,1
680,365,52,0.0363150957747617,1
681,361,52,0.0357942431474584,1
681,362,52,0.0389587885932665,1
681,363,52,0.0356376674778804,1
684,360,52,0.036056647943526,1
684,361,52,0.0346282915299001,1
685,360,52,0.0368776321251844,1
685,388,52,0.0354549530958826,1
686,387,52,0.0367033623785244,1
687,360,52,0.0386668217415861,1
687,385,52,0.0361983346945837,1
687,386,52,0.0393986094624892,1
687,387,52,0.0431458434945002,1
688,360,52,0.0380467971364382,1
688,361,52,0.0359984656890734,1
688,362,52,0.0365480084983824,1
688,384,52,0.0376886699494059,1
688,385,52,0.0417532047391107,1
688,386,52,0.0463400326429479,1
688,387,52,0.0503228475067751,1
689,357,52,0.0386467103293193,1
689,360,52,0.0360272579298625,1
689,361,52,0.0397807292115239,1
689,362,52,0.0452547307920237,1
689,363,52,0.0373521063253305,1
689,384,52,0.0423039635059252,1
689,385,52,0.0483158877742489,1
689,386,52,0.0537201394661852,1
689,387,52,0.0571670611539963,1
690,356,52,0.0375533633302954,1
690,357,52,0.0408644972647313,1
690,358,52,0.0432823835669076,1
690,361,52,0.0377541275371347,1
690,362,52,0.0427538327913681,1
690,363,52,0.0354170367998546,1
690,383,52,0.0374879640618715,1
690,384,52,0.0462412280767236,1
690,385,52,0.0516979234035184,1
690,386,52,0.0572041813915135,1
691,356,52,0.0384445202154772,1
691,357,52,0.0396025374916149,1
691,358,52,0.0407924291838013,1
691,359,52,0.0380872619860868,1
691,383,52,0.0369659712921589,1
691,384,52,0.0447020853956984,1
691,385,52,0.0499410076904034,1
692,357,52,0.0352751400992996,1
692,358,52,0.0369608246135086,1
692,384,52,0.0412839326209545,1
693,361,52,0.0357419657226186,1
693,362,52,0.0414272814721995,1
693,363,52,0.0372348407831657,1
694,361,52,0.0385429515381507,1
694,362,52,0.046722339013758,1
694,363,52,0.0416350993989566,1
695,361,52,0.0361548022495016,1
695,362,52,0.0405069765984692,1
695,363,52,0.0366429173350448,1
696,362,52,0.0361490315542897,1
664,375,53,0.0374518644121885,1
664,376,53,0.0357657133435409,1
665,375,53,0.0401367569035827,1
665,376,53,0.0370919205788112,1
666,375,53,0.0369938624996886,1
678,362,53,0.0371886606416449,1
678,363,53,0.0352403293062531,1
679,361,53,0.0357915662913672,1
679,362,53,0.0399931747751184,1
679,363,53,0.0390891876428765,1
679,364,53,0.0388962090632305,1
679,365,53,0.0369107254147039,1
680,361,53,0.0368424130970042,1
680,362,53,0.0396098886399873,1
680,363,53,0.0387272930287529,1
680,364,53,0.0393547562612305,1
680,365,53,0.0377485609594897,1
681,361,53,0.0358614240706446,1
681,362,53,0.0359960454379234,1
683,361,53,0.0347925770115751,1
684,360,53,0.0373325372825985,1
684,361,53,0.034794306178963,1
685,360,53,0.0380998356282058,1
685,388,53,0.0357099280125164,1
686,360,53,0.0392542312755141,1
686,361,53,0.034618814642867,1
686,386,53,0.0353476164153633,1
686,387,53,0.0369412555707766,1
686,388,53,0.0408024542722996,1
687,360,53,0.0413482121587259,1
687,361,53,0.0368280927917059,1
687,385,53,0.0360744732390439,1
687,386,53,0.0387495914149504,1
687,387,53,0.0427537307325847,1
688,360,53,0.0398291079908365,1
688,361,53,0.0371701034388515,1
688,362,53,0.0366380214294052,1
688,384,53,0.0354203435044378,1
688,385,53,0.0387137192105563,1
688,386,53,0.0434840633868325,1
688,387,53,0.0496157725912891,1
689,360,53,0.0373451021768217,1
689,361,53,0.0381104322458914,1
689,362,53,0.0425014764115208,1
689,363,53,0.0384761671862372,1
689,384,53,0.0393262060455564,1
689,385,53,0.0437077412485351,1
689,386,53,0.0495895755595644,1
689,387,53,0.0565463279692947,1
690,357,53,0.0408432602898815,1
690,360,53,0.0352217167001202,1
690,361,53,0.0373477032178166,1
690,362,53,0.0421738852124918,1
690,363,53,0.0384500780452265,1
690,383,53,0.037365449782273,1
690,384,53,0.0432568397113969,1
690,385,53,0.047954340159989,1
690,386,53,0.0545110717100704,1
691,357,53,0.0403373957239166,1
691,358,53,0.039834511274428,1
691,362,53,0.034838115640743,1
691,383,53,0.0382953452656808,1
691,384,53,0.0434043263173188,1
691,385,53,0.0491589108211983,1
692,383,53,0.034474920506122,1
692,384,53,0.042017239559748,1
693,362,53,0.0411208543488892,1
693,363,53,0.0388424124205003,1
694,361,53,0.0374084340258899,1
694,362,53,0.0448322978235329,1
694,363,53,0.0421652568713438,1
695,362,53,0.0403984064646529,1
665,375,54,0.0390906718691841,1
665,376,54,0.0364186475323982,1
666,375,54,0.0386575927115985,1
666,376,54,0.0351977999532139,1
669,375,54,0.0347358614876387,1
670,374,54,0.034595142837041,1
671,365,54,0.0364417069855237,1
678,362,54,0.0396799359570053,1
678,363,54,0.0385080620140427,1
678,364,54,0.0374288341187155,1
678,365,54,0.0358077382345935,1
679,362,54,0.0397480878966168,1
679,363,54,0.0399093932618155,1
679,364,54,0.0420082204792578,1
679,365,54,0.0409116571705731,1
680,361,54,0.0356923184984263,1
680,362,54,0.0365553363190329,1
680,363,54,0.0374990388978566,1
680,364,54,0.0409390322522552,1
680,365,54,0.0398173770626722,1
683,362,54,0.03476153364562,1
683,363,54,0.0352061891852121,1
684,361,54,0.0355563703669628,1
684,362,54,0.0350882908785901,1
684,363,54,0.0353895625753544,1
684,389,54,0.0372927051974071,1
685,360,54,0.0395022399511872,1
685,361,54,0.0356923505740439,1
685,388,54,0.0358243271608492,1
685,389,54,0.0407775577610724,1
686,360,54,0.0411526150422936,1
686,361,54,0.0368662773565361,1
686,385,54,0.0368234330792509,1
686,386,54,0.0379197776905425,1
686,387,54,0.0385362448180965,1
686,388,54,0.0407484914195507,1
687,360,54,0.0453948779134342,1
687,361,54,0.0406967388684543,1
687,362,54,0.0355461265810713,1
687,385,54,0.0382421114042421,1
687,386,54,0.0405479925655483,1
687,387,54,0.0437285991479036,1
687,388,54,0.0479471814653225,1
688,360,54,0.0431827362867287,1
688,361,54,0.0397433582009959,1
688,362,54,0.0372995227241405,1
688,385,54,0.0382359003982789,1
688,386,54,0.0438821043060829,1
688,387,54,0.0515625409693116,1
688,388,54,0.0567922896373687,1
689,361,54,0.0389352363420154,1
689,362,54,0.0410701719570363,1
689,363,54,0.0384234144590633,1
689,384,54,0.0365779758731636,1
689,385,54,0.0417290343032285,1
689,386,54,0.0494719688494665,1
689,387,54,0.0593488913220221,1
690,361,54,0.0386216825996563,1
690,362,54,0.0423097429490328,1
690,363,54,0.0399554071933177,1
690,383,54,0.0360867727804302,1
690,384,54,0.0406098810118222,1
690,385,54,0.0469194057766718,1
690,386,54,0.0549545258719832,1
691,361,54,0.0362554322099667,1
691,362,54,0.0368512338918581,1
691,363,54,0.0354503808623848,1
691,382,54,0.036765743622924,1
691,383,54,0.0388343526925743,1
691,384,54,0.0434292053327546,1
691,385,54,0.051917402275274,1
692,362,54,0.0350917754570531,1
692,383,54,0.0366962590871974,1
692,384,54,0.0451303823702888,1
693,363,54,0.0391254826622305,1
693,383,54,0.0345157702631824,1
694,362,54,0.0411551635959142,1
694,363,54,0.0399687885578084,1
666,375,55,0.0353769656055135,1
669,374,55,0.0354222855372883,1
669,375,55,0.0376423644213797,1
670,374,55,0.0371933261860304,1
670,375,55,0.0377435105076924,1
674,379,55,0.0348298430473544,1
678,362,55,0.0372693162402095,1
678,363,55,0.0387406364856955,1
678,364,55,0.0405206524754492,1
678,365,55,0.0395845926415221,1
679,362,55,0.0370660530511587,1
679,363,55,0.0391430163612244,1
679,364,55,0.0438467511435016,1
679,365,55,0.0438489964367371,1
680,362,55,0.0348247809316962,1
680,363,55,0.0367431099007237,1
680,364,55,0.0415729339359848,1
680,365,55,0.0411708398250496,1
681,364,55,0.0354150626913865,1
682,391,55,0.0405634734250125,1
683,363,55,0.0350949188675828,1
683,390,55,0.040208658774494,1
683,391,55,0.0470529599006724,1
683,392,55,0.051178753288159,1
684,389,55,0.0370625130693562,1
684,390,55,0.0439895051378374,1
684,391,55,0.0513888369199084,1
685,361,55,0.0352414636167319,1
685,385,55,0.0349047541943944,1
685,386,55,0.0356600562590004,1
685,387,55,0.0355577904420351,1
685,388,55,0.03609282049234,1
685,389,55,0.0394544997682624,1
685,390,55,0.0467714205406937,1
685,391,55,0.0552993504255863,1
686,361,55,0.0377390724085957,1
686,385,55,0.0390499445826638,1
686,386,55,0.0407637739933785,1
686,387,55,0.0400612334038421,1
686,388,55,0.0403375473541091,1
686,389,55,0.0440443748557764,1
686,390,55,0.0497536452598116,1
687,361,55,0.041608129636443,1
687,362,55,0.035813844265808,1
687,384,55,0.034699849316913,1
687,385,55,0.0412028658712909,1
687,386,55,0.0445400510391894,1
687,387,55,0.0458294500452231,1
687,388,55,0.0475205115993365,1
687,389,55,0.0497673094729306,1
687,390,55,0.052178346172756,1
688,361,55,0.0412986640773517,1
688,362,55,0.0368107486304528,1
688,385,55,0.0393179188723417,1
688,386,55,0.0464462962482585,1
688,387,55,0.0534023750700182,1
688,388,55,0.0569339005733301,1
688,389,55,0.0547628478128348,1
689,361,55,0.0397957814240977,1
689,362,55,0.0381775256901203,1
689,363,55,0.0361801419874454,1
689,384,55,0.0350349520424027,1
689,385,55,0.0414428381467599,1
689,386,55,0.0512673811356924,1
689,387,55,0.0610659807818762,1
690,361,55,0.0393849948207792,1
690,362,55,0.0400361356910133,1
690,363,55,0.0387370702602058,1
690,384,55,0.0386088377727699,1
690,385,55,0.0467138885464898,1
691,361,55,0.037858148765175,1
691,362,55,0.0378887634842397,1
691,363,55,0.0378375912102264,1
691,382,55,0.0346610961388608,1
691,383,55,0.0363278968621695,1
691,384,55,0.0429802691561887,1
692,362,55,0.0364412316831894,1
692,363,55,0.0370850389008425,1
692,383,55,0.0364889193787398,1
693,363,55,0.0369910515091963,1
669,374,56,0.0353910992890364,1
669,375,56,0.0388048956117103,1
670,374,56,0.0380353840484851,1
670,375,56,0.0403509724580784,1
677,364,56,0.034723025408648,1
678,363,56,0.0372898300556795,1
678,364,56,0.0409735631126385,1
678,365,56,0.0398209957755362,1
679,362,56,0.0349714510673506,1
679,363,56,0.0383585313164869,1
679,364,56,0.0429661996239011,1
679,365,56,0.0427732152123247,1
679,366,56,0.035211959880424,1
680,362,56,0.0352245451864039,1
680,363,56,0.0368502191359542,1
680,364,56,0.0402901862466657,1
680,365,56,0.0401391946505241,1
681,361,56,0.0351095715929186,1
681,364,56,0.0360735605419235,1
681,365,56,0.0350826834774318,1
681,391,56,0.0355800363408583,1
681,392,56,0.0390559602189559,1
682,364,56,0.035320987820783,1
682,390,56,0.0374225968690651,1
682,391,56,0.0438024488835959,1
683,363,56,0.0359305878501946,1
683,364,56,0.036434825307555,1
683,388,56,0.0364007959931932,1
683,389,56,0.0383770418638365,1
683,390,56,0.0435244961608635,1
683,391,56,0.0497670936915028,1
684,362,56,0.034948461597391,1
684,363,56,0.0345215292945333,1
684,388,56,0.036954330758917,1
684,389,56,0.0393657640300151,1
684,390,56,0.0451443615076539,1
685,384,56,0.0359761760507716,1
685,385,56,0.0367315743422306,1
685,386,56,0.0375217950905969,1
685,387,56,0.0371898911789765,1
685,388,56,0.0374369171743634,1
685,389,56,0.0394111160374076,1
686,384,56,0.0365334636637606,1
686,385,56,0.0406537138013241,1
686,386,56,0.0434480920396202,1
686,387,56,0.0417348866454671,1
686,388,56,0.0404187803137915,1
687,361,56,0.0405059501787043,1
687,362,56,0.0356599250405646,1
687,384,56,0.0365388873591087,1
687,385,56,0.0434516903407275,1
687,386,56,0.0485922133883768,1
687,387,56,0.0482483685990947,1
687,388,56,0.0470051905580952,1
688,361,56,0.0414417883992732,1
688,362,56,0.0358302115787054,1
688,385,56,0.0412993405812876,1
688,386,56,0.0500087164032982,1
688,387,56,0.055675224177075,1
689,361,56,0.0399949505979502,1
689,362,56,0.0349608836093174,1
689,384,56,0.0349162430974437,1
689,385,56,0.0437066186019174,1
689,386,56,0.0549702954120063,1
690,362,56,0.0372078272811736,1
690,363,56,0.0371668258939206,1
690,384,56,0.038929894293694,1
691,361,56,0.0390529596907229,1
691,362,56,0.039802272362724,1
691,363,56,0.0404215767244575,1
691,383,56,0.0351625401015204,1
692,362,56,0.0390294161873675,1
692,363,56,0.0400288720215981,1
693,363,56,0.034489879407808,1
669,375,57,0.0363496528788322,1
670,374,57,0.0362764242437362,1
670,375,57,0.0395865230105116,1
670,376,57,0.0357353639773131,1
678,363,57,0.0346476535391,1
678,364,57,0.0379407551444858,1
678,365,57,0.0368717972787373,1
679,362,57,0.034571870518453,1
679,363,57,0.0369119705318618,1
679,364,57,0.0396934572878276,1
679,365,57,0.0391193503873288,1
679,366,57,0.0354631906976883,1
680,362,57,0.037661816825502,1
680,363,57,0.0380589537955277,1
680,364,57,0.0388687989899656,1
680,365,57,0.0377954205209118,1
681,362,57,0.0378093267591458,1
681,363,57,0.0372707275673861,1
681,364,57,0.0373806623729351,1
681,365,57,0.03593416282358,1
682,361,57,0.0385344310877166,1
682,362,57,0.0358124387705619,1
682,363,57,0.035663257988835,1
682,364,57,0.0365149356206196,1
682,365,57,0.0351784729355969,1
682,388,57,0.0364864670519722,1
682,389,57,0.0376364041884272,1
683,361,57,0.0405843459042072,1
683,362,57,0.0361049042522985,1
683,363,57,0.0361842593303656,1
683,364,57,0.0366100223311616,1
683,365,57,0.0350413146785585,1
683,387,57,0.034988302430478,1
683,388,57,0.0395639767672686,1
683,389,57,0.0418591417563143,1
684,361,57,0.0404819984402152,1
684,362,57,0.0361195919692171,1
684,363,57,0.0348116299284595,1
684,387,57,0.0358839469861656,1
684,388,57,0.0391122791716195,1
685,361,57,0.0378336517411858,1
685,383,57,0.0349261777910196,1
685,384,57,0.0379477447131684,1
685,385,57,0.037809449229686,1
685,386,57,0.0380277733792062,1
685,387,57,0.0379534891646931,1
685,388,57,0.0388164165903772,1
686,361,57,0.0385064290735078,1
686,383,57,0.0351350104736806,1
686,384,57,0.0386150137871502,1
686,385,57,0.0403859873686918,1
686,386,57,0.0424010418207268,1
686,387,57,0.0416269813517258,1
687,361,57,0.0409983604810475,1
687,362,57,0.0355177134157635,1
687,378,57,0.038032030688458,1
687,379,57,0.037686698756903,1
687,384,57,0.0377772686372869,1
687,385,57,0.0432265399165782,1
687,386,57,0.0478186894569801,1
687,387,57,0.0476280057419788,1
688,361,57,0.0424295832885052,1
688,362,57,0.0350768661267761,1
688,378,57,0.0377557808894263,1
688,379,57,0.0369440898889908,1
688,384,57,0.0363925029880479,1
688,385,57,0.0437656348224289,1
688,386,57,0.0506691533707205,1
689,361,57,0.0406893264848118,1
689,384,57,0.0371552320161226,1
689,385,57,0.0465475531412504,1
690,362,57,0.0348799334982634,1
690,363,57,0.0360137249351793,1
690,384,57,0.0411607651651421,1
690,385,57,0.0516624302746055,1
691,362,57,0.0394108244408835,1
691,363,57,0.0406602893029425,1
691,364,57,0.0350090407752716,1
691,383,57,0.035952690866721,1
691,384,57,0.0450640791526401,1
692,363,57,0.0408438172392425,1
692,383,57,0.038613631619626,1
670,375,58,0.0365469791626524,1
670,376,58,0.0345186658166667,1
678,364,58,0.0347851879556546,1
679,362,58,0.0354890028220012,1
679,363,58,0.0366228438303261,1
679,364,58,0.0370367476004872,1
679,365,58,0.0362992533356076,1
679,366,58,0.0349407080458153,1
680,361,58,0.0374458983473056,1
680,362,58,0.041246471215504,1
680,363,58,0.0418709164239573,1
680,364,58,0.0393778740336608,1
680,365,58,0.0359099515641844,1
681,361,58,0.0383607766097225,1
681,362,58,0.0424389143772763,1
681,363,58,0.043222326346805,1
681,364,58,0.0404105164682986,1
681,365,58,0.0362273893722445,1
682,361,58,0.0402998001840651,1
682,362,58,0.0392210796666898,1
682,363,58,0.0389235491533297,1
682,364,58,0.0376358851466143,1
682,365,58,0.0358434383970384,1
683,360,58,0.0460169028707375,1
683,361,58,0.044534866452991,1
683,362,58,0.0386802031060768,1
683,363,58,0.0364076018560655,1
683,364,58,0.0352695851855156,1
683,365,58,0.0348573114399242,1
684,360,58,0.0458206788217784,1
684,361,58,0.0439848133497648,1
684,362,58,0.0379537078620861,1
684,363,58,0.0351701070313206,1
685,360,58,0.0406905920137264,1
685,361,58,0.0386568783001145,1
685,362,58,0.0348123851634569,1
686,360,58,0.040196834535442,1
686,361,58,0.0383899916654715,1
686,362,58,0.034519383144116,1
687,360,58,0.0459557784073567,1
687,361,58,0.0434136807338118,1
687,362,58,0.0365978044368021,1
688,361,58,0.0456003339083461,1
688,362,58,0.0356699151374801,1
689,361,58,0.0408616396187952,1
690,361,58,0.034560107514671,1
691,362,58,0.0372972191116001,1
691,363,58,0.0391473524015377,1
692,362,58,0.0392661225817667,1
692,363,58,0.0394863246129021,1
679,363,59,0.0363968681880136,1
679,364,59,0.0362148361418822,1
679,365,59,0.0353239475255026,1
680,362,59,0.0407134444333197,1
680,363,59,0.0445317405382527,1
680,364,59,0.0407400992715872,1
680,365,59,0.0355804008365134,1
681,362,59,0.0432898688496811,1
681,363,59,0.0469260950009345,1
681,364,59,0.0417631219368952,1
681,365,59,0.0357105491131127,1
682,362,59,0.0410418608505119,1
682,363,59,0.0407567202734606,1
682,364,59,0.0373220019001829,1
683,361,59,0.0450303297709414,1
683,362,59,0.0404501765115407,1
683,363,59,0.0367698055625046,1
683,364,59,0.0347470296345115,1
684,361,59,0.0439128589914791,1
684,362,59,0.0387608353769195,1
684,363,59,0.035466672360186,1
685,361,59,0.0394366657248488,1
685,362,59,0.0359806520574164,1
686,361,59,0.0406178707565824,1
686,362,59,0.0365334782435868,1
687,361,59,0.0468345832637778,1
687,362,59,0.0392409927933202,1
688,362,59,0.0384132960596772,1
690,363,59,0.034547157713036,1
691,363,59,0.0371654553902574,1
692,363,59,0.0372623295874922,1
679,364,60,0.0396397714517765,1
679,365,60,0.0346389552147863,1
680,363,60,0.0498533187836777,1
680,364,60,0.0480255742748601,1
680,365,60,0.0378359320260043,1
681,363,60,0.0489518422975081,1
681,364,60,0.0448982948648312,1
681,365,60,0.0361372772984035,1
682,363,60,0.0391053362583808,1
682,364,60,0.0350460851976926,1
683,362,60,0.039702575511136,1
683,363,60,0.035513870173576,1
684,362,60,0.0375378824708313,1
684,363,60,0.0349211535829095,1
685,362,60,0.0364438618838367,1
686,362,60,0.0387056390708736,1
687,362,60,0.0416388901537698,1
688,363,60,0.03529311702501,1
688,364,60,0.0344696338611402,1
689,363,60,0.0352411311966944,1
689,364,60,0.0348018993524504,1
690,363,60,0.0352690748915984,1
690,364,60,0.0347708793142172,1
691,364,60,0.0344890425257839,1
