x,y,z,signal,cytoplasm.p
624,335,1,0.051098395118049,1
624,336,1,0.0627693243815844,1
624,337,1,0.0481474207984183,1
625,334,1,0.0390603604105045,1
625,335,1,0.0687572356761489,1
625,336,1,0.0842550602261128,1
625,337,1,0.0607785774157979,1
625,338,1,0.0366416663859564,1
626,326,1,0.0396963674211381,1
626,334,1,0.0348144088433341,1
626,335,1,0.0557359579011134,1
626,336,1,0.0671340869524972,1
626,337,1,0.050506471669928,1
627,321,1,0.0348107288952,1
627,323,1,0.0393341316390813,1
627,325,1,0.0643305554993098,1
627,326,1,0.0484334332490767,1
627,336,1,0.0368033945661151,1
628,324,1,0.0474648429069216,1
628,325,1,0.0514274851232119,1
628,326,1,0.0409954241040499,1
629,326,1,0.0423842371130432,1
629,327,1,0.0499397946488632,1
629,328,1,0.0418430806197672,1
630,326,1,0.0524895788067833,1
630,327,1,0.0693618552369289,1
630,328,1,0.0552975775187198,1
631,326,1,0.0423372754928378,1
631,327,1,0.0556641668368813,1
631,328,1,0.0440513965000766,1
635,336,1,0.0451677067253729,1
635,337,1,0.0507212033502714,1
635,338,1,0.0347164848986126,1
636,336,1,0.0432720727138156,1
636,337,1,0.0475702346386251,1
644,348,1,0.0351136131207425,1
645,348,1,0.0352430819774406,1
624,335,2,0.0413909018898534,1
624,336,2,0.0528724100513369,1
624,337,2,0.0400940875842119,1
625,335,2,0.0565265110695173,1
625,336,2,0.0713869930967672,1
625,337,2,0.0507950472540332,1
626,335,2,0.0436993228568845,1
626,336,2,0.0540088491846915,1
626,337,2,0.0404580437857608,1
627,326,2,0.04442732857087,1
628,325,2,0.0460394607778414,1
628,326,2,0.0371180097198219,1
629,326,2,0.0408735659166306,1
629,327,2,0.0526578416650469,1
629,328,2,0.0424246523912828,1
630,326,2,0.0529321756749153,1
630,327,2,0.0756451713061929,1
630,328,2,0.05781432379046,1
631,326,2,0.0394181056060901,1
631,327,2,0.0560071076769387,1
631,328,2,0.0422920430400202,1
635,336,2,0.0368035899357862,1
635,337,2,0.0415069223148602,1
636,336,2,0.0365316061939021,1
636,337,2,0.0398184238941937,1
644,348,2,0.0356036789870319,1
645,348,2,0.0363573276993463,1
624,335,3,0.0367669829081514,1
624,336,3,0.0443230507378885,1
625,335,3,0.0437904992580385,1
625,336,3,0.0527067598979291,1
625,337,3,0.0396694093224855,1
626,336,3,0.0395874794471106,1
627,326,3,0.0350995173447678,1
628,324,3,0.0345783381293574,1
628,325,3,0.0365238526423264,1
629,326,3,0.0380652814401005,1
629,327,3,0.0490973606268924,1
629,328,3,0.0371267167920314,1
630,326,3,0.0478829106754467,1
630,327,3,0.0689697103993958,1
630,328,3,0.0505012112686334,1
631,327,3,0.0452949332048007,1
629,326,4,0.0365364437802368,1
629,327,4,0.0431193432023905,1
630,326,4,0.0442448853736397,1
630,327,4,0.0561386818605407,1
630,328,4,0.0387328596063979,1
630,326,5,0.0374785775697609,1
630,327,5,0.0419288304096077,1
616,323,8,0.0351988380368397,1
616,325,8,0.0345850186057245,1
616,326,8,0.0354911314766271,1
615,325,9,0.0411336845959494,1
615,326,9,0.0394475860146761,1
616,321,9,0.0416379162213793,1
616,322,9,0.0358662908166317,1
614,325,10,0.0482255511710843,1
614,326,10,0.0428626741099518,1
614,329,10,0.0380022703472089,1
615,322,10,0.0411408403746507,1
615,323,10,0.0381815322263614,1
615,324,10,0.0382308732742035,1
615,325,10,0.0372694474586453,1
616,321,10,0.0375111955569461,1
613,325,11,0.0495227124765895,1
613,326,11,0.0420065058916961,1
613,327,11,0.0380356989727311,1
614,324,11,0.0439750040426942,1
614,325,11,0.0416815128176967,1
614,326,11,0.0374924663122035,1
615,321,11,0.0479926938508032,1
615,322,11,0.0384133602109125,1
615,323,11,0.0354322639703428,1
615,324,11,0.0346340418133553,1
616,320,11,0.0400468431153781,1
613,325,12,0.0434991710027459,1
613,326,12,0.0369576899508746,1
614,323,12,0.0412986844891084,1
614,324,12,0.0389730068397814,1
614,325,12,0.0356405222078513,1
614,334,12,0.0349561043422875,1
615,320,12,0.0545929753417581,1
615,321,12,0.0427869814842272,1
615,322,12,0.035703994023251,1
616,318,12,0.0388962848783268,1
616,319,12,0.0392893045054322,1
616,320,12,0.0349950033186017,1
621,341,12,0.0352447878171066,1
630,349,12,0.0353276741290805,1
613,325,13,0.0390526622622684,1
614,320,13,0.0536861334795453,1
614,321,13,0.0453987736429961,1
614,322,13,0.040833112730843,1
614,323,13,0.0379532121479952,1
614,324,13,0.0358178508020491,1
614,334,13,0.0362242605415409,1
615,318,13,0.049187685566196,1
615,319,13,0.0485213233574041,1
615,320,13,0.0423437489356727,1
615,321,13,0.0361191662382919,1
613,325,14,0.0351899239310981,1
614,320,14,0.0418409111416279,1
614,321,14,0.0368566021838667,1
614,322,14,0.0345662514534337,1
615,318,14,0.0353969253875878,1
615,319,14,0.0354196990761196,1
613,324,15,0.0354730058366893,1
614,319,15,0.0355260618242484,1
611,332,16,0.0357435665875359,1
612,332,16,0.0368377213089315,1
612,333,16,0.0359053822466518,1
611,332,17,0.0369042782155562,1
612,331,17,0.0346226433052284,1
612,332,17,0.0414094182691334,1
612,333,17,0.0377552530997177,1
613,332,17,0.0370959446108437,1
612,332,18,0.0397214097306273,1
612,333,18,0.0354579798678027,1
613,332,18,0.0354385478754371,1
612,332,19,0.0345329657102083,1
638,305,19,0.0355774936191682,1
639,306,19,0.0467808711840396,1
638,306,20,0.0459275956033029,1
637,305,21,0.0377529757308645,1
638,306,21,0.0524685896889789,1
639,307,21,0.0378040721897817,1
642,310,21,0.0355642084815305,1
642,311,21,0.0382226939917026,1
642,312,21,0.0372204504947017,1
643,309,21,0.0397657411501855,1
643,310,21,0.0360142643887488,1
643,311,21,0.0382829436655111,1
643,312,21,0.0366393540255203,1
644,310,21,0.0350537600182068,1
644,311,21,0.0365041319694019,1
644,312,21,0.0347075649609405,1
637,305,22,0.0358736477969346,1
638,305,22,0.0646920185505777,1
638,306,22,0.0514137684227185,1
638,307,22,0.0347232761816588,1
639,306,22,0.0638141555509294,1
639,307,22,0.041526488441627,1
640,307,22,0.0429625692471762,1
640,308,22,0.0345782273226783,1
641,309,22,0.0359993258988195,1
641,311,22,0.0351890666373173,1
642,310,22,0.0396467989280072,1
642,311,22,0.0432576590976296,1
642,312,22,0.0398598131048237,1
643,309,22,0.0440559745655048,1
643,310,22,0.0439646494501236,1
643,311,22,0.0475108043510494,1
643,312,22,0.0417199685672944,1
644,309,22,0.0486339350190443,1
644,310,22,0.0435333111237869,1
644,311,22,0.0454289130597265,1
644,312,22,0.0393173240154325,1
638,305,23,0.058179274336156,1
638,306,23,0.0473687443564409,1
638,307,23,0.0353603533515358,1
639,306,23,0.0616229418067582,1
639,307,23,0.0424769327320877,1
640,307,23,0.0446766435989711,1
640,308,23,0.0354615810848753,1
641,308,23,0.0390373155372052,1
641,309,23,0.0360485182324342,1
642,310,23,0.0406274846939818,1
642,311,23,0.0417544498562686,1
642,312,23,0.0375466070388322,1
643,309,23,0.049273683213082,1
643,310,23,0.0511200724036502,1
643,311,23,0.0508602015813769,1
643,312,23,0.0418233132913988,1
644,309,23,0.0577427193480032,1
644,310,23,0.0529423523936062,1
644,311,23,0.050530977441813,1
644,312,23,0.0400325811293846,1
645,310,23,0.0389988335439205,1
645,311,23,0.036582941761969,1
638,305,24,0.0620931703615134,1
638,306,24,0.0459064606872366,1
638,307,24,0.0347405270320242,1
639,306,24,0.062216678985259,1
639,307,24,0.0426100261335803,1
640,307,24,0.0450358613570034,1
640,308,24,0.0360699155853723,1
641,308,24,0.038797824396001,1
641,309,24,0.0348924284093209,1
642,309,24,0.0393172715280582,1
642,310,24,0.0406797592028563,1
642,311,24,0.0393064358012228,1
642,312,24,0.0357283277531867,1
643,309,24,0.0528507327657356,1
643,310,24,0.0560273969630852,1
643,311,24,0.0514827601603193,1
643,312,24,0.0408733443032723,1
644,310,24,0.059648331792615,1
644,311,24,0.0523638132259412,1
644,312,24,0.0389096137554432,1
637,304,25,0.0380914551441033,1
637,305,25,0.0389324049397664,1
638,305,25,0.0725734993533089,1
638,306,25,0.0505229002180955,1
638,307,25,0.0361508890241482,1
639,306,25,0.0668956426428144,1
639,307,25,0.0441713826378111,1
640,307,25,0.0456150566168477,1
640,308,25,0.0356376995534981,1
641,308,25,0.0377634644578362,1
642,309,25,0.0403022087713541,1
642,310,25,0.0403619335714192,1
642,311,25,0.0373539900388761,1
642,312,25,0.0345769180542851,1
643,310,25,0.0560122339438323,1
643,311,25,0.048012309548979,1
643,312,25,0.0388180203712598,1
644,311,25,0.0489091525663807,1
637,304,26,0.0403988526073348,1
637,305,26,0.0422684383013947,1
637,306,26,0.0348806683215042,1
638,304,26,0.0873498324556356,1
638,305,26,0.0887549136347082,1
638,306,26,0.0589601814915428,1
638,307,26,0.0357912426192254,1
639,305,26,0.1239935954206,1
639,306,26,0.0790929269600628,1
639,307,26,0.0441076017300958,1
640,306,26,0.066146991894923,1
640,307,26,0.0439056915489169,1
640,308,26,0.0348566407679187,1
641,307,26,0.0410968209633733,1
641,308,26,0.0367484461171147,1
642,308,26,0.0453605919941311,1
642,309,26,0.0419092351231886,1
642,310,26,0.0401678527569122,1
642,311,26,0.036725649100861,1
643,310,26,0.0541426569976681,1
643,311,26,0.0454307646976545,1
643,312,26,0.0367687674788788,1
637,304,27,0.0439223475423732,1
637,305,27,0.0494480695983517,1
637,306,27,0.039586213918196,1
638,304,27,0.104912801908544,1
638,305,27,0.117680215749702,1
638,306,27,0.0769169287225189,1
638,307,27,0.0375625457048392,1
639,304,27,0.155811978281331,1
639,305,27,0.17056752055149,1
639,306,27,0.107504733428056,1
639,307,27,0.0478386725667763,1
640,305,27,0.119890983956779,1
640,306,27,0.0797092045498762,1
640,307,27,0.0450949679724375,1
640,308,27,0.0346879230190775,1
641,307,27,0.0417406281810265,1
641,308,27,0.0375033020390389,1
642,308,27,0.0474809361190863,1
642,309,27,0.0430341591098067,1
642,310,27,0.0387393097215109,1
642,311,27,0.0361418903554146,1
643,310,27,0.0481183923644447,1
643,311,27,0.0424055003315802,1
643,312,27,0.0354228279068231,1
611,338,28,0.0360263773083597,1
637,304,28,0.0458703231300055,1
637,305,28,0.0557247955861711,1
637,306,28,0.0417972445621447,1
638,305,28,0.139996482646088,1
638,306,28,0.0867493302377757,1
638,307,28,0.0390862366860526,1
639,304,28,0.174749621227779,1
639,305,28,0.207477295361525,1
639,306,28,0.125025357233735,1
639,307,28,0.0506035966401735,1
640,305,28,0.134268430509936,1
640,306,28,0.0835635449011525,1
640,307,28,0.0452533107169514,1
641,307,28,0.0416978363911156,1
641,308,28,0.0380312812853911,1
642,308,28,0.0478613441965247,1
642,309,28,0.0412095405157274,1
642,310,28,0.0364015949676692,1
643,309,28,0.0489229392500399,1
643,310,28,0.0419633554380606,1
643,311,28,0.0390728786492838,1
644,312,28,0.0348462161921824,1
611,338,29,0.0348411249168717,1
611,339,29,0.0363715167862088,1
637,304,29,0.0491150955274878,1
637,305,29,0.0606194182010165,1
637,306,29,0.0449507822391683,1
638,305,29,0.139494726675147,1
638,306,29,0.0866267197313244,1
638,307,29,0.0408551924196474,1
639,304,29,0.16431728902385,1
639,305,29,0.201899916981303,1
639,306,29,0.122493634564518,1
639,307,29,0.0514780596243509,1
640,305,29,0.123413411648539,1
640,306,29,0.0781745728670787,1
640,307,29,0.0450894159746187,1
641,307,29,0.0428480884518165,1
641,308,29,0.0382668854449292,1
642,308,29,0.0472882841275474,1
642,309,29,0.0392213683472486,1
643,309,29,0.0438436106489371,1
643,310,29,0.0375875413588846,1
643,311,29,0.0370924337886936,1
644,312,29,0.0352018618927946,1
637,304,30,0.0490455555884217,1
637,305,30,0.0597388433536941,1
637,306,30,0.0442208928116371,1
638,305,30,0.115138298866002,1
638,306,30,0.0745085222233409,1
638,307,30,0.038246406621042,1
639,304,30,0.12466816315558,1
639,305,30,0.153181206104809,1
639,306,30,0.0974074572941727,1
639,307,30,0.0463493666476841,1
640,305,30,0.0906702245797114,1
640,306,30,0.0625886278475334,1
640,307,30,0.041193791387461,1
641,307,30,0.0406930355925983,1
641,308,30,0.0364810287767978,1
642,308,30,0.0434172557071971,1
642,309,30,0.0357163897914903,1
643,309,30,0.0383418899028568,1
644,311,30,0.0403476424257733,1
637,304,31,0.0486624502431355,1
637,305,31,0.0574215782640872,1
637,306,31,0.0436490166245477,1
638,305,31,0.0851484070011906,1
638,306,31,0.0601953377121645,1
638,307,31,0.0353329666059928,1
639,305,31,0.100820641264146,1
639,306,31,0.0717327507592474,1
639,307,31,0.0415393857558877,1
640,306,31,0.0514397904965287,1
640,307,31,0.0386128238972543,1
641,307,31,0.0394850969915357,1
641,308,31,0.0357389331187681,1
642,308,31,0.0406637126461353,1
642,309,31,0.0351109041890337,1
643,309,31,0.0373655081015779,1
609,319,32,0.0347526078760175,1
637,304,32,0.0462473049482857,1
637,305,32,0.0549977929642284,1
637,306,32,0.0440188076725437,1
638,305,32,0.0641381309530597,1
638,306,32,0.0508064720058472,1
639,305,32,0.0660655898092567,1
639,306,32,0.054945118968116,1
639,307,32,0.0379600559184157,1
640,306,32,0.045510268489949,1
640,307,32,0.0369091799531262,1
641,307,32,0.0375974906322867,1
641,308,32,0.0347690801636636,1
642,308,32,0.0380155263251942,1
642,309,32,0.0348171090271472,1
643,309,32,0.0363564791534612,1
637,304,33,0.044642611368644,1
637,305,33,0.053339116120081,1
637,306,33,0.0479259415745074,1
638,305,33,0.0525902204311094,1
638,306,33,0.0478908975042417,1
638,307,33,0.0345498899724668,1
639,305,33,0.0502797670363053,1
639,306,33,0.0486302609028407,1
639,307,33,0.0373040570500901,1
640,306,33,0.0468234705202446,1
640,307,33,0.0387609053600853,1
641,307,33,0.0393969211186147,1
641,308,33,0.0355358915430756,1
642,307,33,0.0398184530538461,1
642,308,33,0.0382220874709325,1
642,309,33,0.0355167598951298,1
643,309,33,0.0366303728525782,1
637,304,34,0.0418433197289169,1
637,305,34,0.0499197094802835,1
637,306,34,0.0502654729746942,1
637,307,34,0.0355139926441161,1
638,305,34,0.0463303866299308,1
638,306,34,0.0476443118196062,1
638,307,34,0.0355959079396648,1
639,305,34,0.0418461977866098,1
639,306,34,0.0444766258792335,1
639,307,34,0.0358829293142965,1
640,306,34,0.0448968339662455,1
640,307,34,0.0379159198685287,1
641,307,34,0.0401519053430094,1
641,308,34,0.036332708204817,1
642,306,34,0.0397178814126858,1
642,307,34,0.0425156363387308,1
642,308,34,0.0410581173567302,1
642,309,34,0.0359636344842703,1
643,307,34,0.0425418304544903,1
643,308,34,0.0402480913724473,1
643,309,34,0.0357384694802947,1
637,304,35,0.0384980310936139,1
637,305,35,0.0452365584966422,1
637,306,35,0.0504675493658919,1
637,307,35,0.0381396647974319,1
638,305,35,0.0433075221032498,1
638,306,35,0.0498408909398207,1
638,307,35,0.039234551426103,1
639,305,35,0.0378095046330255,1
639,306,35,0.042960921726815,1
639,307,35,0.0364137866183416,1
640,306,35,0.0420175369882026,1
640,307,35,0.0376418249678101,1
641,307,35,0.041207006541933,1
641,308,35,0.0381399243183383,1
642,305,35,0.0380733878234704,1
642,306,35,0.0422099061311132,1
642,307,35,0.0478868705562439,1
642,308,35,0.0471214909157652,1
642,309,35,0.0386106310913931,1
643,306,35,0.0446461251067593,1
643,307,35,0.047074823808049,1
643,308,35,0.0451743667899832,1
643,309,35,0.0378451639719571,1
644,307,35,0.0459144358521705,1
644,308,35,0.0426997533000095,1
645,308,35,0.042913239863195,1
637,305,36,0.0372857360404813,1
637,306,36,0.0433758023453318,1
637,307,36,0.0356498532966223,1
638,305,36,0.0378174273105852,1
638,306,36,0.0462732716187563,1
638,307,36,0.0393337583955305,1
639,306,36,0.0385179442202443,1
639,307,36,0.034954392670691,1
640,306,36,0.0365982418315882,1
640,307,36,0.0350495551963294,1
641,305,36,0.0368817553000351,1
641,306,36,0.0383804827028208,1
641,307,36,0.0401650825899333,1
641,308,36,0.0387092169602243,1
642,304,36,0.0361976640225782,1
642,305,36,0.042342107247242,1
642,306,36,0.0440362101531017,1
642,307,36,0.0501392058478307,1
642,308,36,0.0507030660464727,1
642,309,36,0.0412403797641157,1
643,305,36,0.0456958725935005,1
643,306,36,0.0457049995647047,1
643,307,36,0.0492324339687836,1
643,308,36,0.0491757709322215,1
643,309,36,0.0410445901939775,1
644,307,36,0.0488008681971581,1
644,308,36,0.0479043255241762,1
644,309,36,0.040297645285752,1
645,307,36,0.0468397153626019,1
645,308,36,0.0472109527293575,1
645,309,36,0.039846032253095,1
646,308,36,0.0397713427194133,1
637,306,37,0.0346466416991614,1
638,306,37,0.0386811070553015,1
638,307,37,0.0360132175572273,1
640,306,37,0.0354648498819104,1
640,307,37,0.0351381480522798,1
641,304,37,0.0378106126998171,1
641,305,37,0.0415990784803352,1
641,306,37,0.0401196256077921,1
641,307,37,0.0397520711051359,1
641,308,37,0.0391295854253246,1
642,304,37,0.0419218087653075,1
642,305,37,0.0474267312412224,1
642,306,37,0.0459920180233712,1
642,307,37,0.0482959425720008,1
642,308,37,0.0495345921189811,1
642,309,37,0.0427744515815869,1
643,305,37,0.046497433530689,1
643,306,37,0.0448527445718024,1
643,307,37,0.0478077020999522,1
643,308,37,0.0498304809439105,1
643,309,37,0.0442410946188264,1
643,310,37,0.0350691154911657,1
644,307,37,0.0478311347966285,1
644,308,37,0.0501630059561273,1
644,309,37,0.0444188664397408,1
644,310,37,0.034951826621279,1
645,307,37,0.0437488709382587,1
645,308,37,0.0464497429191733,1
645,309,37,0.0421284778017597,1
645,310,37,0.0349720663360164,1
646,308,37,0.0378097991455149,1
646,309,37,0.0360993493385144,1
621,347,38,0.0355312639062382,1
640,305,38,0.0366582669760731,1
640,306,38,0.0358138209380861,1
640,307,38,0.0353053320034044,1
640,308,38,0.0345565791967295,1
641,304,38,0.0470656443494705,1
641,305,38,0.0504173481083037,1
641,306,38,0.0438531225275531,1
641,307,38,0.0388237968984021,1
641,308,38,0.0381078778603403,1
641,309,38,0.0345319626181654,1
642,303,38,0.0393944017246465,1
642,304,38,0.0493443487147312,1
642,305,38,0.0533638959926986,1
642,306,38,0.0474968164657885,1
642,307,38,0.0439620571570244,1
642,308,38,0.0451622451224766,1
642,309,38,0.0423176277190443,1
643,304,38,0.0422367680029128,1
643,305,38,0.0448003446764226,1
643,306,38,0.0424315603129386,1
643,307,38,0.0437452872169776,1
643,308,38,0.0474334817007552,1
643,309,38,0.045199391603681,1
643,310,38,0.0355522296963207,1
644,307,38,0.0425357710787196,1
644,308,38,0.0471046045610549,1
644,309,38,0.0451264166575611,1
644,310,38,0.0358748491746139,1
645,307,38,0.0380189642482133,1
645,308,38,0.0419413894719005,1
645,309,38,0.0420011988349576,1
645,310,38,0.0366938534158737,1
646,309,38,0.0345031820412373,1
610,335,39,0.0348064511741916,1
622,347,39,0.0404165641802083,1
640,305,39,0.0386980371494905,1
640,306,39,0.0358194166753835,1
640,307,39,0.0350578627813008,1
640,308,39,0.0349058243536378,1
641,304,39,0.0523980991452443,1
641,305,39,0.0547306438927138,1
641,306,39,0.0453958722575813,1
641,307,39,0.0382030520498396,1
641,308,39,0.0368657204071751,1
642,304,39,0.0516649321727823,1
642,305,39,0.0532990274299485,1
642,306,39,0.045600841286298,1
642,307,39,0.0400782393131274,1
642,308,39,0.0413094269050561,1
642,309,39,0.0400889554853878,1
643,305,39,0.0425162865989796,1
643,307,39,0.0401959101744606,1
643,308,39,0.0446297023905223,1
643,309,39,0.0437815122531659,1
643,310,39,0.0353177219397131,1
644,307,39,0.0371721825220683,1
644,308,39,0.0423149771066403,1
644,309,39,0.0430528737747231,1
644,310,39,0.0364431066488393,1
645,308,39,0.0376938282919171,1
645,309,39,0.0400877074522647,1
645,310,39,0.0366064852653244,1
610,333,40,0.0348405329759277,1
624,347,40,0.0381284733228371,1
625,346,40,0.0354218685542588,1
628,345,40,0.0360034490736702,1
635,346,40,0.0374130091753529,1
636,346,40,0.0371739583449,1
638,345,40,0.0351772453142305,1
639,344,40,0.0354866438061213,1
641,305,40,0.0528518058409443,1
641,307,40,0.0367979504590103,1
641,308,40,0.0348234308397896,1
642,305,40,0.0508717021482872,1
642,308,40,0.0384949051788756,1
642,309,40,0.0369229316452025,1
643,307,40,0.0371034590532696,1
643,308,40,0.0408547929324094,1
643,309,40,0.0400114637091097,1
644,308,40,0.037526758063437,1
644,309,40,0.0386400444327785,1
644,310,40,0.0351650245039057,1
645,309,40,0.0355564753417115,1
617,341,41,0.0344866076948077,1
625,346,41,0.0372706925758032,1
626,346,41,0.0429465372702814,1
627,345,41,0.0373022170760231,1
627,346,41,0.0471147871116762,1
628,345,41,0.0392887388081755,1
635,345,41,0.0376353602728709,1
635,346,41,0.0425267986536732,1
636,345,41,0.0369231649224218,1
637,345,41,0.0377774727548537,1
638,344,41,0.0387069600031278,1
639,344,41,0.0417426489449385,1
642,308,41,0.0350028093575517,1
643,308,41,0.036988167619573,1
643,309,41,0.0363168715975934,1
644,308,41,0.03543616261587,1
644,309,41,0.035915888469415,1
644,310,41,0.0357892101914525,1
644,311,41,0.0361586775673068,1
645,324,41,0.0368459210031891,1
645,325,41,0.0366691347785261,1
611,333,42,0.0346938657562386,1
615,340,42,0.035458201481161,1
615,341,42,0.0391974749280643,1
616,339,42,0.0389678747409573,1
616,340,42,0.0648816029466832,1
616,341,42,0.0684050337304862,1
616,342,42,0.0473416783670744,1
617,339,42,0.0450996655924406,1
617,340,42,0.0798655177825825,1
617,341,42,0.0831316962808986,1
617,342,42,0.0531629276682925,1
618,339,42,0.0348632104376066,1
618,340,42,0.0583833452475785,1
618,341,42,0.0608578333510469,1
618,342,42,0.0423107781166933,1
624,346,42,0.0357216006213759,1
625,345,42,0.0344877915766955,1
625,346,42,0.0396507558928392,1
626,345,42,0.037693317998,1
627,345,42,0.0402482196749179,1
627,346,42,0.0479622599215834,1
628,345,42,0.0420724300338635,1
636,344,42,0.0354597877662521,1
636,345,42,0.0394288975934469,1
637,344,42,0.0364680848070933,1
638,343,42,0.0348212380339284,1
638,344,42,0.0417799441403702,1
639,343,42,0.0383603392149363,1
639,344,42,0.0460662235068228,1
640,343,42,0.0376998089366263,1
643,311,42,0.0354510748621122,1
644,310,42,0.0368923898252688,1
644,311,42,0.0405140653099699,1
644,312,42,0.0367321050479044,1
644,323,42,0.036556100301926,1
644,324,42,0.0464417152668649,1
644,325,42,0.0409327395992652,1
645,323,42,0.0434342441206909,1
645,324,42,0.0531662751963891,1
645,325,42,0.0449093522050249,1
646,323,42,0.0352889880182288,1
646,324,42,0.0398832662132566,1
611,333,43,0.0367287254441902,1
612,336,43,0.0355936101590549,1
613,336,43,0.0351169810605958,1
615,339,43,0.0437154568925627,1
615,340,43,0.0555308547379956,1
615,341,43,0.0511343606333309,1
616,338,43,0.0346199197936934,1
616,339,43,0.070822526377355,1
616,340,43,0.10589024512117,1
616,341,43,0.095361376971974,1
616,342,43,0.0538796019413517,1
617,339,43,0.0755096838972375,1
617,340,43,0.124020993830004,1
617,341,43,0.118002966446431,1
617,342,43,0.064574680109282,1
618,339,43,0.0441852188928794,1
618,340,43,0.0733227157984571,1
618,341,43,0.0755124890557993,1
618,342,43,0.0468544613988254,1
624,346,43,0.0372906261141903,1
625,345,43,0.0372846425535159,1
626,345,43,0.0397352838932438,1
627,345,43,0.0407767791983531,1
627,346,43,0.0462578432466665,1
628,345,43,0.0421413167967156,1
628,346,43,0.0498531438257632,1
629,344,43,0.0357186234208649,1
637,343,43,0.035338148276226,1
637,344,43,0.0393062987508565,1
638,343,43,0.0376965313916955,1
638,344,43,0.0422675868395444,1
639,343,43,0.0408937123204803,1
640,342,43,0.0353829899897013,1
641,342,43,0.0359263946921781,1
643,310,43,0.0352821938192174,1
643,311,43,0.0384090737420083,1
644,310,43,0.0367127809462526,1
644,311,43,0.0406814300509393,1
644,312,43,0.035307142817819,1
644,323,43,0.0440184431768886,1
644,324,43,0.0581728125571821,1
644,325,43,0.0468271679641701,1
645,323,43,0.0515355974504853,1
645,324,43,0.0647558431977716,1
645,325,43,0.050578332717326,1
646,323,43,0.039176631608522,1
646,324,43,0.0450129506181053,1
646,325,43,0.0374418451556206,1
611,320,44,0.0356519178000129,1
611,321,44,0.0353556265718802,1
612,335,44,0.0345082529047913,1
612,336,44,0.0380964881001091,1
613,336,44,0.0401260815548356,1
613,337,44,0.0379695211415878,1
614,336,44,0.0356682122137793,1
614,339,44,0.0354196844962934,1
615,338,44,0.0429266066478595,1
615,339,44,0.0702419576978823,1
615,340,44,0.0808270339930631,1
615,341,44,0.0614837744496687,1
616,338,44,0.0573109115512627,1
616,339,44,0.115626314808727,1
616,340,44,0.145804058986291,1
616,341,44,0.1074019048298,1
616,342,44,0.0519174314349264,1
617,338,44,0.0490837838927305,1
617,339,44,0.107000901289864,1
617,340,44,0.150120177425054,1
617,341,44,0.123328370438252,1
617,342,44,0.0611162578545606,1
618,339,44,0.0491539536802887,1
618,340,44,0.0732331606739771,1
618,341,44,0.0701911790791764,1
618,342,44,0.0420119820744186,1
623,346,44,0.0345624519507248,1
624,346,44,0.0379186404640985,1
625,345,44,0.0393053014907441,1
626,345,44,0.0413338335341228,1
627,345,44,0.0407704807134327,1
628,344,44,0.0347101660019355,1
628,345,44,0.0414206709789982,1
629,344,44,0.0374765130663703,1
632,343,44,0.036322735603693,1
635,341,44,0.0356981416810124,1
635,342,44,0.0400069235512295,1
636,342,44,0.0360837693362321,1
636,343,44,0.0409612956468698,1
637,343,44,0.0403372499256546,1
638,342,44,0.0358020258586864,1
638,343,44,0.0415140431019786,1
639,342,44,0.0384698191299077,1
639,343,44,0.0438340462829468,1
640,342,44,0.0404853343044508,1
643,310,44,0.0358112286449869,1
643,311,44,0.0394456964692,1
644,311,44,0.0371920810688725,1
644,323,44,0.0435819056845273,1
644,324,44,0.0584863138121669,1
644,325,44,0.0471279731064958,1
645,323,44,0.0508281901149618,1
645,324,44,0.0644530202074992,1
645,325,44,0.0513423214423848,1
645,326,44,0.0349199988606741,1
646,323,44,0.0401376725166684,1
646,324,44,0.045940871993045,1
646,325,44,0.0396077016660566,1
612,335,45,0.0363790253967042,1
613,335,45,0.0365108795129694,1
613,336,45,0.0434101174242873,1
613,337,45,0.0419129092393922,1
613,338,45,0.0392306207049582,1
614,336,45,0.0392561616445036,1
614,337,45,0.0395490441092697,1
614,338,45,0.0404253033280354,1
614,339,45,0.0467607422759813,1
614,340,45,0.0513077322626967,1
615,337,45,0.0366055696522387,1
615,338,45,0.0538291499107528,1
615,339,45,0.0853996815579335,1
615,340,45,0.0921606735571781,1
615,341,45,0.0664218974339786,1
616,337,45,0.0347440116104871,1
616,338,45,0.0715609887426946,1
616,339,45,0.133703759672957,1
616,340,45,0.150916947431352,1
616,341,45,0.100356116337402,1
616,342,45,0.0516125497731939,1
617,338,45,0.0560977125489054,1
617,339,45,0.109758412979619,1
617,340,45,0.134563269587378,1
617,341,45,0.0991951306086492,1
617,342,45,0.0537465931028511,1
617,343,45,0.0360740824997016,1
618,339,45,0.0497382372994784,1
618,340,45,0.0644214111442873,1
618,341,45,0.0575732259524079,1
618,342,45,0.0397040655693742,1
619,345,45,0.035065791290791,1
622,346,45,0.0358453862618193,1
623,346,45,0.0366301366593937,1
623,347,45,0.0421890190720923,1
624,345,45,0.035338305738349,1
624,346,45,0.039899668517737,1
625,345,45,0.0405579622507071,1
626,345,45,0.0418139034715663,1
627,345,45,0.040906452172618,1
628,344,45,0.034593544888089,1
628,345,45,0.0414144862167222,1
629,344,45,0.0376711041747944,1
631,343,45,0.0351405449757079,1
633,342,45,0.036161246532684,1
634,341,45,0.0350520716743323,1
634,342,45,0.0401056610502532,1
635,341,45,0.0382244814783953,1
635,342,45,0.0424227861735286,1
635,343,45,0.0451835695762837,1
636,341,45,0.035992966178629,1
636,342,45,0.0410864955304551,1
636,343,45,0.0466718665714025,1
636,344,45,0.0500708847822353,1
637,342,45,0.0395113465106347,1
637,343,45,0.0477522200293127,1
637,344,45,0.0523238703340707,1
638,342,45,0.0393032282394578,1
638,343,45,0.0454458460698807,1
639,341,45,0.0367407100613305,1
639,342,45,0.0421232319802912,1
640,341,45,0.0378010862413749,1
640,342,45,0.0423830328193987,1
641,341,45,0.0352770063170538,1
642,310,45,0.0354941349208252,1
642,311,45,0.0380495760513128,1
643,310,45,0.0359192185017201,1
643,311,45,0.0394183301354137,1
643,312,45,0.0357791442794407,1
644,323,45,0.037565412098671,1
644,324,45,0.0478921163777124,1
644,325,45,0.041383308716366,1
645,323,45,0.0431811558335681,1
645,324,45,0.0526926349623019,1
645,325,45,0.0457177510807034,1
646,323,45,0.0384571667567272,1
646,324,45,0.0422924483591887,1
646,325,45,0.0387113456148502,1
612,334,46,0.0344996420594347,1
612,335,46,0.0370766671646358,1
613,335,46,0.0371163476196346,1
613,336,46,0.0426114170490003,1
613,337,46,0.0430209147956823,1
613,338,46,0.0426216929105094,1
614,336,46,0.0397917603080304,1
614,337,46,0.0424131838999901,1
614,338,46,0.0465707933842207,1
614,339,46,0.0548935122152817,1
614,340,46,0.059935536873057,1
615,337,46,0.0405054136411,1
615,338,46,0.0555416671371091,1
615,339,46,0.0814036952791129,1
615,340,46,0.0871067984166635,1
615,341,46,0.0647941414852462,1
616,337,46,0.0382759366010371,1
616,338,46,0.0684946821658539,1
616,339,46,0.115849934351125,1
616,340,46,0.124682416393678,1
616,341,46,0.082000739162197,1
616,342,46,0.0486098433142236,1
617,338,46,0.0513027109705517,1
617,339,46,0.0882475415147138,1
617,340,46,0.0990545927478965,1
617,341,46,0.0692234576946631,1
617,342,46,0.0436292405482836,1
617,343,46,0.0368092235806318,1
618,339,46,0.0442767802014451,1
618,340,46,0.0512727231840138,1
618,341,46,0.0432979868969119,1
618,344,46,0.034892235955615,1
619,345,46,0.0362664428947165,1
620,345,46,0.0346660153722223,1
621,345,46,0.034893699770166,1
621,346,46,0.0385396535814632,1
622,346,46,0.0387888840465722,1
623,346,46,0.0390852802494536,1
623,347,46,0.0445807899895706,1
624,345,46,0.0358344718039225,1
624,346,46,0.0408176056276916,1
624,347,46,0.0469182364746102,1
625,345,46,0.0399944461359635,1
625,346,46,0.0440171484883216,1
626,345,46,0.0411047348930373,1
627,345,46,0.04085879363672,1
628,344,46,0.0354929801985898,1
629,344,46,0.0400215033774342,1
630,343,46,0.036108190545125,1
631,343,46,0.039068656331615,1
632,342,46,0.036741745228991,1
633,342,46,0.0396288744896711,1
634,341,46,0.0358915868150969,1
634,342,46,0.0408559126630619,1
634,343,46,0.0447319448797657,1
635,341,46,0.0386045454719352,1
635,342,46,0.0440214757807392,1
635,343,46,0.0465917591743032,1
635,344,46,0.0483106157090932,1
636,341,46,0.0402537600088757,1
636,342,46,0.047466470015526,1
636,343,46,0.0516837809720998,1
636,344,46,0.0543775729894093,1
636,345,46,0.0506256588331865,1
637,341,46,0.0388515160639825,1
637,342,46,0.0465294391651736,1
637,343,46,0.0534347481161232,1
637,344,46,0.0575733892464614,1
637,345,46,0.0521266519409644,1
638,341,46,0.0374466331705463,1
638,342,46,0.0429263966983622,1
638,343,46,0.0479567779069304,1
638,344,46,0.0510419303671233,1
639,340,46,0.0350193341325722,1
639,341,46,0.0403429273099787,1
639,342,46,0.0439744675050899,1
640,340,46,0.0349473476986689,1
640,341,46,0.0401176777430112,1
642,310,46,0.0352903031185525,1
642,311,46,0.0397208790249535,1
642,312,46,0.0368385057035814,1
643,311,46,0.0369627637303939,1
643,312,46,0.0363347785401381,1
644,324,46,0.0370071184776739,1
644,325,46,0.0349254750433966,1
645,323,46,0.0363760948516371,1
645,324,46,0.0420919640850126,1
645,325,46,0.04005703149793,1
646,323,46,0.0364306700570867,1
646,324,46,0.038195505531796,1
646,325,46,0.0363779231618432,1
647,323,46,0.0350529902033832,1
612,333,47,0.0345999658435496,1
612,334,47,0.0359025129368548,1
613,335,47,0.0372934254408216,1
613,336,47,0.0406405890417746,1
613,337,47,0.0427964087998512,1
614,335,47,0.03451325961711,1
614,336,47,0.0388679883516286,1
614,337,47,0.0434256391072649,1
614,338,47,0.0495126582284387,1
614,339,47,0.0593690814653504,1
614,340,47,0.0646999674718245,1
615,336,47,0.0350594169907743,1
615,337,47,0.0418477461641527,1
615,338,47,0.0532737751709619,1
615,339,47,0.0717595426478812,1
615,340,47,0.0790137643357016,1
615,341,47,0.0648892194478925,1
616,337,47,0.0388304365512557,1
616,338,47,0.0572797923702113,1
616,339,47,0.0836259873808222,1
616,340,47,0.091225051118037,1
616,341,47,0.0682313705045964,1
616,342,47,0.0493741732072156,1
617,338,47,0.0449652308469372,1
617,339,47,0.0638381656087234,1
617,340,47,0.0704936813132724,1
617,341,47,0.0542681834693604,1
617,342,47,0.0417986558893213,1
617,343,47,0.0388619814632323,1
618,339,47,0.038765996635396,1
618,340,47,0.043235868089384,1
618,341,47,0.0376404428002859,1
618,344,47,0.0361205921452948,1
619,345,47,0.0364000670018829,1
620,345,47,0.0345270258890125,1
621,345,47,0.0348619973960664,1
622,345,47,0.0357542973396226,1
622,346,47,0.0407593067346293,1
623,345,47,0.0359509383716112,1
623,346,47,0.0419514495519818,1
623,347,47,0.0457269946905172,1
624,345,47,0.0360602404127029,1
624,346,47,0.0419333035002874,1
624,347,47,0.0461142990257504,1
625,345,47,0.038216599624349,1
625,346,47,0.0432128290480153,1
626,345,47,0.0394337497596078,1
627,345,47,0.0409021540398529,1
628,344,47,0.0360130046917647,1
629,344,47,0.0407969722576467,1
630,343,47,0.0384456224503383,1
631,342,47,0.0360843408654193,1
631,343,47,0.0419008837987385,1
632,342,47,0.0395794780384894,1
633,341,47,0.0364647810184753,1
633,342,47,0.0420548846710087,1
634,341,47,0.0368171287624,1
634,342,47,0.0419643993536168,1
634,343,47,0.0458107295483762,1
635,340,47,0.0345279006785848,1
635,341,47,0.0409478588790395,1
635,342,47,0.0475397015665872,1
635,343,47,0.0495858606198474,1
635,344,47,0.049160963660728,1
636,340,47,0.0371313823364169,1
636,341,47,0.0479653158531559,1
636,342,47,0.0561932395701989,1
636,343,47,0.0568758903608267,1
636,344,47,0.0560292573489089,1
636,345,47,0.0528674820700797,1
637,340,47,0.0378489284830832,1
637,341,47,0.048329359533662,1
637,342,47,0.055892819335285,1
637,343,47,0.0580781719893219,1
637,344,47,0.0590327365386681,1
637,345,47,0.0542666263439217,1
638,340,47,0.037033513795035,1
638,341,47,0.0427604053770212,1
638,342,47,0.0466018105064887,1
638,343,47,0.0488854836765199,1
638,344,47,0.0509945634277493,1
639,340,47,0.0381921813314213,1
639,341,47,0.0418173413945853,1
640,340,47,0.0367397215491138,1
640,341,47,0.0401606211631146,1
642,311,47,0.0377350892000766,1
642,312,47,0.0369048614086044,1
643,312,47,0.0354830892444925,1
645,324,47,0.0348460616460246,1
647,323,47,0.0356529150601253,1
613,334,48,0.0351341094404211,1
613,335,48,0.0374652253649226,1
613,336,48,0.0390755613373055,1
613,337,48,0.0408103390423112,1
613,338,48,0.043222399245936,1
614,335,48,0.0348940788456473,1
614,336,48,0.0373408886070485,1
614,337,48,0.0416685105286874,1
614,338,48,0.0474042141576318,1
614,339,48,0.0570046652177974,1
615,336,48,0.0349647735069488,1
615,337,48,0.040978470682139,1
615,338,48,0.0486506347519792,1
615,339,48,0.0618242250554103,1
615,340,48,0.0706737013433875,1
615,341,48,0.064880366577421,1
616,337,48,0.0376079531155712,1
616,338,48,0.0459497802668561,1
616,339,48,0.0579356162806224,1
616,340,48,0.0668747118443149,1
616,341,48,0.0606361266818471,1
616,342,48,0.0520927509290732,1
617,338,48,0.0397402643618753,1
617,339,48,0.0479154266038485,1
617,340,48,0.0548770953309751,1
617,341,48,0.0497109613606146,1
617,342,48,0.0440867992340669,1
617,343,48,0.042198297673489,1
618,340,48,0.0391643612267881,1
618,341,48,0.0367999624750265,1
618,342,48,0.0351731717107889,1
618,343,48,0.0360608790090906,1
620,345,48,0.0350711420870081,1
621,345,48,0.0354442864950312,1
622,345,48,0.0383070032947141,1
623,345,48,0.0395848142548804,1
623,346,48,0.0461522765570485,1
624,345,48,0.0378843224691778,1
624,346,48,0.0443253689302551,1
625,345,48,0.0376637763541439,1
625,346,48,0.0431447849991177,1
626,345,48,0.0395831113311797,1
627,344,48,0.0350404544688124,1
628,344,48,0.0377137210067909,1
629,343,48,0.0355160454836457,1
629,344,48,0.0424484612474751,1
630,342,48,0.0349738334109524,1
630,343,48,0.0407554255848936,1
631,342,48,0.0390211610897704,1
631,343,48,0.044287283508243,1
632,341,48,0.0376948663755429,1
632,342,48,0.0424726112716007,1
633,340,48,0.0355225043466544,1
633,341,48,0.039719251916349,1
633,342,48,0.044325780081354,1
633,343,48,0.0481145637020833,1
634,340,48,0.0361726508727414,1
634,341,48,0.0392586139712713,1
634,342,48,0.0438274824451894,1
635,340,48,0.0372462451232231,1
635,341,48,0.0436790131589813,1
635,342,48,0.0499587600867903,1
635,343,48,0.0510047634741622,1
635,344,48,0.0495952208682709,1
636,340,48,0.0410601031290593,1
636,341,48,0.0540258142704633,1
636,342,48,0.0617337951413581,1
636,343,48,0.0592094323684086,1
636,344,48,0.055262399314053,1
636,345,48,0.0543090128146641,1
637,340,48,0.0424872581650059,1
637,341,48,0.0559455458187718,1
637,342,48,0.0622975212055991,1
637,343,48,0.0596854228704799,1
637,344,48,0.0569473315092299,1
637,345,48,0.0553776790838886,1
638,340,48,0.0402871944663284,1
638,341,48,0.0473629561654376,1
638,342,48,0.0499906899061787,1
638,343,48,0.0494771592675954,1
638,344,48,0.0494752230666754,1
639,340,48,0.0394900308047234,1
640,340,48,0.0371521469248977,1
641,311,48,0.0351210430001765,1
642,311,48,0.0363586223879133,1
642,312,48,0.0367905614030897,1
643,312,48,0.0360304042563575,1
646,323,48,0.034658544669275,1
647,323,48,0.0378431286282189,1
647,324,48,0.0370695288817259,1
648,323,48,0.0366985510358768,1
648,324,48,0.0376549876349077,1
613,334,49,0.0358605551130027,1
613,335,49,0.0382562654995216,1
614,335,49,0.0358509032680552,1
614,336,49,0.0377915072955584,1
614,337,49,0.0417571791997341,1
614,338,49,0.0466590509041685,1
614,339,49,0.0533651090342388,1
615,336,49,0.0353250876679118,1
615,337,49,0.0411892716413376,1
615,338,49,0.0475285800751582,1
615,339,49,0.0565498329595144,1
615,340,49,0.0641735191072238,1
616,337,49,0.0372573986902697,1
616,338,49,0.0421790289751768,1
616,339,49,0.0481827652131039,1
616,340,49,0.0558295545534174,1
616,341,49,0.0568662793393925,1
617,338,49,0.0382957185092317,1
617,339,49,0.0426084427644545,1
617,340,49,0.0485590734434134,1
617,341,49,0.0487695040750264,1
617,342,49,0.0468708957789234,1
618,340,49,0.0395336915522761,1
618,341,49,0.0396249875080049,1
618,342,49,0.0382780623396977,1
618,343,49,0.0386020669014804,1
622,345,49,0.0396089467832145,1
623,345,49,0.0413053620495102,1
624,345,49,0.0385073096950106,1
625,345,49,0.0382055102085377,1
626,345,49,0.0411523846810396,1
627,344,49,0.0378258865257492,1
627,345,49,0.0455507041799452,1
628,344,49,0.0394290142320565,1
628,345,49,0.0467843120230239,1
629,343,49,0.0358333695690614,1
629,344,49,0.0426141376445701,1
630,342,49,0.0352956305870477,1
630,343,49,0.0410716066119349,1
630,344,49,0.0473929206242536,1
631,341,49,0.0355028536568957,1
631,342,49,0.0399649453156208,1
631,343,49,0.044346897501629,1
632,340,49,0.0356904318689154,1
632,341,49,0.0398935858142443,1
632,342,49,0.043196960365174,1
632,343,49,0.0460949282686547,1
633,340,49,0.0387697144910782,1
633,341,49,0.0419106493663304,1
633,342,49,0.0445929349847992,1
634,339,49,0.0353966075473765,1
634,340,49,0.0391210445631338,1
634,341,49,0.0418026303499448,1
634,342,49,0.044898207385874,1
635,339,49,0.0353100996065733,1
635,340,49,0.0394465420991199,1
635,341,49,0.0445988310665164,1
635,342,49,0.0495319560864033,1
635,343,49,0.0504027974417514,1
635,344,49,0.0496515923083089,1
636,339,49,0.0360409163110511,1
636,340,49,0.0431917670310799,1
636,341,49,0.0532511181210397,1
636,342,49,0.059336218537085,1
636,343,49,0.0561936303095411,1
636,344,49,0.0522747596474827,1
636,345,49,0.0510539791354989,1
637,339,49,0.0368343154615301,1
637,340,49,0.0457022031540386,1
637,341,49,0.0569099313390495,1
637,342,49,0.0612740757253312,1
637,343,49,0.0565287971862662,1
637,344,49,0.0529498697519974,1
638,339,49,0.0366245525859573,1
638,340,49,0.0442207032738965,1
638,341,49,0.0508950998533806,1
638,342,49,0.0521662390850755,1
638,343,49,0.0490458121933629,1
639,339,49,0.0360745082306268,1
639,341,49,0.0446015633259472,1
639,342,49,0.0453167941962121,1
640,311,49,0.0359235574579987,1
640,312,49,0.0345646360086902,1
646,323,49,0.0346646536164547,1
646,324,49,0.0378594347058463,1
646,325,49,0.0360474422412603,1
647,323,49,0.0396233166599218,1
647,324,49,0.0458836578390523,1
647,325,49,0.0427355788489598,1
647,326,49,0.0366871087882713,1
648,323,49,0.0375847012087399,1
648,324,49,0.0442579926373977,1
648,325,49,0.041385874765778,1
649,324,49,0.0359859911897726,1
614,335,50,0.0358226475648704,1
614,336,50,0.0389072489076328,1
614,337,50,0.0439556886889382,1
614,338,50,0.0493804658602055,1
615,336,50,0.0370108363333561,1
615,337,50,0.045019082893007,1
615,338,50,0.0523988572962069,1
615,339,50,0.0565839147612506,1
616,337,50,0.0412309786921789,1
616,338,50,0.0464356325633723,1
616,339,50,0.0481320740733552,1
616,340,50,0.0520247389557933,1
617,337,50,0.0373101485014785,1
617,338,50,0.0407783975590618,1
617,339,50,0.0418812564367017,1
617,340,50,0.045361038136813,1
617,341,50,0.0482590031243285,1
618,339,50,0.0358751466030685,1
618,340,50,0.0398402294822655,1
618,341,50,0.0417826880636619,1
618,342,50,0.0413616401786605,1
622,344,50,0.0344832397549544,1
627,344,50,0.038550095652991,1
628,344,50,0.0392778739216877,1
629,343,50,0.0351375007079964,1
629,344,50,0.0414437304321237,1
630,343,50,0.0400420434365915,1
631,341,50,0.0360510288785067,1
631,342,50,0.0397752501128362,1
631,343,50,0.0440346909352112,1
632,340,50,0.0381065481801904,1
632,341,50,0.041556452900443,1
632,342,50,0.0436327105469203,1
633,339,50,0.0369163444797232,1
633,340,50,0.0415125442958448,1
633,341,50,0.0439451562224879,1
633,342,50,0.0444755294763029,1
634,339,50,0.0379182526407214,1
634,340,50,0.0411006146341518,1
634,341,50,0.0428500129888756,1
635,339,50,0.0375075710121516,1
635,340,50,0.0407204194221761,1
635,341,50,0.0433514831952223,1
635,342,50,0.0463327631416022,1
635,343,50,0.050505019519238,1
636,339,50,0.0376814500194693,1
636,340,50,0.0435608378356614,1
636,341,50,0.0491230386168042,1
636,342,50,0.0527894450083014,1
636,343,50,0.0529186455961973,1
636,344,50,0.051481255522255,1
637,339,50,0.0376831296154481,1
637,340,50,0.0466440307672124,1
637,341,50,0.0546816965001792,1
637,342,50,0.056415786037388,1
637,343,50,0.0522340352769276,1
637,344,50,0.0492601298066421,1
638,339,50,0.0365425352316252,1
638,340,50,0.0456282776032501,1
638,341,50,0.0524343329293283,1
638,342,50,0.0519652241052256,1
638,343,50,0.0471798364642713,1
639,311,50,0.0364376421299778,1
639,339,50,0.0349525089571454,1
639,341,50,0.0449053748284363,1
639,342,50,0.0451490357999351,1
640,312,50,0.0363534815411935,1
646,324,50,0.0410019529502243,1
646,325,50,0.0396833155607196,1
646,326,50,0.0354252423260426,1
647,323,50,0.0426576380140345,1
647,324,50,0.0541704519783448,1
647,325,50,0.0507864568204334,1
647,326,50,0.0398991057364455,1
648,324,50,0.0496328368198791,1
615,336,51,0.0385382218425298,1
615,337,51,0.0468320026345396,1
615,338,51,0.0544211783336224,1
616,336,51,0.0353577552265061,1
616,337,51,0.0431922219216575,1
616,338,51,0.0494843850294624,1
616,339,51,0.0491257854560612,1
616,340,51,0.0504307673803426,1
617,337,51,0.0381764876064946,1
617,338,51,0.0423229085320956,1
617,339,51,0.0427636479303692,1
617,340,51,0.0457427875582622,1
617,341,51,0.049458444602679,1
618,338,51,0.0357036878469007,1
618,339,51,0.0374423321218159,1
618,340,51,0.0411294651942457,1
618,341,51,0.0441989064337204,1
618,342,51,0.0445238120287625,1
619,340,51,0.0346637146756472,1
619,341,51,0.0367525226365215,1
619,342,51,0.0365609349722955,1
623,344,51,0.0367923022343385,1
624,344,51,0.0352084082347605,1
625,344,51,0.0349523135874742,1
626,344,51,0.0362477311457653,1
629,343,51,0.0360098146257911,1
630,342,51,0.0349106765197988,1
630,343,51,0.0399535293117025,1
631,340,51,0.0353596797635651,1
631,341,51,0.0373553342988522,1
631,342,51,0.040082531613962,1
632,339,51,0.0377340744441727,1
632,340,51,0.0421120929930708,1
632,341,51,0.0437500110806679,1
632,342,51,0.0430639836022911,1
633,339,51,0.0408879853647471,1
633,340,51,0.045819827359928,1
633,341,51,0.0471066690644454,1
634,338,51,0.0348885793352028,1
634,339,51,0.0402466567175488,1
634,340,51,0.043505743588399,1
635,338,51,0.0345620058080429,1
635,339,51,0.0396044970202568,1
635,340,51,0.0423455830778092,1
636,339,51,0.0394147726578197,1
636,342,51,0.0462883500750173,1
636,343,51,0.0490571203065673,1
637,339,51,0.0391246486961716,1
637,341,51,0.0506098659654416,1
637,342,51,0.0498472010886021,1
637,343,51,0.0471856363191356,1
638,340,51,0.0466192275668729,1
638,341,51,0.0525904187167457,1
638,342,51,0.050308057731073,1
638,343,51,0.0453287846452829,1
639,341,51,0.0454843484749222,1
639,342,51,0.0446632243269322,1
646,324,51,0.0415114362290532,1
646,326,51,0.0358642059014844,1
647,323,51,0.0430238045172361,1
647,324,51,0.0541402367465181,1
647,325,51,0.0516853439294689,1
648,324,51,0.0482691302716103,1
616,336,52,0.0360664514186661,1
616,337,52,0.0435436423886356,1
616,338,52,0.0501455568201254,1
616,339,52,0.0497540709907367,1
617,337,52,0.0383496667821544,1
617,338,52,0.0429931548065885,1
617,339,52,0.0435888340179398,1
617,340,52,0.0468023793436568,1
618,338,52,0.0377550314863594,1
618,339,52,0.038422539669491,1
618,340,52,0.0413575257517055,1
618,341,52,0.0457515500338112,1
619,340,52,0.0359285670862826,1
619,341,52,0.0390689362642781,1
619,342,52,0.0397506451981331,1
620,342,52,0.0345085328374544,1
622,343,52,0.0346708879501399,1
623,343,52,0.0362735111944605,1
624,343,52,0.0356171594943408,1
627,343,52,0.0352076325880064,1
630,342,52,0.0349822663824293,1
631,339,52,0.0349246323294419,1
631,340,52,0.0375901394839143,1
631,341,52,0.0377397226688444,1
632,339,52,0.0416103311902,1
632,340,52,0.0460140568886623,1
632,341,52,0.0448983006967617,1
633,338,52,0.0360535774321273,1
633,339,52,0.0437310543906365,1
633,340,52,0.0492562049174278,1
634,338,52,0.0350979456395029,1
634,339,52,0.0401898099751765,1
635,338,52,0.0349136508043445,1
635,339,52,0.0390436140221257,1
636,338,52,0.0350769302780114,1
637,338,52,0.0354762862975854,1
637,341,52,0.0469936141760887,1
637,342,52,0.04583552400082,1
638,340,52,0.0451755098483577,1
638,341,52,0.0509348094680318,1
638,342,52,0.0486296077266267,1
638,343,52,0.043641105610849,1
639,341,52,0.0447682719747374,1
639,342,52,0.0434323924827629,1
645,330,52,0.036559185393151,1
647,324,52,0.0488874052976137,1
617,336,53,0.034914624736735,1
617,337,53,0.0387404586118158,1
617,338,53,0.0431996926246048,1
617,339,53,0.0451498026987935,1
617,340,53,0.0480225649987314,1
618,337,53,0.0354353636413939,1
618,338,53,0.038875931440945,1
618,339,53,0.0399687856418431,1
618,340,53,0.0424008785266733,1
618,341,53,0.0464833260908533,1
619,338,53,0.0355002934394141,1
619,339,53,0.0358898634796395,1
619,340,53,0.0370097807539389,1
619,341,53,0.0400197975377683,1
620,341,53,0.0354875535872764,1
620,342,53,0.0375497941888405,1
621,342,53,0.0351024770494873,1
622,342,53,0.0348351471881277,1
623,342,53,0.0369462477032691,1
623,343,53,0.0397776353724033,1
624,342,53,0.0378855879980924,1
624,343,53,0.040004739493264,1
625,342,53,0.0361846850612908,1
625,343,53,0.0376060664860603,1
626,342,53,0.0347011964928543,1
631,339,53,0.0374531474368945,1
631,340,53,0.0390085991115124,1
632,338,53,0.0380218685495933,1
632,339,53,0.044320467192685,1
632,340,53,0.0464894962733031,1
633,338,53,0.0401230314551936,1
633,339,53,0.0457420119115081,1
634,338,53,0.0375369172863365,1
635,338,53,0.0366589463959743,1
638,341,53,0.0473184235442778,1
638,342,53,0.0456955080978454,1
618,337,54,0.035353372530749,1
618,338,54,0.0384229041651461,1
618,339,54,0.040145764320212,1
619,338,54,0.0365694145992162,1
619,339,54,0.0369934309368329,1
619,340,54,0.0382982145754779,1
619,341,54,0.0406800187237627,1
620,341,54,0.0369898792911694,1
621,341,54,0.0358407615409472,1
621,342,54,0.0384201048385148,1
622,326,54,0.0352754929310937,1
622,341,54,0.0361307455362637,1
622,342,54,0.0383616368194685,1
623,341,54,0.0363183820675883,1
623,342,54,0.0404489430582438,1
624,341,54,0.0353429508709778,1
624,342,54,0.0414196620550249,1
625,342,54,0.0395260896308929,1
626,342,54,0.0372689167529715,1
628,341,54,0.035050881960514,1
629,341,54,0.0344962857834424,1
631,338,54,0.036025569585988,1
631,339,54,0.0388603106151492,1
631,340,54,0.039735444271332,1
632,338,54,0.0409450974599563,1
632,339,54,0.0458836811667743,1
633,337,54,0.0357217085120898,1
633,338,54,0.0437975879695392,1
634,338,54,0.0402656425672326,1
619,338,55,0.035034785832384,1
619,339,55,0.0368103083197014,1
620,341,55,0.0375264722988434,1
621,341,55,0.037038584658589,1
621,342,55,0.0409249131485585,1
622,327,55,0.0344848231240802,1
622,340,55,0.0355307506963558,1
622,341,55,0.0377864335160392,1
622,342,55,0.0410065543433746,1
623,340,55,0.0358583039878367,1
623,341,55,0.0382160864144666,1
623,342,55,0.0428028734947904,1
624,340,55,0.0345800964563977,1
624,341,55,0.0380170076355366,1
624,342,55,0.0443637692765131,1
625,341,55,0.0381234053752483,1
625,342,55,0.044078958203534,1
626,340,55,0.0353630739471056,1
626,341,55,0.0374888475993395,1
626,342,55,0.0413497401245122,1
627,340,55,0.035976604697662,1
627,341,55,0.0379788376505326,1
628,340,55,0.0354534513737835,1
628,341,55,0.0386103774024171,1
629,340,55,0.0357232510577022,1
629,341,55,0.0381805932855538,1
630,337,55,0.0364731148471339,1
630,338,55,0.0365180761151841,1
630,339,55,0.0354146602881832,1
630,340,55,0.0365180090479835,1
631,337,55,0.0360214959825464,1
631,338,55,0.0380065276564607,1
631,339,55,0.0392401471634003,1
632,337,55,0.0361290513604587,1
632,338,55,0.0416446987565298,1
632,339,55,0.0440690993250544,1
633,337,55,0.037580248529817,1
633,338,55,0.0443261708206963,1
634,337,55,0.0361124070308634,1
621,341,56,0.0380650277511246,1
622,340,56,0.0368651342981617,1
622,341,56,0.038846681393613,1
622,342,56,0.0424197856452956,1
623,340,56,0.0380317361759687,1
623,341,56,0.0392434888595665,1
623,342,56,0.0436662091556083,1
624,340,56,0.0378018648040943,1
624,341,56,0.0395055728994576,1
624,342,56,0.0474571768343031,1
625,339,56,0.0344666741564206,1
625,340,56,0.0379976018868581,1
625,341,56,0.0411613979295994,1
625,342,56,0.0510185734855433,1
626,339,56,0.0350677362396067,1
626,340,56,0.0383026526745746,1
626,341,56,0.041361380657754,1
627,339,56,0.0360271208794962,1
627,340,56,0.03858021757393,1
627,341,56,0.0424702143481726,1
628,339,56,0.0354819111945352,1
628,340,56,0.037852048565891,1
628,341,56,0.0427095626070801,1
629,338,56,0.0346554041747105,1
629,339,56,0.035249380462361,1
629,340,56,0.037855993866862,1
630,337,56,0.0353836023424019,1
630,338,56,0.0359681513144285,1
630,339,56,0.0353904956842315,1
630,340,56,0.0372510768776273,1
631,337,56,0.0358474449332795,1
631,338,56,0.0373351616513153,1
631,339,56,0.0370409844979823,1
632,337,56,0.035721481066801,1
632,338,56,0.039699682873617,1
633,337,56,0.0365004636851288,1
634,337,56,0.0357669759564903,1
641,325,56,0.0354125549612792,1
621,340,57,0.0345868614957567,1
621,341,57,0.0388671427217088,1
622,339,57,0.0345784022805927,1
622,340,57,0.0372926527100328,1
622,341,57,0.0404991268200405,1
623,339,57,0.0362244005078725,1
623,340,57,0.0393668254413628,1
623,341,57,0.0413157020622546,1
624,339,57,0.0370512341158042,1
624,340,57,0.0403504271725784,1
624,341,57,0.0414899047417141,1
625,339,57,0.0374010362220736,1
625,340,57,0.0408377257878541,1
625,341,57,0.0440011952424884,1
626,339,57,0.0374317384200955,1
626,340,57,0.0404481032602544,1
626,341,57,0.0458137971438097,1
627,338,57,0.0345620816231392,1
627,339,57,0.0378620444947369,1
627,340,57,0.0404101957121221,1
628,338,57,0.0356807246206283,1
628,339,57,0.0374787437797796,1
628,340,57,0.0396556022270696,1
629,338,57,0.0355945782595149,1
629,339,57,0.0366942120795983,1
629,340,57,0.039339403704237,1
630,337,57,0.0353810071333374,1
630,338,57,0.0359356732935748,1
630,339,57,0.0356902627429314,1
631,337,57,0.0359017664497531,1
631,338,57,0.0363030236786642,1
632,337,57,0.0347477294661693,1
632,338,57,0.0364340350809747,1
641,325,57,0.0365365400070898,1
621,340,58,0.035017395015687,1
622,338,58,0.0347361239245104,1
622,339,58,0.0360396012107274,1
622,340,58,0.0379211481942057,1
623,338,58,0.0356134212269019,1
623,339,58,0.0378386730333307,1
623,340,58,0.0417035487670226,1
624,338,58,0.0351993483307569,1
624,339,58,0.0389404792475186,1
624,340,58,0.0434888164101753,1
624,341,58,0.0440115964905029,1
625,338,58,0.0347654381230776,1
625,339,58,0.0391971658357488,1
625,340,58,0.0432260704461744,1
625,341,58,0.0477346688345274,1
626,338,58,0.0348207219080807,1
626,339,58,0.0385934822998111,1
626,340,58,0.0419782531044766,1
627,338,58,0.0366790169847277,1
627,339,58,0.038739105603944,1
627,340,58,0.0413922315700033,1
628,337,58,0.035321640996997,1
628,338,58,0.0382953977530552,1
628,339,58,0.0388688806369924,1
629,337,58,0.0359987281259451,1
629,338,58,0.0378054106178273,1
629,339,58,0.0377401833913525,1
630,337,58,0.0357999321956434,1
630,338,58,0.0363280543242925,1
631,337,58,0.0358353465934948,1
631,338,58,0.0354270589723877,1
641,325,58,0.034917613601107,1
622,338,59,0.0363032423760572,1
622,339,59,0.0373580490624915,1
623,338,59,0.0373464581006587,1
623,339,59,0.0392663908505689,1
624,338,59,0.0375272479455975,1
624,339,59,0.0409393996638755,1
624,340,59,0.0461478442898822,1
625,338,59,0.0373136739034548,1
625,339,59,0.0413108207364413,1
625,340,59,0.046295208425264,1
626,338,59,0.0370662688325865,1
626,339,59,0.0407933360489912,1
627,337,59,0.0358339265184224,1
627,338,59,0.0386812616014593,1
627,339,59,0.0408622257278086,1
628,337,59,0.0375984558167815,1
628,338,59,0.0402755247734342,1
629,336,59,0.0352996283753931,1
629,337,59,0.0376691563100135,1
629,338,59,0.0398904336558189,1
630,336,59,0.0347255739622686,1
630,337,59,0.0364060272348354,1
631,337,59,0.0355283829325802,1
624,337,60,0.0370628279936022,1
625,337,60,0.0366669857121436,1
626,337,60,0.0375989486149072,1
627,336,60,0.035582972717856,1
627,337,60,0.0389062574794508,1
628,336,60,0.036355496473175,1
628,337,60,0.039268437858168,1
629,335,60,0.0347723139691158,1
629,336,60,0.0376258804698726,1
630,335,60,0.0350856898375952,1
630,336,60,0.0375004064855546,1
