x,y,z,signal,cytoplasm.p
680,299,1,0.0392624688773198,1
680,300,1,0.0379809663051585,1
681,299,1,0.0354583997667974,1
681,300,1,0.0352586269881401,1
683,281,1,0.036238481704021,1
684,281,1,0.0386586016355719,1
685,280,1,0.0425861735379094,1
685,281,1,0.0370698613017634,1
686,280,1,0.0357442343435761,1
699,279,1,0.0347762096986777,1
700,278,1,0.0363790253967042,1
700,279,1,0.0345614459427166,1
701,278,1,0.0361125178375426,1
707,309,1,0.0375590377986543,1
708,309,1,0.0431657099656868,1
708,310,1,0.0353345674709101,1
680,299,2,0.0413240125631913,1
680,300,2,0.0447062289823057,1
680,301,2,0.0353308846068108,1
681,299,2,0.035899357862464,1
681,300,2,0.0400148170691367,1
683,281,2,0.0386160577027065,1
683,282,2,0.0353117354630735,1
683,283,2,0.0354597994301131,1
684,281,2,0.042607541731195,1
684,282,2,0.0361182243815191,1
684,283,2,0.0347305048594911,1
685,280,2,0.0439919837082922,1
685,281,2,0.0397518524077428,1
686,280,2,0.0349321351080069,1
699,278,2,0.0355816226259494,1
699,279,2,0.034758967596208,1
700,278,2,0.0373560807859539,1
700,279,2,0.0357266044177293,1
701,277,2,0.0374367567962752,1
701,278,2,0.0386861750028903,1
701,279,2,0.0345107722987594,1
701,281,2,0.0347144116473263,1
702,278,2,0.0353448520803149,1
707,308,2,0.0402885591380612,1
707,309,2,0.0428652605711205,1
707,310,2,0.0377762101419044,1
708,308,2,0.0473826710064316,1
708,309,2,0.0490976988788604,1
708,310,2,0.0403797763627285,1
709,309,2,0.0477048239302863,1
709,310,2,0.0374535235964106,1
680,300,3,0.0387624304099063,1
683,281,3,0.0359709185654421,1
683,283,3,0.0357610623789816,1
683,284,3,0.0345275857543387,1
684,281,3,0.0419719721153476,1
684,282,3,0.0357233502005204,1
684,283,3,0.0369313704486098,1
684,284,3,0.0360997167501348,1
685,280,3,0.0418065698189853,1
685,281,3,0.0396659888952579,1
685,282,3,0.034813875221695,1
685,283,3,0.0344788278995449,1
686,282,3,0.0349318610072742,1
686,283,3,0.0346535087973038,1
700,278,3,0.0346848058522349,1
700,279,3,0.0358264441516141,1
700,280,3,0.0354788377671712,1
701,278,3,0.0375433382417971,1
701,279,3,0.0361223971277789,1
701,280,3,0.0356760794879994,1
701,281,3,0.0358233240688063,1
705,288,3,0.0386860146248021,1
705,289,3,0.0433529411778428,1
705,290,3,0.0365362425786352,1
705,309,3,0.0365981805963182,1
705,310,3,0.0383396854331347,1
706,287,3,0.0345148021627224,1
706,288,3,0.0505227894114164,1
706,289,3,0.0580149421990372,1
706,290,3,0.0466254910602104,1
706,308,3,0.0351924141654139,1
706,309,3,0.04555076249925,1
706,310,3,0.0487508302336234,1
706,311,3,0.0395552492833024,1
707,287,3,0.0363566249517233,1
707,288,3,0.0490028541934333,1
707,289,3,0.0556470734486388,1
707,290,3,0.046905310000697,1
707,291,3,0.0345995313647287,1
707,308,3,0.0410280158475479,1
707,309,3,0.0508469922588354,1
707,310,3,0.0506766357375288,1
707,311,3,0.0397536398944355,1
708,288,3,0.0397051444765133,1
708,308,3,0.046240350371186,1
708,309,3,0.0519882369029071,1
708,310,3,0.0465144627676961,1
708,311,3,0.0351752099704923,1
709,309,3,0.0475420401707104,1
709,310,3,0.0400275889968921,1
684,281,4,0.0390583979658973,1
684,282,4,0.0348397777409303,1
684,283,4,0.0365767511677624,1
684,284,4,0.0350340305973866,1
685,280,4,0.0380868712467445,1
685,281,4,0.0390245348615542,1
685,282,4,0.0368159011410335,1
685,283,4,0.036525663456741,1
686,281,4,0.0354152784728143,1
686,282,4,0.0391171604974329,1
686,283,4,0.03886304287458,1
687,282,4,0.0364111505857638,1
687,283,4,0.0362961565805217,1
700,280,4,0.0350038007857337,1
705,287,4,0.0370481227808921,1
705,288,4,0.0553692402804813,1
705,289,4,0.0674496877024555,1
705,290,4,0.0550430487447679,1
705,291,4,0.0411202303323277,1
705,309,4,0.0417568438637314,1
705,310,4,0.0478494587222026,1
705,311,4,0.0376429213707407,1
706,287,4,0.0488865421719024,1
706,288,4,0.0804548518535695,1
706,289,4,0.100460904464301,1
706,290,4,0.0799413911981519,1
706,291,4,0.0532385678066427,1
706,292,4,0.0366676272244966,1
706,308,4,0.034601762078138,1
706,309,4,0.0529462072996548,1
706,310,4,0.0638594404911213,1
706,311,4,0.0506878505398455,1
707,287,4,0.0478985169214163,1
707,288,4,0.0714382557657031,1
707,289,4,0.0885332886125352,1
707,290,4,0.0746433447922214,1
707,291,4,0.0529716461804168,1
707,292,4,0.0354439803186809,1
707,308,4,0.0385513086945312,1
707,309,4,0.0557705937362454,1
707,310,4,0.0645823724255876,1
707,311,4,0.0518547148545241,1
708,287,4,0.0405327653950601,1
708,288,4,0.0498194527633693,1
708,289,4,0.0593219594670567,1
708,290,4,0.0581865642492584,1
708,291,4,0.0476013129961632,1
708,308,4,0.0407025474712143,1
708,309,4,0.051150275971616,1
708,310,4,0.0532966363384509,1
708,311,4,0.0427726291033113,1
709,288,4,0.037827154970629,1
709,309,4,0.0423864357508349,1
709,310,4,0.0403903321569008,1
684,281,5,0.0369525316083634,1
684,282,5,0.0377442015914545,1
684,283,5,0.0383303135208503,1
684,284,5,0.0347940903975352,1
685,280,5,0.035579342341131,1
685,281,5,0.0438859096407223,1
685,282,5,0.0491040090276418,1
685,283,5,0.0436398575777259,1
686,281,5,0.0465397296065089,1
686,282,5,0.0565940040009842,1
686,283,5,0.048395169953185,1
687,281,5,0.037831572657969,1
687,282,5,0.0466265320598015,1
687,283,5,0.0407915135707156,1
704,288,5,0.0410767562065504,1
704,289,5,0.0469524436628517,1
704,290,5,0.0423956676967878,1
704,291,5,0.0359827457204594,1
704,309,5,0.0387808972177773,1
704,310,5,0.042570581871766,1
705,287,5,0.0534796189892509,1
705,288,5,0.0797160045808181,1
705,289,5,0.0979562069609362,1
705,290,5,0.0825088985928065,1
705,291,5,0.0588606187743559,1
705,292,5,0.0427291199859511,1
705,308,5,0.0357537753818445,1
705,309,5,0.0520974223053892,1
705,310,5,0.0606216459984606,1
705,311,5,0.045071908519312,1
706,286,5,0.040753856795594,1
706,287,5,0.0732848082503247,1
706,288,5,0.116022524501806,1
706,289,5,0.144771247425669,1
706,290,5,0.121770521840206,1
706,291,5,0.0800320427255625,1
706,292,5,0.0496195575141718,1
706,308,5,0.0423621486763431,1
706,309,5,0.0657211035076216,1
706,310,5,0.078236828724973,1
706,311,5,0.0578840211916491,1
707,286,5,0.0399080023463956,1
707,287,5,0.0676872105671221,1
707,288,5,0.0997707071556294,1
707,289,5,0.122430334791067,1
707,290,5,0.107995723655327,1
707,291,5,0.0747712448596198,1
707,292,5,0.045848666256161,1
707,308,5,0.0462862622439048,1
707,309,5,0.0685867333565802,1
707,310,5,0.079661581005561,1
707,311,5,0.0598464891265289,1
708,286,5,0.0350350307734642,1
708,287,5,0.0520164342867871,1
708,288,5,0.066654019931019,1
708,289,5,0.0776554494071633,1
708,290,5,0.0777507489831679,1
708,291,5,0.0618770040262715,1
708,292,5,0.0417426460289732,1
708,308,5,0.0445624952236489,1
708,309,5,0.0574416342730144,1
708,310,5,0.0621909368441119,1
708,311,5,0.0476810325698854,1
709,287,5,0.0357596918753184,1
709,288,5,0.0441970635436881,1
709,289,5,0.0528939881941199,1
709,290,5,0.060158275793952,1
709,291,5,0.0532194682343145,1
709,309,5,0.0422361352384555,1
709,310,5,0.0419126788781381,1
679,309,6,0.03520210974984,1
679,310,6,0.0369697620469721,1
684,282,6,0.0371531645967668,1
684,283,6,0.0364857030690791,1
685,281,6,0.045738005375267,1
685,282,6,0.0583946941842963,1
685,283,6,0.0448156534939375,1
686,281,6,0.055036925217762,1
686,282,6,0.07182742048676,1
686,283,6,0.0518217877750233,1
687,281,6,0.0441211376407443,1
687,282,6,0.0528113439072609,1
687,283,6,0.0383000749613016,1
704,287,6,0.0435270592943103,1
704,288,6,0.0541423595692135,1
704,289,6,0.0640742713142829,1
704,290,6,0.062766874970782,1
704,291,6,0.050688958606637,1
704,292,6,0.0396880919117843,1
704,308,6,0.0394660703183385,1
704,309,6,0.0521535079808336,1
704,310,6,0.0540435433391283,1
704,311,6,0.0381690723068868,1
705,286,6,0.0517402340591645,1
705,287,6,0.0783776873419022,1
705,288,6,0.105753206418707,1
705,289,6,0.127066894482089,1
705,290,6,0.122122782105174,1
705,291,6,0.0900176548865092,1
705,292,6,0.0608027799272978,1
705,293,6,0.0375726203647467,1
705,308,6,0.0529822544619634,1
705,309,6,0.0744031217437416,1
705,310,6,0.0767834358337883,1
705,311,6,0.0516403914093145,1
706,285,6,0.0346416174910513,1
706,286,6,0.0631766613980229,1
706,287,6,0.105101138271526,1
706,288,6,0.147124221425617,1
706,289,6,0.175547440981563,1
706,290,6,0.168602614869668,1
706,291,6,0.120020347838729,1
706,292,6,0.0738796943191305,1
706,293,6,0.0395145424085388,1
706,307,6,0.0411201603491619,1
706,308,6,0.0697747850746996,1
706,309,6,0.0976395098080474,1
706,310,6,0.0983528482168709,1
706,311,6,0.0641829784984655,1
707,286,6,0.0574627400294284,1
707,287,6,0.0975301902711642,1
707,288,6,0.13426836052677,1
707,289,6,0.155107574390006,1
707,290,6,0.149622993687612,1
707,291,6,0.108950270708882,1
707,292,6,0.0662510743582334,1
707,293,6,0.0349904719086173,1
707,307,6,0.0484658004632512,1
707,308,6,0.0831870121415194,1
707,309,6,0.114732291529713,1
707,310,6,0.112730551374969,1
707,311,6,0.0723208834525551,1
707,312,6,0.0366846827051909,1
708,286,6,0.0447246549666633,1
708,287,6,0.0722923186570548,1
708,288,6,0.095915591157599,1
708,289,6,0.107215224735074,1
708,290,6,0.106885685671264,1
708,291,6,0.0842993304104009,1
708,292,6,0.0546120807460168,1
708,307,6,0.0476379841750333,1
708,308,6,0.0754853705790584,1
708,309,6,0.0987527086984316,1
708,310,6,0.0938295679435297,1
708,311,6,0.0604333562909221,1
709,287,6,0.0464208427876702,1
709,288,6,0.0614046643126818,1
709,289,6,0.0730360764152719,1
709,290,6,0.0788096292730438,1
709,291,6,0.0674917650808823,1
709,292,6,0.0448991229989597,1
709,308,6,0.0534364102163105,1
709,309,6,0.0625783811456767,1
709,310,6,0.057264915115552,1
710,288,6,0.0381360519164983,1
710,289,6,0.046473435136756,1
710,290,6,0.0507018121814191,1
710,291,6,0.0429729646632601,1
679,309,7,0.0378965549433636,1
679,310,7,0.040525647523907,1
680,310,7,0.0351946157191708,1
684,282,7,0.0363891321322294,1
685,281,7,0.0437894465945865,1
685,282,7,0.0591040260568788,1
685,283,7,0.0411916860605571,1
686,281,7,0.0576581971795291,1
686,282,7,0.0755941069228934,1
686,283,7,0.0497955768399764,1
686,310,7,0.0362950455977649,1
687,280,7,0.0386831773906226,1
687,281,7,0.0545661367976804,1
687,282,7,0.0564036614539161,1
687,283,7,0.0345797144649512,1
687,310,7,0.0496245729743863,1
688,280,7,0.0480605425300295,1
688,281,7,0.0588181273288648,1
688,282,7,0.0451109824535407,1
688,310,7,0.035920728971715,1
689,280,7,0.0404431198756576,1
689,281,7,0.0480406294033991,1
689,282,7,0.0354107762224823,1
703,288,7,0.0406583414381615,1
703,289,7,0.0451763029909032,1
703,290,7,0.0421523245655002,1
703,308,7,0.0350642895686919,1
703,309,7,0.0408532474708317,1
703,310,7,0.0379512380395271,1
704,286,7,0.0491239775576118,1
704,287,7,0.0662026343436507,1
704,288,7,0.0803114563468806,1
704,289,7,0.0919874127344914,1
704,290,7,0.0915203684137793,1
704,291,7,0.0691600529464639,1
704,292,7,0.0470434013666126,1
704,307,7,0.0356902394152095,1
704,308,7,0.0549883452368478,1
704,309,7,0.0714083846177748,1
704,310,7,0.0669438260524558,1
704,311,7,0.041088478386819,1
705,285,7,0.0443081676512987,1
705,286,7,0.0822569183724752,1
705,287,7,0.118143119399772,1
705,288,7,0.139373504168151,1
705,289,7,0.157716476827221,1
705,290,7,0.16196924883709,1
705,291,7,0.123803077915618,1
705,292,7,0.07755617245457,1
705,293,7,0.0413338772736014,1
705,307,7,0.0491260595567938,1
705,308,7,0.0796366728304729,1
705,309,7,0.101087580386163,1
705,310,7,0.0906853642712424,1
705,311,7,0.0540060615219211,1
706,285,7,0.0487957273504383,1
706,286,7,0.097117604517292,1
706,287,7,0.147400351670074,1
706,288,7,0.176419909445516,1
706,289,7,0.196221856153242,1
706,290,7,0.203055782275093,1
706,291,7,0.157764112035397,1
706,292,7,0.0958375191042379,1
706,293,7,0.045192891917159,1
706,306,7,0.035958330343497,1
706,307,7,0.067643436096925,1
706,308,7,0.108064680401345,1
706,309,7,0.131316855501465,1
706,310,7,0.111144464569529,1
706,311,7,0.0641851888001181,1
707,285,7,0.0401731656455812,1
707,286,7,0.0801251028402621,1
707,287,7,0.133709544947995,1
707,288,7,0.169911813279688,1
707,289,7,0.185888223540788,1
707,290,7,0.186209621229645,1
707,291,7,0.145629019424807,1
707,292,7,0.0877856817802,1
707,293,7,0.0409109631708458,1
707,306,7,0.0405980830164573,1
707,307,7,0.081478717232832,1
707,308,7,0.132537198618663,1
707,309,7,0.161141254674992,1
707,310,7,0.132790572670379,1
707,311,7,0.0737745854360553,1
708,286,7,0.0548420395968484,1
708,287,7,0.0952758925349704,1
708,288,7,0.128892895243692,1
708,289,7,0.141548440994347,1
708,290,7,0.138607340133022,1
708,291,7,0.110382639490679,1
708,292,7,0.0682800088048154,1
708,293,7,0.034993941907254,1
708,307,7,0.0729432495777916,1
708,308,7,0.118678537273454,1
708,309,7,0.144065758795274,1
708,310,7,0.117279643772623,1
708,311,7,0.0644856673543368,1
709,286,7,0.0360891813677193,1
709,287,7,0.0572096167507227,1
709,288,7,0.0798213350772516,1
709,289,7,0.0932148124875722,1
709,290,7,0.0944519399006967,1
709,291,7,0.0776019764365748,1
709,292,7,0.0487384461292451,1
709,308,7,0.0744220696858773,1
709,309,7,0.086524730931057,1
709,310,7,0.070180524142186,1
710,288,7,0.0449643968808783,1
710,289,7,0.0536075715440237,1
710,290,7,0.0546288008907084,1
710,291,7,0.0441469206054048,1
679,309,8,0.0372055469963552,1
679,310,8,0.0396358582264232,1
685,281,8,0.0380769307212381,1
685,282,8,0.0503617406511588,1
685,283,8,0.0351927961568605,1
686,281,8,0.0503072820843189,1
686,282,8,0.0632151579711339,1
686,283,8,0.0416077797206141,1
686,310,8,0.0382067290820084,1
687,280,8,0.0383947680165362,1
687,281,8,0.0546354609553187,1
687,282,8,0.0484692383862703,1
687,310,8,0.0499286731574342,1
688,280,8,0.0538124647576441,1
688,281,8,0.0706168983404939,1
688,282,8,0.0483098954656787,1
689,280,8,0.0407788495336742,1
689,281,8,0.0528730923872032,1
689,282,8,0.0354686406367236,1
703,287,8,0.0416917711834144,1
703,288,8,0.0576301047703978,1
703,289,8,0.0642471472295578,1
703,290,8,0.0547862338540672,1
703,291,8,0.0374753291844824,1
703,308,8,0.0376193807833505,1
703,309,8,0.0459832030604478,1
703,310,8,0.0406228249815268,1
704,285,8,0.0389108763683925,1
704,286,8,0.0613178676913197,1
704,287,8,0.0866932795539142,1
704,288,8,0.107347702867901,1
704,289,8,0.118528236761075,1
704,290,8,0.11082509639248,1
704,291,8,0.0790345085124257,1
704,292,8,0.0490415373883197,1
704,307,8,0.0385716038126082,1
704,308,8,0.0634299363069212,1
704,309,8,0.0812708205750134,1
704,310,8,0.070174715539426,1
704,311,8,0.0389777161236455,1
705,285,8,0.0603883279556714,1
705,286,8,0.114798483940683,1
705,287,8,0.154386176253256,1
705,288,8,0.166372671275167,1
705,289,8,0.176310257488595,1
705,290,8,0.177123730143793,1
705,291,8,0.138287890308946,1
705,292,8,0.0817842870623614,1
705,293,8,0.0431616771857586,1
705,307,8,0.0595633080781195,1
705,308,8,0.0973885793352029,1
705,309,8,0.116571064219072,1
705,310,8,0.0945132859774357,1
705,311,8,0.0503401100210015,1
706,285,8,0.0704235931727409,1
706,286,8,0.14055586975405,1
706,287,8,0.189762188338136,1
706,288,8,0.198310783668691,1
706,289,8,0.204698007243351,1
706,290,8,0.209861551836578,1
706,291,8,0.17321134458843,1
706,292,8,0.10221847335363,1
706,293,8,0.0474909670395152,1
706,306,8,0.0426060983284008,1
706,307,8,0.0862336476168446,1
706,308,8,0.135573254972094,1
706,309,8,0.152089468718598,1
706,310,8,0.115788162543461,1
706,311,8,0.0598659736062689,1
707,285,8,0.0548990875408223,1
707,286,8,0.112121499547022,1
707,287,8,0.170206010844778,1
707,288,8,0.199365663254256,1
707,289,8,0.211136808411193,1
707,290,8,0.209021380603634,1
707,291,8,0.171697958628378,1
707,292,8,0.100520040239387,1
707,293,8,0.0447628891029026,1
707,306,8,0.0485256039943778,1
707,307,8,0.10530523251067,1
707,308,8,0.167594204106183,1
707,309,8,0.186541236460707,1
707,310,8,0.137202124819548,1
707,311,8,0.0679126438398998,1
708,285,8,0.0358373177859976,1
708,286,8,0.0669301735031977,1
708,287,8,0.116817230004713,1
708,288,8,0.157351036399364,1
708,289,8,0.172682213535808,1
708,290,8,0.16456478448964,1
708,291,8,0.131172211961653,1
708,292,8,0.0767024128236033,1
708,293,8,0.0358682445133431,1
708,306,8,0.0422552581385056,1
708,307,8,0.0913828806526686,1
708,308,8,0.149090690064807,1
708,309,8,0.168682407342522,1
708,310,8,0.123451015936287,1
708,311,8,0.061080222356113,1
709,286,8,0.037840539251085,1
709,287,8,0.0653197908753709,1
709,288,8,0.0945312949787638,1
709,289,8,0.107655827082981,1
709,290,8,0.10123167572451,1
709,291,8,0.0783819679788759,1
709,292,8,0.0463796227030242,1
709,307,8,0.0553585328561166,1
709,308,8,0.0853802379017069,1
709,309,8,0.0962335888309853,1
709,310,8,0.0714611169331921,1
710,287,8,0.0348822925141434,1
710,288,8,0.0485323077984668,1
710,289,8,0.0559440645084294,1
710,290,8,0.0517983200867642,1
710,291,8,0.0385956984333942,1
679,310,9,0.040247324473589,1
680,310,9,0.0364975156442702,1
685,282,9,0.0364591269618731,1
686,281,9,0.0401563113664885,1
686,282,9,0.0450158957429987,1
687,280,9,0.0356368101840996,1
687,281,9,0.047956821646409,1
687,282,9,0.0383937649244933,1
688,280,9,0.0489639960406324,1
688,281,9,0.0647980897021824,1
688,282,9,0.0434367051953543,1
689,277,9,0.0377937146812458,1
689,281,9,0.045958009120766,1
690,276,9,0.0351981936085215,1
701,282,9,0.0357342092550777,1
702,289,9,0.034508492013941,1
703,287,9,0.0485913794223179,1
703,288,9,0.07324493534162,1
703,289,9,0.083017845334031,1
703,290,9,0.0665801177079524,1
703,291,9,0.0424506219777187,1
703,308,9,0.0377228304822036,1
703,309,9,0.0446060947359316,1
703,310,9,0.0377274114635971,1
704,285,9,0.043929497489144,1
704,286,9,0.0702916399136576,1
704,287,9,0.103894570174127,1
704,288,9,0.134097298341875,1
704,289,9,0.143278483171801,1
704,290,9,0.124186200756695,1
704,291,9,0.0861651340975433,1
704,292,9,0.0511841070003414,1
704,307,9,0.0399008115761114,1
704,308,9,0.0601980962152824,1
704,309,9,0.0741466975923831,1
704,310,9,0.0604849513798954,1
705,284,9,0.0351453154948421,1
705,285,9,0.0681018958159678,1
705,286,9,0.133224713239313,1
705,287,9,0.177888879423018,1
705,288,9,0.192448130577017,1
705,289,9,0.19121001173571,1
705,290,9,0.181180584281053,1
705,291,9,0.142648413066398,1
705,292,9,0.0849911723234682,1
705,293,9,0.0433314767577042,1
705,306,9,0.0361128910810934,1
705,307,9,0.0603735848354131,1
705,308,9,0.0927047343518341,1
705,309,9,0.107637584804434,1
705,310,9,0.0829768468627433,1
705,311,9,0.0431184975724706,1
706,285,9,0.0795305491914938,1
706,286,9,0.164637182074643,1
706,287,9,0.214886856349661,1
706,288,9,0.220782681461917,1
706,289,9,0.214644038092117,1
706,290,9,0.210862451073602,1
706,291,9,0.178035680777108,1
706,292,9,0.106931547972574,1
706,293,9,0.048577645226033,1
706,306,9,0.0440329442720318,1
706,307,9,0.0832584357941312,1
706,308,9,0.128000236636411,1
706,309,9,0.139691461018024,1
706,310,9,0.102701065601007,1
706,311,9,0.0517020232506471,1
707,285,9,0.0602242524234937,1
707,286,9,0.128308349187631,1
707,287,9,0.18649444105052,1
707,288,9,0.219526180375731,1
707,289,9,0.23219798554857,1
707,290,9,0.228821857664878,1
707,291,9,0.190782647869997,1
707,292,9,0.110915059752093,1
707,293,9,0.0461635846702529,1
707,306,9,0.0469378988282299,1
707,307,9,0.0986429750944843,1
707,308,9,0.155630710218093,1
707,309,9,0.165474379023041,1
707,310,9,0.11618376571577,1
707,311,9,0.055759297286902,1
708,285,9,0.0369207038477584,1
708,286,9,0.0723362680851663,1
708,287,9,0.125279209503751,1
708,288,9,0.174786292406649,1
708,289,9,0.197478590516647,1
708,290,9,0.189679386589154,1
708,291,9,0.150753933310522,1
708,292,9,0.0841920870407693,1
708,293,9,0.035132050768961,1
708,307,9,0.0862505485513811,1
708,308,9,0.13889001380348,1
708,309,9,0.148413789557635,1
708,310,9,0.102781756191154,1
709,286,9,0.0369355140352172,1
709,287,9,0.0663629249529457,1
709,288,9,0.100963593544118,1
709,289,9,0.116211619015751,1
709,290,9,0.106778798049392,1
709,291,9,0.0802374724767873,1
709,292,9,0.0448647350208732,1
709,308,9,0.0772120010771809,1
709,309,9,0.0833480900614294,1
710,288,9,0.0474912848797265,1
710,289,9,0.0539445871427114,1
710,290,9,0.0469400799702301,1
679,310,10,0.0406308234741827,1
679,311,10,0.0369747716752561,1
680,310,10,0.0371042667756413,1
680,311,10,0.0360590302871279,1
687,281,10,0.0381834538474552,1
688,280,10,0.0378580117148087,1
688,281,10,0.0458301557088114,1
688,282,10,0.0344728705825576,1
689,276,10,0.05113495549024,1
689,277,10,0.0399461402557819,1
700,281,10,0.0356208977617797,1
701,281,10,0.0397383514886772,1
701,282,10,0.0411465848261753,1
702,282,10,0.0360959609869045,1
702,289,10,0.0349864274648281,1
703,287,10,0.0493090538714547,1
703,288,10,0.0767806306752265,1
703,289,10,0.0867123966220339,1
703,290,10,0.0652514698097755,1
703,291,10,0.0403548186162313,1
703,308,10,0.0367260631679252,1
703,309,10,0.0398813795837457,1
704,285,10,0.0431433124366711,1
704,286,10,0.0690426445220024,1
704,287,10,0.107564417404608,1
704,288,10,0.142829004625701,1
704,289,10,0.147815620111967,1
704,290,10,0.115351409269672,1
704,291,10,0.0763514647429943,1
704,292,10,0.0443166093706713,1
704,306,10,0.0355918693278061,1
704,307,10,0.0426983507207286,1
704,308,10,0.055149644770116,1
704,309,10,0.061722382053405,1
704,310,10,0.0478572647611526,1
705,284,10,0.0354738777102964,1
705,285,10,0.0637225475869198,1
705,286,10,0.126710096975206,1
705,287,10,0.177136875315099,1
705,288,10,0.198167528128334,1
705,289,10,0.188006100759149,1
705,290,10,0.159525413360234,1
705,291,10,0.118392562730344,1
705,292,10,0.0703285268739556,1
705,293,10,0.0379271142590887,1
705,306,10,0.0430454759709068,1
705,307,10,0.0579962508618427,1
705,308,10,0.0796139399654544,1
705,309,10,0.0878565863909989,1
705,310,10,0.0652239664256229,1
706,285,10,0.0731734183781205,1
706,286,10,0.159727174827186,1
706,287,10,0.217166068092874,1
706,288,10,0.230529213632758,1
706,289,10,0.21696500645758,1
706,290,10,0.194720390659095,1
706,291,10,0.152349432851759,1
706,292,10,0.0888453202210386,1
706,293,10,0.0415245289129851,1
706,306,10,0.0438543414010238,1
706,307,10,0.0706780111400136,1
706,308,10,0.103927357287296,1
706,309,10,0.111062747559617,1
706,310,10,0.0796063176323146,1
707,285,10,0.055569695395005,1
707,286,10,0.125812364588406,1
707,287,10,0.186688609343984,1
707,288,10,0.225551940899123,1
707,289,10,0.23705236784309,1
707,290,10,0.223130593346206,1
707,291,10,0.17417986494742,1
707,292,10,0.0959285497071298,1
707,293,10,0.0394751739618207,1
707,306,10,0.0413517813001808,1
707,307,10,0.0778741293044429,1
707,308,10,0.118431041807663,1
707,309,10,0.121945258141305,1
707,310,10,0.0833994402093225,1
708,286,10,0.0713074688927161,1
708,287,10,0.124686417097988,1
708,288,10,0.178512417766281,1
708,289,10,0.202255478118923,1
708,290,10,0.188469669249294,1
708,291,10,0.141998701019132,1
708,292,10,0.0745494098879495,1
708,307,10,0.0702163671869277,1
708,308,10,0.105723941791549,1
708,309,10,0.106918274498797,1
709,287,10,0.0614483979593655,1
709,288,10,0.095709420751203,1
709,289,10,0.109565177795032,1
709,290,10,0.0975173250325212,1
709,291,10,0.0709265505213606,1
709,292,10,0.0386902719340538,1
710,288,10,0.0417892052459754,1
710,289,10,0.0461566300931532,1
710,290,10,0.0384304944226683,1
678,310,11,0.035163225353352,1
679,310,11,0.0401414224479682,1
679,311,11,0.0382432311348946,1
680,310,11,0.036447471848805,1
680,311,11,0.0380263707999253,1
689,276,11,0.0411577704688396,1
689,277,11,0.0373864884714865,1
699,280,11,0.0361405052719252,1
700,280,11,0.0392638277171221,1
700,281,11,0.040865328314825,1
701,281,11,0.0412547933803017,1
701,282,11,0.0379299514932681,1
703,287,11,0.0488544198988081,1
703,288,11,0.074768124776812,1
703,289,11,0.0815116443123328,1
703,290,11,0.0592803836346513,1
703,291,11,0.0352910262779323,1
704,285,11,0.0402030805329881,1
704,286,11,0.0637295109119152,1
704,287,11,0.106111088664659,1
704,288,11,0.142760397795512,1
704,289,11,0.143332825100032,1
704,290,11,0.102187459147327,1
704,291,11,0.0626924886974854,1
704,292,11,0.0353640507954613,1
704,306,11,0.0381363668407443,1
704,307,11,0.0414837462231252,1
704,308,11,0.0480012055533415,1
704,309,11,0.047194681643313,1
705,285,11,0.0545232487809166,1
705,286,11,0.10588153221703,1
705,287,11,0.16562395637604,1
705,288,11,0.193470036427637,1
705,289,11,0.182364594471349,1
705,290,11,0.137276283647556,1
705,291,11,0.0921963999633102,1
705,292,11,0.0530165170535445,1
705,306,11,0.0454322984953713,1
705,307,11,0.0507360047898345,1
705,308,11,0.0606620437809086,1
705,309,11,0.0608394686019594,1
706,285,11,0.0599397416949344,1
706,286,11,0.130242532259673,1
706,287,11,0.198279967748025,1
706,288,11,0.220776452960162,1
706,289,11,0.211879166506094,1
706,290,11,0.173459866473986,1
706,291,11,0.122260672269488,1
706,292,11,0.0667835704347438,1
706,306,11,0.0418263196515622,1
706,307,11,0.0542527113577919,1
706,308,11,0.071838518650467,1
706,309,11,0.0723434413596591,1
707,285,11,0.0476817644771609,1
707,286,11,0.105230607128224,1
707,287,11,0.168939012283725,1
707,288,11,0.208976031512207,1
707,289,11,0.222834961126218,1
707,290,11,0.197606099844703,1
707,291,11,0.141137534836454,1
707,292,11,0.0722176291233731,1
707,306,11,0.0362250070286426,1
707,307,11,0.0544361080756561,1
707,308,11,0.0741725971956532,1
707,309,11,0.0721664072779507,1
708,286,11,0.0640743004739353,1
708,287,11,0.11412012545089,1
708,288,11,0.164499875103377,1
708,289,11,0.186898220589365,1
708,290,11,0.166387239437511,1
708,291,11,0.116332118363368,1
708,292,11,0.0577528960666941,1
708,307,11,0.0495634193513531,1
708,308,11,0.0654610169039205,1
709,287,11,0.055322654819792,1
709,288,11,0.0847353663567408,1
709,289,11,0.0953270094056442,1
709,290,11,0.0817390429456829,1
709,291,11,0.0568264997415755,1
710,288,11,0.0388222893443725,1
710,289,11,0.0402715299010541,1
679,310,12,0.0364135679209485,1
679,311,12,0.0349612043654939,1
683,312,12,0.0385439662940545,1
699,280,12,0.040835594217263,1
699,281,12,0.0361476464708003,1
700,280,12,0.0442411062826874,1
700,281,12,0.0418495744743588,1
701,281,12,0.0365592903678996,1
703,287,12,0.0417909752368767,1
703,288,12,0.0604285741079269,1
703,289,12,0.0629451337578917,1
703,290,12,0.0471728731392759,1
704,285,12,0.0350716698767167,1
704,286,12,0.0532471815679644,1
704,287,12,0.0863341667706305,1
704,288,12,0.116292402916786,1
704,289,12,0.114010916720686,1
704,290,12,0.0805933368747926,1
704,291,12,0.0479871710126368,1
704,306,12,0.037631706568424,1
704,307,12,0.0401137878453798,1
704,308,12,0.0409193465709135,1
705,285,12,0.04342745575361,1
705,286,12,0.0785786614982388,1
705,287,12,0.129968104938917,1
705,288,12,0.159745218820097,1
705,289,12,0.152282249012608,1
705,290,12,0.110258489354581,1
705,291,12,0.0674910535853636,1
705,292,12,0.0392828368945278,1
705,306,12,0.0478930932260681,1
705,307,12,0.0487916129234833,1
705,308,12,0.046744159181656,1
705,309,12,0.0430439742488077,1
706,285,12,0.0450609007505275,1
706,286,12,0.0914991635145471,1
706,287,12,0.151030040227257,1
706,288,12,0.179229360308142,1
706,289,12,0.177797423089201,1
706,290,12,0.14079549211369,1
706,291,12,0.0891010270449478,1
706,292,12,0.0480889207037545,1
706,306,12,0.0429041362197128,1
706,307,12,0.0460240149099601,1
706,308,12,0.0483438081414309,1
706,309,12,0.0465485124938147,1
707,285,12,0.0381346260094955,1
707,286,12,0.0767715678552576,1
707,287,12,0.130594699213753,1
707,288,12,0.167577559776588,1
707,289,12,0.181587979616796,1
707,290,12,0.155010134495514,1
707,291,12,0.0998932126873321,1
707,292,12,0.0509739067299825,1
707,307,12,0.0394476385020505,1
707,308,12,0.0440555342547535,1
708,286,12,0.0509005410445202,1
708,287,12,0.0889342046735131,1
708,288,12,0.128010547489503,1
708,289,12,0.145557578276404,1
708,290,12,0.125280807452703,1
708,291,12,0.0811500063031505,1
708,292,12,0.0423439443053438,1
709,287,12,0.0456781318609746,1
709,288,12,0.0667388336960172,1
709,289,12,0.0734733195712215,1
709,290,12,0.0619041691584562,1
709,291,12,0.0422493620567884,1
710,288,12,0.0353453594582668,1
683,312,13,0.0452521414148898,1
699,279,13,0.0407412685736488,1
699,280,13,0.044736910768571,1
699,281,13,0.0348908829477432,1
700,279,13,0.0393557185297601,1
700,280,13,0.0455305461122345,1
700,281,13,0.0376262303857015,1
703,288,13,0.0443348895567668,1
703,289,13,0.0436140075458649,1
704,286,13,0.0443979035656236,1
704,287,13,0.0658851848717297,1
704,288,13,0.0852339089339856,1
704,289,13,0.0798131120552721,1
704,290,13,0.0573263020158044,1
704,291,13,0.0351569064566749,1
704,306,13,0.0346601222064703,1
704,307,13,0.0369666244683729,1
705,285,13,0.0347216840646372,1
705,286,13,0.0615247379293735,1
705,287,13,0.0988796931527444,1
705,288,13,0.124155979692938,1
705,289,13,0.11515268040657,1
705,290,13,0.081938582447121,1
705,291,13,0.0478794581726014,1
705,302,13,0.0409991915311412,1
705,306,13,0.0475885294045468,1
705,307,13,0.0480504474583654,1
705,308,13,0.0387732107334021,1
706,285,13,0.0362243392726024,1
706,286,13,0.0681942094435657,1
706,287,13,0.111783165932046,1
706,288,13,0.138669508511959,1
706,289,13,0.134638408179707,1
706,290,13,0.102968494605184,1
706,291,13,0.0602637287609257,1
706,306,13,0.0423583141820512,1
706,307,13,0.0426762622840285,1
706,308,13,0.036952575347842,1
707,286,13,0.0606450728632063,1
707,287,13,0.0995514149056492,1
707,288,13,0.128538978710468,1
707,289,13,0.134950031553077,1
707,290,13,0.109550656288132,1
707,291,13,0.0648134743347937,1
708,286,13,0.0441505334863383,1
708,287,13,0.0695302230699413,1
708,288,13,0.0946260580171642,1
708,289,13,0.103363386281974,1
708,290,13,0.0849621992928341,1
708,291,13,0.0515978882999624,1
709,287,13,0.0404069239991218,1
709,288,13,0.0528353597969854,1
709,289,13,0.0554380570601677,1
709,290,13,0.0449953206922585,1
671,298,14,0.0361416220866125,1
683,312,14,0.0415109521788232,1
688,280,14,0.0347455016687253,1
699,278,14,0.0356133541597014,1
699,279,14,0.0420291454458268,1
699,280,14,0.0398329774767112,1
700,279,14,0.0392671285897748,1
700,280,14,0.0385010811932559,1
704,287,14,0.0446432616288927,1
704,288,14,0.0538144009585641,1
704,289,14,0.0493259431421303,1
704,290,14,0.0377210488274414,1
704,302,14,0.0354493311148981,1
705,286,14,0.0441117015772246,1
705,287,14,0.0654378932995598,1
705,288,14,0.0811842513989402,1
705,289,14,0.074846074359633,1
705,290,14,0.0546077534535993,1
705,302,14,0.047241794893711,1
705,303,14,0.0385968123321162,1
705,306,14,0.0408233617430772,1
705,307,14,0.0413119725427114,1
706,286,14,0.0479902881794794,1
706,287,14,0.0728670495741151,1
706,288,14,0.0914610751765699,1
706,289,14,0.087738507294532,1
706,290,14,0.0662121812138496,1
706,291,14,0.0388775760453409,1
706,302,14,0.0362841048961809,1
706,306,14,0.0361692800169229,1
706,307,14,0.0354842177230408,1
707,286,14,0.045393484082049,1
707,287,14,0.0666376205425039,1
707,288,14,0.0836692603049978,1
707,289,14,0.0848025735236141,1
707,290,14,0.0664300213131399,1
707,291,14,0.039310238219897,1
708,286,14,0.0367062491841129,1
708,287,14,0.0496669536131982,1
708,288,14,0.0617400469708347,1
708,289,14,0.0639422422401033,1
708,290,14,0.0508835293033045,1
709,287,14,0.0351090146435575,1
709,288,14,0.0397136620109821,1
709,289,14,0.0392812564413672,1
671,298,15,0.0373089150481815,1
672,298,15,0.035312444042627,1
699,279,15,0.0367893804371671,1
700,279,15,0.0348921047371792,1
705,287,15,0.0435013696405375,1
705,288,15,0.0516317018328964,1
705,289,15,0.0469088383186386,1
705,290,15,0.0350935279521629,1
705,302,15,0.0451579732333986,1
705,303,15,0.038553883491839,1
706,286,15,0.0349329282505524,1
706,287,15,0.0486142989091117,1
706,288,15,0.0591829087485769,1
706,289,15,0.0551090020465877,1
706,290,15,0.0413242254286539,1
706,302,15,0.0352846607258113,1
707,286,15,0.034515437843145,1
707,287,15,0.045319564363191,1
707,288,15,0.0542843437487257,1
707,289,15,0.0527895441511196,1
707,290,15,0.0411768467134459,1
708,287,15,0.0373674909579417,1
708,288,15,0.042624882976483,1
708,289,15,0.0420217563899063,1
710,286,15,0.0354901400484451,1
710,287,15,0.0345701209393085,1
711,286,15,0.0359719129095893,1
711,287,15,0.0347395501836685,1
705,302,16,0.0377966510582434,1
705,303,16,0.0346833507855797,1
709,286,16,0.0354471178972802,1
710,286,16,0.0449075763821932,1
710,287,16,0.0400540163898708,1
711,286,16,0.0412572486230346,1
711,287,16,0.0366519947348398,1
711,294,16,0.0387736393802925,1
711,295,16,0.0418485713823159,1
712,286,16,0.0368426580380845,1
712,287,16,0.0358503958901033,1
712,295,16,0.0350963535224813,1
713,287,16,0.0358899859501796,1
693,278,17,0.0346306243020929,1
694,278,17,0.0352777615520512,1
709,286,17,0.0384751291026115,1
710,286,17,0.0493561408781656,1
710,287,17,0.0432221455569601,1
710,295,17,0.035820924229413,1
711,286,17,0.0443203913775888,1
711,287,17,0.0386432344987521,1
711,294,17,0.0428812254808147,1
711,295,17,0.0500142858969084,1
711,296,17,0.0347496073477845,1
712,285,17,0.0361723388644606,1
712,286,17,0.0442228406764181,1
712,287,17,0.0403039437706724,1
712,295,17,0.0417557562086965,1
712,303,17,0.040484246649416,1
712,304,17,0.0387727325151026,1
713,286,17,0.0454898625651928,1
713,287,17,0.0446470669635321,1
713,303,17,0.0497352396872107,1
713,304,17,0.0476694182803307,1
693,278,18,0.038942674969345,1
694,278,18,0.0375743466161693,1
709,286,18,0.0394478484515478,1
710,285,18,0.0378889617698761,1
710,286,18,0.0525561269655122,1
710,287,18,0.0465511251986705,1
710,295,18,0.0372245357620042,1
711,285,18,0.0392427948598391,1
711,286,18,0.0504924633729105,1
711,287,18,0.0442048987422905,1
711,294,18,0.042940384583623,1
711,295,18,0.0533208971692556,1
711,296,18,0.0412446866447766,1
712,285,18,0.0431299952234157,1
712,286,18,0.0530070576623029,1
712,287,18,0.0452904601141211,1
712,294,18,0.034652724402654,1
712,295,18,0.0451857507182839,1
712,296,18,0.0376068917042235,1
712,303,18,0.0486691161396763,1
712,304,18,0.0505787234566682,1
713,285,18,0.0417945472942968,1
713,286,18,0.055182175278344,1
713,287,18,0.0486277998281773,1
713,303,18,0.0601844436660243,1
713,304,18,0.0625117571718515,1
713,305,18,0.0401136828706311,1
714,286,18,0.040046624417985,1
714,287,18,0.0369225292419993,1
714,303,18,0.0392668603209727,1
714,304,18,0.0410645499760518,1
709,286,19,0.03879345628007,1
709,287,19,0.0345883603018906,1
710,285,19,0.0431710228543558,1
710,286,19,0.0562640100465967,1
710,287,19,0.0494052340689622,1
711,284,19,0.0348205936056101,1
711,285,19,0.04914646548155,1
711,286,19,0.061389466301846,1
711,287,19,0.0523834318400823,1
711,294,19,0.0365439640545932,1
711,295,19,0.0467007754508012,1
711,296,19,0.0403069851224188,1
712,284,19,0.0358754936029321,1
712,285,19,0.0500821812315787,1
712,286,19,0.0596880997265711,1
712,287,19,0.0488573096203619,1
712,295,19,0.0411125176042654,1
712,296,19,0.037052187636438,1
712,303,19,0.0484325759552959,1
712,304,19,0.0535261927860793,1
712,305,19,0.0386686792114446,1
713,285,19,0.0438300018391576,1
713,286,19,0.0540975528473211,1
713,287,19,0.0452650766366986,1
713,302,19,0.0351618956732021,1
713,303,19,0.0583607990043355,1
713,304,19,0.0644792697265982,1
713,305,19,0.0450233081266412,1
714,286,19,0.0406845501337472,1
714,287,19,0.0358293192933417,1
714,303,19,0.0398281282265155,1
714,304,19,0.0436034604995884,1
709,286,20,0.0352540051832332,1
710,285,20,0.0433309256402737,1
710,286,20,0.0555551447284527,1
710,287,20,0.0463463282119031,1
711,284,20,0.0367654578583304,1
711,285,20,0.052101994538887,1
711,286,20,0.0657115624693532,1
711,287,20,0.0527708061584813,1
711,295,20,0.0354791060359734,1
712,284,20,0.0396780405795987,1
712,285,20,0.049967397175834,1
712,286,20,0.0579705728719309,1
712,287,20,0.0448039371455994,1
712,303,20,0.04403739986692,1
712,304,20,0.0497905088923876,1
712,305,20,0.0399824586028579,1
713,284,20,0.0364604478941272,1
713,285,20,0.0442230185502978,1
713,286,20,0.0491293137740027,1
713,287,20,0.039481519102185,1
713,302,20,0.0345922997709311,1
713,303,20,0.0508295022993202,1
713,304,20,0.0566629957385851,1
713,305,20,0.0439844721818316,1
714,286,20,0.0378446332662832,1
714,303,20,0.0378105835401647,1
714,304,20,0.0405890522721061,1
710,285,21,0.0435965846535502,1
710,286,21,0.0536375010112567,1
710,287,21,0.042291544409964,1
711,284,21,0.0365979210754117,1
711,285,21,0.0521799674494299,1
711,286,21,0.0637796421863376,1
711,287,21,0.0487799199028671,1
712,284,21,0.0395981198042748,1
712,285,21,0.0484695708063078,1
712,286,21,0.0530726377205718,1
712,287,21,0.0403408394788662,1
712,303,21,0.036474374544118,1
712,304,21,0.0400704945094474,1
712,305,21,0.0348895707633848,1
713,284,21,0.0389521372765519,1
713,285,21,0.0468367294141952,1
713,286,21,0.0462043673601127,1
713,287,21,0.0364269288736825,1
713,303,21,0.0412656203592413,1
713,304,21,0.0432042473623112,1
713,305,21,0.0361848716830662,1
714,285,21,0.0352534744775593,1
714,286,21,0.0354172642451434,1
707,281,22,0.0383696732196726,1
710,285,22,0.0433895073819643,1
710,286,22,0.049392403821902,1
710,287,22,0.0373924020489951,1
711,285,22,0.0469301656884109,1
711,286,22,0.0534620998700833,1
711,287,22,0.039899318601908,1
712,284,22,0.0349961551248719,1
712,285,22,0.043088101550799,1
712,286,22,0.0442647635086872,1
713,284,22,0.0349863108262185,1
713,285,22,0.0433856874674987,1
713,286,22,0.0397617200341182,1
707,281,23,0.0508432948149099,1
708,282,23,0.0376929651662058,1
710,285,23,0.0415024142325977,1
710,286,23,0.0440464481070627,1
711,285,23,0.0406203726547591,1
711,286,23,0.0423977613598308,1
712,285,23,0.0399670185669071,1
712,286,23,0.0391625766560606,1
713,285,23,0.0383075719079361,1
713,286,23,0.035194641962858,1
706,280,24,0.0361123224678714,1
707,281,24,0.0534480974049962,1
708,282,24,0.0417203476427757,1
710,285,24,0.0397379345056478,1
710,286,24,0.0392429056665183,1
711,284,24,0.036636869623135,1
711,285,24,0.0407947153005502,1
711,286,24,0.0368882199949743,1
712,284,24,0.0349944726129279,1
712,285,24,0.0392672160687321,1
712,286,24,0.034886450680577,1
702,304,25,0.0353733206489623,1
702,305,25,0.0348031357217126,1
703,304,25,0.0382199354885847,1
703,305,25,0.0361654221949091,1
704,304,25,0.0348411190849412,1
706,280,25,0.0353756300934331,1
707,281,25,0.04970775963078,1
708,282,25,0.0412415811417949,1
709,286,25,0.0355565015853986,1
710,284,25,0.0348410170261577,1
710,285,25,0.0370988430802932,1
710,286,25,0.0369021874684784,1
711,284,25,0.0417661253810933,1
711,285,25,0.0421397975788251,1
711,286,25,0.0372203105283701,1
712,284,25,0.0369825135629708,1
712,285,25,0.0380069125638725,1
700,304,26,0.0357526498192615,1
700,305,26,0.0374285541860524,1
701,302,26,0.0349383665257268,1
701,303,26,0.0363610134794109,1
701,304,26,0.0409370027404475,1
701,305,26,0.0414303490676329,1
702,303,26,0.037938699388991,1
702,304,26,0.0451274897327697,1
702,305,26,0.0452827415541283,1
703,303,26,0.0384682357607819,1
703,304,26,0.045781184988555,1
703,305,26,0.0453887893780111,1
704,303,26,0.0364081471415656,1
704,304,26,0.039450913131016,1
704,305,26,0.0382406534216216,1
705,304,26,0.0345662077139551,1
705,305,26,0.0345472568558542,1
706,305,26,0.0369474053414698,1
707,305,26,0.0386664368341743,1
711,284,26,0.0429789015684907,1
711,285,26,0.041771155421134,1
711,286,26,0.0365743542443344,1
711,287,26,0.0347595828648738,1
712,285,26,0.0367391033644827,1
700,304,27,0.0395218323216411,1
700,305,27,0.0407332438373057,1
701,302,27,0.0348858966471812,1
701,303,27,0.0388488013003432,1
701,304,27,0.0509943593101825,1
701,305,27,0.0516448061806893,1
701,306,27,0.0370579408358584,1
702,302,27,0.0378981441444199,1
702,303,27,0.0410715103850819,1
702,304,27,0.0540916625975344,1
702,305,27,0.0555487762603665,1
702,306,27,0.0402048330280979,1
703,302,27,0.0398792363492936,1
703,303,27,0.0412966229016831,1
703,304,27,0.0488812205353376,1
703,305,27,0.049921663176995,1
703,306,27,0.0376865004712666,1
704,302,27,0.0381949281706783,1
704,303,27,0.0399522725306837,1
704,304,27,0.0419237566300885,1
704,305,27,0.0407650016147449,1
705,302,27,0.0359226564247392,1
705,303,27,0.0403075683154669,1
705,304,27,0.0393300055482654,1
705,305,27,0.0369181552941378,1
706,303,27,0.0396082119599737,1
706,304,27,0.0401568041646142,1
706,305,27,0.0413366503565456,1
706,306,27,0.0392112003764534,1
707,303,27,0.0358581902651923,1
707,304,27,0.0416512596783219,1
707,305,27,0.0492199653014133,1
707,306,27,0.0473970817066524,1
708,304,27,0.041621283555645,1
708,305,27,0.0517189475129056,1
711,284,27,0.0390242695087172,1
711,285,27,0.0392727184951417,1
711,286,27,0.0360466403508191,1
711,287,27,0.0363274332236962,1
712,285,27,0.0355173955755523,1
700,304,28,0.0431491122915353,1
700,305,28,0.0449220803933017,1
701,303,28,0.0408851947860115,1
701,304,28,0.0590749888750094,1
701,305,28,0.0617163401734257,1
701,306,28,0.0418467780636927,1
702,302,28,0.044148944285282,1
702,303,28,0.0465231698399056,1
702,304,28,0.0604849688756868,1
702,305,28,0.0624860616861483,1
702,306,28,0.0445417102234115,1
703,301,28,0.0361963489222546,1
703,302,28,0.0502141636503145,1
703,303,28,0.0485563849234613,1
703,304,28,0.0512065074453224,1
703,305,28,0.0502778716588987,1
703,306,28,0.0393956701695263,1
704,302,28,0.0448765126044814,1
704,303,28,0.0458882184086892,1
704,304,28,0.0447781454330432,1
704,305,28,0.0409719651636864,1
705,302,28,0.0408734463620558,1
705,303,28,0.0467820054945183,1
705,304,28,0.0429061890592424,1
705,305,28,0.0372051795847348,1
706,302,28,0.0421421828383922,1
706,303,28,0.0499311925514024,1
706,304,28,0.0460943013361279,1
706,305,28,0.0431336576757583,1
706,306,28,0.0383797624594063,1
707,302,28,0.0370219986482985,1
707,303,28,0.0438159847942444,1
707,304,28,0.0487235630426553,1
707,305,28,0.056654790212397,1
707,306,28,0.0521594565499251,1
708,303,28,0.0367525517961739,1
708,304,28,0.0508425366639473,1
708,305,28,0.0655029718118072,1
708,306,28,0.0601342832319495,1
709,304,28,0.0502909410151086,1
709,305,28,0.0603239900985951,1
710,286,28,0.0357763595326356,1
710,287,28,0.0424437898711591,1
710,288,28,0.0376050254864693,1
710,304,28,0.0502067570986025,1
710,305,28,0.0522473262464958,1
711,285,28,0.0353159344530204,1
711,286,28,0.0392601536009185,1
711,287,28,0.0435853611033378,1
711,288,28,0.0382914116285708,1
700,304,29,0.0417740801342706,1
700,305,29,0.0435971620146679,1
701,302,29,0.0371853072816178,1
701,303,29,0.0458704076929975,1
701,304,29,0.0586722299239992,1
701,305,29,0.0597237736453289,1
701,306,29,0.0406838532180546,1
702,302,29,0.0501988198412166,1
702,303,29,0.0558430146489696,1
702,304,29,0.0616124618276822,1
702,305,29,0.0590356699997005,1
702,306,29,0.0424926235410493,1
703,301,29,0.0363248001070836,1
703,302,29,0.0555702844199837,1
703,303,29,0.0579570719528653,1
703,304,29,0.0541303516243513,1
703,305,29,0.0479253758772506,1
703,306,29,0.0381615287048085,1
704,302,29,0.0468097334079945,1
704,303,29,0.0504364826722148,1
704,304,29,0.0473371294612985,1
704,305,29,0.0405026434741211,1
705,302,29,0.0431189233033958,1
705,303,29,0.0503120992588969,1
705,304,29,0.0450842955396556,1
705,305,29,0.0371316068657405,1
706,302,29,0.0478568157025055,1
706,303,29,0.0571590772411666,1
706,304,29,0.050234283810477,1
706,305,29,0.0423852606168428,1
706,306,29,0.0359329672778312,1
707,302,29,0.0420305655208992,1
707,303,29,0.0503434633810286,1
707,304,29,0.0511696846362597,1
707,305,29,0.0533607350863774,1
707,306,29,0.0470068439103868,1
708,303,29,0.0401144614333504,1
708,304,29,0.0520430803771589,1
708,305,29,0.0623679534300289,1
708,306,29,0.0546157315344985,1
709,287,29,0.0362216740803722,1
709,303,29,0.0383812000302701,1
709,304,29,0.0602146414020595,1
709,305,29,0.0701128095973607,1
709,306,29,0.054234813163143,1
710,286,29,0.0393165629485046,1
710,287,29,0.0512669204131843,1
710,288,29,0.0456365239529515,1
710,303,29,0.0419722053925668,1
710,304,29,0.0699045513598522,1
710,305,29,0.076122030765906,1
710,306,29,0.0522366771414359,1
711,286,29,0.0397675403007391,1
711,287,29,0.0491188046352743,1
711,288,29,0.0435742950152484,1
711,304,29,0.0591294766015018,1
711,305,29,0.0621225516272812,1
712,286,29,0.0360889305947085,1
712,287,29,0.0400402880255164,1
712,288,29,0.0371666217763538,1
700,303,30,0.0375107552461947,1
700,304,30,0.0401782977444052,1
700,305,30,0.0387978098161748,1
701,302,30,0.0415916923403798,1
701,303,30,0.0541231375263452,1
701,304,30,0.0563800596312559,1
701,305,30,0.0527192460610908,1
701,306,30,0.036330215054536,1
702,302,30,0.0507937409016053,1
702,303,30,0.0634758452636746,1
702,304,30,0.0611278575642891,1
702,305,30,0.0550711119942468,1
702,306,30,0.0396843944678587,1
703,302,30,0.0500561999812818,1
703,303,30,0.0595200934732487,1
703,304,30,0.0538622694439595,1
703,305,30,0.0469824197855287,1
703,306,30,0.0367652829004159,1
704,302,30,0.0445813527708621,1
704,303,30,0.052799726701741,1
704,304,30,0.0484927264862861,1
704,305,30,0.0399950672365598,1
705,302,30,0.0490231726392322,1
705,303,30,0.0588922278375678,1
705,304,30,0.050241060513697,1
705,305,30,0.0374558447047424,1
706,302,30,0.0583036519175434,1
706,303,30,0.0702021081168995,1
706,304,30,0.0570670377143013,1
706,305,30,0.0409935345585737,1
707,302,30,0.0514244408555003,1
707,303,30,0.0611822111563804,1
707,304,30,0.0540265315979126,1
707,305,30,0.0468621682949572,1
707,306,30,0.0397225527890018,1
708,302,30,0.0369161432781216,1
708,303,30,0.0449508172307512,1
708,304,30,0.0511286395095281,1
708,305,30,0.0547240246516168,1
708,306,30,0.0462959636602614,1
709,287,30,0.040522005483321,1
709,288,30,0.0369835458146661,1
709,303,30,0.040437290861141,1
709,304,30,0.0641120505599446,1
709,305,30,0.0730211700009602,1
709,306,30,0.052445063681415,1
710,286,30,0.0394879458895761,1
710,287,30,0.057003837083669,1
710,288,30,0.0514535888440489,1
710,303,30,0.0461868249132232,1
710,304,30,0.0835605414569543,1
710,305,30,0.0941050041882592,1
710,306,30,0.0596540587483483,1
711,286,30,0.0383829525253799,1
711,287,30,0.0529798283788829,1
711,288,30,0.0476680040371889,1
711,303,30,0.0383519470669729,1
711,304,30,0.0675873562534111,1
711,305,30,0.0759898850531168,1
712,286,30,0.0367444979001784,1
712,287,30,0.0459679642260986,1
712,288,30,0.042886433394735,1
712,304,30,0.037899392177543,1
700,302,31,0.0348553023398731,1
700,303,31,0.0420383657279187,1
700,304,31,0.0401017769845523,1
700,305,31,0.0350275075831426,1
701,302,31,0.043772134508951,1
701,303,31,0.0577422411297037,1
701,304,31,0.0540162090809596,1
701,305,31,0.0467114916230617,1
702,302,31,0.0463467860184459,1
702,303,31,0.062438315671293,1
702,304,31,0.0596014897269845,1
702,305,31,0.053336888322637,1
702,306,31,0.039540963969587,1
703,302,31,0.0419177818173098,1
703,303,31,0.0541307423636936,1
703,304,31,0.0521742113340443,1
703,305,31,0.0476202580223336,1
703,306,31,0.0371180855349182,1
704,302,31,0.0425879143691582,1
704,303,31,0.0520726249369802,1
704,304,31,0.048218153367268,1
704,305,31,0.040306177400047,1
705,301,31,0.0344680738197362,1
705,302,31,0.0538532941029478,1
705,303,31,0.065250653339508,1
705,304,31,0.0549578325765665,1
705,305,31,0.0395785595094385,1
706,301,31,0.0388868867223552,1
706,302,31,0.0621617946874939,1
706,303,31,0.0742088834671116,1
706,304,31,0.0594882802924699,1
706,305,31,0.0408436014578147,1
707,301,31,0.0396656127357418,1
707,302,31,0.05661501061458,1
707,303,31,0.0643589220091738,1
707,304,31,0.0538314710190846,1
707,305,31,0.0425906641243804,1
707,306,31,0.0347766266817071,1
708,302,31,0.0403101197850528,1
708,303,31,0.0463539213853905,1
708,304,31,0.0493901118732226,1
708,305,31,0.0501598275540146,1
708,306,31,0.0422517006609117,1
709,287,31,0.0404494562681262,1
709,288,31,0.0387977427489742,1
709,303,31,0.0406292546848831,1
709,304,31,0.0606707216934657,1
709,305,31,0.06750976825028,1
709,306,31,0.0485454092302944,1
710,286,31,0.0362376273262054,1
710,287,31,0.0531924955558357,1
710,288,31,0.0515183466001198,1
710,289,31,0.034715376831821,1
710,303,31,0.0450536399970775,1
710,304,31,0.0782626816727992,1
710,305,31,0.0875793422478201,1
710,306,31,0.0558368736261721,1
711,287,31,0.0498257570802202,1
711,288,31,0.0490702771417345,1
711,304,31,0.0617638879026446,1
711,305,31,0.0694774615948716,1
712,286,31,0.0345674003437386,1
712,287,31,0.046040000231411,1
712,288,31,0.0450962539131087,1
699,304,32,0.0344760139930873,1
700,302,32,0.0369754890027054,1
700,303,32,0.0438116341741049,1
700,304,32,0.0416714935611288,1
701,302,32,0.0441017202282048,1
701,303,32,0.056436576869556,1
701,304,32,0.0541429310984007,1
701,305,32,0.0446193244702298,1
702,283,32,0.0358091174861524,1
702,302,32,0.0437691135689614,1
702,303,32,0.0591161856319335,1
702,304,32,0.0617603362569812,1
702,305,32,0.0554159773713632,1
702,306,32,0.0407037925883722,1
703,284,32,0.0364902490588897,1
703,302,32,0.0406319111292176,1
703,303,32,0.0519771329072696,1
703,304,32,0.055552631166415,1
703,305,32,0.0520986003553465,1
703,306,32,0.0396670328108141,1
704,284,32,0.0358852154310454,1
704,302,32,0.0435536791409949,1
704,303,32,0.0522237360876966,1
704,304,32,0.0506525731923605,1
704,305,32,0.0442588586790743,1
704,306,32,0.0351365530192931,1
705,301,32,0.037491903530912,1
705,302,32,0.0555077311336349,1
705,303,32,0.0662861942435953,1
705,304,32,0.0581939124816656,1
705,305,32,0.0442051874228494,1
706,301,32,0.0472407655579809,1
706,302,32,0.0662860367814723,1
706,303,32,0.0742782484482633,1
706,304,32,0.0604788978360552,1
706,305,32,0.0434483894680747,1
707,300,32,0.0356155323857364,1
707,301,32,0.0545672506964025,1
707,302,32,0.0683692665008408,1
707,303,32,0.068617409310915,1
707,304,32,0.0550999800501322,1
707,305,32,0.0433185094602777,1
708,301,32,0.0436848363415675,1
708,302,32,0.0502282885859416,1
708,303,32,0.0511127649947564,1
708,304,32,0.0519143171840491,1
708,305,32,0.0523642972761712,1
708,306,32,0.043786367335292,1
709,287,32,0.0387498451039264,1
709,288,32,0.0375974848003562,1
709,303,32,0.0422587747925862,1
709,304,32,0.0601234708328361,1
709,305,32,0.0663039874634956,1
709,306,32,0.049914886473775,1
710,287,32,0.050246688326612,1
710,288,32,0.0521760192324937,1
710,289,32,0.0361551288376085,1
710,303,32,0.0409918870382126,1
710,304,32,0.0662595481532236,1
710,305,32,0.0725827079715398,1
710,306,32,0.049614658692567,1
711,287,32,0.0518300924440296,1
711,288,32,0.0558418832544561,1
711,289,32,0.0378953914732324,1
711,304,32,0.0509593677272911,1
711,305,32,0.0555332225017713,1
712,287,32,0.0439972266137955,1
712,288,32,0.0457508910256667,1
700,302,33,0.0357668068305063,1
700,303,33,0.0397872551417332,1
700,304,33,0.0381491125248125,1
701,302,33,0.0396482598265929,1
701,303,33,0.0464118382870062,1
701,304,33,0.0458706847096954,1
701,305,33,0.0382687254189962,1
702,283,33,0.0346146739722249,1
702,284,33,0.0346352985943741,1
702,302,33,0.0397186249838222,1
702,303,33,0.0495011518295979,1
702,304,33,0.0537924670680217,1
702,305,33,0.0501348377318997,1
702,306,33,0.042657486383842,1
703,284,33,0.0365932759427829,1
703,302,33,0.0392879544135257,1
703,303,33,0.04714490611665,1
703,304,33,0.0521824635156762,1
703,305,33,0.052868986708144,1
703,306,33,0.0482091109590558,1
703,307,33,0.038527791434863,1
704,302,33,0.0410009673539729,1
704,303,33,0.0468838572444194,1
704,304,33,0.0474344906247285,1
704,305,33,0.0469618068272404,1
704,306,33,0.0435612868943085,1
705,301,33,0.0360562892798014,1
705,302,33,0.0497462853635434,1
705,303,33,0.0565337076717319,1
705,304,33,0.0523211059990223,1
705,305,33,0.0442122732183849,1
706,301,33,0.0488883092468384,1
706,302,33,0.0648180115767086,1
706,303,33,0.0675148536936602,1
706,304,33,0.0556484731119545,1
706,305,33,0.0421001229557567,1
707,300,33,0.0385689736119609,1
707,301,33,0.061417156307774,1
707,302,33,0.0768273561022475,1
707,303,33,0.072137935793338,1
707,304,33,0.0553410079050185,1
707,305,33,0.0412313752634516,1
708,301,33,0.047545883412898,1
708,302,33,0.0574458390948919,1
708,303,33,0.0555731362339894,1
708,304,33,0.0510239213657952,1
708,305,33,0.0477907282662846,1
708,306,33,0.039900286702368,1
709,287,33,0.0363689332410053,1
709,288,33,0.0351557779781266,1
709,302,33,0.0351763267851796,1
709,303,33,0.04024152753469,1
709,304,33,0.0513917762128712,1
709,305,33,0.0565063792454938,1
709,306,33,0.0453121957190271,1
710,287,33,0.0463101352513324,1
710,288,33,0.0495374730926391,1
710,289,33,0.0350503045993963,1
710,304,33,0.0476000853747967,1
710,305,33,0.0530831002038563,1
710,306,33,0.0411289694801548,1
711,287,33,0.05376691154865,1
711,288,33,0.059596958317,1
711,289,33,0.0399315720934382,1
711,305,33,0.039346011281473,1
712,287,33,0.0386355830059599,1
712,288,33,0.0416686475790537,1
700,302,34,0.0349516662431908,1
700,303,34,0.0374706607241317,1
700,304,34,0.034827720224659,1
701,302,34,0.0372856281497673,1
701,303,34,0.0422966386012399,1
701,304,34,0.0411538922350692,1
701,305,34,0.0346009747675229,1
702,302,34,0.0376592799357424,1
702,303,34,0.0457667713723689,1
702,304,34,0.0489161537989242,1
702,305,34,0.0456554369035043,1
702,306,34,0.0434912045857076,1
703,302,34,0.038072198109652,1
703,303,34,0.0450790030627433,1
703,304,34,0.0495315828428524,1
703,305,34,0.0524443813455486,1
703,306,34,0.0548989242467689,1
703,307,34,0.0439120600170031,1
704,302,34,0.0385297801231573,1
704,303,34,0.0433154506127399,1
704,304,34,0.0444099115104859,1
704,305,34,0.0460132812419082,1
704,306,34,0.0474550715073991,1
705,302,34,0.0442846037361866,1
705,303,34,0.0488076186566909,1
705,304,34,0.045759595181911,1
705,305,34,0.0400771866496754,1
706,301,34,0.0422080428293242,1
706,302,34,0.0580045963543623,1
706,303,34,0.0609527013641958,1
706,304,34,0.0505705470901326,1
706,305,34,0.0376035062685788,1
707,301,34,0.0539369823053631,1
707,302,34,0.0724326524002406,1
707,303,34,0.0713049436668174,1
707,304,34,0.0542760215839281,1
707,305,34,0.0371224186592662,1
708,301,34,0.0421934250955713,1
708,302,34,0.0541985910429199,1
708,303,34,0.0543969816540531,1
708,304,34,0.0468378374809867,1
708,305,34,0.0397623090590969,1
709,287,34,0.0351006924787599,1
709,302,34,0.0347614140910451,1
709,303,34,0.0371538965040423,1
709,304,34,0.041628267292397,1
709,305,34,0.0451578478468933,1
709,306,34,0.0378784613790435,1
710,287,34,0.0425370336916689,1
710,288,34,0.046266684453277,1
710,304,34,0.0360645968647728,1
710,305,34,0.0424740167668468,1
711,287,34,0.0490584674825086,1
711,288,34,0.0547606025195993,1
711,289,34,0.0367766172573075,1
700,303,35,0.0366738965497646,1
701,302,35,0.0352108576455629,1
701,303,35,0.0423871793219714,1
701,304,35,0.0424296182800881,1
701,305,35,0.0359668158023481,1
702,302,35,0.0359898140202035,1
702,303,35,0.0455517101879533,1
702,304,35,0.0476981317900583,1
702,305,35,0.0434882915364319,1
702,306,35,0.041695687324733,1
703,302,35,0.0366663704434777,1
703,303,35,0.0441517873513919,1
703,304,35,0.0458278695920625,1
703,305,35,0.0482793857213627,1
703,306,35,0.053493417336771,1
703,307,35,0.0452629217383856,1
704,302,35,0.0399543720256571,1
704,303,35,0.045136182225153,1
704,304,35,0.0421140175301299,1
704,305,35,0.0407751112662353,1
704,306,35,0.04325469939291,1
705,302,35,0.0440116635577034,1
705,303,35,0.0495619613687326,1
705,304,35,0.0435063238654819,1
706,301,35,0.0359370175535509,1
706,302,35,0.0496345397435798,1
706,303,35,0.056360225235687,1
706,304,35,0.0473493298598666,1
707,301,35,0.0410610274900407,1
707,302,35,0.0563234257543462,1
707,303,35,0.0616401051781664,1
707,304,35,0.0497131541664758,1
708,302,35,0.0427518499350043,1
708,303,35,0.0456294264935551,1
708,304,35,0.0393416781571249,1
710,287,35,0.0380661678935338,1
710,288,35,0.0415114624727404,1
711,287,35,0.0403301903738062,1
711,288,35,0.0439040177848686,1
701,303,36,0.0413520670647745,1
701,304,36,0.0459830339344638,1
701,305,36,0.0380623975504772,1
702,303,36,0.0454861884489892,1
702,304,36,0.0524554561815337,1
702,305,36,0.0457591082157157,1
702,306,36,0.0368855460548483,1
703,303,36,0.0419601682880522,1
703,304,36,0.0455097523641013,1
703,305,36,0.0446282327440409,1
703,306,36,0.0437183874376298,1
704,302,36,0.0389648304732458,1
704,303,36,0.0441046332774805,1
704,304,36,0.0393960521609729,1
705,302,36,0.0421636006030869,1
705,303,36,0.0475873863461724,1
705,304,36,0.0402399704092513,1
706,302,36,0.0414990025532658,1
706,303,36,0.0487442197404222,1
706,304,36,0.0422255123770827,1
707,302,36,0.0402750844626828,1
707,303,36,0.0467085231704464,1
707,304,36,0.0413429109339179,1
708,303,36,0.0354651648061564,1
686,290,37,0.0354676375446808,1
701,303,37,0.039921961072004,1
701,304,37,0.0473285856831425,1
701,305,37,0.0382241373944969,1
702,303,37,0.0449654787039827,1
702,304,37,0.0556081569765332,1
702,305,37,0.0467325682198233,1
703,303,37,0.0388762172055386,1
703,304,37,0.0441334080224782,1
704,302,37,0.0367652304130416,1
705,302,37,0.0390850848797825,1
705,303,37,0.0428753498108542,1
706,302,37,0.0364399982298925,1
706,303,37,0.0411637890210969,1
707,303,37,0.0356193435523063,1
701,303,38,0.0369390977564983,1
701,304,38,0.0431063438293463,1
702,303,38,0.0405599917625148,1
702,304,38,0.049785382625494,1
702,305,38,0.0401418452629282,1
703,304,38,0.036868333112031,1
705,302,38,0.0347527186826966,1
702,304,39,0.0356805671585052,1
