x,y,z,signal,cytoplasm.p
653,278,1,0.0355905892190653,1
657,274,1,0.0351206960003128,1
657,275,1,0.0357771643390421,1
658,274,1,0.0371140177634071,1
658,275,1,0.037255853228692,1
658,276,1,0.0368741883702348,1
658,277,1,0.0346581889215156,1
659,274,1,0.0387241612820841,1
659,275,1,0.0392419550618497,1
659,276,1,0.0394054707287011,1
659,277,1,0.037071284292801,1
660,275,1,0.0403563349181566,1
660,276,1,0.0408931407912931,1
661,275,1,0.0426717075463221,1
661,276,1,0.0435378891892152,1
662,275,1,0.0432241196654282,1
662,276,1,0.0451592883337223,1
663,275,1,0.0370104047705005,1
663,276,1,0.0386042072199673,1
663,277,1,0.0349010450866079,1
664,275,1,0.0345559610120984,1
664,276,1,0.0346497792777607,1
665,275,1,0.0360710848874339,1
665,276,1,0.0345174702709179,1
666,274,1,0.0346601951056013,1
666,275,1,0.0411098699078266,1
666,276,1,0.0398638867082653,1
666,277,1,0.0354932513833572,1
667,275,1,0.0395920750083303,1
667,276,1,0.0405971557395107,1
667,277,1,0.0369369370262548,1
668,276,1,0.0388514898202954,1
668,277,1,0.036924159266569,1
669,276,1,0.0434942459374539,1
669,277,1,0.0433498502546874,1
669,278,1,0.034467732651803,1
669,282,1,0.0365854903155896,1
670,276,1,0.0392761622500913,1
670,277,1,0.0400427345203536,1
670,282,1,0.0389589460553895,1
652,277,2,0.0505133883394796,1
652,278,2,0.0499501988128429,1
653,277,2,0.0404534628043673,1
653,278,2,0.0377562066203515,1
654,276,2,0.0347665840974173,1
654,277,2,0.0363330435408197,1
654,278,2,0.0345591773217592,1
656,275,2,0.0350521533213591,1
657,274,2,0.0362394847960639,1
657,275,2,0.0379955198876761,1
657,276,2,0.0371650500710889,1
658,274,2,0.0389662563802486,1
658,275,2,0.040553180067712,1
658,276,2,0.0399975982943889,1
658,277,2,0.0346091977895024,1
659,274,2,0.0403040283336644,1
659,275,2,0.0423262269005398,1
659,276,2,0.041595675548899,1
659,277,2,0.0358474682610014,1
660,274,2,0.0388773369361911,1
660,275,2,0.0418842190573865,1
660,276,2,0.0415184753691449,1
660,277,2,0.0358992995431592,1
661,274,2,0.0382861249835889,1
661,275,2,0.0417634631048283,1
661,276,2,0.0416637079339355,1
661,277,2,0.0352813044498189,1
662,274,2,0.0382688653853278,1
662,275,2,0.0431495496863215,1
662,276,2,0.0435050991600807,1
662,277,2,0.0359669995081583,1
663,275,2,0.0388478244519875,1
663,276,2,0.0387448879630168,1
664,275,2,0.0372783528164912,1
664,276,2,0.0364873214297878,1
665,275,2,0.0370791224073687,1
665,276,2,0.0356087702623426,1
666,274,2,0.0347003187873168,1
666,275,2,0.0436150193858035,1
666,276,2,0.0426816130802456,1
666,277,2,0.0350188121747941,1
667,275,2,0.0420248239853397,1
667,276,2,0.0435427326074804,1
667,277,2,0.0368443405500285,1
668,276,2,0.0369944281969453,1
669,276,2,0.0398679865553941,1
669,277,2,0.0395349483332949,1
669,282,2,0.0418454804591605,1
669,283,2,0.0391176591274891,1
670,276,2,0.0362376885614755,1
670,277,2,0.0369886662496292,1
670,282,2,0.0409014017208207,1
670,283,2,0.0387692770962921,1
651,277,3,0.0734056050263962,1
651,278,3,0.0725736801431538,1
652,276,3,0.0456780706257046,1
652,277,3,0.0557167008666622,1
652,278,3,0.0535665555769445,1
652,279,3,0.039342273014034,1
653,276,3,0.039355668958351,1
653,277,3,0.0438728227887209,1
653,278,3,0.0426573959889195,1
653,279,3,0.0368677295072261,1
654,276,3,0.0368866628695356,1
654,277,3,0.038794412716669,1
654,278,3,0.0367991955761681,1
655,276,3,0.0351180978752831,1
656,274,3,0.0344874212491099,1
656,275,3,0.0364242491016261,1
656,276,3,0.0362975620757679,1
657,274,3,0.0364524027460274,1
657,275,3,0.0400225647887819,1
657,276,3,0.040296446824038,1
657,277,3,0.0350249386177653,1
658,274,3,0.039015577016334,1
658,275,3,0.0441179767344231,1
658,276,3,0.0431952020381337,1
658,277,3,0.0356719708929749,1
659,274,3,0.0393835659978111,1
659,275,3,0.044955474027241,1
659,276,3,0.0426825666008794,1
659,277,3,0.0345400515057438,1
660,274,3,0.0381532531954547,1
660,275,3,0.0429871333383659,1
660,276,3,0.0412165738238886,1
660,277,3,0.0346925914794283,1
661,274,3,0.0364774217277948,1
661,275,3,0.0394954136765581,1
661,276,3,0.0388472645866612,1
662,274,3,0.0371386489217974,1
662,275,3,0.0407963569889808,1
662,276,3,0.0396315251020751,1
663,274,3,0.0362257710115357,1
663,275,3,0.0414956171176211,1
663,276,3,0.0395847588515408,1
664,275,3,0.0396848522744016,1
664,276,3,0.038585288437484,1
665,275,3,0.0365482971789413,1
665,276,3,0.0364248614543267,1
666,275,3,0.0417625708194646,1
666,276,3,0.0418537472206186,1
666,277,3,0.0351290239970409,1
667,275,3,0.0417426606087994,1
667,276,3,0.0430633974932777,1
667,277,3,0.0359881081805375,1
668,276,3,0.0356768434708926,1
668,282,3,0.0350352378069963,1
669,276,3,0.0347908245164653,1
669,282,3,0.0424386840160222,1
669,283,3,0.0391567884650574,1
670,282,3,0.03676847879832,1
670,283,3,0.0362903917172404,1
650,278,4,0.0657558384855718,1
651,277,4,0.0813993213312515,1
651,278,4,0.0726060823489112,1
651,279,4,0.0447410660190393,1
652,276,4,0.0441518427547315,1
652,277,4,0.0581946414729758,1
652,278,4,0.0548861989744574,1
652,279,4,0.0401873284887565,1
653,276,4,0.0384175825285814,1
653,277,4,0.0450664702441377,1
653,278,4,0.0458780008664849,1
653,279,4,0.0396655252567846,1
654,276,4,0.0366920775930419,1
654,277,4,0.0385377494561608,1
654,278,4,0.037347017965985,1
655,276,4,0.0351979428355107,1
656,275,4,0.0345321900634542,1
656,276,4,0.0352191564826386,1
657,274,4,0.0345579117928446,1
657,275,4,0.0400164704214284,1
657,276,4,0.041120863096785,1
657,277,4,0.0350103704554215,1
658,274,4,0.0380640946422475,1
658,275,4,0.0475824408691237,1
658,276,4,0.0466424094905384,1
658,277,4,0.0367203653718444,1
659,274,4,0.0382744552906947,1
659,275,4,0.0483569678925633,1
659,276,4,0.0459377314984805,1
659,277,4,0.0357417149496079,1
660,274,4,0.0345024413860661,1
660,275,4,0.0406921287274084,1
660,276,4,0.0391597277580202,1
662,274,4,0.0351338790791671,1
662,275,4,0.0378057926092738,1
662,276,4,0.0350589825119534,1
663,274,4,0.0391775763812601,1
663,275,4,0.0456748047446347,1
663,276,4,0.0414469409098539,1
664,274,4,0.0371952769667766,1
664,275,4,0.0466425115493218,1
664,276,4,0.0449907018033169,1
664,277,4,0.035068103651227,1
665,275,4,0.0411486901530793,1
665,276,4,0.0428291346777504,1
665,277,4,0.0365357526964747,1
666,275,4,0.0405415366185049,1
666,276,4,0.0424116530182386,1
666,277,4,0.035403923704166,1
667,275,4,0.0379959572824622,1
667,276,4,0.0396909874652685,1
669,282,4,0.0351713929719919,1
682,273,4,0.03457758289436,1
650,277,5,0.0759307667738218,1
650,278,5,0.0634122072382562,1
651,276,5,0.0594969290453746,1
651,277,5,0.0843714072392266,1
651,278,5,0.0726273455674482,1
651,279,5,0.0444590192811087,1
652,276,5,0.0455140854884494,1
652,277,5,0.0614781932921975,1
652,278,5,0.0578518930866243,1
652,279,5,0.0426286212439218,1
653,275,5,0.0350544131944208,1
653,276,5,0.0399635339884442,1
653,277,5,0.047723276158331,1
653,278,5,0.0489635236542634,1
653,279,5,0.0417732403362812,1
654,276,5,0.037112734738701,1
654,277,5,0.03864599300187,1
654,278,5,0.0376626303798042,1
655,276,5,0.0346976798387737,1
656,275,5,0.0346385790552702,1
656,276,5,0.0350875093999055,1
657,274,5,0.0372300323564834,1
657,275,5,0.04361534014198,1
657,276,5,0.0437264180059034,1
657,277,5,0.0359173231243135,1
658,274,5,0.0430703870619602,1
658,275,5,0.0554084891726245,1
658,276,5,0.0535014304092532,1
658,277,5,0.0403806919758142,1
659,274,5,0.0432480626560216,1
659,275,5,0.0558247956981441,1
659,276,5,0.0525721414466155,1
659,277,5,0.0396804083433744,1
660,274,5,0.036342558335401,1
660,275,5,0.0429155347278397,1
660,276,5,0.0404950094771203,1
661,275,5,0.0345456851505893,1
662,274,5,0.0352147825347772,1
662,275,5,0.0372246611485096,1
663,274,5,0.04157487305287,1
663,275,5,0.0483176548491849,1
663,276,5,0.0441833410112642,1
663,277,5,0.0351282425183563,1
664,274,5,0.0416421006315001,1
664,275,5,0.057326115394029,1
664,276,5,0.0599275354644358,1
664,277,5,0.0461990632193395,1
665,274,5,0.0387325330182909,1
665,275,5,0.0587152812348166,1
665,276,5,0.0670445784834611,1
665,277,5,0.0525703918674709,1
666,275,5,0.0483799311188358,1
666,276,5,0.054999530879512,1
666,277,5,0.0432268198492413,1
667,275,5,0.0370307348801604,1
667,276,5,0.0393311252789179,1
681,272,5,0.0422519776776096,1
681,273,5,0.0491468095654484,1
681,274,5,0.0425167619013138,1
682,272,5,0.0441476321009236,1
682,273,5,0.0506606970715218,1
682,274,5,0.040712394685833,1
683,272,5,0.0378548391446266,1
683,273,5,0.0424199139477662,1
684,273,5,0.0375797207401084,1
685,272,5,0.0372935158357441,1
685,273,5,0.0396317321356072,1
686,273,5,0.0347991583451239,1
650,278,6,0.0619662675542274,1
651,277,6,0.081280606554362,1
651,278,6,0.0724952989974772,1
651,279,6,0.046035559216349,1
652,276,6,0.0483557490190926,1
652,277,6,0.0636363458224669,1
652,278,6,0.0605377303507566,1
652,279,6,0.0442504956907632,1
653,275,6,0.0351050285190732,1
653,276,6,0.0408787271751071,1
653,277,6,0.0481584227352724,1
653,278,6,0.0483838210164672,1
653,279,6,0.0404746064683294,1
654,276,6,0.03462520352271,1
654,277,6,0.0358229537412207,1
654,278,6,0.0355392449031027,1
656,275,6,0.0352742390660401,1
656,276,6,0.034986462456411,1
657,274,6,0.0398583317944813,1
657,275,6,0.0471334871967664,1
657,276,6,0.0459894578058897,1
657,277,6,0.0358185185580892,1
658,274,6,0.0483481850052576,1
658,275,6,0.0634389816310986,1
658,276,6,0.061455991132853,1
658,277,6,0.0434516903407275,1
659,274,6,0.0474014877301315,1
659,275,6,0.0625412259165765,1
659,276,6,0.0606170737649628,1
659,277,6,0.0432434029435666,1
660,274,6,0.0377184856939946,1
660,275,6,0.0447518900820137,1
660,276,6,0.0425871212266127,1
662,274,6,0.0357689558968889,1
662,275,6,0.0367491313689463,1
663,273,6,0.0373409323465271,1
663,274,6,0.0455463185682228,1
663,275,6,0.0523802651018306,1
663,276,6,0.0487211806990534,1
663,277,6,0.0375965808511315,1
664,272,6,0.0363185103700588,1
664,273,6,0.0394673008556702,1
664,274,6,0.0508516403074295,1
664,275,6,0.0725732135887153,1
664,276,6,0.0792664618834821,1
664,277,6,0.0561938635867604,1
665,272,6,0.0359250125246539,1
665,273,6,0.0383462930103707,1
665,274,6,0.0511975087765888,1
665,275,6,0.0828966753144087,1
665,276,6,0.0974762799057896,1
665,277,6,0.0681155716929478,1
666,274,6,0.0387647660980643,1
666,275,6,0.0588248282169885,1
666,276,6,0.0693234053192618,1
666,277,6,0.0493381552045594,1
667,275,6,0.0377671298261441,1
667,276,6,0.0401512200911778,1
679,275,6,0.0345663535122171,1
680,272,6,0.0397564567168583,1
680,273,6,0.0430849610562345,1
680,274,6,0.0405350223521566,1
680,275,6,0.0415854667545904,1
680,276,6,0.0345766701972396,1
681,271,6,0.0384384112682974,1
681,272,6,0.0596474336753208,1
681,273,6,0.066775802303342,1
681,274,6,0.0545263571998634,1
681,275,6,0.043429464853661,1
682,271,6,0.0363287803996375,1
682,272,6,0.0583680597577855,1
682,273,6,0.0668163283882606,1
682,274,6,0.0525087075387639,1
682,275,6,0.0366831401595784,1
683,272,6,0.04086750654086,1
683,273,6,0.0479061305066604,1
683,274,6,0.0379517599973052,1
684,273,6,0.0398636359352546,1
685,272,6,0.038177715227861,1
685,273,6,0.0447572408782309,1
686,273,6,0.0366286174415032,1
650,278,7,0.0559303303121445,1
650,279,7,0.0385005271598601,1
651,277,7,0.0678566339795517,1
651,278,7,0.0648059803041244,1
651,279,7,0.0448767925371445,1
652,276,7,0.0473654609795796,1
652,277,7,0.0575322449769116,1
652,278,7,0.0560517452728471,1
652,279,7,0.0419497903677597,1
653,276,7,0.0402064630526676,1
653,277,7,0.0449739437510772,1
653,278,7,0.0443355077413978,1
653,279,7,0.0371446558101937,1
654,277,7,0.0351708185268394,1
654,278,7,0.0349222762295272,1
656,274,7,0.0350921166249862,1
656,275,7,0.0362031197935441,1
657,273,7,0.0353383932173062,1
657,274,7,0.0443121333640264,1
657,275,7,0.0487673725044353,1
657,276,7,0.0459017980588163,1
657,277,7,0.0354682673931728,1
658,273,7,0.0367332335264527,1
658,274,7,0.0513487890532892,1
658,275,7,0.063431773365023,1
658,276,7,0.0616301908963472,1
658,277,7,0.0434533611888106,1
659,274,7,0.0484701977388346,1
659,275,7,0.0616897582342893,1
659,276,7,0.0607236814541718,1
659,277,7,0.0426866956076606,1
660,274,7,0.0382728340140207,1
660,275,7,0.0436623425856988,1
660,276,7,0.0411446194656029,1
662,272,7,0.0372566609510638,1
662,273,7,0.0369110520028109,1
662,274,7,0.0366582261525598,1
662,275,7,0.0369414917639612,1
663,271,7,0.0401716930831345,1
663,272,7,0.0476474231545183,1
663,273,7,0.0471936493916177,1
663,274,7,0.0490331510722867,1
663,275,7,0.0558587783570621,1
663,276,7,0.0538589102520019,1
663,277,7,0.0417898934137723,1
664,271,7,0.0400524155249535,1
664,272,7,0.0495349886902539,1
664,273,7,0.0506464613292155,1
664,274,7,0.0615017951148578,1
664,275,7,0.0872034101770266,1
664,276,7,0.0954658968300705,1
664,277,7,0.0659479714352978,1
664,278,7,0.0346363250141389,1
665,272,7,0.0425606005227463,1
665,273,7,0.0457428196338798,1
665,274,7,0.0653248588229597,1
665,275,7,0.106440242821057,1
665,276,7,0.123610915806239,1
665,277,7,0.0840486098870537,1
665,278,7,0.0390977197571715,1
666,273,7,0.0349002606919581,1
666,274,7,0.0469679041105592,1
666,275,7,0.0732946525489782,1
666,276,7,0.0858573189747783,1
666,277,7,0.06008515504957,1
667,275,7,0.0427312719682989,1
667,276,7,0.0455791144292877,1
667,277,7,0.035255853905196,1
678,268,7,0.05924648262276,1
678,269,7,0.0527557947694209,1
679,270,7,0.0428394105392595,1
679,274,7,0.0348180188083024,1
679,275,7,0.0397318313903985,1
680,272,7,0.0444541758628434,1
680,273,7,0.0463666379098063,1
680,274,7,0.046084378306413,1
680,275,7,0.0490544142908237,1
680,276,7,0.0388921092161018,1
681,271,7,0.0498255471307229,1
681,272,7,0.0729290604909291,1
681,273,7,0.073024943259982,1
681,274,7,0.0606204796123642,1
681,275,7,0.0542548166846959,1
681,276,7,0.0376052325200014,1
682,271,7,0.0488872449195254,1
682,272,7,0.072781086918812,1
682,273,7,0.0743586824334696,1
682,274,7,0.0604447052276398,1
682,275,7,0.0494500816143679,1
683,272,7,0.0450695669992236,1
683,273,7,0.048685086881301,1
683,274,7,0.0397856017894416,1
684,273,7,0.0406253997788345,1
685,272,7,0.0381044953406608,1
685,273,7,0.0467435818205383,1
686,273,7,0.0365724005476229,1
650,278,8,0.0552225730607921,1
650,279,8,0.043535369795247,1
651,277,8,0.0545714380224885,1
651,278,8,0.0577544706879243,1
651,279,8,0.0456178267838266,1
652,276,8,0.0412913741642494,1
652,277,8,0.0470027644750148,1
652,278,8,0.047708159794522,1
652,279,8,0.0392445794305666,1
653,276,8,0.0372797583117373,1
653,277,8,0.0394360621200439,1
653,278,8,0.0390965737828318,1
653,279,8,0.0344974696653302,1
654,275,8,0.0357344512801927,1
654,276,8,0.0364273137810943,1
654,277,8,0.0367790695840751,1
654,278,8,0.0362429198031178,1
655,274,8,0.0348418393283557,1
655,275,8,0.0368115825965117,1
655,276,8,0.0357754176758628,1
656,274,8,0.0384023407782669,1
656,275,8,0.038327006816267,1
656,276,8,0.0349118924773042,1
657,273,8,0.0384149552438993,1
657,274,8,0.0473386457632238,1
657,275,8,0.0491670405322901,1
657,276,8,0.045029793233337,1
657,277,8,0.0349609798361703,1
658,273,8,0.0380462110274247,1
658,274,8,0.0515024254299043,1
658,275,8,0.0609135457829404,1
658,276,8,0.05896946592487,1
658,277,8,0.0426724919409719,1
659,273,8,0.03457945786001,1
659,274,8,0.0476604166956319,1
659,275,8,0.0593535335386857,1
659,276,8,0.0579533336854264,1
659,277,8,0.0408577263934418,1
660,274,8,0.0372330737082297,1
660,275,8,0.0414642500795242,1
660,276,8,0.0382166754394453,1
662,271,8,0.0497397769291256,1
662,272,8,0.0564945637543374,1
662,273,8,0.0486424525535131,1
662,274,8,0.0386613834664118,1
662,275,8,0.0389714234706555,1
662,276,8,0.0349123152922642,1
663,271,8,0.06641901062839,1
663,272,8,0.0783900626983848,1
663,273,8,0.0670338652271658,1
663,274,8,0.0538407321246898,1
663,275,8,0.0618262137437047,1
663,276,8,0.0604037884033789,1
663,277,8,0.0463786866781819,1
664,271,8,0.0591438406462787,1
664,272,8,0.0720273973829842,1
664,273,8,0.0683559755312725,1
664,274,8,0.0706431070360795,1
664,275,8,0.0993431683320016,1
664,276,8,0.105049245754098,1
664,277,8,0.073881793814104,1
664,278,8,0.0358439136993727,1
665,271,8,0.0403898072831574,1
665,272,8,0.0494598500979251,1
665,273,8,0.0542067324178727,1
665,274,8,0.0741431342828587,1
665,275,8,0.118928330519855,1
665,276,8,0.132225983480427,1
665,277,8,0.0920214303849923,1
665,278,8,0.0413408026910487,1
666,273,8,0.0372355901862327,1
666,274,8,0.0522095178411817,1
666,275,8,0.0826138266860368,1
666,276,8,0.0938419258042209,1
666,277,8,0.0678424565565502,1
667,275,8,0.045566966518094,1
667,276,8,0.048948174013235,1
667,277,8,0.0380760063602567,1
678,268,8,0.0477596761524338,1
678,269,8,0.0403166194715748,1
679,268,8,0.0932686295420591,1
679,269,8,0.0714677420062195,1
679,274,8,0.0358794184921464,1
679,275,8,0.0403984647839578,1
680,270,8,0.0359907238013587,1
680,272,8,0.0433514861111876,1
680,273,8,0.0402463038857546,1
680,274,8,0.0418495628104978,1
680,275,8,0.0451277900771896,1
680,276,8,0.0365092582362955,1
681,271,8,0.0528089528157633,1
681,272,8,0.0748195157482185,1
681,273,8,0.0627438096857261,1
681,274,8,0.0522806557291999,1
681,275,8,0.0504342782024927,1
681,276,8,0.0359565078652214,1
682,271,8,0.0533975637273706,1
682,272,8,0.0749697287816407,1
682,273,8,0.0646319788262666,1
682,274,8,0.0546904327320411,1
682,275,8,0.050340442441039,1
682,276,8,0.0349150912911735,1
683,272,8,0.0426779127203548,1
683,273,8,0.0409956019779295,1
683,274,8,0.0367768680303182,1
684,273,8,0.0357219913607182,1
685,273,8,0.0419119353070017,1
649,278,9,0.0514807539762335,1
649,279,9,0.0425163536661801,1
650,277,9,0.0530499981664411,1
650,278,9,0.0630964490261749,1
650,279,9,0.051283133179924,1
651,277,9,0.0499775797264554,1
651,278,9,0.0577050742367426,1
651,279,9,0.047439578984074,1
652,276,9,0.0364999738029683,1
652,277,9,0.0402717136068642,1
652,278,9,0.0426176659625116,1
652,279,9,0.0374410461811446,1
653,278,9,0.0350221451230645,1
654,274,9,0.0355572509884656,1
654,275,9,0.0390357263361489,1
654,276,9,0.0379420614969138,1
654,277,9,0.0363463665860056,1
654,278,9,0.0360134479184814,1
655,274,9,0.0410601556164337,1
655,275,9,0.0437121880955276,1
655,276,9,0.0398905065549499,1
656,273,9,0.0380231369944731,1
656,274,9,0.0439392193172573,1
656,275,9,0.0429871916576707,1
656,276,9,0.0374176251483293,1
657,273,9,0.0403847743271515,1
657,274,9,0.0475962537964701,1
657,275,9,0.047622127156053,1
657,276,9,0.042495440363472,1
658,273,9,0.0361942377634201,1
658,274,9,0.045765211330965,1
658,275,9,0.0512489464034391,1
658,276,9,0.0490344515927842,1
658,277,9,0.0369440140738946,1
659,274,9,0.0414336616041467,1
659,275,9,0.0490773571053395,1
659,276,9,0.0472325512838972,1
659,277,9,0.0348817093210952,1
660,275,9,0.0366250016446044,1
661,271,9,0.0348930903334306,1
661,272,9,0.0387884903912647,1
661,273,9,0.0353596360240865,1
662,271,9,0.0697036646824728,1
662,272,9,0.0759116672014936,1
662,273,9,0.056281441686807,1
662,274,9,0.0407373990877741,1
662,275,9,0.0419490613764494,1
662,276,9,0.0395894418917178,1
663,270,9,0.061276081909417,1
663,271,9,0.100896817940101,1
663,272,9,0.111014459175227,1
663,273,9,0.0822203288406318,1
663,274,9,0.0614878276413536,1
663,275,9,0.0702344928268655,1
663,276,9,0.0694237611789943,1
663,277,9,0.0497584682663201,1
664,270,9,0.0538120098670665,1
664,271,9,0.08482370260775,1
664,272,9,0.0959372042919649,1
664,273,9,0.0825519557355543,1
664,274,9,0.0826044664376133,1
664,275,9,0.110385252195535,1
664,276,9,0.112643247375655,1
664,277,9,0.0771922133370558,1
664,278,9,0.0346128077544707,1
665,270,9,0.0359226826684264,1
665,271,9,0.0480435103770572,1
665,272,9,0.0558812196255565,1
665,273,9,0.0612645638467152,1
665,274,9,0.0839842078787421,1
665,275,9,0.125404397723476,1
665,276,9,0.1322958500076,1
665,277,9,0.0918960788712145,1
665,278,9,0.0399728709091457,1
666,273,9,0.0398499367305526,1
666,274,9,0.0592972729053269,1
666,275,9,0.0890792564484588,1
666,276,9,0.0959652850372352,1
666,277,9,0.0697869913051982,1
667,274,9,0.035796756709496,1
667,275,9,0.0461109573295842,1
667,276,9,0.0480351473887461,1
667,277,9,0.0374719495807682,1
678,268,9,0.0345908272084844,1
679,267,9,0.0452154556561934,1
679,268,9,0.0623644484398093,1
679,269,9,0.0462900180071351,1
679,274,9,0.0371722379254078,1
679,275,9,0.0405884020118574,1
680,268,9,0.0720678651485981,1
680,269,9,0.0529171992774378,1
680,272,9,0.0383522707391146,1
680,273,9,0.0346891418925482,1
680,274,9,0.0378979458587835,1
680,275,9,0.0400435364107948,1
681,271,9,0.0480408860083403,1
681,272,9,0.0643501041302851,1
681,273,9,0.0506064484541792,1
681,274,9,0.0426606472901632,1
681,275,9,0.0424596031506608,1
682,271,9,0.0501774049924871,1
682,272,9,0.0666136921317367,1
682,273,9,0.0530226755721334,1
682,274,9,0.0446394796219752,1
682,275,9,0.0442041610030846,1
683,272,9,0.0430011649631053,1
683,273,9,0.0378414432003096,1
649,278,10,0.0581556375219129,1
649,279,10,0.0481653627325459,1
650,277,10,0.0620710848407785,1
650,278,10,0.0799116483526943,1
650,279,10,0.0643857955448343,1
650,280,10,0.0366831459915089,1
651,277,10,0.0567840549515283,1
651,278,10,0.068686476863612,1
651,279,10,0.0555797263154339,1
651,280,10,0.0348863457058283,1
652,276,10,0.0375689316687169,1
652,277,10,0.0407379327094132,1
652,278,10,0.0432148702236839,1
652,279,10,0.0380169580641275,1
654,274,10,0.0356914612046454,1
654,275,10,0.0389721903695139,1
654,276,10,0.0360101412138981,1
655,273,10,0.0377238044145941,1
655,274,10,0.0443970929272866,1
655,275,10,0.0462994773983767,1
655,276,10,0.0398613148269228,1
656,273,10,0.0433292227165729,1
656,274,10,0.0486296747938273,1
656,275,10,0.0470503471958165,1
656,276,10,0.0391766549362439,1
657,273,10,0.0411684458175867,1
657,274,10,0.0476669018023278,1
657,275,10,0.0476467553984781,1
657,276,10,0.0416422639255536,1
658,273,10,0.0346578565014781,1
658,274,10,0.0422117636009717,1
658,275,10,0.0450458310421622,1
658,276,10,0.04155193898625,1
659,274,10,0.0364964046615134,1
659,275,10,0.0397989131707665,1
659,276,10,0.0370422675226883,1
661,271,10,0.0367233104967377,1
661,272,10,0.0400267841904856,1
662,271,10,0.0799098346223144,1
662,272,10,0.0836461075409847,1
662,273,10,0.0555959507460345,1
662,274,10,0.0394935853663521,1
662,275,10,0.0409530638769946,1
662,276,10,0.0393495862548583,1
663,270,10,0.0783144925432004,1
663,271,10,0.126593271743793,1
663,272,10,0.130302834420856,1
663,273,10,0.0843571131776155,1
663,274,10,0.0622519096773002,1
663,275,10,0.0707828109307733,1
663,276,10,0.0702771883899234,1
663,277,10,0.0460663168177106,1
664,270,10,0.0701726743637574,1
664,271,10,0.109078141616628,1
664,272,10,0.113385803756192,1
664,273,10,0.0842953180422293,1
664,274,10,0.0818572911681338,1
664,275,10,0.104744282445339,1
664,276,10,0.105682721706902,1
664,277,10,0.068292541623421,1
665,270,10,0.042628163437379,1
665,271,10,0.0566496522816425,1
665,272,10,0.0605498199426455,1
665,273,10,0.0602545084788338,1
665,274,10,0.0811465363045137,1
665,275,10,0.11387966329326,1
665,276,10,0.117284099367511,1
665,277,10,0.0789426556073358,1
666,273,10,0.0379784031717117,1
666,274,10,0.057691573317677,1
666,275,10,0.0816477615697803,1
666,276,10,0.0850349118020824,1
666,277,10,0.0605391708375856,1
667,275,10,0.0408655236844961,1
667,276,10,0.041132433646861,1
679,267,10,0.0354233177889836,1
679,268,10,0.038014071258539,1
679,275,10,0.035530462015797,1
680,268,10,0.0411059712622994,1
681,271,10,0.0381912715502662,1
681,272,10,0.0478268191680718,1
681,273,10,0.0404526463340998,1
681,274,10,0.035281849735319,1
682,271,10,0.0473346158992608,1
682,272,10,0.0570576599700864,1
682,273,10,0.0429492491179555,1
682,274,10,0.0346329716541118,1
682,275,10,0.0352548683089445,1
683,271,10,0.0462898080576378,1
683,272,10,0.052435866727045,1
683,273,10,0.0385493549978198,1
684,271,10,0.0367106785353139,1
684,272,10,0.0396826653004709,1
688,275,10,0.035567348976095,1
649,278,11,0.0567371020792185,1
649,279,11,0.0474276322744818,1
650,277,11,0.0629497059913895,1
650,278,11,0.0810373858936146,1
650,279,11,0.0658956473550142,1
650,280,11,0.0374408187358558,1
651,276,11,0.044534539864884,1
651,277,11,0.057592529642303,1
651,278,11,0.0693774964744814,1
651,279,11,0.0569323376159609,1
651,280,11,0.0349307471085522,1
652,275,11,0.036726532638329,1
652,276,11,0.0383354164600219,1
652,277,11,0.0414039100107933,1
652,278,11,0.0427980592361776,1
652,279,11,0.0381476370464006,1
654,275,11,0.0359621036025188,1
655,273,11,0.0395549693506393,1
655,274,11,0.043735078422669,1
655,275,11,0.0436704839606515,1
655,276,11,0.0360693353082894,1
656,273,11,0.0464360612102627,1
656,274,11,0.0510945693716529,1
656,275,11,0.0484554721143678,1
656,276,11,0.0381552039762009,1
657,273,11,0.0423201383651167,1
657,274,11,0.0482474529860091,1
657,275,11,0.0471786525823835,1
657,276,11,0.0388965648109899,1
658,273,11,0.0359870642649813,1
658,274,11,0.0409638733601428,1
658,275,11,0.0400927258284444,1
661,271,11,0.0349656862040692,1
661,272,11,0.0369452271154348,1
662,270,11,0.0518387936843085,1
662,271,11,0.0780629905411686,1
662,272,11,0.077921280462389,1
662,273,11,0.0537876265657217,1
662,274,11,0.0391603838501994,1
662,275,11,0.0393339508492364,1
662,276,11,0.036022580721616,1
663,270,11,0.0828452843430022,1
663,271,11,0.13120824162817,1
663,272,11,0.126946605083969,1
663,273,11,0.0818252213824139,1
663,274,11,0.0617183463575115,1
663,275,11,0.0676270542042014,1
663,276,11,0.0627246342983017,1
663,277,11,0.0382585661960968,1
664,270,11,0.0780256545222235,1
664,271,11,0.120748755955917,1
664,272,11,0.117021930764628,1
664,273,11,0.0830752023703205,1
664,274,11,0.0780415698605086,1
664,275,11,0.0928225626752903,1
664,276,11,0.087681021955772,1
664,277,11,0.0522184115351666,1
665,270,11,0.0458296920703381,1
665,271,11,0.0620817339458384,1
665,272,11,0.0625218289157937,1
665,273,11,0.0592117476448099,1
665,274,11,0.0759213948615374,1
665,275,11,0.0972377306213581,1
665,276,11,0.0942551122469327,1
665,277,11,0.0592062248066435,1
666,273,11,0.0385403679929472,1
666,274,11,0.0553071710443625,1
666,275,11,0.0699129901632595,1
666,276,11,0.0682982627472237,1
666,277,11,0.0457299048238276,1
667,275,11,0.0350438574002486,1
682,271,11,0.0407883643282554,1
682,272,11,0.0475284984281314,1
682,273,11,0.0362042395241966,1
683,271,11,0.0523839858734781,1
683,272,11,0.0582853921432046,1
683,273,11,0.0395243167240264,1
684,271,11,0.040679695051621,1
684,272,11,0.0440654572844684,1
688,275,11,0.0350277437763271,1
688,276,11,0.0374964028652788,1
689,275,11,0.0352754754353023,1
649,277,12,0.0421608566797952,1
649,278,12,0.0470120080848286,1
649,279,12,0.0402717165228295,1
650,276,12,0.0430306803632742,1
650,277,12,0.0539865303867372,1
650,278,12,0.0665870752010173,1
650,279,12,0.0551502337950947,1
651,275,12,0.0418762876319311,1
651,276,12,0.0435131209804586,1
651,277,12,0.0507987272021673,1
651,278,12,0.0597914182069884,1
651,279,12,0.0496957108624044,1
652,275,12,0.0374787087881967,1
652,276,12,0.0378756153969683,1
652,277,12,0.0395382433740172,1
652,278,12,0.0407485380749945,1
652,279,12,0.0354433912937023,1
655,273,12,0.0371379403422438,1
655,274,12,0.0400895299305403,1
655,275,12,0.0388347055243685,1
656,273,12,0.0435639054310949,1
656,274,12,0.0491860351298696,1
656,275,12,0.046803834410312,1
656,276,12,0.0357252805695099,1
657,273,12,0.041168049246314,1
657,274,12,0.0466175771305465,1
657,275,12,0.0448346130999342,1
657,276,12,0.0347862027115584,1
658,273,12,0.0356593389315511,1
658,274,12,0.0379601871368515,1
658,275,12,0.0354182235977077,1
662,270,12,0.045957621297389,1
662,271,12,0.0661367393611358,1
662,272,12,0.064788583655497,1
662,273,12,0.0488587296954342,1
662,274,12,0.038079143938856,1
662,275,12,0.0378706028527191,1
663,270,12,0.0738871591901473,1
663,271,12,0.113623606553522,1
663,272,12,0.106086862825437,1
663,273,12,0.0719408340388414,1
663,274,12,0.0577641925160376,1
663,275,12,0.0618695683149071,1
663,276,12,0.0527971023330241,1
664,270,12,0.0736538294834972,1
664,271,12,0.111416232529986,1
664,272,12,0.102714840620805,1
664,273,12,0.0734963498646945,1
664,274,12,0.0696235339576516,1
664,275,12,0.078698764274583,1
664,276,12,0.0677322855578167,1
664,277,12,0.0381203231999887,1
665,270,12,0.0439903624316183,1
665,271,12,0.0589720669658649,1
665,272,12,0.0566724376340353,1
665,273,12,0.0531697626908173,1
665,274,12,0.0660389378869544,1
665,275,12,0.078787497096865,1
665,276,12,0.0701627250903553,1
665,277,12,0.0417477343883187,1
666,273,12,0.0358556154678846,1
666,274,12,0.047877250786914,1
666,275,12,0.0554143677585502,1
666,276,12,0.0505490156027935,1
679,266,12,0.0377679550443073,1
682,272,12,0.0364105644767503,1
683,271,12,0.049026450184163,1
683,272,12,0.0544470429453097,1
683,273,12,0.0367728731579381,1
684,271,12,0.037507757633927,1
684,272,12,0.0412665009807441,1
686,274,12,0.0349858880112585,1
687,274,12,0.0411107067898507,1
687,275,12,0.0370305832499678,1
688,274,12,0.0374169486443934,1
688,275,12,0.0355954851247049,1
649,277,13,0.0365655917687853,1
649,278,13,0.0369391123363245,1
650,276,13,0.0394927834759108,1
650,277,13,0.0426268570849511,1
650,278,13,0.0471519277609502,1
650,279,13,0.0416481979148189,1
651,275,13,0.0412612289155884,1
651,276,13,0.0406530664570406,1
651,277,13,0.0427231568370334,1
651,278,13,0.046234734222132,1
651,279,13,0.0397332602133665,1
652,275,13,0.0363838717309347,1
652,276,13,0.0370502164439351,1
652,277,13,0.0381933856250658,1
652,278,13,0.0379492347714065,1
655,274,13,0.0371393808290728,1
655,275,13,0.0364028371688618,1
656,273,13,0.0390970257574441,1
656,274,13,0.0445426695759757,1
656,275,13,0.0428239675873434,1
657,273,13,0.0385684837298004,1
657,274,13,0.0418516331458189,1
657,275,13,0.0391389369258523,1
662,270,13,0.0388637456222031,1
662,271,13,0.0520789350857616,1
662,272,13,0.0513824742837526,1
662,273,13,0.0435083883688725,1
662,274,13,0.0358349412743263,1
662,275,13,0.0349246527411986,1
663,270,13,0.0591134038010937,1
663,271,13,0.0858482328270875,1
663,272,13,0.0795449015724098,1
663,273,13,0.0601192310193757,1
663,274,13,0.0502052058050943,1
663,275,13,0.0514856411339774,1
663,276,13,0.0418102439351889,1
664,270,13,0.0612505963732111,1
664,271,13,0.0871347216998108,1
664,272,13,0.0784215201314041,1
664,273,13,0.0605860887183124,1
664,274,13,0.0571471392794701,1
664,275,13,0.0612627792759878,1
664,276,13,0.0487768493914684,1
665,270,13,0.0398241858415098,1
665,271,13,0.0505176456487314,1
665,272,13,0.0474260168297383,1
665,273,13,0.0458355152529243,1
665,274,13,0.0526755532379205,1
665,275,13,0.0584299190444069,1
665,276,13,0.0479782306632081,1
666,274,13,0.0382178359936112,1
666,275,13,0.0407704690495717,1
666,276,13,0.0350440469379892,1
679,266,13,0.0447907540667451,1
683,271,13,0.0384447884842794,1
683,272,13,0.0428299278202959,1
686,274,13,0.0355907845887365,1
687,274,13,0.044967551955269,1
687,275,13,0.0390911267597617,1
688,274,13,0.0367602907679234,1
650,276,14,0.0357673608639021,1
650,277,14,0.0350771343955783,1
650,278,14,0.034668820530784,1
651,275,14,0.0390848661823894,1
651,276,14,0.0376221422024337,1
651,277,14,0.0390254504746398,1
651,278,14,0.0392665687244486,1
652,274,14,0.0369953059024828,1
652,275,14,0.0400913990642598,1
652,276,14,0.0384046822983554,1
652,277,14,0.039200630002455,1
652,278,14,0.0378258252904791,1
653,274,14,0.0426617961804681,1
653,275,14,0.0462211341602482,1
653,276,14,0.0403448081075591,1
653,277,14,0.0346119446287594,1
654,274,14,0.0438147659207736,1
654,275,14,0.0465827400938129,1
654,276,14,0.0378395798985207,1
655,274,14,0.0409151271692099,1
655,275,14,0.0427594868479703,1
656,273,14,0.0345485165528383,1
656,274,14,0.0393161984528495,1
656,275,14,0.0383713936391647,1
657,274,14,0.0350061248100307,1
662,271,14,0.0369732291296436,1
662,272,14,0.0369551034897059,1
662,273,14,0.0349339313425953,1
663,270,14,0.0433041279197093,1
663,271,14,0.0558993510974247,1
663,272,14,0.0522220681555787,1
663,273,14,0.04526212859584,1
663,274,14,0.0408478179435531,1
663,275,14,0.039500143372179,1
664,270,14,0.0460567961911989,1
664,271,14,0.0579594630443629,1
664,272,14,0.0521295562423444,1
664,273,14,0.045330589627767,1
664,274,14,0.0441286987386141,1
664,275,14,0.0436932984726967,1
665,270,14,0.0345702754854662,1
665,271,14,0.0394783786076205,1
665,272,14,0.0366881906113757,1
665,273,14,0.036047293527033,1
665,274,14,0.0381306573808026,1
665,275,14,0.0383560469141016,1
667,266,14,0.0352630242637234,1
667,267,14,0.034609967604326,1
679,266,14,0.0481910494703534,1
687,274,14,0.0426894016234042,1
687,275,14,0.0388907853678824,1
650,276,15,0.0348582678765232,1
651,275,15,0.037406462833387,1
651,276,15,0.0373976566183593,1
651,277,15,0.0400635224365563,1
651,278,15,0.0396097078501423,1
652,274,15,0.0451505258581732,1
652,275,15,0.0488928581526143,1
652,276,15,0.043192700139957,1
652,277,15,0.0423329277886635,1
652,278,15,0.0402125574200211,1
653,274,15,0.0643435490404235,1
653,275,15,0.0704603226709159,1
653,276,15,0.051548894251984,1
653,277,15,0.0361067413104003,1
654,273,15,0.041183081047131,1
654,274,15,0.065669590065675,1
654,275,15,0.072110549047795,1
654,276,15,0.0503160066523198,1
655,273,15,0.0351433822098874,1
655,274,15,0.0482690340447573,1
655,275,15,0.05202917705489,1
655,276,15,0.0389022305314531,1
656,274,15,0.0347924749527917,1
663,271,15,0.0357357284729683,1
664,271,15,0.0352022555481021,1
666,268,15,0.0362729367493081,1
667,267,15,0.0383421406758676,1
679,266,15,0.0420445009187857,1
685,275,15,0.0349264081522737,1
646,283,16,0.0354562419525191,1
646,284,16,0.0360599429842483,1
648,281,16,0.0372758538342797,1
648,282,16,0.0360267301401539,1
649,281,16,0.0392528636878161,1
649,282,16,0.0357385482113563,1
650,276,16,0.0352531158138347,1
650,277,16,0.0352408046085874,1
651,275,16,0.0361756397371134,1
651,276,16,0.0375541943803891,1
651,277,16,0.0413953633166721,1
651,278,16,0.0404025792109127,1
652,274,16,0.049968995124786,1
652,275,16,0.054417469225836,1
652,276,16,0.044907381012522,1
652,277,16,0.042878773154047,1
652,278,16,0.0407135785677208,1
653,273,16,0.0470791569323971,1
653,274,16,0.0808381729802835,1
653,275,16,0.0894401188108871,1
653,276,16,0.0588169959343513,1
653,277,16,0.0354942865510178,1
654,273,16,0.045971078476976,1
654,274,16,0.0816825840266877,1
654,275,16,0.0919393576273206,1
654,276,16,0.0590612955022379,1
655,273,16,0.0348392732789437,1
655,274,16,0.0511960799536208,1
655,275,16,0.057087910193496,1
655,276,16,0.041213940707276,1
684,275,16,0.0400146975145619,1
684,276,16,0.0500778131156477,1
684,277,16,0.0368432441470979,1
685,275,16,0.0555524445446396,1
685,276,16,0.0724447303282686,1
645,283,17,0.0370393661372736,1
645,284,17,0.0361272434620094,1
646,282,17,0.035382441788236,1
646,283,17,0.0421068530035328,1
646,284,17,0.0408043846412892,1
647,281,17,0.035973143446921,1
647,282,17,0.0402121258571655,1
647,283,17,0.043393073607454,1
647,284,17,0.0402015029957927,1
648,280,17,0.0344715729780254,1
648,281,17,0.039661754913728,1
648,282,17,0.0388525687274345,1
649,280,17,0.0374474088173004,1
649,281,17,0.0397857300919122,1
649,282,17,0.0354392710348168,1
650,276,17,0.0348605656571331,1
650,277,17,0.0358100710067862,1
651,275,17,0.0362751587148217,1
651,276,17,0.0377524391932602,1
651,277,17,0.0400741744575815,1
651,278,17,0.0373685377894632,1
652,274,17,0.0515414293809672,1
652,275,17,0.0554718356015188,1
652,276,17,0.0450894538821668,1
652,277,17,0.0405605691236325,1
652,278,17,0.0365837203246883,1
653,273,17,0.0500042433126186,1
653,274,17,0.0828776107336634,1
653,275,17,0.0906993842321209,1
653,276,17,0.0594253012751959,1
653,277,17,0.0349962280240029,1
654,273,17,0.0481253644373358,1
654,274,17,0.0826206617085615,1
654,275,17,0.0923031534507813,1
654,276,17,0.0595296053518646,1
655,273,17,0.0352606390041563,1
655,274,17,0.0496978103573779,1
655,275,17,0.0552159596516257,1
655,276,17,0.0403565186239667,1
684,275,17,0.050934255434636,1
684,276,17,0.0698702537766882,1
684,277,17,0.0438055018992032,1
685,275,17,0.0765704828922419,1
685,276,17,0.107486222880707,1
685,277,17,0.0681046309913638,1
645,283,18,0.0358468238326831,1
646,282,18,0.0374867189447136,1
646,283,18,0.0416154078856845,1
646,284,18,0.0373226492444664,1
647,281,18,0.0406084434409584,1
647,282,18,0.0446452823928047,1
647,283,18,0.0452224160652236,1
647,284,18,0.0382130246509636,1
648,279,18,0.0376098543249083,1
648,280,18,0.0398524765362775,1
648,281,18,0.0408460567005475,1
648,282,18,0.0390491980955621,1
649,276,18,0.034777218622651,1
649,277,18,0.0352145055180793,1
649,278,18,0.0385849414376203,1
649,279,18,0.0430644676525211,1
649,280,18,0.0436640979967739,1
649,281,18,0.0392738003182461,1
650,276,18,0.0360805063711274,1
650,277,18,0.0375993568500409,1
650,278,18,0.0367687674788788,1
650,279,18,0.0374329631254967,1
650,280,18,0.0373017942610631,1
651,275,18,0.0360550966500178,1
651,276,18,0.0380331125115624,1
651,277,18,0.0389927566723583,1
651,278,18,0.0350280791123298,1
652,275,18,0.0499788102637871,1
652,276,18,0.0422066606618,1
652,277,18,0.0372605945881738,1
653,274,18,0.0689964906241687,1
653,275,18,0.0746912599330606,1
653,276,18,0.0521565347527537,1
654,274,18,0.0682098565130486,1
654,275,18,0.0752598031718797,1
654,276,18,0.0515528657966422,1
655,274,18,0.0424740342626382,1
655,275,18,0.0466642908937065,1
655,276,18,0.0365402024594324,1
684,275,18,0.0585961348950714,1
684,276,18,0.0836385318632887,1
684,277,18,0.0457860663143683,1
685,275,18,0.0870236700795746,1
685,276,18,0.125288890508351,1
685,277,18,0.0699421673114605,1
646,281,19,0.0361899600424117,1
646,282,19,0.0380426039784217,1
646,283,19,0.0382553294746793,1
647,279,19,0.0355272777817539,1
647,280,19,0.0375061830126969,1
647,281,19,0.0437398489418032,1
647,282,19,0.0441016502450391,1
647,283,19,0.0411683554226643,1
648,277,19,0.0366764888428638,1
648,278,19,0.0443569867413627,1
648,279,19,0.0512807770800093,1
648,280,19,0.0456574576674163,1
648,281,19,0.0406776801196395,1
648,282,19,0.0359067789940023,1
649,276,19,0.0364668017823873,1
649,277,19,0.0421761217578316,1
649,278,19,0.0509431549605514,1
649,279,19,0.0570254852096178,1
649,280,19,0.0482449802474847,1
649,281,19,0.0371539198317642,1
650,276,19,0.0376930701409545,1
650,277,19,0.0434225802597271,1
650,278,19,0.0447644258165846,1
650,279,19,0.0449756320949517,1
650,280,19,0.0390311307749292,1
651,275,19,0.0351760235247945,1
651,276,19,0.037787920658312,1
651,277,19,0.0398128339888268,1
651,278,19,0.0360343145657456,1
652,275,19,0.0419547941641131,1
652,276,19,0.0384813838480533,1
652,277,19,0.0348926441907487,1
653,274,19,0.0499377243135421,1
653,275,19,0.0532481788280768,1
653,276,19,0.0425854707902863,1
654,274,19,0.0489822674788322,1
654,275,19,0.0523474021735652,1
654,276,19,0.0404740757626555,1
655,274,19,0.0347006774510414,1
655,275,19,0.0365495481280296,1
684,275,19,0.057375575996446,1
684,276,19,0.0801756131901658,1
684,277,19,0.042618651558763,1
685,275,19,0.0785245178556449,1
685,276,19,0.110558192262045,1
685,277,19,0.0596323639669556,1
686,275,19,0.0456070202166436,1
686,276,19,0.0668472434517452,1
686,277,19,0.0359054493138524,1
646,281,20,0.0347872174674623,1
646,282,20,0.0354915601235175,1
647,279,20,0.0379830745480277,1
647,280,20,0.037213810841848,1
647,281,20,0.0414179912069418,1
647,282,20,0.0388241205705438,1
648,277,20,0.0418611771000525,1
648,278,20,0.0532857364603802,1
648,279,20,0.06008951150164,1
648,280,20,0.047191789005794,1
648,281,20,0.0384427123170278,1
649,276,20,0.0381806661846848,1
649,277,20,0.0526435942588797,1
649,278,20,0.0659023832347208,1
649,279,20,0.0686278717941995,1
649,280,20,0.0489269749459333,1
650,276,20,0.0394488019721816,1
650,277,20,0.0527415356993926,1
650,278,20,0.0592526353094184,1
650,279,20,0.0562243412554588,1
650,280,20,0.040948167971355,1
651,276,20,0.0368042664397221,1
651,277,20,0.0413428555305783,1
651,278,20,0.0414772640323946,1
651,279,20,0.038503224427708,1
652,275,20,0.0351779451458883,1
652,276,20,0.0348837213371114,1
653,274,20,0.035189002486082,1
653,275,20,0.0371499337072798,1
653,276,20,0.0348667883269572,1
654,275,20,0.0352046728832868,1
684,275,20,0.0472858143049883,1
684,276,20,0.0626197645243762,1
684,277,20,0.0348853601095768,1
685,275,20,0.0579528496351964,1
685,276,20,0.0776017723190079,1
685,277,20,0.0435995239465131,1
686,276,20,0.0449603582690196,1
647,278,21,0.0352772833337517,1
647,279,21,0.0379721834178528,1
647,280,21,0.0357102254409709,1
647,281,21,0.0358058224454302,1
648,277,21,0.0455535851536032,1
648,278,21,0.0577257775899533,1
648,279,21,0.060216414308926,1
648,280,21,0.0468280427537424,1
648,281,21,0.0364444917323288,1
649,276,21,0.0406983339014411,1
649,277,21,0.0598827229106129,1
649,278,21,0.075761909058649,1
649,279,21,0.071747861291126,1
649,280,21,0.048692251407898,1
650,276,21,0.0409680315265764,1
650,277,21,0.0601020151605932,1
650,278,21,0.0722563006543986,1
650,279,21,0.0645729305301374,1
650,280,21,0.0431008122432842,1
651,276,21,0.0361390443733395,1
651,277,21,0.0447035987816584,1
651,278,21,0.0500101918817102,1
651,279,21,0.0460286687904847,1
684,276,21,0.0409347691110729,1
685,275,21,0.0381234141231441,1
685,276,21,0.0468133812805109,1
648,277,22,0.0447953204683124,1
648,278,22,0.0545863910922441,1
648,279,22,0.0524348053156973,1
648,280,22,0.0427228827363007,1
649,276,22,0.0419168253807108,1
649,277,22,0.061621571303095,1
649,278,22,0.07804594380837,1
649,279,22,0.0683583432950482,1
649,280,22,0.0465039244693153,1
650,276,22,0.0416225228408724,1
650,277,22,0.0631946295758376,1
650,278,22,0.0800920999456651,1
650,279,22,0.0689181619658663,1
650,280,22,0.0445945533455079,1
651,276,22,0.0356870668450273,1
651,277,22,0.0466020816912561,1
651,278,22,0.0562237463985496,1
651,279,22,0.0510473832221239,1
651,280,22,0.0361871519678846,1
660,273,22,0.034748161029025,1
661,273,22,0.0348644992942431,1
648,278,23,0.0490976230637641,1
648,279,23,0.0457258195565251,1
648,280,23,0.0391031288726934,1
649,277,23,0.0572025601148396,1
649,278,23,0.0710017590968551,1
649,279,23,0.0614259800185931,1
649,280,23,0.0443411472181738,1
650,276,23,0.0408403064170924,1
650,277,23,0.0592294767134748,1
650,278,23,0.0764244163613923,1
650,279,23,0.0654988078134432,1
650,280,23,0.0448472538092537,1
651,276,23,0.034967062539663,1
651,277,23,0.045175174512355,1
651,278,23,0.055804558899372,1
651,279,23,0.0498183855200911,1
651,280,23,0.0371652133651424,1
660,273,23,0.0424119883542413,1
661,273,23,0.041911092593047,1
648,278,24,0.0422194967407907,1
648,279,24,0.0384248695257185,1
649,277,24,0.0500244159601555,1
649,278,24,0.058117590007449,1
649,279,24,0.0511277005687205,1
649,280,24,0.0392623697345016,1
650,277,24,0.0518925232598383,1
650,278,24,0.0644886649666045,1
650,279,24,0.056915576647756,1
650,280,24,0.0417051846235228,1
651,277,24,0.0406898776022424,1
651,278,24,0.0493758528031944,1
651,279,24,0.0453807209021894,1
651,280,24,0.036251043682279,1
660,274,24,0.0367369251384477,1
649,278,25,0.0454671471959658,1
649,279,25,0.0416399982205614,1
650,277,25,0.0426526487975073,1
650,278,25,0.0484771960554129,1
650,279,25,0.0450175403473946,1
650,280,25,0.0357133863472921,1
651,277,25,0.0353313190856317,1
651,278,25,0.0397256641239139,1
651,279,25,0.0382013257984169,1
649,278,26,0.0385485268636914,1
649,279,26,0.0354075453329953,1
650,277,26,0.0370293818722886,1
650,278,26,0.0390096751026863,1
650,279,26,0.0369845868142571,1
649,277,27,0.03555597379569,1
642,287,30,0.0369490382820047,1
643,286,30,0.0381370345967845,1
643,287,30,0.0449553340609094,1
643,288,30,0.0377578745524693,1
644,286,30,0.0360463866618431,1
644,287,30,0.0401425363466903,1
667,275,30,0.037120491206242,1
668,274,30,0.035598584795756,1
668,275,30,0.0401863749681227,1
642,286,31,0.0368176507201781,1
643,286,31,0.0474722202989811,1
643,287,31,0.057056505247851,1
643,288,31,0.0466617773316688,1
643,289,31,0.0380386003581459,1
643,290,31,0.0367813265411716,1
644,286,31,0.0412159118997789,1
644,287,31,0.0481418454728776,1
644,288,31,0.0406982493384491,1
644,289,31,0.0364957427374037,1
644,290,31,0.0365753310926901,1
667,274,31,0.0352739212258289,1
667,275,31,0.0391200822946043,1
668,274,31,0.0404465403028853,1
668,275,31,0.0451608046356476,1
642,286,32,0.0385955963746107,1
643,286,32,0.0504647617031215,1
643,287,32,0.0636607874431165,1
643,288,32,0.0549157202065567,1
643,289,32,0.0440191167648593,1
643,290,32,0.0380666606916595,1
644,286,32,0.0433980686559117,1
644,287,32,0.0558437261444884,1
644,288,32,0.0507586385120347,1
644,289,32,0.0423965833098734,1
644,290,32,0.0366330788683218,1
645,287,32,0.036844976230451,1
645,288,32,0.0366161808497505,1
667,275,32,0.0351352262551084,1
668,274,32,0.0381006608463689,1
668,275,32,0.0403544249609237,1
643,285,33,0.034695492864843,1
643,286,33,0.0455553026571302,1
643,287,33,0.0565884694989569,1
643,288,33,0.0558579268952118,1
643,289,33,0.0466893915225006,1
643,290,33,0.0365031026336718,1
644,286,33,0.0419114250130845,1
644,287,33,0.0550423139215272,1
644,288,33,0.0572287688104252,1
644,289,33,0.0479600700316874,1
644,290,33,0.0361890735889784,1
645,287,33,0.0403292106094853,1
645,288,33,0.0422025433188798,1
645,289,33,0.0370096349556769,1
673,268,33,0.0345916553426129,1
674,267,33,0.0360212189658485,1
643,286,34,0.0398655750521398,1
643,287,34,0.0480158320349901,1
643,288,34,0.0509259332698384,1
643,289,34,0.0438715339320844,1
644,286,34,0.0393124106140015,1
644,287,34,0.0505969074159108,1
644,288,34,0.0556861123912847,1
644,289,34,0.0473727654725081,1
645,286,34,0.0348900256539624,1
645,287,34,0.0403733204156851,1
645,288,34,0.0417842656008573,1
645,289,34,0.0359237615755655,1
646,282,34,0.0345501786530256,1
647,297,34,0.0378608810246058,1
655,295,34,0.0361992736353913,1
655,296,34,0.0352418951795875,1
673,268,34,0.0353250118528155,1
643,285,35,0.0353756709169465,1
643,286,35,0.0390718551454843,1
643,287,35,0.0434367460188676,1
643,288,35,0.0441566220217614,1
643,289,35,0.0398841759944118,1
644,286,35,0.0373480618815413,1
644,287,35,0.043600442475564,1
644,288,35,0.0468211756556,1
644,289,35,0.0428569092466704,1
644,294,35,0.0347974087659794,1
645,287,35,0.0363037030985653,1
645,288,35,0.0367049924030941,1
645,294,35,0.034958979484015,1
645,295,35,0.0413411788505648,1
646,282,35,0.0390259199450436,1
646,283,35,0.0401482312268058,1
646,284,35,0.0345831582199007,1
646,295,35,0.0384488970793039,1
646,296,35,0.0426183512143432,1
647,282,35,0.0386977513848969,1
647,283,35,0.0435950741835554,1
647,284,35,0.0389204757259657,1
647,296,35,0.0361117071992056,1
647,297,35,0.0448607605602498,1
648,283,35,0.0348701533508453,1
648,297,35,0.0365819153422042,1
648,298,35,0.034672366344517,1
654,295,35,0.0458013138966132,1
654,296,35,0.0444402608767136,1
655,295,35,0.0450648227237765,1
655,296,35,0.043342087955216,1
643,285,36,0.038478826546537,1
643,286,36,0.0410112023919686,1
643,287,36,0.0412173932101213,1
643,288,36,0.0389155215010213,1
643,289,36,0.0352203170368045,1
644,283,36,0.0353087495146667,1
644,284,36,0.034536205347591,1
644,285,36,0.0355853608933883,1
644,286,36,0.0371819655854516,1
644,287,36,0.0381908020798624,1
644,288,36,0.0382708803173093,1
644,289,36,0.0358337836361256,1
645,282,36,0.0412679589633646,1
645,284,36,0.0368888906669797,1
645,294,36,0.0418212517039734,1
646,282,36,0.048183867447965,1
646,284,36,0.0423594601563909,1
646,294,36,0.0351887983685151,1
646,295,36,0.0492260596687669,1
647,282,36,0.0439629144508052,1
647,283,36,0.0523473146946079,1
647,284,36,0.0443981834982868,1
647,296,36,0.0404456071940082,1
648,283,36,0.0368214997942962,1
648,297,36,0.0399459857096242,1
653,295,36,0.0395027298333477,1
653,296,36,0.0365057503301106,1
654,295,36,0.0516153490998252,1
654,296,36,0.0480574836824918,1
655,295,36,0.0414114798565588,1
655,296,36,0.040513619167288,1
642,285,37,0.0358975091405013,1
643,284,37,0.0360475705437309,1
643,285,37,0.0393439001226385,1
643,286,37,0.0385865189748157,1
643,287,37,0.0352971847965211,1
644,285,37,0.0364473347984387,1
645,281,37,0.0352643189522904,1
646,281,37,0.036005044106657,1
646,294,37,0.0345898095366153,1
647,282,37,0.0420654492130766,1
647,284,37,0.0409687371901647,1
647,295,37,0.0353964092617401,1
653,295,37,0.0377998382082518,1
653,296,37,0.0345304025767615,1
654,295,37,0.0452345027411473,1
654,296,37,0.0424483562727265,1
655,296,37,0.0345298310475743,1
673,269,37,0.0359556418235448,1
642,285,38,0.0355185794574401,1
643,285,38,0.039582522306201,1
643,286,38,0.0361044901852342,1
647,284,38,0.034536593170968,1
673,270,38,0.0349941052013075,1
674,269,38,0.0351689202334676,1
681,269,38,0.0356529733794302,1
643,285,39,0.039559322886744,1
643,286,39,0.0347866021987964,1
673,270,39,0.0357014600494566,1
674,269,39,0.0348739936770676,1
647,285,41,0.0345230222687367,1
647,285,42,0.0363630954785929,1
647,286,42,0.0349009692715116,1
648,284,42,0.0353141207226406,1
648,285,42,0.0354325264072145,1
647,285,43,0.0361358951308793,1
648,284,43,0.0368717039678495,1
648,285,43,0.0369816212776071,1
649,284,43,0.0351337682724879,1
649,285,43,0.0345044067466385,1
649,284,44,0.0366043478628028,1
649,285,44,0.0369271947863848,1
