x,y,z,signal,cytoplasm.p
302,482,26,0.0504439125516487,1
302,483,26,0.0450800178186471,1
302,484,26,0.0417813992070254,1
302,485,26,0.0419144955244832,1
302,486,26,0.0409063821894523,1
302,487,26,0.0413346500043903,1
303,480,26,0.0566020287373273,1
303,481,26,0.0512924059493902,1
303,482,26,0.0460031832542788,1
303,483,26,0.0411727993536915,1
303,484,26,0.0377509141434392,1
303,485,26,0.0378634383261221,1
303,486,26,0.0362684928182809,1
303,487,26,0.0371093609669173,1
303,488,26,0.0412045396353392,1
303,489,26,0.0454607145766443,1
304,480,26,0.0519002797273792,1
304,481,26,0.045236543916816,1
304,482,26,0.0405175848800157,1
304,483,26,0.0382093126272119,1
304,484,26,0.0358996028035443,1
304,485,26,0.0349503103193537,1
305,479,26,0.0574426315331268,1
305,480,26,0.0450559202818959,1
305,481,26,0.0384354311518212,1
305,482,26,0.036661836117528,1
305,483,26,0.0361718460663349,1
306,477,26,0.0759726633624037,1
306,478,26,0.0671640747390351,1
307,475,26,0.0653612617330277,1
307,476,26,0.0662677011920373,1
307,477,26,0.0651883100026566,1
308,474,26,0.0628008867893524,1
308,475,26,0.0609994151273558,1
309,474,26,0.0650369072554161,1
301,482,27,0.0543526881420431,1
301,483,27,0.0501950815737777,1
301,484,27,0.0490864490849608,1
301,485,27,0.0493883389663561,1
301,486,27,0.0474573138846694,1
301,487,27,0.0459305902996054,1
302,480,27,0.0616025767055154,1
302,481,27,0.0545710647789376,1
302,482,27,0.0490998042057643,1
302,483,27,0.045145682439908,1
302,484,27,0.0422641285047686,1
302,485,27,0.0424059756339145,1
302,486,27,0.0411801825776815,1
302,487,27,0.0416846299845393,1
302,488,27,0.0457172028792381,1
302,489,27,0.0499750603324872,1
302,490,27,0.0505358529356958,1
303,480,27,0.0561627035821956,1
303,481,27,0.0502872085796002,1
303,482,27,0.0462737644168821,1
303,483,27,0.0429628316840478,1
303,484,27,0.0403021154604664,1
303,485,27,0.0420441714147134,1
303,486,27,0.0406148585644885,1
303,487,27,0.0404480915963935,1
303,488,27,0.0444460228240298,1
303,489,27,0.0485782721585598,1
303,490,27,0.0487542681566425,1
303,491,27,0.0479020189956707,1
303,492,27,0.0455250378538944,1
304,479,27,0.0617991302585467,1
304,480,27,0.0515750854517782,1
304,481,27,0.0459805611959395,1
304,482,27,0.0426853600955802,1
304,483,27,0.041463678550337,1
304,484,27,0.038106749381792,1
304,485,27,0.0380620272228916,1
304,486,27,0.0350434666609063,1
304,488,27,0.0345645631095592,1
304,489,27,0.0378234546107382,1
304,490,27,0.039904570255307,1
304,491,27,0.0416355717853256,1
304,492,27,0.0411885368180969,1
304,493,27,0.0393935152712132,1
305,478,27,0.0674343438933576,1
305,479,27,0.0566522183310545,1
305,480,27,0.046082272979509,1
305,481,27,0.041717676618615,1
305,482,27,0.0406647944692397,1
305,483,27,0.0401389672052353,1
305,492,27,0.0369859573179204,1
305,493,27,0.0378570377824182,1
306,475,27,0.068447472688603,1
306,476,27,0.070230783719079,1
306,477,27,0.069840213502776,1
306,478,27,0.0634133094731173,1
306,479,27,0.0513345124874695,1
306,480,27,0.0397053573419759,1
306,481,27,0.0359855742067431,1
306,482,27,0.034538202783781,1
306,493,27,0.0365074649176723,1
307,474,27,0.0630464168945707,1
307,475,27,0.0629947401585707,1
307,476,27,0.0625554383311609,1
307,477,27,0.0612402796881886,1
307,478,27,0.0540396592734273,1
307,479,27,0.0416724325019364,1
307,493,27,0.0355140363835947,1
307,494,27,0.0365860997523249,1
308,474,27,0.0618911522896206,1
308,475,27,0.0600757014902589,1
308,476,27,0.0564857342115878,1
308,477,27,0.052674748431514,1
308,478,27,0.0435996989044275,1
308,493,27,0.0346395792313478,1
308,494,27,0.0384648707368938,1
309,475,27,0.0589975408382098,1
309,476,27,0.0530025962354842,1
309,477,27,0.0468364465655668,1
309,478,27,0.0360986115993085,1
309,494,27,0.0394979826419354,1
309,495,27,0.0368814549556153,1
310,476,27,0.0493145767096211,1
310,477,27,0.0422345402054687,1
310,494,27,0.03732190567333,1
310,495,27,0.0362065373048065,1
311,477,27,0.0378322783215573,1
300,482,28,0.0558729791077856,1
300,483,28,0.0530952481150501,1
300,484,28,0.0553367855873496,1
300,485,28,0.058861866807479,1
300,486,28,0.0573361463144579,1
300,487,28,0.0520872689144202,1
301,480,28,0.0646835564194485,1
301,481,28,0.0584946359769645,1
301,482,28,0.0521197644310653,1
301,483,28,0.049183970626479,1
301,484,28,0.0480945543486,1
301,485,28,0.0479098950177865,1
301,486,28,0.0460587877954584,1
301,487,28,0.0452933848272578,1
301,488,28,0.04686407825219,1
301,489,28,0.0500457958173021,1
301,490,28,0.0511368566995771,1
302,480,28,0.0591254817291217,1
302,481,28,0.0524122532405238,1
302,482,28,0.0473367737135391,1
302,483,28,0.0446033216529874,1
302,484,28,0.042881700783149,1
302,485,28,0.043197771003511,1
302,486,28,0.0423120640573645,1
302,487,28,0.0423164467531217,1
302,488,28,0.0452084777513718,1
302,489,28,0.0485434497016524,1
302,490,28,0.0492886304509071,1
302,491,28,0.0483670279726446,1
302,492,28,0.0465454419824159,1
303,480,28,0.0537999844264128,1
303,481,28,0.0482030486673199,1
303,482,28,0.0457462458930379,1
303,483,28,0.0478469626559563,1
303,484,28,0.0490222395303551,1
303,485,28,0.0492022420646788,1
303,486,28,0.0448420808869163,1
303,487,28,0.0424683947858622,1
303,488,28,0.0439739455473117,1
303,489,28,0.0468520090720577,1
303,490,28,0.0472328866198999,1
303,491,28,0.0460474301108449,1
303,492,28,0.0437560675404734,1
303,493,28,0.0425024882514594,1
304,479,28,0.0588723117949721,1
304,480,28,0.0497680967835457,1
304,481,28,0.045357154071112,1
304,482,28,0.0444851959010766,1
304,483,28,0.0502188116989085,1
304,484,28,0.0501205436702886,1
304,485,28,0.0463562978970619,1
304,486,28,0.0379826050776239,1
304,489,28,0.0366116902632795,1
304,490,28,0.0386592344000292,1
304,491,28,0.0397824787906685,1
304,492,28,0.0395053337903079,1
304,493,28,0.0386630105750162,1
304,494,28,0.0358150573073482,1
305,479,28,0.0548897506201208,1
305,480,28,0.0466192188189772,1
305,481,28,0.0431523431810223,1
305,482,28,0.0422390512036965,1
305,483,28,0.0443268385767365,1
305,484,28,0.0387176470157359,1
305,492,28,0.0360125060617085,1
305,493,28,0.0374169982158025,1
305,494,28,0.0351365005319187,1
306,478,28,0.0601411182544743,1
306,479,28,0.0515235661779011,1
306,480,28,0.0422613670856854,1
306,481,28,0.0377458112042675,1
306,493,28,0.0360003231589319,1
306,494,28,0.0350324443122955,1
307,475,28,0.0603548526747053,1
307,476,28,0.0597726860462805,1
307,477,28,0.0586267700258928,1
307,478,28,0.0534809719971227,1
307,479,28,0.0436839965435781,1
307,480,28,0.0347366313024623,1
307,493,28,0.0345220833279291,1
307,494,28,0.0358273655966303,1
308,476,28,0.0540087792015257,1
308,477,28,0.0510155992009975,1
308,478,28,0.0445334347140577,1
308,479,28,0.0344997820257663,1
308,494,28,0.0360784389517716,1
309,477,28,0.0448432239452907,1
309,478,28,0.0372446296784796,1
309,494,28,0.0359794186041195,1
300,482,29,0.054268142645847,1
300,483,29,0.0517659995280335,1
300,484,29,0.0528744104034921,1
300,485,29,0.0550669013404389,1
300,486,29,0.0541000839051502,1
300,487,29,0.0503582239970782,1
300,488,29,0.0489859474269663,1
301,480,29,0.0618554783708628,1
301,481,29,0.0567960745602514,1
301,482,29,0.051598004938572,1
301,483,29,0.0486741257679603,1
301,484,29,0.0473866338031941,1
301,485,29,0.0463604618954259,1
301,486,29,0.0449396374200174,1
301,487,29,0.0443450400317705,1
301,488,29,0.0458693579455107,1
301,489,29,0.0480547805827134,1
301,490,29,0.0493876507985592,1
302,480,29,0.0572140081943755,1
302,481,29,0.0515580212231882,1
302,482,29,0.0478628255068671,1
302,483,29,0.0468168833547653,1
302,484,29,0.0472119237457827,1
302,485,29,0.0459075016868276,1
302,486,29,0.0442501836824825,1
302,487,29,0.0424219522074697,1
302,488,29,0.0436331362778455,1
302,489,29,0.0459904434021411,1
302,490,29,0.0475976009724114,1
302,491,29,0.0471401968327859,1
302,492,29,0.0462133485330549,1
302,493,29,0.0458567172361912,1
303,479,29,0.0616928141658618,1
303,480,29,0.051794663466352,1
303,481,29,0.0475338812999662,1
303,482,29,0.0480399004120889,1
303,483,29,0.0559249357764488,1
303,484,29,0.0628136587171078,1
303,485,29,0.0561932162424769,1
303,486,29,0.047466239654272,1
303,487,29,0.0421233806945185,1
303,488,29,0.0414550764528762,1
303,489,29,0.0432950359400881,1
303,490,29,0.0447128744670899,1
303,491,29,0.0445503269006985,1
303,492,29,0.0435505357304652,1
303,493,29,0.0433764642694415,1
303,494,29,0.0416832157413975,1
304,480,29,0.0481482576804425,1
304,481,29,0.0466995157538171,1
304,482,29,0.0508109684242488,1
304,483,29,0.0648572954604346,1
304,484,29,0.0715349491730929,1
304,485,29,0.0580122361832936,1
304,486,29,0.0411937563958782,1
304,489,29,0.0350019141562228,1
304,490,29,0.0373094982412297,1
304,491,29,0.0390073277506673,1
304,492,29,0.0394898004434693,1
304,493,29,0.0396020038699758,1
304,494,29,0.0381452342910421,1
304,495,29,0.0351589855398917,1
305,480,29,0.0456326223914591,1
305,481,29,0.0450332719798695,1
305,482,29,0.0465046505446603,1
305,483,29,0.0509577056271037,1
305,484,29,0.0501907717771516,1
305,485,29,0.0376371506755288,1
305,492,29,0.0362126783276039,1
305,493,29,0.0381083240030222,1
305,494,29,0.0367274628312408,1
306,480,29,0.0416899370412778,1
306,481,29,0.0384896593574071,1
306,482,29,0.0356696731123651,1
306,493,29,0.0360223037049181,1
306,494,29,0.0353885769791029,1
307,494,29,0.0351226322012328,1
308,494,29,0.0344765213710393,1
300,485,30,0.0501681088952989,1
300,486,30,0.0496400392540242,1
300,487,30,0.0479769563863978,1
300,490,30,0.0487007456146449,1
301,481,30,0.0546156323916803,1
301,482,30,0.0500403196345796,1
301,483,30,0.0464140777483112,1
301,484,30,0.0450207945646035,1
301,485,30,0.0437367084472387,1
301,486,30,0.0429763588468006,1
301,487,30,0.0427273704068065,1
301,488,30,0.0437408170422632,1
301,489,30,0.0452370746224898,1
301,490,30,0.0467272728269457,1
301,491,30,0.0469564472831275,1
301,492,30,0.0472174640797405,1
302,480,30,0.0556180770902829,1
302,481,30,0.0507232445259401,1
302,482,30,0.0475389230038678,1
302,483,30,0.0460970598392459,1
302,484,30,0.047659183242335,1
302,485,30,0.0457300127145416,1
302,486,30,0.0448219665586842,1
302,487,30,0.0424101133885914,1
302,488,30,0.0415876537285211,1
302,489,30,0.0424849341407089,1
302,490,30,0.0444198578679227,1
302,491,30,0.0449810062188907,1
302,492,30,0.046403026240048,1
302,493,30,0.0474320557937523,1
302,494,30,0.0472771509722575,1
303,480,30,0.0510915542635937,1
303,481,30,0.0486991680774495,1
303,482,30,0.0503537858979815,1
303,483,30,0.0560897344680062,1
303,484,30,0.0650146059532533,1
303,485,30,0.0545921472076297,1
303,486,30,0.0475408883644402,1
303,487,30,0.0412299901799622,1
303,488,30,0.0383217639107638,1
303,489,30,0.0383425139194184,1
303,490,30,0.0401339342492295,1
303,491,30,0.0412881199470405,1
303,492,30,0.0431220200584817,1
303,493,30,0.0450461780420259,1
303,494,30,0.044589278364387,1
303,495,30,0.0419329010970841,1
304,481,30,0.0528945713871681,1
304,482,30,0.0581752969595674,1
304,483,30,0.0689435658550454,1
304,484,30,0.0780686241860141,1
304,485,30,0.0589656926658482,1
304,486,30,0.0415947949273962,1
304,491,30,0.0357291150638018,1
304,492,30,0.0378360486646139,1
304,493,30,0.0398058969075186,1
304,494,30,0.0394150875820658,1
304,495,30,0.0364288738224982,1
305,481,30,0.0526854850155311,1
305,482,30,0.052556185284817,1
305,483,30,0.0506116971916129,1
305,484,30,0.0522196187447763,1
305,485,30,0.0371832194505052,1
305,493,30,0.036743911791165,1
305,494,30,0.03681476974652,1
305,495,30,0.034580825447708,1
306,481,30,0.0421710888018257,1
306,482,30,0.0376251806382147,1
306,494,30,0.0344756086739188,1
300,485,31,0.0470084389433736,1
300,486,31,0.0471666737971737,1
300,487,31,0.0469611915585746,1
300,488,31,0.0466890561864979,1
300,489,31,0.0471357412378977,1
300,491,31,0.0479837447534787,1
300,495,31,0.0518359010467895,1
301,482,31,0.0470217415768028,1
301,483,31,0.0444029131939076,1
301,484,31,0.0436987134201492,1
301,485,31,0.0435917616470417,1
301,486,31,0.043249083243856,1
301,487,31,0.0429529494778463,1
301,488,31,0.0426852230452139,1
301,489,31,0.043472559903957,1
301,490,31,0.0443889019809248,1
301,491,31,0.045303698596315,1
301,492,31,0.0459695388473287,1
301,493,31,0.0471284134172472,1
301,494,31,0.049991226443783,1
301,495,31,0.055774413650711,1
302,480,31,0.053531429859652,1
302,481,31,0.0498389022515264,1
302,482,31,0.047222552439086,1
302,483,31,0.0465771531044112,1
302,484,31,0.0481799163150635,1
302,485,31,0.0469055082863334,1
302,486,31,0.0459173226577591,1
302,487,31,0.0432426127169863,1
302,488,31,0.04054432136531,1
302,489,31,0.0401376404410507,1
302,490,31,0.0413864929504091,1
302,491,31,0.0429395564494946,1
302,492,31,0.0448122272347794,1
302,493,31,0.0472432587082619,1
302,494,31,0.0487781295002092,1
303,481,31,0.0501727336161711,1
303,482,31,0.050837620346551,1
303,483,31,0.0537426507178453,1
303,484,31,0.0593609459223282,1
303,485,31,0.0519869538782011,1
303,486,31,0.0471502365011104,1
303,487,31,0.0416409313294385,1
303,488,31,0.0368561472932891,1
303,489,31,0.0355593767271262,1
303,490,31,0.0369868087797707,1
303,491,31,0.039311521244603,1
303,492,31,0.04189854227865,1
303,493,31,0.0451654497682764,1
303,494,31,0.0450994235673256,1
303,495,31,0.0441840087673044,1
304,482,31,0.0585113327939342,1
304,483,31,0.061916620330035,1
304,484,31,0.0666603942310357,1
304,485,31,0.0527126559796463,1
304,486,31,0.0408118407644103,1
304,492,31,0.0365156121245555,1
304,493,31,0.0395967434686811,1
304,494,31,0.0396957025810631,1
304,495,31,0.0380012147677917,1
305,482,31,0.05403267262071,1
305,483,31,0.0466090741759039,1
305,484,31,0.0456490451076962,1
305,485,31,0.0351552531043832,1
305,493,31,0.0353348153279556,1
305,494,31,0.0368147260070414,1
305,495,31,0.0370600111711795,1
306,482,31,0.0391019274950142,1
299,489,32,0.0524328574509164,1
299,495,32,0.0534940471852631,1
300,484,32,0.0414794568382557,1
300,485,32,0.0434242219481578,1
300,486,32,0.0448709110352535,1
300,487,32,0.0460686029344595,1
300,488,32,0.046243919512641,1
300,489,32,0.0468768910034588,1
300,490,32,0.0473301865480598,1
300,491,32,0.0478903259750545,1
300,492,32,0.0471152536661148,1
300,494,32,0.0604310643422427,1
300,495,32,0.0713866373490078,1
300,496,32,0.0690562387519557,1
301,479,32,0.0594180580175374,1
301,481,32,0.0475440551026919,1
301,482,32,0.0437101644156504,1
301,483,32,0.0417624221052373,1
301,484,32,0.0414146349309495,1
301,485,32,0.0425038062677483,1
301,486,32,0.0428480184686508,1
301,487,32,0.0428756326594825,1
301,488,32,0.0416699364356902,1
301,489,32,0.0416487257045275,1
301,490,32,0.0420515400588773,1
301,491,32,0.0432449046656657,1
301,492,32,0.0444669419586683,1
301,493,32,0.0520902665266879,1
301,494,32,0.0658964754891427,1
301,495,32,0.0819679345532363,1
301,496,32,0.0826722626294654,1
302,480,32,0.0506118779814578,1
302,481,32,0.0482909416916126,1
302,482,32,0.046306257017562,1
302,483,32,0.0457552154021191,1
302,484,32,0.045575644430651,1
302,485,32,0.0454504941184748,1
302,486,32,0.0443275500722553,1
302,487,32,0.042482986275928,1
302,488,32,0.0385855333785642,1
302,489,32,0.0369695200218571,1
302,490,32,0.0374322428820822,1
302,491,32,0.0395635714481001,1
302,492,32,0.0420385844253118,1
302,493,32,0.0490012970679946,1
302,494,32,0.0587516141617188,1
302,495,32,0.0697556505107885,1
303,481,32,0.0511611700177561,1
303,482,32,0.0512957359816954,1
303,483,32,0.0517193615799698,1
303,484,32,0.0511568777169215,1
303,485,32,0.0476327412695301,1
303,486,32,0.0437000839238124,1
303,487,32,0.0400135748679441,1
303,491,32,0.0352390841890953,1
303,492,32,0.0382443304537904,1
303,493,32,0.0440777276662023,1
303,494,32,0.0480973886668142,1
303,495,32,0.050034901771162,1
304,481,32,0.0557888593425147,1
304,482,32,0.0542248872174628,1
304,483,32,0.0513242366259604,1
304,484,32,0.049096835753149,1
304,485,32,0.0425065326952486,1
304,486,32,0.0362349008987052,1
304,493,32,0.0373568593486732,1
304,494,32,0.0397418010755573,1
304,495,32,0.0388560678857236,1
305,482,32,0.049172691672927,1
305,483,32,0.0398604517012114,1
305,484,32,0.0358633690194603,1
305,494,32,0.0360074031225369,1
305,495,32,0.0385453688733354,1
306,482,32,0.0366920892569029,1
299,489,33,0.0514946106430585,1
299,490,33,0.0524964546528214,1
299,494,33,0.0565556823857877,1
299,495,33,0.063833925795263,1
299,496,33,0.0586625897429126,1
300,483,33,0.0350671268028713,1
300,484,33,0.0361536067037528,1
300,485,33,0.038754813908697,1
300,486,33,0.041476155965603,1
300,487,33,0.0436106833454902,1
300,488,33,0.045022701605871,1
300,489,33,0.0463215804149031,1
300,490,33,0.048019873562814,1
300,491,33,0.0475937985537372,1
300,492,33,0.0476169542337156,1
300,493,33,0.0578534152204801,1
300,494,33,0.0801146461889081,1
300,495,33,0.0985352243469008,1
300,496,33,0.090470317666653,1
300,497,33,0.0645347780409248,1
301,480,33,0.0471553336083516,1
301,481,33,0.0428887515871016,1
301,482,33,0.0394217943021199,1
301,483,33,0.0380345792420786,1
301,484,33,0.0386227702546911,1
301,485,33,0.0408411228873599,1
301,486,33,0.0421663707700658,1
301,487,33,0.0422473821163898,1
301,488,33,0.0412438293509957,1
301,489,33,0.0406875652418063,1
301,490,33,0.0413250039913732,1
301,491,33,0.0419974634834839,1
301,492,33,0.0455354011943607,1
301,493,33,0.0625771564402755,1
301,494,33,0.0938935967082905,1
301,495,33,0.11821740653025,1
301,496,33,0.108402734083659,1
301,497,33,0.0752971391908248,1
302,481,33,0.0451046489770374,1
302,482,33,0.0436919892043035,1
302,483,33,0.0433162816628336,1
302,484,33,0.0429473945640623,1
302,485,33,0.0430664825845026,1
302,486,33,0.0418956729688529,1
302,487,33,0.0400029549225366,1
302,488,33,0.036877687528524,1
302,489,33,0.0350193778720508,1
302,490,33,0.0355665762453061,1
302,491,33,0.0376853719927184,1
302,492,33,0.0423675082204559,1
302,493,33,0.0568232921798105,1
302,494,33,0.0813848931352393,1
302,495,33,0.098301270623689,1
302,496,33,0.0898294934814414,1
303,481,33,0.0496738761146802,1
303,482,33,0.0502183509764005,1
303,483,33,0.0493382310196557,1
303,484,33,0.0463286253869253,1
303,485,33,0.0433412189975742,1
303,486,33,0.0398033454379327,1
303,487,33,0.0366403250419456,1
303,492,33,0.0375345845141437,1
303,493,33,0.0458133451691974,1
303,494,33,0.0555940728644194,1
303,495,33,0.0596950805473579,1
304,482,33,0.0476526194045776,1
304,483,33,0.0431816982031029,1
304,484,33,0.0385143575829979,1
304,485,33,0.0350253964243081,1
304,493,33,0.0371959009833381,1
304,494,33,0.0406083442981402,1
304,495,33,0.0398564335011094,1
304,496,33,0.0349407226256415,1
305,482,33,0.0410728896366409,1
305,495,33,0.0366690822911518,1
311,503,33,0.036640911150959,1
299,489,34,0.0482841679043578,1
299,490,34,0.0516910067339668,1
299,494,34,0.0637588863457525,1
299,495,34,0.0725703967662925,1
299,496,34,0.0653694147718414,1
300,486,34,0.0379067083343325,1
300,487,34,0.0410186876747421,1
300,488,34,0.0426101690158771,1
300,489,34,0.0437667662169424,1
300,490,34,0.0467161280077948,1
300,491,34,0.0459126454495126,1
300,492,34,0.0490386330869397,1
300,493,34,0.0638091692503674,1
300,494,34,0.0965835979707868,1
300,495,34,0.120182358867516,1
300,496,34,0.105570235431768,1
300,497,34,0.0664932569353551,1
301,480,34,0.0410834366829174,1
301,481,34,0.0365856798533302,1
301,482,34,0.0347663799798504,1
301,483,34,0.0349908159925157,1
301,484,34,0.0366636206882555,1
301,485,34,0.0389905347068447,1
301,486,34,0.0405536232944286,1
301,487,34,0.0402166193596018,1
301,488,34,0.0386748610577554,1
301,489,34,0.0374430465332999,1
301,490,34,0.0386304917306492,1
301,491,34,0.0396139651593941,1
301,492,34,0.0475009746322221,1
301,493,34,0.0720225568806842,1
301,494,34,0.11713777623172,1
301,495,34,0.146867406534916,1
301,496,34,0.125323765452633,1
301,497,34,0.0761359749116882,1
302,483,34,0.0407494799317673,1
302,484,34,0.0407111933081537,1
302,485,34,0.0402028530876993,1
302,486,34,0.0381256010970748,1
302,487,34,0.0354091695256345,1
302,491,34,0.0347442186440192,1
302,492,34,0.0427978405387845,1
302,493,34,0.0634736641216744,1
302,494,34,0.0977543696788883,1
302,495,34,0.117681790370932,1
302,496,34,0.0993198056184912,1
303,483,34,0.0438936456965065,1
303,484,34,0.0399919384058563,1
303,485,34,0.0362665799450828,1
303,492,34,0.036130978813483,1
303,493,34,0.0469304922765179,1
303,494,34,0.0592809143403251,1
303,495,34,0.0640592191017091,1
304,483,34,0.0360645968647728,1
304,493,34,0.0366891849555229,1
304,494,34,0.0407359323572579,1
304,495,34,0.039910428429476,1
304,496,34,0.0362191430225431,1
305,495,34,0.034772497674926,1
310,503,34,0.0401697160587011,1
311,503,34,0.0385752808447771,1
311,504,34,0.0453713169142873,1
312,503,34,0.0352354538123703,1
312,504,34,0.0386888810186339,1
313,503,34,0.034782070788812,1
313,504,34,0.037966704319165,1
314,503,34,0.0345618629257461,1
314,504,34,0.0379819081619313,1
299,495,35,0.0734655397759587,1
300,486,35,0.0365280428843776,1
300,487,35,0.0395653297751404,1
300,488,35,0.0402466158940354,1
300,489,35,0.0405127414617505,1
300,490,35,0.0422990938439728,1
300,494,35,0.0941055057342806,1
300,495,35,0.117990031224622,1
300,496,35,0.0994138163378593,1
301,484,35,0.0367143934750309,1
301,485,35,0.0390313378084613,1
301,486,35,0.0400368792621498,1
301,487,35,0.038471746582932,1
301,488,35,0.0358145236857092,1
301,490,35,0.0353380199737554,1
301,491,35,0.037192885875279,1
301,492,35,0.0461374138822153,1
301,493,35,0.0723624126295167,1
301,494,35,0.115824798730748,1
301,495,35,0.145946684678156,1
301,496,35,0.118922335295319,1
302,484,35,0.0403504621641613,1
302,485,35,0.0392337728633836,1
302,486,35,0.0358395893229203,1
302,492,35,0.0420177586015609,1
302,493,35,0.0633400487624037,1
302,494,35,0.0935022391813724,1
302,495,35,0.112485610294729,1
303,484,35,0.0351686023932563,1
303,492,35,0.0361223592202308,1
303,493,35,0.0474815455558217,1
303,494,35,0.057343687000571,1
303,495,35,0.0615422162250278,1
304,493,35,0.0375762040860278,1
304,494,35,0.0398682023368219,1
304,495,35,0.0387347928913526,1
304,496,35,0.0351447527135506,1
310,503,35,0.0394011230245269,1
311,503,35,0.038598407365103,1
311,504,35,0.0454226320705975,1
312,503,35,0.0359188190144821,1
312,504,35,0.0412779665560715,1
313,503,35,0.0345071944094088,1
313,504,35,0.04006296257123,1
314,504,35,0.0399471608436163,1
315,504,35,0.0384989437907343,1
300,486,36,0.035038719469494,1
300,487,36,0.0383028188845934,1
300,488,36,0.0379274495950914,1
300,489,36,0.0371470731453785,1
300,495,36,0.101254700186053,1
301,484,36,0.0370538001652163,1
301,485,36,0.0392264362948374,1
301,486,36,0.0385470747130014,1
301,487,36,0.0358726796964746,1
301,494,36,0.0958580416676037,1
301,495,36,0.1219650400495,1
301,496,36,0.099050230463896,1
302,484,36,0.0397296269206763,1
302,485,36,0.03761985900165,1
302,492,36,0.0383080967816795,1
302,493,36,0.055620753946374,1
302,495,36,0.0909313900905517,1
303,493,36,0.0440791914807533,1
303,494,36,0.0508948432484394,1
304,493,36,0.0372171467060837,1
304,494,36,0.0389591151813735,1
304,495,36,0.037106549976425,1
310,503,36,0.037877414547522,1
311,503,36,0.0388626667150639,1
311,504,36,0.0436805615365243,1
312,503,36,0.0360498129210012,1
312,504,36,0.0416500087292335,1
313,504,36,0.0410815150618236,1
314,504,36,0.0421160732856247,1
314,505,36,0.0438586016262408,1
315,504,36,0.0414422491217813,1
315,505,36,0.0438614505242812,1
300,486,37,0.0363916719379542,1
300,487,37,0.0381538568002596,1
301,483,37,0.0367882752863408,1
301,484,37,0.0395671347576245,1
301,485,37,0.0405447383483394,1
301,486,37,0.0376222413452519,1
301,495,37,0.0850109483997323,1
302,484,37,0.038982647020868,1
302,485,37,0.0362656293404143,1
302,492,37,0.0358961328049076,1
303,493,37,0.0409165880677956,1
304,493,37,0.0359492995991458,1
304,494,37,0.0374137352506979,1
304,495,37,0.0363213301084468,1
309,503,37,0.0364825859022365,1
310,503,37,0.037955437029474,1
310,504,37,0.041365518412431,1
311,503,37,0.0390434973835161,1
311,504,37,0.0421772852279627,1
311,505,37,0.0442125094115694,1
312,503,37,0.0357043556029409,1
312,504,37,0.0408206469794379,1
313,504,37,0.0393941334558443,1
313,505,37,0.0416711407293347,1
314,504,37,0.0399381242673346,1
314,505,37,0.0423407250797178,1
315,504,37,0.0396477670284672,1
315,505,37,0.0430996604370141,1
316,504,37,0.0402322081097799,1
316,505,37,0.0449073751805916,1
318,503,37,0.0405258953809524,1
301,484,38,0.0360166642281421,1
301,485,38,0.0364922319152536,1
304,494,38,0.0348049611159534,1
309,503,38,0.0386552949309887,1
310,503,38,0.0379532413076476,1
310,504,38,0.0403805345136912,1
311,503,38,0.0380837949034153,1
311,504,38,0.0407694222180502,1
312,503,38,0.0356400818970999,1
312,504,38,0.0398856368929975,1
312,505,38,0.0443827522102317,1
313,504,38,0.0370771395510048,1
313,505,38,0.0403776943635465,1
314,504,38,0.0369060219627703,1
314,505,38,0.0401081687803604,1
315,504,38,0.0372254134675418,1
315,505,38,0.0421254510298396,1
316,504,38,0.0389114741412669,1
316,505,38,0.0444838166495177,1
317,504,38,0.0442893130200507,1
317,505,38,0.0490787159451418,1
318,503,38,0.0393815773095168,1
318,504,38,0.0534765980492612,1
319,503,38,0.0419958363748795,1
311,504,39,0.0402451141719363,1
312,503,39,0.0344934281375063,1
312,504,39,0.0389011312125573,1
312,505,39,0.0445315451685815,1
313,504,39,0.0350086529518946,1
313,505,39,0.0389602057523736,1
314,505,39,0.0372757780191834,1
315,504,39,0.0345861412523422,1
315,505,39,0.0394485832747885,1
316,504,39,0.0362741906143617,1
316,505,39,0.0414378955856765,1
317,504,39,0.0415812123613039,1
317,505,39,0.0462240209658367,1
317,506,39,0.0468183121777334,1
318,503,39,0.0368114747057978,1
318,504,39,0.0480083263404599,1
318,505,39,0.0546510380416359,1
318,506,39,0.0562932921695463,1
319,503,39,0.0385398227074471,1
319,504,39,0.0512583824669588,1
319,505,39,0.0617899274722463,1
320,503,39,0.0369866454857172,1
320,504,39,0.0476730224133685,1
312,504,40,0.0386992385271697,1
313,505,40,0.037661175313149,1
314,505,40,0.0351690018804943,1
315,505,40,0.0370279617972162,1
316,504,40,0.0353964850768364,1
316,505,40,0.0390946142541899,1
316,506,40,0.0407469517899034,1
317,504,40,0.0400689694596264,1
317,505,40,0.0431002028065489,1
317,506,40,0.043582882532883,1
318,503,40,0.0364435003041468,1
318,504,40,0.0444962882328532,1
318,505,40,0.0495816149744566,1
318,506,40,0.0504501993727082,1
318,507,40,0.0501212901573903,1
319,503,40,0.0372857564522379,1
319,504,40,0.0471497757786024,1
319,505,40,0.0566828534618759,1
319,506,40,0.061109545302576,1
320,503,40,0.0353212939971333,1
320,504,40,0.0442101183200718,1
320,505,40,0.0559635431562389,1
321,504,40,0.0378032848791666,1
312,505,41,0.0415398173187434,1
313,505,41,0.0364701055710052,1
316,505,41,0.0345623265642194,1
316,506,41,0.0362703007167303,1
317,504,41,0.0360686879640059,1
317,505,41,0.036884452567883,1
317,506,41,0.0377926357741067,1
318,503,41,0.035570483638729,1
318,504,41,0.0399148781924337,1
318,505,41,0.042859699825406,1
318,506,41,0.043928371926561,1
318,507,41,0.0443221380407681,1
319,503,41,0.0356883323739419,1
319,504,41,0.0424258362731706,1
319,505,41,0.0487921232174005,1
319,506,41,0.0519107597064551,1
320,504,41,0.0407631004054078,1
320,505,41,0.0492848746876768,1
321,504,41,0.0362213795678829,1
312,506,42,0.0437263217790505,1
313,505,42,0.036124129211132,1
318,503,42,0.0349319659820229,1
318,504,42,0.0368201584502853,1
318,505,42,0.0375828495708119,1
318,506,42,0.0384749162371489,1
319,503,42,0.0349304613439586,1
319,504,42,0.0393662393323494,1
319,505,42,0.0422680942174963,1
319,506,42,0.0440505012987476,1
319,507,42,0.0430149720585212,1
320,504,42,0.0392043274463805,1
320,505,42,0.0439710966492713,1
320,506,42,0.0470695284151715,1
321,504,42,0.0365098268495174,1
321,505,42,0.0414090071180344,1
322,505,42,0.0383588404088025,1
313,505,43,0.0354345150955088,1
313,506,43,0.0384608175452089,1
319,504,43,0.0359383122421179,1
319,505,43,0.0366840236970464,1
319,506,43,0.0373881943111524,1
319,507,43,0.0377610966940606,1
320,504,43,0.0367604161544288,1
320,505,43,0.0382675357051779,1
320,506,43,0.039427264652912,1
320,507,43,0.0393443870888337,1
321,504,43,0.0363802034466616,1
321,505,43,0.0387494864402018,1
321,506,43,0.0400655752760859,1
321,507,43,0.0398088478643424,1
322,505,43,0.0379127677101032,1
322,506,43,0.0412135849595166,1
323,505,43,0.0366279351056368,1
312,508,44,0.0472819681468355,1
313,504,44,0.0345196164213352,1
313,505,44,0.0345150966752118,1
313,509,44,0.0508061687454622,1
314,510,44,0.0503158491901968,1
320,504,44,0.0350561656895306,1
321,504,44,0.0371791166874112,1
321,505,44,0.0366793552366957,1
321,506,44,0.0350460910296231,1
322,504,44,0.0351485609641553,1
322,505,44,0.0385175447330063,1
322,506,44,0.0405637271139885,1
322,507,44,0.0422437109161515,1
323,505,44,0.0373078478049034,1
323,506,44,0.0455554367915313,1
324,505,44,0.0369350824723615,1
324,506,44,0.0457985962170087,1
325,505,44,0.0379725304177165,1
297,479,45,0.0368250339441682,1
297,482,45,0.0413655213283962,1
312,507,45,0.0412842096376524,1
312,508,45,0.0456007771350627,1
312,509,45,0.0508874541925188,1
313,506,45,0.0346055236732988,1
313,507,45,0.035653999799195,1
313,508,45,0.0396356103693777,1
313,509,45,0.047750651240013,1
313,510,45,0.0566021512078674,1
314,503,45,0.0347069205326223,1
314,508,45,0.0349937057140695,1
314,509,45,0.0402401162075133,1
314,510,45,0.0488279837579336,1
314,511,45,0.0539327774834856,1
315,509,45,0.0350110936148013,1
315,510,45,0.0411718779086753,1
315,511,45,0.0477741626677508,1
316,510,45,0.0378425745948231,1
316,511,45,0.0452952685408034,1
316,512,45,0.052857538628608,1
317,510,45,0.0385895632425272,1
317,511,45,0.0461855418885172,1
317,512,45,0.0539920648887646,1
318,509,45,0.0348073376276248,1
318,510,45,0.0399252386169348,1
318,511,45,0.0469353852661922,1
319,509,45,0.0357792405062937,1
319,510,45,0.0397113933900247,1
320,509,45,0.0359810515446544,1
320,510,45,0.0398355376941928,1
321,504,45,0.0363035077288942,1
321,505,45,0.0355439162794187,1
321,508,45,0.035753431297946,1
321,509,45,0.0381154097985577,1
322,504,45,0.0353709703809781,1
322,505,45,0.0388816234050953,1
322,506,45,0.0418194379735936,1
322,507,45,0.0448104864035306,1
322,508,45,0.0459911898892428,1
323,505,45,0.0391711437619385,1
323,506,45,0.0495455269886346,1
323,507,45,0.0573329679123452,1
324,505,45,0.0377358590149002,1
324,506,45,0.0482915452964174,1
324,507,45,0.0567960337367381,1
296,479,46,0.0433968526984062,1
296,480,46,0.0384534868085931,1
296,481,46,0.0369079377519336,1
296,482,46,0.0370598741208132,1
297,479,46,0.0427619829142166,1
297,480,46,0.0424556753454812,1
297,481,46,0.0467973813792338,1
311,509,46,0.0431338909529776,1
312,508,46,0.0421416463007878,1
312,509,46,0.0464860321065969,1
312,510,46,0.0518849417502118,1
313,508,46,0.0363638973690342,1
313,509,46,0.0437654627804797,1
313,510,46,0.0523282151222797,1
313,511,46,0.0542627364462903,1
314,509,46,0.0378387634282532,1
314,510,46,0.0452303883141923,1
314,511,46,0.049515469218931,1
314,512,46,0.0511553905746486,1
315,502,46,0.0357332382386525,1
315,503,46,0.0347844502164486,1
315,510,46,0.0386093189070346,1
315,511,46,0.044930253843872,1
315,512,46,0.0509288025796355,1
316,510,46,0.0359872771304439,1
316,511,46,0.0432914842944246,1
316,512,46,0.0512082803521889,1
317,510,46,0.0366916576940472,1
317,511,46,0.0443221876121772,1
317,512,46,0.0524719722086585,1
318,510,46,0.0374358236873981,1
318,511,46,0.0449690274336809,1
319,510,46,0.0377778926538484,1
319,511,46,0.0455656193421526,1
320,503,46,0.0344914890206211,1
320,510,46,0.0384451150723864,1
320,511,46,0.0472074798147555,1
321,504,46,0.036925127367029,1
321,505,46,0.0349528355452524,1
321,508,46,0.0355699820927075,1
321,509,46,0.0378375066472344,1
321,510,46,0.0413723301072338,1
322,504,46,0.0357606541438479,1
322,505,46,0.0385729888960977,1
322,506,46,0.0420118391921218,1
322,507,46,0.0464380469825918,1
322,508,46,0.0474090138364184,1
322,509,46,0.0457139515779944,1
323,505,46,0.040068129661637,1
323,506,46,0.0507291522715183,1
323,507,46,0.0589691160090411,1
323,508,46,0.0585405624295095,1
324,505,46,0.0384009790224994,1
324,507,46,0.0569420769398657,1
324,508,46,0.0583912708411034,1
325,508,46,0.0558398304149265,1
296,478,47,0.051689519591694,1
296,479,47,0.0501664001396677,1
296,480,47,0.0436576041421823,1
296,481,47,0.0401064950163121,1
296,482,47,0.0386155036693107,1
297,477,47,0.0520513558865127,1
297,478,47,0.049085072749367,1
297,479,47,0.0471994784061343,1
297,480,47,0.046392097202325,1
297,481,47,0.0496097423751708,1
297,482,47,0.0454649368943132,1
298,479,47,0.0445555348146188,1
298,480,47,0.0525092382444378,1
298,481,47,0.0631158460269577,1
300,482,47,0.0419948128710799,1
312,508,47,0.0395542840988076,1
312,509,47,0.0421721677089648,1
313,508,47,0.0358293776126465,1
313,509,47,0.040778035979372,1
313,510,47,0.0473653151813175,1
314,509,47,0.0367092438804154,1
314,510,47,0.0423834002310191,1
314,511,47,0.0458027543834422,1
315,501,47,0.0351458607803422,1
315,502,47,0.0377065185726457,1
315,503,47,0.0353179523009672,1
315,510,47,0.0380878976665093,1
315,511,47,0.0432852820363571,1
316,502,47,0.0347492924235385,1
316,510,47,0.0362275351705065,1
316,511,47,0.0417802415688248,1
316,512,47,0.048961377503846,1
317,510,47,0.036419274464925,1
317,511,47,0.0422004379919758,1
317,512,47,0.0500913898498096,1
318,510,47,0.0364640695229565,1
318,511,47,0.0428135838351204,1
319,510,47,0.0375042059882635,1
320,503,47,0.034492480448803,1
320,504,47,0.0352308145116719,1
320,509,47,0.0349325579229668,1
320,510,47,0.0386312732093337,1
321,504,47,0.0369399463023834,1
321,505,47,0.0360350493889863,1
321,506,47,0.0354575220612599,1
321,507,47,0.0371663476756211,1
321,508,47,0.039258937643413,1
321,509,47,0.040013536960396,1
322,504,47,0.0352852672465814,1
322,505,47,0.038661313483246,1
322,506,47,0.0436575895623561,1
322,507,47,0.0487307508969742,1
322,508,47,0.0493801159443766,1
323,505,47,0.0407566823659125,1
323,506,47,0.0504221827786732,1
323,507,47,0.057477197385093,1
324,505,47,0.0398626620028641,1
324,506,47,0.0483086911720342,1
324,507,47,0.0544595874277762,1
325,505,47,0.039189120687649,1
325,507,47,0.0523470405938753,1
330,494,47,0.0344882027277945,1
296,478,48,0.058541017320087,1
296,479,48,0.0572463812404805,1
296,480,48,0.0493666675126854,1
296,481,48,0.0432820044914263,1
296,482,48,0.0404700254869359,1
297,476,48,0.0502361733559531,1
297,477,48,0.0523275502822048,1
297,478,48,0.0512442516994012,1
297,479,48,0.0514143982712105,1
297,480,48,0.0503787932158879,1
297,481,48,0.0508087522906657,1
297,482,48,0.0460163663331331,1
298,477,48,0.0578064623481704,1
298,478,48,0.0509932862349738,1
298,479,48,0.0485310131098998,1
298,480,48,0.0534442599947391,1
298,481,48,0.0605252791791777,1
299,479,48,0.0440969759527578,1
299,480,48,0.0480274521564753,1
299,481,48,0.0558971349638416,1
299,482,48,0.0510562185968039,1
300,478,48,0.0376665436051576,1
300,480,48,0.0365810026450837,1
300,481,48,0.0407515706788451,1
300,482,48,0.0388655272769653,1
314,500,48,0.0410082222754924,1
314,505,48,0.0352532178726181,1
315,500,48,0.0376001849841693,1
315,501,48,0.0439811829730398,1
315,503,48,0.0373352141386896,1
315,504,48,0.034761303284366,1
315,505,48,0.0350109274047825,1
316,501,48,0.0348759881972924,1
316,502,48,0.0370134577861077,1
316,503,48,0.0354086417359259,1
316,505,48,0.034886984302216,1
317,505,48,0.0354939920385284,1
317,506,48,0.034633420712759,1
320,503,48,0.0350945048005186,1
320,504,48,0.0366079111723272,1
321,504,48,0.0369804315637888,1
321,505,48,0.0372412005033563,1
321,506,48,0.0374970677053537,1
321,507,48,0.0394627840255119,1
322,505,48,0.0382759132733151,1
322,506,48,0.043458545775009,1
322,507,48,0.0482127325878851,1
323,505,48,0.040601576342816,1
323,506,48,0.04762045630797,1
323,507,48,0.0526763055569526,1
324,505,48,0.0404123068709565,1
324,506,48,0.0466805036604462,1
324,507,48,0.0515802817018376,1
325,505,48,0.0396625830478564,1
325,506,48,0.0462331041975623,1
326,504,48,0.0373831467753204,1
326,505,48,0.04083446865468,1
327,503,48,0.0379222970845106,1
330,496,48,0.0364429462707511,1
296,478,49,0.0600692688709373,1
296,479,49,0.0580896142369274,1
296,480,49,0.050831181895299,1
296,481,49,0.0437785029770372,1
296,482,49,0.0407104001656082,1
296,483,49,0.0397553953055106,1
297,476,49,0.0480069529208314,1
297,477,49,0.0508477037543542,1
297,478,49,0.053571390247314,1
297,479,49,0.0539599601114617,1
297,480,49,0.0518080419148775,1
297,481,49,0.0482810244938281,1
297,482,49,0.0441313872585662,1
298,475,49,0.0429793797867902,1
298,477,49,0.0520184754624558,1
298,478,49,0.0525687939185189,1
298,479,49,0.0515290248648322,1
298,480,49,0.0515467655973581,1
298,481,49,0.0518517755615613,1
298,482,49,0.047971803875817,1
299,478,49,0.0508359932379466,1
299,479,49,0.0459445373613529,1
299,480,49,0.0451639159705597,1
299,481,49,0.0475409612635713,1
299,482,49,0.0450052203942516,1
299,483,49,0.0373966389464902,1
300,478,49,0.0377940791769009,1
300,479,49,0.0354376934976215,1
300,480,49,0.0352975871997244,1
300,481,49,0.0366090688105279,1
300,482,49,0.0352820276091987,1
314,499,49,0.0367110984343086,1
314,500,49,0.047294705083008,1
314,503,49,0.0403660596622351,1
314,504,49,0.0375161410339947,1
315,499,49,0.0348442245879228,1
315,500,49,0.0447036833446504,1
315,501,49,0.0511370141617001,1
315,502,49,0.0466335624519974,1
315,503,49,0.0405418602906466,1
315,504,49,0.0377575537962928,1
315,505,49,0.0378284438272655,1
316,501,49,0.0388648741007513,1
316,502,49,0.0388216682437762,1
316,503,49,0.0372484058534666,1
316,504,49,0.0363554527336964,1
316,505,49,0.0379146601715446,1
317,504,49,0.0358691980339769,1
317,505,49,0.0390646293836172,1
317,506,49,0.0397726199121889,1
318,505,49,0.0361768586105841,1
318,506,49,0.0362838453752745,1
319,505,49,0.0347370103779436,1
320,504,49,0.0351921808881946,1
320,505,49,0.0358909482187091,1
320,506,49,0.0346493447989398,1
321,504,49,0.0344743752206219,1
321,505,49,0.0379070903257791,1
321,506,49,0.0407643221948438,1
321,507,49,0.0425378676577278,1
322,505,49,0.0391242550408641,1
322,506,49,0.0451763992177562,1
322,507,49,0.047539579096047,1
323,505,49,0.0409893938879316,1
323,506,49,0.0481769916019268,1
323,507,49,0.0514838682271109,1
324,504,49,0.0344829948138742,1
324,505,49,0.0419089756022821,1
324,506,49,0.049654461618106,1
325,504,49,0.0348691706705591,1
325,505,49,0.0419505368548614,1
325,506,49,0.0499917863091093,1
326,504,49,0.0371743753279295,1
326,505,49,0.0404594113734588,1
327,503,49,0.0372400749407732,1
327,504,49,0.0411679617673567,1
328,503,49,0.0397719900636968,1
329,498,49,0.0355660076320841,1
329,502,49,0.0348857421010234,1
330,496,49,0.0376712295612998,1
330,497,49,0.0472502366130835,1
330,498,49,0.0549965565949663,1
330,499,49,0.0457641732473393,1
330,500,49,0.0347550806145418,1
331,495,49,0.0435939369571114,1
331,496,49,0.0516190407118202,1
295,480,50,0.0504367159494341,1
296,478,50,0.0594753217429391,1
296,479,50,0.0573525981903473,1
296,480,50,0.0500895294639859,1
296,481,50,0.0430788404451937,1
296,482,50,0.0398338085268049,1
296,483,50,0.0393302854809285,1
297,476,50,0.046077117552963,1
297,477,50,0.0503890282538836,1
297,478,50,0.0546830145164681,1
297,479,50,0.0558033458578317,1
297,480,50,0.0512539210401402,1
297,481,50,0.045181128913377,1
297,482,50,0.0412075372476069,1
297,483,50,0.0392455271192699,1
298,475,50,0.0412392658653936,1
298,476,50,0.0438510696880234,1
298,477,50,0.048177006181753,1
298,478,50,0.0524492918310144,1
298,479,50,0.053379548894112,1
298,480,50,0.0492642238218404,1
298,481,50,0.0452994062954803,1
298,482,50,0.0424999105381864,1
298,483,50,0.0381524192293958,1
299,477,50,0.0454747870248971,1
299,478,50,0.0468098033911603,1
299,479,50,0.0451306302273342,1
299,480,50,0.0418208434688397,1
299,481,50,0.0414645416760483,1
299,482,50,0.0401955544267012,1
299,483,50,0.0350386786459806,1
300,478,50,0.0363180671433422,1
313,499,50,0.035220153742751,1
313,503,50,0.0367135857526592,1
314,499,50,0.0400024708723066,1
314,500,50,0.050601508809061,1
314,502,50,0.0505576585237676,1
314,503,50,0.0423169133075602,1
314,504,50,0.039099819252145,1
315,499,50,0.0373506512586752,1
315,500,50,0.0481215270270787,1
315,501,50,0.0551236635198192,1
315,502,50,0.0507412535272682,1
315,503,50,0.0436572425624924,1
315,504,50,0.0406092424154344,1
315,505,50,0.0405259420363963,1
316,500,50,0.0353124702863142,1
316,501,50,0.0409135787916669,1
316,502,50,0.040906947886709,1
316,503,50,0.0395239055729275,1
316,504,50,0.0401704625458028,1
316,505,50,0.0422107080215544,1
316,506,50,0.0428110644411522,1
317,503,50,0.0352293973525648,1
317,504,50,0.0392361843666379,1
317,505,50,0.0437507633997001,1
317,506,50,0.0458577903113999,1
318,504,50,0.0366505834076632,1
318,505,50,0.041036367171998,1
318,506,50,0.04218185162953,1
319,504,50,0.0360570532626945,1
319,505,50,0.0391305943492979,1
319,506,50,0.0385940450811026,1
320,504,50,0.0353563818068776,1
320,505,50,0.0386166438117199,1
320,506,50,0.0395163707187448,1
320,507,50,0.0392936988650503,1
321,505,50,0.0391026127468458,1
321,506,50,0.0440693880056132,1
321,507,50,0.0447147231890526,1
322,505,50,0.0393236312482487,1
322,506,50,0.0453001002952077,1
322,507,50,0.0450146710375975,1
323,505,50,0.0402674446337515,1
323,506,50,0.0488466780110934,1
324,504,50,0.0348510566944823,1
324,505,50,0.042794131430998,1
324,506,50,0.0548406049419499,1
325,504,50,0.0362787715957552,1
325,505,50,0.0427823101079112,1
326,504,50,0.03701239637476,1
327,503,50,0.036530673085025,1
328,502,50,0.0348618136902562,1
330,496,50,0.0401263906471511,1
330,497,50,0.0458372444203122,1
330,498,50,0.0517279170219868,1
330,499,50,0.0450456269245954,1
331,495,50,0.0419192806234436,1
331,496,50,0.0502520187110724,1
331,497,50,0.0542997925325723,1
331,498,50,0.056425781966234,1
295,479,51,0.0545207235550179,1
295,480,51,0.047229390377576,1
296,478,51,0.0554063546860681,1
296,479,51,0.0537648878687728,1
296,480,51,0.0478840187422383,1
296,481,51,0.0419350151718838,1
296,482,51,0.0393567886890035,1
296,483,51,0.0398358409545778,1
297,477,51,0.0479019081889915,1
297,478,51,0.0525727829589685,1
297,479,51,0.0540055366481777,1
297,480,51,0.0488802699306691,1
297,481,51,0.0427063375495236,1
297,482,51,0.039496997045684,1
297,483,51,0.0384931526837658,1
298,476,51,0.0402077402454431,1
298,477,51,0.0437964682388867,1
298,478,51,0.0484520750148621,1
298,479,51,0.0510495760279851,1
298,480,51,0.0464686762814827,1
298,481,51,0.0415904559711177,1
298,482,51,0.0392235961446927,1
298,483,51,0.0364810987599636,1
299,476,51,0.0369507149620183,1
299,477,51,0.0389852772215153,1
299,478,51,0.0414379393251551,1
299,479,51,0.0426044624719006,1
299,480,51,0.0397700451148811,1
299,481,51,0.0382284413591925,1
299,482,51,0.0370932269312391,1
300,478,51,0.0346725879578754,1
313,499,51,0.0351800388089313,1
313,504,51,0.0366455154600745,1
314,499,51,0.0382222128574379,1
314,500,51,0.0465017491592456,1
314,503,51,0.0425338961130697,1
314,504,51,0.0400022988303574,1
314,505,51,0.0403082419034376,1
315,499,51,0.0358240967995952,1
315,500,51,0.0448844236181801,1
315,501,51,0.0506079122687301,1
315,502,51,0.0494836910297351,1
315,503,51,0.0439319381520507,1
315,504,51,0.0424137495972469,1
315,505,51,0.0425409964884314,1
316,500,51,0.0347501234736322,1
316,501,51,0.0393507905485029,1
316,502,51,0.0405862733572315,1
316,503,51,0.040674950776174,1
316,504,51,0.0439921644981372,1
316,505,51,0.0464430157873624,1
316,506,51,0.0458698624074974,1
317,503,51,0.0361377613486335,1
317,504,51,0.0421666798623814,1
317,505,51,0.0474295976350542,1
317,506,51,0.0487504540741073,1
318,504,51,0.0380143307794454,1
318,505,51,0.0441212892709368,1
318,506,51,0.0456221599081746,1
318,507,51,0.0445834668456618,1
319,504,51,0.0360368077160266,1
319,505,51,0.0421102121954904,1
319,506,51,0.0432165439877322,1
319,507,51,0.0419216133956364,1
320,505,51,0.0389927566723583,1
320,506,51,0.0426544450320957,1
320,507,51,0.0430902856087644,1
321,505,51,0.0385601994725509,1
321,506,51,0.0448144375364321,1
321,507,51,0.0450673129580923,1
322,505,51,0.0383486636901116,1
322,506,51,0.0439321714292699,1
323,505,51,0.0395010706491256,1
323,506,51,0.048370856635006,1
324,504,51,0.0370675314455359,1
324,505,51,0.0460995500735616,1
325,504,51,0.0387884058282727,1
326,503,51,0.0348430990253398,1
326,504,51,0.038571673795774,1
327,503,51,0.0356648705176132,1
330,495,51,0.0349362378711009,1
330,496,51,0.0421128103205201,1
330,497,51,0.043982323115449,1
330,498,51,0.0447098301993783,1
331,496,51,0.0486288933151427,1
331,497,51,0.0487865974632689,1
295,479,52,0.0501916757263763,1
295,480,52,0.0448022837933078,1
296,478,52,0.053795907907006,1
296,479,52,0.0535884778036259,1
296,480,52,0.0476461867852561,1
296,481,52,0.0411927678836615,1
296,482,52,0.0384692884242338,1
297,477,52,0.0465221405041755,1
297,478,52,0.0520974048095977,1
297,479,52,0.0532759738087535,1
297,480,52,0.0476389989309372,1
297,481,52,0.0411710905980603,1
297,482,52,0.0382296194091499,1
298,476,52,0.0393708902969087,1
298,477,52,0.0421403428643251,1
298,478,52,0.0461573240928805,1
298,479,52,0.0482608139387431,1
298,480,52,0.0442866799034382,1
298,481,52,0.0394528347521098,1
298,482,52,0.0373710600993966,1
298,483,52,0.0355474445973603,1
299,475,52,0.0355846756415567,1
299,476,52,0.0358305585785691,1
299,477,52,0.0374582766197534,1
299,478,52,0.0401153303909922,1
299,479,52,0.0419068352837953,1
299,480,52,0.0393298305903509,1
299,481,52,0.0361960456618695,1
299,482,52,0.0347376693860881,1
300,477,52,0.0344857853926098,1
300,478,52,0.0361638592375399,1
300,479,52,0.036730804527407,1
300,480,52,0.0345135687094255,1
313,500,52,0.0390277949106935,1
313,504,52,0.0395974578801651,1
314,499,52,0.0350384745284138,1
314,500,52,0.0416415640938958,1
314,501,52,0.0475757662246872,1
314,503,52,0.0451668406836963,1
314,504,52,0.0422406608165095,1
314,505,52,0.0416435586141206,1
315,500,52,0.039717073690314,1
315,501,52,0.0452981349346353,1
315,502,52,0.0475887626817661,1
315,503,52,0.0451213866175204,1
315,504,52,0.0446838372852205,1
315,505,52,0.0443387765384329,1
316,501,52,0.0359583128477055,1
316,502,52,0.0386112492760241,1
316,503,52,0.0414443894402681,1
316,504,52,0.0466210617090094,1
316,505,52,0.0487514134266716,1
316,506,52,0.0463528920496604,1
317,503,52,0.0365831225518139,1
317,504,52,0.0437366063884553,1
317,505,52,0.0485884138856678,1
317,506,52,0.0486616512686595,1
318,504,52,0.0402308551019081,1
318,505,52,0.046530206064032,1
318,506,52,0.0476005985846791,1
318,507,52,0.0462516963919386,1
319,504,52,0.0375965925149925,1
319,505,52,0.0445312069166136,1
319,506,52,0.0459126221217907,1
319,507,52,0.0432671855560718,1
320,505,52,0.0405471002801846,1
320,506,52,0.0444362193488897,1
320,507,52,0.04269872979621,1
321,505,52,0.0396531848918849,1
321,506,52,0.0448076054298725,1
322,505,52,0.0380002758269841,1
322,506,52,0.0424156158150011,1
323,505,52,0.0381304795069229,1
324,504,52,0.0370045786719491,1
324,505,52,0.0462823402706557,1
325,504,52,0.0390840322163305,1
326,503,52,0.0346170154923134,1
330,496,52,0.0419151603645582,1
330,497,52,0.0414897851871392,1
330,498,52,0.0386695423371559,1
331,496,52,0.0464730618932051,1
331,497,52,0.0451616969210113,1
295,480,53,0.0436061985909496,1
295,481,53,0.041795226714198,1
296,478,53,0.0504144554707847,1
296,479,53,0.0530863835807176,1
296,480,53,0.0475587253238191,1
296,481,53,0.0426690336061961,1
296,482,53,0.0392641397254029,1
297,477,53,0.0433659318029912,1
297,478,53,0.0488172267621598,1
297,479,53,0.0515368454836084,1
297,480,53,0.0465005157059487,1
297,481,53,0.0416295678128945,1
297,482,53,0.0378930499531439,1
298,476,53,0.0374913932369948,1
298,477,53,0.0403288402818997,1
298,478,53,0.0440272872994644,1
298,479,53,0.0462710584011385,1
298,480,53,0.0428843922190663,1
298,481,53,0.0385514603247238,1
298,482,53,0.0358883850852624,1
298,483,53,0.0350043577350947,1
299,476,53,0.0349968403767035,1
299,477,53,0.0375126943630799,1
299,478,53,0.0414563157381036,1
299,479,53,0.0441094096285452,1
299,480,53,0.0408082862027815,1
299,481,53,0.0353542006648774,1
300,477,53,0.0360894029810776,1
300,478,53,0.0405927613798926,1
300,479,53,0.0429248891443326,1
300,480,53,0.0386971769397444,1
301,478,53,0.0366782909093827,1
301,479,53,0.0376899763018338,1
313,500,53,0.0373047860414004,1
313,503,53,0.0441074734276252,1
313,504,53,0.0426585623750159,1
314,500,53,0.0377862439782985,1
314,501,53,0.0441691256807146,1
314,502,53,0.0491673846161885,1
314,503,53,0.0487375567598466,1
314,504,53,0.0461880000472153,1
315,500,53,0.0348691881663505,1
315,501,53,0.0398962714182313,1
315,502,53,0.0447138221557932,1
315,503,53,0.0468378229011605,1
315,504,53,0.0478745360232747,1
315,505,53,0.0461080209525866,1
316,502,53,0.0368692603889776,1
316,503,53,0.0421118567998863,1
316,504,53,0.0476757051013902,1
316,505,53,0.0486632229739244,1
316,506,53,0.0457847949535232,1
317,503,53,0.0357027751497803,1
317,504,53,0.0427891363825403,1
317,505,53,0.0468741529120975,1
317,506,53,0.0472090544359856,1
318,504,53,0.0405000453490914,1
318,505,53,0.046544196865258,1
318,506,53,0.0481767612406728,1
319,504,53,0.0376479893183294,1
319,505,53,0.0447927106794218,1
319,506,53,0.0469151513833852,1
320,505,53,0.0407386500368625,1
320,506,53,0.0441275935877878,1
321,505,53,0.0385717875184184,1
321,506,53,0.0426011295236302,1
322,505,53,0.0357508827443255,1
323,505,53,0.0370436030347687,1
324,504,53,0.0365949788664836,1
325,504,53,0.0386945758987495,1
326,503,53,0.0346671788423534,1
330,497,53,0.0361833874567586,1
296,479,54,0.0519364610240889,1
296,480,54,0.0470249549704984,1
296,481,54,0.0429796218119052,1
296,482,54,0.0401447262365862,1
297,478,54,0.0478139655932898,1
297,479,54,0.0501768159675084,1
297,480,54,0.0456146862892621,1
297,481,54,0.041629235392857,1
297,482,54,0.0379090265266991,1
297,483,54,0.0376646044882724,1
298,477,54,0.0406641383770605,1
298,478,54,0.0439924006913217,1
298,479,54,0.0450306417792221,1
298,480,54,0.0415487226765892,1
298,481,54,0.0375620878982964,1
298,482,54,0.0350263353651157,1
298,483,54,0.0351259564016074,1
299,476,54,0.0360906131066526,1
299,477,54,0.0390916049780612,1
299,478,54,0.043318561947652,1
299,479,54,0.0455862789558848,1
299,480,54,0.0412272608364967,1
300,476,54,0.0345616238165963,1
300,477,54,0.0380830105087655,1
300,478,54,0.0444243980258029,1
300,479,54,0.0478006046405557,1
300,480,54,0.0419282472165595,1
301,477,54,0.0348247371922175,1
301,478,54,0.0399745242614373,1
301,479,54,0.041779034359215,1
301,480,54,0.0364616580197022,1
313,500,54,0.0352815202312468,1
313,503,54,0.0477623384286988,1
313,504,54,0.0448675197676783,1
314,501,54,0.0406416737808443,1
314,502,54,0.0479023105921947,1
314,503,54,0.0508339870538608,1
314,504,54,0.0487988561811418,1
315,501,54,0.0354319315503053,1
315,502,54,0.0426326919313982,1
315,503,54,0.0481471321178595,1
315,504,54,0.0498732173304819,1
315,505,54,0.0467285033642774,1
316,502,54,0.035748940711475,1
316,503,54,0.0420916637405927,1
316,504,54,0.0464137045047604,1
316,505,54,0.0464735838509833,1
316,506,54,0.0455898306015482,1
317,504,54,0.0403291377103542,1
317,505,54,0.0442721992200516,1
317,506,54,0.045670293746407,1
318,504,54,0.0393176389396785,1
318,505,54,0.0462209271267161,1
318,506,54,0.0475225236153527,1
319,504,54,0.0385344456675428,1
319,505,54,0.0470729575902948,1
319,506,54,0.0476069408090782,1
320,504,54,0.0352635812130845,1
320,505,54,0.0439471099191993,1
320,506,54,0.0447328371651294,1
321,505,54,0.0388335974575769,1
296,480,55,0.0446713277943368,1
296,481,55,0.0421205143006867,1
296,482,55,0.040772772662112,1
296,483,55,0.0417324197388732,1
297,479,55,0.047391993347307,1
297,480,55,0.0446331286496804,1
297,481,55,0.041655435340547,1
297,482,55,0.0387619959310854,1
297,483,55,0.0388159033804948,1
298,477,55,0.0410458119834134,1
298,478,55,0.0439049363139195,1
298,479,55,0.0443929522566445,1
298,480,55,0.0413137629453694,1
298,481,55,0.0377899210104673,1
298,482,55,0.0354327800961905,1
298,483,55,0.0356992643276302,1
299,476,55,0.0364995189123907,1
299,477,55,0.0409325500615245,1
299,478,55,0.0444858257495687,1
299,479,55,0.0458112252624672,1
299,480,55,0.0413076919057377,1
299,481,55,0.035193105249176,1
300,476,55,0.0351388537158682,1
300,477,55,0.0400316655162989,1
300,478,55,0.0455626742172593,1
300,479,55,0.0480474994175068,1
300,480,55,0.0425742822316568,1
300,481,55,0.0346931980001984,1
301,477,55,0.036553607151645,1
301,478,55,0.0416008601350974,1
301,479,55,0.043119349034321,1
301,480,55,0.038334194670586,1
313,500,55,0.0358959578469931,1
313,502,55,0.0458939307845962,1
313,503,55,0.0474573780359047,1
313,504,55,0.0440870704188343,1
314,501,55,0.038387734708375,1
314,502,55,0.0438969698968812,1
314,503,55,0.0470692134909255,1
314,504,55,0.0455345788921628,1
315,502,55,0.0405309020932711,1
315,503,55,0.0453929242167227,1
315,504,55,0.0461281469446796,1
315,505,55,0.0439039682134595,1
316,502,55,0.0355541688132059,1
316,503,55,0.0403922391981683,1
316,504,55,0.0420112472511779,1
316,505,55,0.0422471517551358,1
317,504,55,0.0376223900594792,1
317,505,55,0.0411654569532148,1
318,504,55,0.0365694525067643,1
318,505,55,0.0429906966478903,1
318,506,55,0.04398826585261,1
319,504,55,0.0376729237371048,1
319,505,55,0.0456636103540747,1
319,506,55,0.0448792448639121,1
320,504,55,0.0354092628365222,1
320,505,55,0.0428972632896399,1
296,482,56,0.0422988459869273,1
297,479,56,0.0448387187789934,1
297,480,56,0.0436164423768411,1
297,481,56,0.0415065315755179,1
297,482,56,0.0394013475538504,1
297,483,56,0.0397221737135205,1
297,484,56,0.0388598090691278,1
298,478,56,0.0437774007421761,1
298,479,56,0.0440942203656051,1
298,480,56,0.041493873370407,1
298,481,56,0.0379935749388604,1
298,482,56,0.0356407671489316,1
298,483,56,0.0362297104805763,1
298,484,56,0.0354925661315256,1
299,477,56,0.0425668873438057,1
299,478,56,0.0455205764270757,1
299,479,56,0.0452239352831141,1
299,480,56,0.0406268023581154,1
299,481,56,0.0353080759266961,1
300,476,56,0.0366623085038971,1
300,477,56,0.0424148430842122,1
300,478,56,0.0466524520748282,1
300,479,56,0.0467620078048959,1
300,480,56,0.0418152273197857,1
300,481,56,0.0355782255264437,1
301,477,56,0.0385730501313677,1
301,478,56,0.0429526695451831,1
301,479,56,0.0435749336116362,1
301,480,56,0.0399227746263062,1
301,481,56,0.0349944959406498,1
302,478,56,0.0357465758636646,1
302,479,56,0.0359048340451865,1
312,503,56,0.046249389863433,1
313,500,56,0.0383806226691523,1
313,502,56,0.0460568399306775,1
313,503,56,0.0486488239375646,1
313,504,56,0.0449186016467692,1
314,501,56,0.0378387167728094,1
314,502,56,0.0418316062965441,1
314,503,56,0.0447577774158352,1
314,504,56,0.0427729265317659,1
315,502,56,0.039891028512728,1
315,503,56,0.0433056238098779,1
315,504,56,0.042144104459486,1
315,505,56,0.0409710553825312,1
316,502,56,0.0370987147778226,1
316,503,56,0.0406018854351315,1
316,504,56,0.0398160736262095,1
316,505,56,0.0401105482079971,1
317,503,56,0.0349899003794301,1
317,504,56,0.0370913461336587,1
317,505,56,0.0399706052041535,1
317,506,56,0.0418657639133765,1
318,504,56,0.0364068291252767,1
318,505,56,0.0418950460363261,1
318,506,56,0.0425141637762842,1
319,504,56,0.0389100919737427,1
319,505,56,0.0457013108686749,1
319,506,56,0.0441132587026633,1
320,504,56,0.0375866898970342,1
320,505,56,0.0432319752757873,1
321,505,56,0.036033702213045,1
297,480,57,0.043093318212615,1
297,481,57,0.0421975249427001,1
297,482,57,0.0407851946740385,1
297,483,57,0.0398211882292421,1
297,484,57,0.0376079881071541,1
297,485,57,0.0345930462580328,1
298,478,57,0.0441444916063591,1
298,479,57,0.0440412547729685,1
298,480,57,0.0424640966530971,1
298,481,57,0.0385116194916367,1
298,482,57,0.0361745812417309,1
298,483,57,0.035805143025529,1
299,477,57,0.0433939250693043,1
299,478,57,0.045754996704726,1
299,479,57,0.0438527376201413,1
299,480,57,0.0403277147193166,1
299,481,57,0.0360042509641114,1
300,476,57,0.038290942158167,1
300,477,57,0.0444564853073143,1
300,478,57,0.0468131654990831,1
300,479,57,0.044274587395584,1
300,480,57,0.0399589792507378,1
301,476,57,0.0355536847629759,1
301,477,57,0.0403675234767861,1
301,478,57,0.0428663482261554,1
301,480,57,0.0392392402982104,1
302,477,57,0.0351847247650735,1
302,478,57,0.0367514816369305,1
302,479,57,0.0372438540317255,1
302,480,57,0.0356774150000798,1
303,473,57,0.0357424468568834,1
311,503,57,0.0372760696157075,1
312,499,57,0.0363331368517074,1
312,502,57,0.0427681589285969,1
312,503,57,0.0437197550253278,1
313,499,57,0.0346600055678607,1
313,500,57,0.0387435087114578,1
313,501,57,0.0404483015458908,1
313,502,57,0.0428690075864551,1
313,503,57,0.0452639510741156,1
314,500,57,0.0347215411823404,1
314,501,57,0.0370492541754056,1
314,502,57,0.0398550571655157,1
314,503,57,0.0424779241602697,1
314,504,57,0.0403738452894284,1
315,502,57,0.0379321268033379,1
315,503,57,0.0409574203290646,1
315,504,57,0.0390020906770946,1
315,505,57,0.0385359619694681,1
316,502,57,0.035750938147665,1
316,503,57,0.0389924650758342,1
316,504,57,0.0377344039482449,1
316,505,57,0.038259548876383,1
317,503,57,0.0344676510047763,1
317,504,57,0.0359318213034915,1
317,505,57,0.0378958405318795,1
318,504,57,0.0357380670770915,1
318,505,57,0.038861832749005,1
318,506,57,0.0385838596145159,1
319,504,57,0.0366539717592732,1
319,505,57,0.0403732795921717,1
320,504,57,0.0351432480754863,1
320,505,57,0.0378435106196655,1
297,482,58,0.0407278172259923,1
298,479,58,0.0434571023722147,1
298,480,58,0.0419613696657315,1
298,481,58,0.038314287375886,1
298,482,58,0.0358958820318968,1
298,483,58,0.0347807615204188,1
299,478,58,0.0467445207613459,1
299,479,58,0.0438764589973764,1
299,480,58,0.0411555426713955,1
300,477,58,0.0465665185791775,1
300,478,58,0.0483248485354343,1
301,475,58,0.0347820066375767,1
301,476,58,0.0376853982364056,1
311,502,58,0.0379239358569761,1
312,503,58,0.0438014195478658,1
313,503,58,0.0436218719041197,1
314,504,58,0.0404038943112364,1
315,504,58,0.0402540253617127,1
315,505,58,0.0382854251519311,1
316,503,58,0.0386625702642648,1
316,504,58,0.0383405223151588,1
316,505,58,0.0385541051051973,1
317,504,58,0.036786099976271,1
317,505,58,0.0383253592959059,1
318,504,58,0.0370684674703782,1
318,505,58,0.0377890112293122,1
319,504,58,0.0352310827804741,1
316,504,59,0.0400399468575832,1
317,504,59,0.0383964417805845,1
318,503,59,0.0349666776322512,1
