x,y,z,signal,cytoplasm.p
683,252,1,0.0444457341434709,1
683,253,1,0.047971719312825,1
683,254,1,0.0559276709518448,1
683,255,1,0.060577369982242,1
683,256,1,0.0553966270260243,1
683,257,1,0.0459445256974919,1
684,254,1,0.0513467012221767,1
684,255,1,0.055878321156107,1
684,256,1,0.0526573984383303,1
684,257,1,0.0461954853299888,1
684,258,1,0.0401224570100411,1
684,259,1,0.0366759377254333,1
685,255,1,0.0496962415680783,1
685,256,1,0.0483436681750994,1
685,257,1,0.0450219667826303,1
685,258,1,0.0402577432173949,1
697,275,1,0.0393546629503428,1
697,276,1,0.0397557248095828,1
698,275,1,0.0396104805809312,1
698,276,1,0.0403318378941674,1
716,248,1,0.0349829720460176,1
682,252,2,0.0490770888365373,1
682,253,2,0.0526536135154476,1
682,254,2,0.057554989505791,1
682,255,2,0.0593469317933802,1
682,256,2,0.0532481729961464,1
682,257,2,0.0434535011551421,1
683,251,2,0.0476813270823748,1
683,252,2,0.0497982070406237,1
683,253,2,0.052917129294272,1
683,254,2,0.0592512823015466,1
683,255,2,0.0662018645288271,1
683,256,2,0.0618838273849353,1
683,257,2,0.0504065357091903,1
683,258,2,0.0396475920705527,1
683,259,2,0.0352408133564831,1
684,252,2,0.0466159529379073,1
684,253,2,0.0477345726076745,1
684,254,2,0.0533338965422997,1
684,255,2,0.062539767933956,1
684,256,2,0.0609826249994985,1
684,257,2,0.0521342042909385,1
684,258,2,0.0423618133403404,1
684,259,2,0.0376618109935715,1
684,260,2,0.0358806344496519,1
685,254,2,0.0467737708086779,1
685,255,2,0.0532579181519816,1
685,256,2,0.0533013368744193,1
685,257,2,0.0492022595604703,1
685,258,2,0.0423116791499527,1
685,259,2,0.035783092496377,1
686,255,2,0.0433376090326059,1
686,256,2,0.0439537903955663,1
686,257,2,0.0433981619667994,1
686,258,2,0.0392445269431922,1
697,275,2,0.0380738048064998,1
697,276,2,0.0386651363136769,1
697,277,2,0.0359308998584754,1
698,275,2,0.0380365766782686,1
698,276,2,0.0397727657104509,1
698,277,2,0.0377925103876013,1
716,248,2,0.0359770858319267,1
681,252,3,0.0557976189020985,1
681,253,3,0.056838087787443,1
681,254,3,0.056285168290385,1
681,255,3,0.0512264059921266,1
681,256,3,0.0446579289340547,1
682,251,3,0.0574841607100884,1
682,252,3,0.0628442122009024,1
682,253,3,0.0638605310621214,1
682,254,3,0.0620877350023043,1
682,255,3,0.0582345143816805,1
682,256,3,0.0521083630069732,1
682,257,3,0.0430166924780134,1
682,258,3,0.0361200439438295,1
683,251,3,0.0572463929043415,1
683,252,3,0.062895748970571,1
683,253,3,0.0633385966117137,1
683,254,3,0.0633066201368815,1
683,255,3,0.0659758014075574,1
683,256,3,0.0624852160562284,1
683,257,3,0.0502258858305831,1
683,258,3,0.0407270036716901,1
683,259,3,0.0363589285642636,1
684,251,3,0.0517097039030918,1
684,252,3,0.0551095677438444,1
684,253,3,0.0539877900837213,1
684,254,3,0.0561812199614757,1
684,255,3,0.0650980958700321,1
684,256,3,0.0648527232269368,1
684,257,3,0.0534314997308447,1
684,258,3,0.0428831500178737,1
684,259,3,0.0380675092375446,1
685,252,3,0.0458039120216429,1
685,253,3,0.0444174142890508,1
685,254,3,0.0465991919697023,1
685,255,3,0.0532528093808795,1
685,256,3,0.0544513177503529,1
685,257,3,0.0492663524764663,1
685,258,3,0.0424975486063412,1
685,259,3,0.0359302641780528,1
686,252,3,0.0384216911236059,1
686,255,3,0.041224263224229,1
686,256,3,0.0417056482619961,1
686,257,3,0.0423027213047326,1
686,258,3,0.0392587101981242,1
690,255,3,0.0351448314446121,1
690,256,3,0.034520508706699,1
697,275,3,0.0374750550837498,1
697,276,3,0.0377188239459625,1
698,275,3,0.0352831269280945,1
698,276,3,0.037500677670322,1
712,273,3,0.0369507207939488,1
713,273,3,0.0352398306761969,1
716,248,3,0.0346039607159297,1
680,255,4,0.0486801793118005,1
680,256,4,0.0440806086398604,1
681,252,4,0.0700684694299069,1
681,253,4,0.0660698062949951,1
681,254,4,0.0584312662203482,1
681,255,4,0.0521350149292755,1
681,256,4,0.0478159367857926,1
681,257,4,0.0417718931603399,1
682,251,4,0.0713335259581092,1
682,252,4,0.0828013407468212,1
682,253,4,0.0763387627984047,1
682,254,4,0.0644133572482918,1
682,255,4,0.0570127599373063,1
682,256,4,0.0546981133844857,1
682,257,4,0.0482151090995565,1
682,258,4,0.0421204414015557,1
683,250,4,0.0519374466203403,1
683,251,4,0.0676511342451611,1
683,252,4,0.0779753249621648,1
683,253,4,0.0721514192166122,1
683,254,4,0.0647150546759812,1
683,255,4,0.063061970653166,1
683,256,4,0.0640626074533191,1
683,257,4,0.0547356943445111,1
683,258,4,0.047618823367435,1
683,259,4,0.0396621164934179,1
684,251,4,0.0539761203908271,1
684,252,4,0.0584903436761299,1
684,253,4,0.0543229627923768,1
684,254,4,0.0551791776660763,1
684,255,4,0.0625071149551879,1
684,256,4,0.0663155813412936,1
684,257,4,0.0560809749084224,1
684,258,4,0.0472870827498681,1
684,259,4,0.0400939767775328,1
685,252,4,0.0458151122441334,1
685,253,4,0.0430109101189406,1
685,254,4,0.0448277226740698,1
685,255,4,0.0503329075868563,1
685,256,4,0.0529754777587434,1
685,257,4,0.0480327883728662,1
685,258,4,0.042857751960625,1
685,259,4,0.0362578495451514,1
686,251,4,0.0369833416970992,1
686,252,4,0.0384067555496417,1
686,253,4,0.0382308820220992,1
686,255,4,0.0392032835308243,1
686,256,4,0.0395144082741377,1
686,257,4,0.0403466714093481,1
686,258,4,0.0379952778625611,1
687,253,4,0.0348646859160185,1
694,273,4,0.0351018705287172,1
695,273,4,0.0347045615167424,1
695,274,4,0.0355176376006673,1
712,273,4,0.0361838452633014,1
713,273,4,0.0397317118358236,1
680,252,5,0.0603207767048996,1
680,253,5,0.0579232350922094,1
680,254,5,0.0559960328409536,1
680,255,5,0.0569997663961926,1
680,256,5,0.0541777418914472,1
680,257,5,0.0445505805896744,1
681,251,5,0.0692653951067584,1
681,252,5,0.0795400202465964,1
681,253,5,0.0702197438746768,1
681,254,5,0.0601387213310462,1
681,255,5,0.0582915506617935,1
681,256,5,0.0577426551967679,1
681,257,5,0.0500774981914017,1
681,258,5,0.03955177053677,1
682,250,5,0.0578367067396495,1
682,251,5,0.0819342084992595,1
682,252,5,0.0971982309562043,1
682,253,5,0.081756410434658,1
682,254,5,0.0625019187051285,1
682,255,5,0.0560927204164129,1
682,256,5,0.0604626675735241,1
682,257,5,0.0593322178327744,1
682,258,5,0.0488307305971906,1
682,259,5,0.0355128845773245,1
683,250,5,0.0540667544224462,1
683,251,5,0.0729703622226019,1
683,252,5,0.0854919135385047,1
683,253,5,0.0732062113232202,1
683,254,5,0.0603712928867337,1
683,255,5,0.0576596085067057,1
683,256,5,0.0667564869495859,1
683,257,5,0.0670559740756227,1
683,258,5,0.0568348102425122,1
683,259,5,0.0407632024641912,1
684,251,5,0.0531850948360542,1
684,252,5,0.0571655040285576,1
684,253,5,0.0520205982851512,1
684,254,5,0.0517256075775159,1
684,255,5,0.0575716221715254,1
684,256,5,0.064835612342903,1
684,257,5,0.0611402795762155,1
684,258,5,0.0507805549067857,1
684,259,5,0.0392697587904222,1
685,251,5,0.0465153375572684,1
685,252,5,0.0464816202511873,1
685,253,5,0.0432470449841525,1
685,254,5,0.0440862976880455,1
685,255,5,0.0491849795504524,1
685,256,5,0.0515856995652552,1
685,257,5,0.0471932848959626,1
685,258,5,0.041571761717958,1
686,250,5,0.0364161952056306,1
686,251,5,0.0406353403043409,1
686,252,5,0.0406990133213423,1
686,253,5,0.0385398956065782,1
686,254,5,0.0369556779348584,1
686,255,5,0.0389514112012069,1
686,256,5,0.0395077540414578,1
686,257,5,0.0390272029697496,1
687,252,5,0.0352558684850222,1
687,269,5,0.0354757555919116,1
694,273,5,0.036617070219149,1
694,274,5,0.0393820730236078,1
695,273,5,0.0373461285965865,1
695,274,5,0.0436616631657977,1
695,275,5,0.0371630118113855,1
696,274,5,0.0365557562180276,1
696,275,5,0.0356125581011906,1
712,273,5,0.0364505686038909,1
713,273,5,0.0432522995535167,1
713,274,5,0.0352689844966759,1
680,252,6,0.0635805109200332,1
680,253,6,0.0596499880608719,1
680,254,6,0.0579405617576711,1
680,255,6,0.062029036622004,1
680,256,6,0.0610462047056121,1
680,257,6,0.0468033095365687,1
681,251,6,0.0710343187647355,1
681,252,6,0.0819144907423002,1
681,253,6,0.0687883140336869,1
681,254,6,0.0595153637776278,1
681,255,6,0.0613227140255502,1
681,256,6,0.0624026709121876,1
681,257,6,0.0519763222689326,1
681,258,6,0.0385223968991672,1
682,250,6,0.0591675124521047,1
682,251,6,0.0850448610754845,1
682,252,6,0.100961669007059,1
682,253,6,0.0791268454677456,1
682,254,6,0.0572784860177834,1
682,255,6,0.0522891936754254,1
682,256,6,0.0578100256576948,1
682,257,6,0.0621834369815122,1
682,258,6,0.0480432945956293,1
683,250,6,0.0524797345081299,1
683,251,6,0.070299233087145,1
683,252,6,0.0820129278969042,1
683,253,6,0.0662327154410764,1
683,254,6,0.0520389863619606,1
683,255,6,0.0501191031834596,1
683,256,6,0.0614256534304861,1
683,257,6,0.0729162419077299,1
683,258,6,0.0588132226753295,1
683,259,6,0.0393636849467983,1
684,251,6,0.0480938836765945,1
684,252,6,0.0510988500086266,1
684,253,6,0.04658464130315,1
684,254,6,0.0455852467041895,1
684,255,6,0.0495507815579988,1
684,256,6,0.0543683002199431,1
684,257,6,0.0586091925874204,1
684,258,6,0.0472635654901999,1
684,259,6,0.0358047231265343,1
685,250,6,0.040742650741173,1
685,251,6,0.0451418304498247,1
685,252,6,0.0434615083956938,1
685,253,6,0.0402499780019582,1
685,254,6,0.0406993020019011,1
685,255,6,0.0451346950828801,1
685,256,6,0.0452885384930273,1
685,257,6,0.0413234410340041,1
685,258,6,0.0365521724967465,1
686,250,6,0.0380179699040661,1
686,251,6,0.0436575924783213,1
686,252,6,0.0417974953351554,1
686,253,6,0.0363873913009805,1
686,255,6,0.0361287043605951,1
686,256,6,0.0369423811333596,1
686,257,6,0.0347121896818127,1
687,250,6,0.0345919090315888,1
687,251,6,0.0384072512637327,1
687,252,6,0.0374595363167375,1
690,248,6,0.0361690146640859,1
691,247,6,0.0384813517724356,1
691,248,6,0.0352757582839307,1
694,274,6,0.0410097210816262,1
694,275,6,0.0358982381318115,1
695,273,6,0.0357271438712989,1
695,274,6,0.0477692725940417,1
695,275,6,0.0431497275602012,1
696,274,6,0.0381056617267572,1
696,275,6,0.0375371913870691,1
713,273,6,0.0364706479405401,1
680,252,7,0.074516389497561,1
680,253,7,0.0670189529809236,1
681,251,7,0.0798950331827513,1
681,252,7,0.0894878006745071,1
681,253,7,0.0735353421518965,1
681,254,7,0.0596399629723735,1
681,255,7,0.0620243710776185,1
681,256,7,0.0620200729448534,1
681,257,7,0.0506583584673985,1
681,258,7,0.0385710701909691,1
682,250,7,0.060276996402772,1
682,251,7,0.0846650857625035,1
682,252,7,0.0964948126611304,1
682,253,7,0.0750792174445078,1
682,254,7,0.0531129421921322,1
682,255,7,0.0494587945185079,1
682,256,7,0.0527532112242174,1
682,257,7,0.0598160114578305,1
682,258,7,0.0477378909761187,1
682,259,7,0.0350076498598517,1
683,251,7,0.0633480676668163,1
683,252,7,0.0708841640506182,1
683,253,7,0.0579083286778976,1
683,254,7,0.0462502354933529,1
683,255,7,0.0454158320396556,1
683,256,7,0.0556110029586083,1
683,257,7,0.0733630319338784,1
683,258,7,0.0615831913685936,1
683,259,7,0.0413641566566634,1
684,251,7,0.0459174626240907,1
684,252,7,0.0476919936832261,1
684,253,7,0.0440450863512951,1
684,254,7,0.0422127637770493,1
684,255,7,0.0439159149230516,1
684,256,7,0.0456376611793955,1
684,257,7,0.0542230384955,1
684,258,7,0.0464031895341015,1
684,259,7,0.0364879425303841,1
685,250,7,0.0415954160279925,1
685,251,7,0.0449143618333089,1
685,252,7,0.0429288140335469,1
685,253,7,0.0385056213511361,1
685,254,7,0.0375285863736431,1
685,255,7,0.0408700405146543,1
685,256,7,0.0403654094019864,1
685,257,7,0.0374313039412746,1
685,258,7,0.0355238281948738,1
686,249,7,0.0379731311065561,1
686,250,7,0.0397756029446303,1
686,251,7,0.0459193317578101,1
686,252,7,0.0431864687222371,1
686,253,7,0.035163067891229,1
687,249,7,0.0349575331652555,1
687,250,7,0.036547591515353,1
687,251,7,0.0411803983591094,1
687,252,7,0.0389251791778994,1
690,247,7,0.0425621372364282,1
690,248,7,0.0386604882650828,1
691,245,7,0.0381456017026624,1
691,246,7,0.0422216720508604,1
691,247,7,0.0426582357869089,1
691,248,7,0.0384947127251697,1
692,246,7,0.0355563761988933,1
692,247,7,0.0354762308942458,1
694,274,7,0.040947538122863,1
694,275,7,0.0377939217147779,1
695,273,7,0.0347835783428416,1
695,274,7,0.0491253072377617,1
695,275,7,0.0462673434614215,1
696,274,7,0.0384000196699351,1
696,275,7,0.0375245040223058,1
715,277,7,0.0345498491489534,1
680,252,8,0.0827655968448976,1
680,253,8,0.0700730766549876,1
681,251,8,0.0816005462605988,1
681,252,8,0.0951559122291663,1
681,253,8,0.0758150904327134,1
681,254,8,0.0557054510727626,1
682,251,8,0.0710052465912833,1
682,252,8,0.0810354147011117,1
682,253,8,0.0636927872456707,1
682,254,8,0.0462544461471608,1
682,257,8,0.0493315417953929,1
682,258,8,0.0438767855854834,1
683,251,8,0.0509884632284653,1
683,252,8,0.0542140631544884,1
683,253,8,0.0464398490491107,1
683,254,8,0.0400423146213589,1
683,256,8,0.0471965187014148,1
683,257,8,0.0607149627181014,1
683,258,8,0.0562913209770434,1
684,250,8,0.0424685405841243,1
684,251,8,0.0419757366264736,1
684,252,8,0.0421549576821128,1
684,253,8,0.0395172571721781,1
684,254,8,0.0378712006255935,1
684,255,8,0.0383374576356906,1
684,256,8,0.0381494070373019,1
684,257,8,0.0435583855088938,1
684,258,8,0.0417153759220399,1
685,249,8,0.0446800786060249,1
685,250,8,0.0424812979320534,1
685,251,8,0.0445374033427506,1
685,252,8,0.042350324437291,1
685,253,8,0.0366401296722744,1
686,249,8,0.0414382075939573,1
686,250,8,0.041991704452133,1
686,251,8,0.0474817846649715,1
686,252,8,0.0440887150232302,1
687,249,8,0.0385774619867773,1
687,250,8,0.0385558021969675,1
687,251,8,0.0425061098802887,1
687,252,8,0.0393228031141202,1
688,249,8,0.035013426386994,1
689,245,8,0.0469378434248903,1
689,246,8,0.0494697352200919,1
689,247,8,0.045878280799148,1
689,248,8,0.0393590485620652,1
690,246,8,0.0479889876589819,1
690,247,8,0.0470666678532701,1
690,248,8,0.0409667893253837,1
691,245,8,0.0393835455860544,1
691,246,8,0.0444939962841738,1
691,247,8,0.0448684762042773,1
691,248,8,0.0400332255577028,1
692,246,8,0.0357659028812816,1
692,247,8,0.0360325270790529,1
694,274,8,0.0359285291787345,1
695,274,8,0.0430833893509696,1
714,277,8,0.0352999083080562,1
714,278,8,0.0367047562099096,1
715,277,8,0.0408566708140246,1
715,278,8,0.0407125871395389,1
716,276,8,0.0356165179819878,1
716,277,8,0.0404498732511557,1
716,278,8,0.0391074619970415,1
680,252,9,0.0832774770471546,1
681,251,9,0.0763558795143691,1
681,252,9,0.0941156124698058,1
681,253,9,0.0722406710807071,1
682,251,9,0.0567484335201448,1
682,252,9,0.067030272757989,1
682,253,9,0.0531749239492937,1
682,254,9,0.0418907099960128,1
683,250,9,0.0441605964823848,1
683,251,9,0.0440063565009649,1
683,252,9,0.0459235686553052,1
683,253,9,0.041041607161536,1
683,254,9,0.0369108420533135,1
683,257,9,0.0458658675351173,1
684,249,9,0.0477461402417853,1
684,250,9,0.0427966945644448,1
684,251,9,0.0420247277584868,1
684,252,9,0.0418818950330894,1
684,253,9,0.0387166089321101,1
684,254,9,0.0350525819682495,1
685,249,9,0.0469818395084457,1
685,250,9,0.0432825031214825,1
685,251,9,0.0445966470085509,1
685,252,9,0.0429184740208025,1
685,253,9,0.0365731295389332,1
686,249,9,0.0447449150931574,1
686,250,9,0.04320405199264,1
686,251,9,0.0465760683653416,1
686,252,9,0.0432790506186372,1
687,249,9,0.0408223848947215,1
687,250,9,0.0394683564350874,1
687,251,9,0.041777678435378,1
687,252,9,0.0378727490031365,1
688,244,9,0.050994522604236,1
688,245,9,0.0595462205218075,1
688,246,9,0.0637797471610862,1
688,247,9,0.0556483506414144,1
688,248,9,0.0439534638074593,1
688,249,9,0.0373351674832458,1
688,250,9,0.0358001392291756,1
688,251,9,0.035698523672459,1
689,243,9,0.0417688139010455,1
689,244,9,0.0465958590214319,1
689,245,9,0.0579399902284838,1
689,246,9,0.0652456845347374,1
689,247,9,0.0564459837734232,1
689,248,9,0.0424424718548702,1
689,249,9,0.035324933121754,1
690,242,9,0.0361352215429086,1
690,243,9,0.0367791133235537,1
690,244,9,0.0395163998783973,1
690,245,9,0.048159204213957,1
690,246,9,0.0557300909790486,1
690,247,9,0.0509867836324865,1
690,248,9,0.0404593093146754,1
691,245,9,0.0382473280660581,1
691,246,9,0.0431210986134655,1
691,247,9,0.0425221389412182,1
691,248,9,0.0369951776000122,1
714,277,9,0.0358495531761487,1
714,278,9,0.0403113532383497,1
714,279,9,0.0362937363293718,1
715,277,9,0.0437083477693053,1
715,278,9,0.0490463254032453,1
715,279,9,0.0409184251258974,1
716,276,9,0.0346853307259783,1
716,277,9,0.0454408189458053,1
716,278,9,0.048757009163969,1
716,279,9,0.039757990514575,1
717,277,9,0.0360573273634271,1
717,278,9,0.0354816487576635,1
681,252,10,0.0826095868725764,1
682,251,10,0.0468309266433657,1
682,252,10,0.0568555135957229,1
682,253,10,0.0483118258346682,1
683,250,10,0.0417221467933294,1
683,251,10,0.0413728695608034,1
683,252,10,0.0438460454799133,1
683,253,10,0.0403670160988341,1
683,254,10,0.0361328654429939,1
684,249,10,0.0464322063042142,1
684,250,10,0.0423457288760713,1
684,251,10,0.0431986457930833,1
684,252,10,0.0436149494026377,1
684,253,10,0.0389829007098439,1
685,248,10,0.0506866899856796,1
685,249,10,0.0469010905989934,1
685,250,10,0.0429294293022128,1
685,251,10,0.0442599754937616,1
685,252,10,0.0432875856488974,1
685,253,10,0.0364958477121523,1
686,249,10,0.0449043250809495,1
686,250,10,0.0413112960387755,1
686,251,10,0.0428977298440784,1
686,252,10,0.0405110968573546,1
687,244,10,0.0565458847425781,1
687,245,10,0.0616461937135895,1
687,246,10,0.0639522731605321,1
687,247,10,0.0569944185159407,1
687,248,10,0.0477122042383112,1
687,249,10,0.0404703083355642,1
687,250,10,0.0385759194411648,1
687,251,10,0.0414720473705785,1
687,252,10,0.0388441503357839,1
688,242,10,0.0443181256725965,1
688,243,10,0.0472775737872174,1
688,244,10,0.0556767638067222,1
688,245,10,0.0714531271884319,1
688,246,10,0.0824322903539963,1
688,247,10,0.0673075285650288,1
688,248,10,0.0480344183974359,1
688,249,10,0.0381056209032438,1
688,250,10,0.0376725067540753,1
688,251,10,0.0395564856525646,1
688,252,10,0.0365994548731285,1
689,242,10,0.0412072048275694,1
689,243,10,0.0431665264359543,1
689,244,10,0.0525232290456638,1
689,245,10,0.0732717855495587,1
689,246,10,0.0882700119428605,1
689,247,10,0.0705561762803164,1
689,248,10,0.0477254135608527,1
689,249,10,0.0372813679245503,1
689,250,10,0.0357387639927841,1
689,251,10,0.0346637700789867,1
690,241,10,0.035260283256397,1
690,242,10,0.0385619169760778,1
690,243,10,0.0387861109636281,1
690,244,10,0.0421375756133115,1
690,245,10,0.0532446971655791,1
690,246,10,0.0641216265897959,1
690,247,10,0.0544404295361432,1
690,248,10,0.0412976347416217,1
691,241,10,0.0348182987409655,1
691,242,10,0.0386187345587977,1
691,243,10,0.0374278339426379,1
691,244,10,0.0350995144288025,1
691,245,10,0.0362569689236486,1
691,246,10,0.040368818165353,1
691,247,10,0.0394321693064472,1
691,248,10,0.0350331878834319,1
692,242,10,0.0354916621823009,1
714,277,10,0.0347541445896994,1
714,278,10,0.0431523140213699,1
714,279,10,0.0417393918117643,1
715,277,10,0.0439580068813047,1
715,278,10,0.0566072716428306,1
715,279,10,0.0511486838545944,1
716,277,10,0.046854493474443,1
716,278,10,0.055888935269584,1
716,279,10,0.0473885058528788,1
717,277,10,0.0373787874072851,1
717,278,10,0.0388638389330908,1
681,252,11,0.0623449756239303,1
682,250,11,0.0411701662370789,1
682,251,11,0.0433087118170681,1
682,252,11,0.0485511186902361,1
682,253,11,0.0443833528990713,1
683,249,11,0.0453492576372396,1
683,250,11,0.0432601493319454,1
683,251,11,0.043822878136074,1
683,252,11,0.0449603232774367,1
683,253,11,0.0405269509603697,1
683,254,11,0.0358024253459245,1
684,248,11,0.0479785572513151,1
684,249,11,0.0464535424218822,1
684,250,11,0.0457170920725589,1
684,251,11,0.047385228307948,1
684,252,11,0.0467138710506983,1
684,253,11,0.0394433520331463,1
685,248,11,0.0481766941734722,1
685,249,11,0.0466726305542956,1
685,250,11,0.0451480735314056,1
685,251,11,0.0456979283489954,1
685,252,11,0.0440928644417681,1
685,253,11,0.0360452698471558,1
686,245,11,0.0560425191588247,1
686,246,11,0.0540375539465233,1
686,247,11,0.0510061106501035,1
686,248,11,0.0478670536564665,1
686,249,11,0.0449678260560017,1
686,250,11,0.0427734572374397,1
686,251,11,0.043092204313893,1
686,252,11,0.0408712914637427,1
687,242,11,0.0475383543906458,1
687,243,11,0.0529424923599378,1
687,244,11,0.0571446198855019,1
687,245,11,0.0635999662401208,1
687,246,11,0.0678382983901166,1
687,247,11,0.0605177209972732,1
687,248,11,0.0490596397005355,1
687,249,11,0.0415390941593636,1
687,250,11,0.040648774156206,1
687,251,11,0.0435856206242442,1
687,252,11,0.0419147667092506,1
688,241,11,0.0380573558465756,1
688,242,11,0.0445794661413512,1
688,243,11,0.0496995307768701,1
688,244,11,0.0593673027265535,1
688,245,11,0.0788087778111934,1
688,246,11,0.0937035049342331,1
688,247,11,0.0761059054781236,1
688,248,11,0.0524347003409487,1
688,249,11,0.0403354799347533,1
688,250,11,0.0402306189087236,1
688,251,11,0.0428409589168024,1
688,252,11,0.0405951291436683,1
689,241,11,0.0353909447428786,1
689,242,11,0.0407712009568472,1
689,243,11,0.0446942647769221,1
689,244,11,0.0576987874156831,1
689,245,11,0.0847984153571806,1
689,246,11,0.104123928336119,1
689,247,11,0.082534028381253,1
689,248,11,0.0540238080863775,1
689,249,11,0.0401973739890115,1
689,250,11,0.0372782711694644,1
689,251,11,0.0354714341314245,1
690,241,11,0.0349995784680648,1
690,242,11,0.0400928978703936,1
690,243,11,0.0405787297551532,1
690,244,11,0.0444442994885724,1
690,245,11,0.0566802174292981,1
690,246,11,0.0687587811377266,1
690,247,11,0.0576032953859726,1
690,248,11,0.0432873086321996,1
691,241,11,0.0361774592994237,1
691,242,11,0.0424197973091566,1
691,243,11,0.0414907357918077,1
691,244,11,0.0377688969010801,1
691,245,11,0.0371677969103459,1
691,246,11,0.0400558592799031,1
691,247,11,0.0389587710974751,1
692,242,11,0.037477973964956,1
692,243,11,0.0369695316857181,1
714,278,11,0.0421976065897269,1
714,279,11,0.0414692422120167,1
715,277,11,0.0429892736568528,1
715,278,11,0.0563023666533761,1
715,279,11,0.0522930835730568,1
715,280,11,0.0353525094050376,1
716,277,11,0.0444922496209945,1
716,278,11,0.0539694719900777,1
716,279,11,0.0466558579222297,1
717,278,11,0.0393546454545514,1
721,276,11,0.0346902995307489,1
721,277,11,0.0345308720471653,1
681,251,12,0.0443812300763759,1
681,252,12,0.0478164849872579,1
682,249,12,0.042232122870284,1
682,250,12,0.041358088532997,1
682,251,12,0.0418257277106183,1
682,252,12,0.0430240115507682,1
682,253,12,0.0406290418194205,1
683,248,12,0.0450956153167209,1
683,249,12,0.0460600066689291,1
683,250,12,0.0469696536897038,1
683,251,12,0.0469232956743032,1
683,252,12,0.0453066962085827,1
683,253,12,0.0397750430793041,1
683,254,12,0.034915254585227,1
684,248,12,0.0457869673476278,1
684,249,12,0.0478075008983506,1
684,250,12,0.0501326974134129,1
684,251,12,0.0503918392443759,1
684,252,12,0.046811106827623,1
684,253,12,0.0380731953697645,1
685,248,12,0.04518909241445,1
685,249,12,0.0464001131907723,1
685,250,12,0.0472822130879157,1
685,251,12,0.0455405274612543,1
685,252,12,0.0417341605701221,1
686,243,12,0.0496009303282127,1
686,244,12,0.0523425441754737,1
686,245,12,0.0536100617783394,1
686,246,12,0.0524733602081131,1
686,247,12,0.047316767276021,1
686,248,12,0.0445298539087418,1
686,249,12,0.0440807544381224,1
686,250,12,0.0442231847603165,1
686,251,12,0.0425191384129852,1
686,252,12,0.0389841050034884,1
687,242,12,0.0464574673110965,1
687,243,12,0.0534853051214707,1
687,244,12,0.0577746958228355,1
687,245,12,0.0647289638301805,1
687,246,12,0.0691287121520542,1
687,247,12,0.060335123253885,1
687,248,12,0.0475697943278737,1
687,249,12,0.041602997537619,1
687,250,12,0.0419891529825472,1
687,251,12,0.0434980483561281,1
687,252,12,0.0414236423475788,1
688,241,12,0.0358670489675943,1
688,242,12,0.0443772002124129,1
688,243,12,0.0523169536645192,1
688,244,12,0.0612749096913901,1
688,245,12,0.0806269579540207,1
688,246,12,0.0942333474823743,1
688,247,12,0.0784814140574532,1
688,248,12,0.0531499516229703,1
688,249,12,0.041425024515103,1
688,250,12,0.0407429714973496,1
688,251,12,0.0427312573884727,1
688,252,12,0.0402548360000496,1
689,242,12,0.0396982890422319,1
689,243,12,0.0459063732082793,1
689,244,12,0.0587083004140297,1
689,245,12,0.0861223218958757,1
689,246,12,0.10392595762398,1
689,247,12,0.0865567365655416,1
689,248,12,0.0563169289837894,1
689,249,12,0.0422269849395294,1
689,250,12,0.0379337568279076,1
689,251,12,0.0356712710613171,1
690,242,12,0.0398882233541662,1
690,243,12,0.0421732262043473,1
690,244,12,0.0457989286370461,1
690,245,12,0.0579878237222963,1
690,246,12,0.0681338139714952,1
690,247,12,0.0601916985875438,1
690,248,12,0.0443254243335946,1
690,249,12,0.0356976022274429,1
691,241,12,0.0355515240327323,1
691,242,12,0.0430855150896302,1
691,243,12,0.0437761177174701,1
691,244,12,0.039726174417831,1
691,245,12,0.038151212019786,1
691,246,12,0.0391742550968506,1
691,247,12,0.0381540346741393,1
692,242,12,0.0369531410450987,1
692,243,12,0.0375392967139731,1
713,278,12,0.0355855737588509,1
713,279,12,0.0369290843318609,1
714,278,12,0.0442563130414189,1
714,279,12,0.0453731248127367,1
714,280,12,0.0362996353270542,1
715,277,12,0.0434228397806336,1
715,278,12,0.0548757189953814,1
715,279,12,0.0521240217403171,1
715,280,12,0.0383765344858845,1
716,277,12,0.04190870733348,1
716,278,12,0.0485421783408074,1
716,279,12,0.0427849082329409,1
718,276,12,0.0347256701891216,1
718,277,12,0.0397003156380743,1
719,276,12,0.0401794991220845,1
719,277,12,0.0431682118638635,1
719,278,12,0.037148411573424,1
720,276,12,0.0408532912103103,1
720,277,12,0.0423543688810802,1
721,276,12,0.0353596943433913,1
721,277,12,0.03546103288341,1
681,250,13,0.0403474441401369,1
681,251,13,0.041469874976474,1
681,252,13,0.0430943679601018,1
681,253,13,0.0421229374678019,1
682,249,13,0.0428493627286268,1
682,250,13,0.0439182272834877,1
682,251,13,0.0432387957184859,1
682,252,13,0.0429793418792421,1
682,253,13,0.0408671070536219,1
682,254,13,0.0365740364041231,1
683,248,13,0.0436711692124832,1
683,249,13,0.0490189794812157,1
683,250,13,0.0522967985127737,1
683,251,13,0.0500928361685691,1
683,252,13,0.0465203005301085,1
683,253,13,0.041044403572202,1
683,254,13,0.0360988186328406,1
684,248,13,0.0438181338606269,1
684,249,13,0.049803753206512,1
684,250,13,0.0535102074646284,1
684,251,13,0.0511205156303668,1
684,252,13,0.0456907084190588,1
684,253,13,0.0376493073346183,1
685,243,13,0.0445887534906437,1
685,244,13,0.0468094155677832,1
685,245,13,0.0469907798578745,1
685,246,13,0.0454400462150165,1
685,247,13,0.041624079966311,1
685,248,13,0.0432670280939488,1
685,249,13,0.0469553917037103,1
685,250,13,0.0489737178687457,1
685,251,13,0.0458358651687532,1
685,252,13,0.0409062568029469,1
686,242,13,0.0403152343880854,1
686,243,13,0.0450915592090708,1
686,244,13,0.0489289869619496,1
686,245,13,0.0511786599772713,1
686,246,13,0.0508865677390856,1
686,247,13,0.0448690943889084,1
686,248,13,0.0422858378659875,1
686,249,13,0.0427520015651968,1
686,250,13,0.0441086718893393,1
686,251,13,0.0420250339348371,1
686,252,13,0.0383942023192794,1
687,242,13,0.042777490017368,1
687,243,13,0.0497364119052376,1
687,244,13,0.055313469529283,1
687,245,13,0.0624006880558238,1
687,246,13,0.0657504614456674,1
687,247,13,0.0562797096034539,1
687,248,13,0.0450150880206269,1
687,249,13,0.0397717480385818,1
687,250,13,0.0404892766894566,1
687,251,13,0.0409054403326794,1
687,252,13,0.0392164782735396,1
687,257,13,0.0350226000136421,1
688,241,13,0.0349783823167283,1
688,242,13,0.0426441779184823,1
688,243,13,0.0504386113268407,1
688,244,13,0.0588013546967989,1
688,245,13,0.0741331850094566,1
688,246,13,0.0835970843333539,1
688,247,13,0.0709176451635147,1
688,248,13,0.0500786820732895,1
688,249,13,0.0389345802498362,1
688,250,13,0.0374687391030379,1
688,251,13,0.0381578837482573,1
688,252,13,0.0365032163563162,1
689,242,13,0.0387536591864616,1
689,243,13,0.0443576515814376,1
689,244,13,0.0544031751642248,1
689,245,13,0.0743523372931053,1
689,246,13,0.0868671119057881,1
689,247,13,0.0755363708111226,1
689,248,13,0.051869720411654,1
689,249,13,0.038886073168053,1
689,250,13,0.034999750510014,1
690,242,13,0.0379817361199821,1
690,243,13,0.0406433125533097,1
690,244,13,0.0440474832747232,1
690,245,13,0.0533243380082399,1
690,246,13,0.0605540772518973,1
690,247,13,0.0558892676896215,1
690,248,13,0.042069193312446,1
691,242,13,0.038663710406674,1
691,243,13,0.0394944980634725,1
691,244,13,0.036800863508286,1
691,245,13,0.0352233321448637,1
691,246,13,0.0350594053269133,1
713,278,13,0.0429542179227261,1
713,279,13,0.0466122438301208,1
713,280,13,0.0348379173551066,1
714,277,13,0.0355326664855191,1
714,278,13,0.0503166190050204,1
714,279,13,0.0545159413720228,1
714,280,13,0.041701388036779,1
715,277,13,0.0410593741377491,1
715,278,13,0.0519597012670592,1
715,279,13,0.0526945653312914,1
715,280,13,0.0409421085955844,1
716,277,13,0.0377003513061611,1
716,278,13,0.0418883538960981,1
716,279,13,0.039934269361286,1
717,277,13,0.0405544164369741,1
718,276,13,0.0412746044481487,1
718,277,13,0.0498612093856197,1
718,278,13,0.0449859808555918,1
719,276,13,0.0478397835495331,1
719,277,13,0.0538693260798426,1
719,278,13,0.0429285107731619,1
720,276,13,0.0449584279000301,1
720,277,13,0.0479670129449261,1
720,278,13,0.036981014756837,1
681,249,14,0.0402258250618674,1
681,250,14,0.04187615349753,1
681,251,14,0.0418244855094257,1
681,252,14,0.0420476122536977,1
681,253,14,0.0409180343865551,1
682,248,14,0.0383501041769406,1
682,249,14,0.0442656382982595,1
682,250,14,0.0480135080106931,1
682,251,14,0.0460839263318006,1
682,252,14,0.043621306206863,1
682,253,14,0.0405649372395635,1
682,254,14,0.0355048248493986,1
683,248,14,0.0416370939191814,1
683,249,14,0.0503501292775694,1
683,250,14,0.0560201828650791,1
683,251,14,0.0519756982523711,1
683,252,14,0.0461789838826903,1
683,253,14,0.0403584635727824,1
683,254,14,0.0350154500668712,1
684,243,14,0.0404951290316952,1
684,244,14,0.0422876982518112,1
684,248,14,0.0415689682232571,1
684,249,14,0.0494068028582618,1
684,250,14,0.053819107326463,1
684,251,14,0.0494403247946717,1
684,252,14,0.0427296740193469,1
684,253,14,0.0357678128385144,1
685,242,14,0.0383291704624758,1
685,243,14,0.0418620052341809,1
685,244,14,0.0432239884469924,1
685,245,14,0.0421864880142631,1
685,246,14,0.0409263769631094,1
685,247,14,0.0393176710152962,1
685,248,14,0.0415800576390684,1
685,249,14,0.0461378133694534,1
685,250,14,0.0478138022992363,1
685,251,14,0.0436561753192142,1
685,252,14,0.038156536572316,1
686,242,14,0.0374008933397768,1
686,243,14,0.0423565966785243,1
686,244,14,0.0457814853329748,1
686,245,14,0.0471575089184214,1
686,246,14,0.0462279400231206,1
686,247,14,0.0419930370482482,1
686,248,14,0.0403097407095714,1
686,249,14,0.0410971038120017,1
686,250,14,0.0417651951881815,1
686,251,14,0.0394412233785204,1
686,252,14,0.0358447068419182,1
687,242,14,0.039664090601886,1
687,243,14,0.0460930882945877,1
687,244,14,0.052407039494673,1
687,245,14,0.0582951256351789,1
687,246,14,0.0589608638274092,1
687,247,14,0.0505786534735025,1
687,248,14,0.0421917454995926,1
687,249,14,0.0373684298987493,1
687,250,14,0.0368314111601501,1
687,251,14,0.0363751267511771,1
687,252,14,0.0351127995664403,1
687,257,14,0.0362882076592749,1
688,240,14,0.0348654032434678,1
688,241,14,0.0365319590256962,1
688,242,14,0.0423621136847602,1
688,243,14,0.0482272191032021,1
688,244,14,0.0548805536657509,1
688,245,14,0.064980716605223,1
688,246,14,0.0695249160132028,1
688,247,14,0.0594375833207908,1
688,248,14,0.0451944723703196,1
688,249,14,0.0353972753034167,1
689,240,14,0.0347089996158391,1
689,241,14,0.036340864159596,1
689,242,14,0.0412191165455787,1
689,243,14,0.0446612881260122,1
689,244,14,0.0498508402132228,1
689,245,14,0.0607483680159017,1
689,246,14,0.0682462011038118,1
689,247,14,0.06083233615098,1
689,248,14,0.0458354481857237,1
689,249,14,0.0348970123066797,1
690,242,14,0.0379630185391005,1
690,243,14,0.0397601483288533,1
690,244,14,0.041043205110488,1
690,245,14,0.0456608868425396,1
690,246,14,0.0505469336036114,1
690,247,14,0.0472945505368502,1
690,248,14,0.0376915596709597,1
713,278,14,0.0488664978268361,1
713,279,14,0.0537857020286627,1
713,280,14,0.0363676327205079,1
714,277,14,0.0358356790135322,1
714,278,14,0.0566996435897333,1
714,279,14,0.0636250960285673,1
714,280,14,0.0452014386112802,1
715,277,14,0.0362635415093017,1
715,278,14,0.0492349533627518,1
715,279,14,0.0541029065595035,1
715,280,14,0.0423945421342048,1
716,278,14,0.035748444997384,1
716,279,14,0.0374380019134331,1
717,277,14,0.0402567255455258,1
718,276,14,0.0423602008115621,1
718,277,14,0.0548702953000332,1
718,278,14,0.0455089183980424,1
719,276,14,0.0486193231172219,1
719,277,14,0.0583992197623502,1
719,278,14,0.0444713538140779,1
720,276,14,0.0448529603532302,1
720,277,14,0.0488517401267516,1
720,278,14,0.0366400334454215,1
680,250,15,0.0402907985993663,1
681,249,15,0.0410682240922554,1
681,250,15,0.0446437077715746,1
681,251,15,0.0429196783144471,1
681,252,15,0.040619197520767,1
682,248,15,0.0370261422349059,1
682,249,15,0.0446817290423513,1
682,250,15,0.0504492779276921,1
682,251,15,0.047777638498318,1
682,252,15,0.0431050403928836,1
682,253,15,0.038990525958949,1
683,243,15,0.0378068452727258,1
683,244,15,0.0402074923883976,1
683,248,15,0.0392169973153524,1
683,249,15,0.0475506655958931,1
683,250,15,0.0533554630212218,1
683,251,15,0.0504077837423134,1
683,252,15,0.0440781533971275,1
683,253,15,0.0383204867179883,1
684,242,15,0.0352676198249432,1
684,243,15,0.0386734934700574,1
684,244,15,0.0403694392659494,1
684,245,15,0.0388725518372307,1
684,247,15,0.0358677079757388,1
684,248,15,0.0393363915121431,1
684,249,15,0.0452953531037954,1
684,250,15,0.0485312667988758,1
684,251,15,0.0456808437086487,1
684,252,15,0.0397076492906553,1
685,242,15,0.0359762431179721,1
685,243,15,0.0404241865133482,1
685,244,15,0.0419167874731626,1
685,245,15,0.0402759913278727,1
685,246,15,0.0382106189796398,1
685,247,15,0.037186992709527,1
685,248,15,0.0388142208685508,1
685,249,15,0.041484034903684,1
685,250,15,0.0424083463136554,1
685,251,15,0.040233444479042,1
685,252,15,0.0360623369917111,1
686,242,15,0.0350546872951534,1
686,243,15,0.0399176600232736,1
686,244,15,0.0432834887177339,1
686,245,15,0.044055927910061,1
686,246,15,0.042452841027267,1
686,247,15,0.0394180414548548,1
686,248,15,0.0380074695132335,1
686,249,15,0.0375283997518677,1
686,250,15,0.0378408745870877,1
686,251,15,0.0371514908327185,1
686,252,15,0.0349435219522728,1
687,241,15,0.0361940977970886,1
687,242,15,0.039256214131878,1
687,243,15,0.0431074227364855,1
687,244,15,0.0480741105162957,1
687,245,15,0.0521184230870545,1
687,246,15,0.0510329608580421,1
687,247,15,0.0445752263278909,1
687,248,15,0.0390215080896341,1
687,249,15,0.0349178643741177,1
687,257,15,0.0346933058909123,1
688,240,15,0.0374241102550252,1
688,241,15,0.0424903957436052,1
688,242,15,0.0461734697924197,1
688,243,15,0.0465368544647813,1
688,244,15,0.0484503837550223,1
688,245,15,0.0535818235709461,1
688,246,15,0.0544505945909731,1
688,247,15,0.0470362193442241,1
688,248,15,0.0387240796350574,1
689,240,15,0.0373154876338346,1
689,241,15,0.042953369376841,1
689,242,15,0.0473703714650453,1
689,243,15,0.0457873201794219,1
689,244,15,0.0444017643036026,1
689,245,15,0.0479854039377008,1
689,246,15,0.0507892036596903,1
689,247,15,0.0455869671236816,1
689,248,15,0.037410880520727,1
690,241,15,0.0348351559360234,1
690,242,15,0.0386650925741982,1
690,243,15,0.0378893641730794,1
690,244,15,0.0360238899900092,1
690,245,15,0.0367206073969593,1
690,246,15,0.0388233070162416,1
690,247,15,0.0362593600151462,1
713,278,15,0.0461506115408959,1
713,279,15,0.0509082391927563,1
713,280,15,0.0346318460915288,1
714,278,15,0.0540792814091213,1
714,279,15,0.0616223877733624,1
714,280,15,0.0436426627362877,1
715,278,15,0.0425042028390211,1
715,279,15,0.0491220063651089,1
715,280,15,0.0392353329047875,1
716,279,15,0.0347205614180194,1
717,277,15,0.0372257808791621,1
718,276,15,0.0354772543980454,1
718,277,15,0.0501600200077205,1
718,278,15,0.0411719595557021,1
719,276,15,0.0379011213449309,1
719,277,15,0.0497489272280517,1
719,278,15,0.0393233658954117,1
720,276,15,0.035686676105685,1
720,277,15,0.0402470678686478,1
680,249,16,0.0360754646672258,1
680,250,16,0.036987272418244,1
680,251,16,0.036287446592347,1
681,249,16,0.0394374413716029,1
681,250,16,0.0437053151654547,1
681,251,16,0.040964287427207,1
681,252,16,0.0378003018467251,1
682,248,16,0.0349501878488136,1
682,249,16,0.042461457704554,1
682,250,16,0.0487214956232995,1
682,251,16,0.045865100636259,1
682,252,16,0.0405141061334833,1
682,253,16,0.0362763338488138,1
683,243,16,0.0362749196056719,1
683,244,16,0.0368430866849749,1
683,248,16,0.0370353741808587,1
683,249,16,0.0428960415002039,1
683,250,16,0.0475674557237505,1
683,251,16,0.0458749974222867,1
683,252,16,0.0403839112014402,1
683,253,16,0.0353147593190283,1
684,243,16,0.0375470706773055,1
684,244,16,0.0382278960736925,1
684,245,16,0.036064949696567,1
684,247,16,0.0346140645354895,1
684,248,16,0.0374827153244378,1
684,249,16,0.0404568249122901,1
684,250,16,0.0421453437447134,1
684,251,16,0.0409399303695494,1
684,252,16,0.0362521750767925,1
685,242,16,0.0345351322723823,1
685,243,16,0.0386459288506347,1
685,244,16,0.0399478256836912,1
685,245,16,0.0379512584512837,1
685,246,16,0.0362038487848543,1
685,247,16,0.0356080704306848,1
685,248,16,0.0367838838426879,1
685,249,16,0.0377324152599506,1
685,250,16,0.038525528645836,1
685,251,16,0.0379765690295752,1
685,252,16,0.0348677360156606,1
686,243,16,0.0368838168874604,1
686,244,16,0.0399035759111598,1
686,245,16,0.0403501064164019,1
686,246,16,0.0394655862681085,1
686,247,16,0.0375077022305874,1
686,248,16,0.0366542983473802,1
686,249,16,0.0359164804103589,1
686,250,16,0.036218040787682,1
686,251,16,0.0362022100123889,1
686,252,16,0.0348425187482568,1
687,241,16,0.0369644695700598,1
687,242,16,0.0394477668045211,1
687,243,16,0.0398347649634039,1
687,244,16,0.0424072090872114,1
687,245,16,0.0450071157716582,1
687,246,16,0.0446018549224712,1
687,247,16,0.0403486163581638,1
687,248,16,0.0373056345872855,1
687,249,16,0.0346697040682521,1
688,240,16,0.0370069289399333,1
688,241,16,0.04641478924383,1
688,242,16,0.0502766644492889,1
688,243,16,0.0448405704169214,1
688,244,16,0.0415505130792472,1
688,245,16,0.0431744024580701,1
688,246,16,0.0435327279307387,1
688,247,16,0.038801504344135,1
688,248,16,0.0346709637652362,1
689,240,16,0.0366487959209705,1
689,241,16,0.0464817048141793,1
689,242,16,0.051656650831498,1
689,243,16,0.0451256235150155,1
689,244,16,0.0385285145942427,1
689,245,16,0.0378167916301627,1
689,246,16,0.0388786024651057,1
689,247,16,0.0355792140386604,1
690,242,16,0.0367426462622504,1
691,270,16,0.0369979973384002,1
691,272,16,0.0360985678598299,1
691,273,16,0.0377284962026668,1
692,270,16,0.0356404755524075,1
700,272,16,0.0398259237567934,1
701,272,16,0.0410597211376127,1
713,278,16,0.0381650395269586,1
713,279,16,0.0415767800941376,1
714,278,16,0.0450478722178309,1
714,279,16,0.0518455995471809,1
714,280,16,0.0369008461244676,1
715,279,16,0.0408123918818408,1
718,277,16,0.0410205101530177,1
719,277,16,0.0383151475856321,1
680,249,17,0.0367205578255503,1
680,250,17,0.0375144031187111,1
680,251,17,0.0363937656009972,1
681,248,17,0.0350899763064994,1
681,249,17,0.0405444321719891,1
681,250,17,0.0444121801314433,1
681,251,17,0.0408520927485963,1
681,252,17,0.0361603892389032,1
682,243,17,0.0356336346979522,1
682,244,17,0.0353729532373419,1
682,249,17,0.04065723337137,1
682,250,17,0.0458495964490728,1
682,251,17,0.0428102363070238,1
682,252,17,0.03694323259521,1
683,242,17,0.0351678092507108,1
683,243,17,0.0367467869328926,1
683,244,17,0.0360010200746244,1
683,248,17,0.0349681589425936,1
683,249,17,0.038570294544215,1
683,250,17,0.0417688284808717,1
683,251,17,0.0409640774777097,1
683,252,17,0.0366018343007651,1
684,242,17,0.0349005960279608,1
684,243,17,0.0372214127632312,1
684,244,17,0.0374738420422096,1
684,245,17,0.035793729937576,1
684,248,17,0.03563288237892,1
684,249,17,0.0366949964742481,1
684,250,17,0.036887356869263,1
684,251,17,0.0369319857172757,1
685,243,17,0.0362847172488815,1
685,244,17,0.0378766534805941,1
685,245,17,0.0368656445920789,1
685,246,17,0.0353645290137608,1
685,247,17,0.0349458518085003,1
685,248,17,0.0359028861804056,1
685,249,17,0.0364690383277271,1
685,250,17,0.0360314831634966,1
685,251,17,0.03631574020308,1
686,243,17,0.0353000424424573,1
686,244,17,0.0376910697887992,1
686,245,17,0.0382153428433302,1
686,246,17,0.0374513453703756,1
686,247,17,0.0362834604678627,1
686,248,17,0.0357891402082867,1
686,249,17,0.0359867930802139,1
686,250,17,0.0348093467276758,1
686,251,17,0.0345711823506562,1
687,241,17,0.0386191632056881,1
687,242,17,0.0418663237787028,1
687,243,17,0.0395695900003574,1
687,244,17,0.039076366143712,1
687,245,17,0.0399819774685932,1
687,246,17,0.0397529575585691,1
687,247,17,0.0370185898849318,1
687,248,17,0.0345853801854143,1
688,240,17,0.0363455442838077,1
688,241,17,0.0477995344813123,1
688,242,17,0.0535166575797414,1
688,243,17,0.0461718572636414,1
688,244,17,0.0391750394915005,1
688,245,17,0.0379270967632972,1
688,246,17,0.0378036435428912,1
688,247,17,0.0345575968685986,1
689,241,17,0.0454181385681612,1
689,242,17,0.0520077855338824,1
689,243,17,0.0447776992903614,1
689,244,17,0.0360129609522861,1
690,242,17,0.0348200279083534,1
691,270,17,0.0401708678649713,1
691,271,17,0.0365959907064222,1
691,272,17,0.0362519447155385,1
691,273,17,0.0364867819762182,1
692,270,17,0.0389516765540439,1
692,271,17,0.0353256446172728,1
700,271,17,0.0385854633953985,1
700,272,17,0.0462415050934215,1
700,273,17,0.0356180488637393,1
701,271,17,0.0383356176616236,1
701,272,17,0.0461162148149137,1
701,273,17,0.0366780692960244,1
714,278,17,0.0344719578854372,1
714,279,17,0.0394018199402194,1
680,249,18,0.0365768940500592,1
680,250,18,0.0370630729346825,1
681,248,18,0.0357820165052031,1
681,249,18,0.0405435544664516,1
681,250,18,0.0434702504594861,1
681,251,18,0.0396751654378711,1
682,249,18,0.0384304390193287,1
682,250,18,0.042288240621346,1
682,251,18,0.0388127074825908,1
683,242,18,0.0355629575324421,1
683,243,18,0.0370243080927693,1
683,244,18,0.0361074498899538,1
683,250,18,0.0365199569127645,1
683,251,18,0.0353144094031994,1
684,242,18,0.0347952684474925,1
684,243,18,0.0366257218880189,1
684,244,18,0.0369572496401232,1
684,245,18,0.0350840364853036,1
685,244,18,0.0359081728253874,1
685,245,18,0.0352786480054844,1
685,248,18,0.036126706924405,1
685,249,18,0.0369232873929619,1
685,250,18,0.0356240849117881,1
685,251,18,0.0350318523713516,1
686,244,18,0.0353958114888657,1
686,245,18,0.0357855827306927,1
686,246,18,0.0352577521985678,1
686,248,18,0.0349171645424599,1
686,249,18,0.0359626547199493,1
687,241,18,0.0384100301786073,1
687,242,18,0.0417737564621289,1
687,243,18,0.0384166202600518,1
687,244,18,0.036798600719259,1
687,245,18,0.0368386806614958,1
687,246,18,0.0364939960742243,1
688,241,18,0.0438975326781727,1
688,242,18,0.0507521359095474,1
688,243,18,0.0449516307850534,1
688,244,18,0.0381458758033951,1
688,245,18,0.0357611469419736,1
688,246,18,0.0351015614364017,1
689,241,18,0.039381833914458,1
689,242,18,0.0467884002062917,1
689,243,18,0.0422686744945792,1
689,244,18,0.0347737632038405,1
691,270,18,0.039324820962067,1
691,271,18,0.0366865401750494,1
692,270,18,0.0383769427210183,1
692,271,18,0.03545274279423,1
700,271,18,0.0387277216756433,1
700,272,18,0.045401217221868,1
700,273,18,0.0352046699673216,1
701,271,18,0.0377308785462686,1
701,272,18,0.0449792566397462,1
701,273,18,0.0362871345840663,1
680,249,19,0.0357058514931095,1
680,250,19,0.0366453696618124,1
681,248,19,0.0349645985490344,1
681,249,19,0.0387554029336756,1
681,250,19,0.0409645819396963,1
681,251,19,0.0372753901958064,1
682,249,19,0.0372517154740151,1
682,250,19,0.0394656912428572,1
682,251,19,0.0355321299479148,1
683,242,19,0.0358085488729304,1
683,243,19,0.0369246695604861,1
683,244,19,0.0368037036584306,1
684,242,19,0.0344690156765091,1
684,243,19,0.0355043991184734,1
684,244,19,0.0358975791236671,1
685,242,19,0.0344925096084554,1
685,243,19,0.0347583610754378,1
685,244,19,0.0355007687417484,1
685,247,19,0.03454254757199,1
685,248,19,0.036413573752879,1
685,249,19,0.0360881870235721,1
686,241,19,0.0360050674343789,1
686,242,19,0.0368371264520224,1
686,243,19,0.0356016757189114,1
686,244,19,0.0357103449955458,1
686,245,19,0.0347237893915412,1
687,241,19,0.0375429475024548,1
687,242,19,0.0400286679040312,1
687,243,19,0.0379013429582892,1
687,244,19,0.0370281950744355,1
687,245,19,0.0366171227065234,1
687,246,19,0.0350457061222113,1
688,241,19,0.0384855390985216,1
688,242,19,0.0440116810534949,1
688,243,19,0.041901676941284,1
688,244,19,0.0389736716798563,1
688,245,19,0.0374935656310993,1
688,246,19,0.0350595919486887,1
689,242,19,0.0400420171929043,1
689,243,19,0.039623669491716,1
689,244,19,0.0363253191488965,1
700,272,19,0.03743003841236,1
701,272,19,0.0374721507823698,1
680,250,20,0.0361956578384925,1
681,244,20,0.0354087612905008,1
681,249,20,0.0376271110072043,1
681,250,20,0.0393776086808239,1
681,251,20,0.0349627439951411,1
682,244,20,0.0357369327666128,1
682,248,20,0.035469153846606,1
682,249,20,0.0389898931944917,1
682,250,20,0.038929567705587,1
683,243,20,0.0356648501058565,1
683,244,20,0.036739820691932,1
683,245,20,0.0347521354896484,1
683,248,20,0.0349580259633813,1
683,249,20,0.0361295004191058,1
683,250,20,0.0349965458642142,1
684,244,20,0.0346699052698537,1
684,247,20,0.0353482258520987,1
684,248,20,0.0360290979039295,1
684,249,20,0.034668129447022,1
685,242,20,0.0352063495633004,1
685,243,20,0.0363296143656964,1
685,244,20,0.0362141479740853,1
685,247,20,0.0365264886749042,1
685,248,20,0.0380377868038436,1
685,249,20,0.0363653990911333,1
686,241,20,0.037131685596802,1
686,242,20,0.0385337079283369,1
686,243,20,0.0389935352350777,1
686,244,20,0.038268299688071,1
686,245,20,0.0352652870527504,1
686,255,20,0.0347123937993795,1
686,256,20,0.0347013801986645,1
687,241,20,0.0354577145149658,1
687,242,20,0.0389150403667566,1
687,243,20,0.0403107233898576,1
687,244,20,0.0402743408915463,1
687,245,20,0.038329365832147,1
687,246,20,0.0347489366757791,1
688,242,20,0.0382428666392395,1
688,243,20,0.0409744728937936,1
688,244,20,0.041659188187812,1
688,245,20,0.0403698008456393,1
688,246,20,0.0358091495617701,1
689,243,20,0.0380418662392157,1
689,244,20,0.0389649850194035,1
689,245,20,0.0374767317637633,1
680,244,21,0.0351632836726568,1
681,243,21,0.0359749338495789,1
681,244,21,0.0367607398265705,1
681,245,21,0.0347119972281068,1
681,248,21,0.0359331918071548,1
681,249,21,0.0393457284328446,1
681,250,21,0.0386363207451658,1
682,243,21,0.0362254764990464,1
682,244,21,0.0380949543023924,1
682,245,21,0.0362835625266461,1
682,247,21,0.0344906113150835,1
682,248,21,0.0401122307199411,1
682,249,21,0.043939385527276,1
682,250,21,0.0400647442259923,1
683,242,21,0.0347995490844662,1
683,243,21,0.0360992735234182,1
683,244,21,0.0373809218938415,1
683,245,21,0.0356580529908799,1
683,247,21,0.0352537106707439,1
683,248,21,0.0393301046910836,1
683,249,21,0.0411742748321034,1
683,250,21,0.0369564769093344,1
684,242,21,0.0347124929421977,1
684,243,21,0.0359259252217743,1
684,244,21,0.0359744206396965,1
684,247,21,0.0360156378083773,1
684,248,21,0.0374640939704091,1
684,249,21,0.0367713685198738,1
685,241,21,0.0355577700302784,1
685,242,21,0.0381677688704241,1
685,243,21,0.040024381435127,1
685,244,21,0.0388286898880764,1
685,245,21,0.034774568010247,1
685,247,21,0.0364845104392955,1
685,248,21,0.0377443561376123,1
685,249,21,0.0360578084976919,1
685,255,21,0.0347406874101125,1
685,256,21,0.0347047772981702,1
686,241,21,0.0368803031493451,1
686,242,21,0.0407191626411572,1
686,243,21,0.0435857081032015,1
686,244,21,0.0421487612559757,1
686,245,21,0.0371491988840391,1
686,248,21,0.0351846693617339,1
686,255,21,0.0353869586183942,1
686,256,21,0.0352038214214365,1
686,257,21,0.0348573522634375,1
687,242,21,0.0390906864490103,1
687,243,21,0.0439206300388463,1
687,244,21,0.043790735451223,1
687,245,21,0.0404003339176772,1
687,246,21,0.0352198825579836,1
688,242,21,0.0373782975251247,1
688,243,21,0.0430103560855448,1
688,244,21,0.0442065929180955,1
688,245,21,0.0424876226606611,1
688,246,21,0.0362002796433994,1
689,242,21,0.0354024861333023,1
689,243,21,0.0397212639323653,1
689,244,21,0.0411476549854188,1
689,245,21,0.0401817385833896,1
690,243,21,0.03451428895284,1
690,244,21,0.0351762859616662,1
681,243,22,0.0346409526509763,1
681,244,22,0.0353245482143422,1
681,248,22,0.0370932065194824,1
681,249,22,0.0404245568409338,1
681,250,22,0.037357801205446,1
682,243,22,0.0350973624464547,1
682,244,22,0.0367217154637509,1
682,245,22,0.0351671065030877,1
682,247,22,0.0365689451288124,1
682,248,22,0.0440006732847103,1
682,249,22,0.0477311026090377,1
682,250,22,0.0404213959346126,1
683,244,22,0.0354387899005521,1
683,245,22,0.0345096379882807,1
683,247,22,0.037146909851325,1
683,248,22,0.0429972721495087,1
683,249,22,0.0453272420996704,1
683,250,22,0.0388556858942771,1
684,243,22,0.0354365212795946,1
684,244,22,0.0353345237314315,1
684,247,22,0.0361829850535553,1
684,248,22,0.0388603281109407,1
684,249,22,0.0389044145894186,1
684,250,22,0.0361829442300419,1
685,241,22,0.0353351535799235,1
685,242,22,0.0388255756371991,1
685,243,22,0.0410418695984077,1
685,244,22,0.039003825676413,1
685,247,22,0.0363524113819501,1
685,248,22,0.0378846140657019,1
685,249,22,0.0365539774792306,1
685,250,22,0.0346414658608587,1
685,255,22,0.0348667912429225,1
685,257,22,0.0344737278763384,1
686,241,22,0.0346884391449251,1
686,242,22,0.041018649767194,1
686,243,22,0.0463652732380735,1
686,244,22,0.0439355539489494,1
686,245,22,0.0366563570188403,1
686,247,22,0.0353117267151778,1
686,248,22,0.036727416175797,1
686,249,22,0.0350848442076753,1
686,254,22,0.0346887103296926,1
686,255,22,0.0356258723984808,1
686,256,22,0.0354210170924085,1
686,257,22,0.0356820951242915,1
687,242,22,0.0380440415492855,1
687,243,22,0.0473586347049505,1
687,244,22,0.047233819728777,1
687,245,22,0.0401562151396355,1
688,242,22,0.0354360313974341,1
688,243,22,0.0445321225296992,1
688,244,22,0.0458217023255779,1
688,245,22,0.0406914784671597,1
689,242,22,0.0348683367045002,1
689,243,22,0.0385274881744779,1
689,244,22,0.0388655447727567,1
689,245,22,0.0369504000377722,1
690,241,22,0.0344669628369794,1
690,242,22,0.0368202692569645,1
691,242,22,0.0351105746849614,1
681,244,23,0.0345623207322889,1
681,248,23,0.038302947187064,1
681,249,23,0.04077317214935,1
681,250,23,0.0362838512072049,1
682,243,23,0.0346716577649635,1
682,244,23,0.0354021303855429,1
682,247,23,0.0375413728812247,1
682,248,23,0.0443696566103346,1
682,249,23,0.0467451010384289,1
682,250,23,0.0389742286292173,1
683,244,23,0.0354190779755232,1
683,245,23,0.0349560897624613,1
683,246,23,0.0345223136891831,1
683,247,23,0.0379920877965875,1
683,248,23,0.0435118846111964,1
683,249,23,0.0449683159381621,1
683,250,23,0.0385556738944969,1
684,243,23,0.0358636664479148,1
684,244,23,0.0363896715857989,1
684,245,23,0.0349226203134257,1
684,247,23,0.0370120610387573,1
684,248,23,0.0407795872728801,1
684,249,23,0.0412571436482859,1
684,250,23,0.0384251115508335,1
684,251,23,0.0367324578796986,1
684,252,23,0.0348851676558709,1
685,241,23,0.0358479202356137,1
685,242,23,0.0383544023097057,1
685,243,23,0.0407497015451257,1
685,244,23,0.0392749550404815,1
685,245,23,0.0356720379601755,1
685,247,23,0.0368857268446933,1
685,248,23,0.0393424100644004,1
685,249,23,0.038692380176923,1
685,250,23,0.0365070100270947,1
685,251,23,0.0361787131644773,1
685,252,23,0.035334348773517,1
685,253,23,0.0354246649649249,1
685,257,23,0.0347892265675133,1
686,242,23,0.0408315235297867,1
686,243,23,0.0469383741305641,1
686,244,23,0.0446034761991452,1
686,245,23,0.0373678583695621,1
686,247,23,0.0365511373290859,1
686,248,23,0.0381675939125097,1
686,249,23,0.0363838921426914,1
687,242,23,0.0388326585167693,1
687,243,23,0.0495177728314713,1
687,244,23,0.0492737648601088,1
687,245,23,0.0398069466550053,1
688,242,23,0.0358148736015381,1
688,243,23,0.045326982578764,1
688,244,23,0.0465371693890274,1
688,245,23,0.0384989467066995,1
689,242,23,0.0366072959036614,1
689,243,23,0.0378700342394971,1
689,244,23,0.0368169887960684,1
690,241,23,0.0385998507678973,1
690,242,23,0.0424197710654694,1
690,243,23,0.0360146230524735,1
691,241,23,0.0378533111788403,1
691,242,23,0.0404209847835136,1
681,248,24,0.0382465611671998,1
681,249,24,0.0398344646189841,1
681,250,24,0.0356049445159465,1
682,247,24,0.0358893094462437,1
682,248,24,0.0414087301013366,1
682,249,24,0.0427733435147953,1
682,250,24,0.037070473654464,1
683,244,24,0.0348324994916889,1
683,247,24,0.0363842741341379,1
683,248,24,0.0407014685640751,1
683,249,24,0.0417048580354158,1
683,250,24,0.0374590522665075,1
684,243,24,0.0355077641423614,1
684,244,24,0.0369830646804013,1
684,245,24,0.0353826371579071,1
684,247,24,0.0357740063486862,1
684,248,24,0.0399877306680136,1
684,249,24,0.0413320139718125,1
684,250,24,0.0389099345116197,1
684,251,24,0.0372909439544016,1
684,252,24,0.0387169792596957,1
684,253,24,0.0391305039543755,1
684,257,24,0.0360923889294843,1
685,242,24,0.0359474042217391,1
685,243,24,0.0387842301660477,1
685,244,24,0.0393214792659008,1
685,245,24,0.0367185108179511,1
685,247,24,0.0359755345384186,1
685,248,24,0.0394915062831353,1
685,249,24,0.0401290645872771,1
685,250,24,0.0376946710058718,1
685,251,24,0.0365478656160856,1
685,252,24,0.0376730024681663,1
685,253,24,0.038341190071199,1
685,257,24,0.034996930771626,1
686,242,24,0.0381652961318998,1
686,243,24,0.0434938260384592,1
686,244,24,0.0430703024989682,1
686,245,24,0.0374164587622329,1
686,247,24,0.0356470218943734,1
686,248,24,0.0374046403551114,1
686,249,24,0.0362613866109887,1
687,242,24,0.0378806279412175,1
687,243,24,0.0469029947242957,1
687,244,24,0.0475485165295105,1
687,245,24,0.0386620045670081,1
688,243,24,0.0413424531273751,1
688,244,24,0.0425143416501639,1
688,245,24,0.0347902471553476,1
689,242,24,0.0350501937927171,1
690,241,24,0.0390610864858495,1
690,242,24,0.0421440111485982,1
691,241,24,0.0384283482722509,1
691,242,24,0.0410476227978281,1
681,248,25,0.0372763203887182,1
681,249,25,0.0382745777612348,1
681,250,25,0.0353002232323022,1
682,248,25,0.0378891308958601,1
682,249,25,0.0390516708340864,1
682,250,25,0.0364174607345452,1
683,247,25,0.0357862942262115,1
683,248,25,0.0384448526355147,1
683,249,25,0.0397491813835821,1
683,250,25,0.037605142125079,1
683,253,25,0.0357674250151374,1
684,244,25,0.0359423129464284,1
684,245,25,0.0350494327257893,1
684,247,25,0.0357922340474073,1
684,248,25,0.039038753108069,1
684,249,25,0.0410246654034861,1
684,250,25,0.0386095317724972,1
684,251,25,0.0366958333562723,1
684,252,25,0.0403456070820351,1
684,253,25,0.0428695033005461,1
684,254,25,0.0357247265361142,1
684,257,25,0.0348504210140598,1
685,243,25,0.0360846966131787,1
685,244,25,0.0379892184867904,1
685,245,25,0.0362734499591905,1
685,247,25,0.0355628292299715,1
685,248,25,0.0389721699577572,1
685,249,25,0.040813520360389,1
685,250,25,0.0377207747267087,1
685,251,25,0.035192548299815,1
685,252,25,0.0369116089521719,1
685,253,25,0.0386705425132336,1
686,242,25,0.0357115201295379,1
686,243,25,0.0387684693739203,1
686,244,25,0.0396659947271884,1
686,245,25,0.036138711953302,1
686,248,25,0.0351106825756754,1
686,249,25,0.035470121947066,1
687,242,25,0.0363940455336604,1
687,243,25,0.0411099690506448,1
687,244,25,0.0417184056099252,1
687,245,25,0.0359502385399533,1
688,243,25,0.0369468571400045,1
688,244,25,0.0369033596865053,1
690,241,25,0.0361921586802033,1
690,242,25,0.0377403204417188,1
691,241,25,0.0355208480783976,1
691,242,25,0.0370284021079676,1
681,248,26,0.0351959045758073,1
681,249,26,0.0360783543887796,1
681,250,26,0.0348512870557364,1
682,248,26,0.0351561395578165,1
682,249,26,0.0361817486842932,1
682,250,26,0.0353691595665635,1
683,247,26,0.0357003140751169,1
683,248,26,0.036906019046805,1
683,249,26,0.0381587818655515,1
683,250,26,0.036427165066867,1
683,252,26,0.0356135466134073,1
683,253,26,0.0376376201459326,1
684,247,26,0.0357175036902123,1
684,248,26,0.0379736005769599,1
684,249,26,0.0399064043974435,1
684,250,26,0.0369475278120099,1
684,251,26,0.0355010515903768,1
684,252,26,0.0407236182360454,1
684,253,26,0.0443917333831738,1
684,254,26,0.0376960794170832,1
685,244,26,0.0356488735323014,1
685,245,26,0.0349040222871189,1
685,247,26,0.0352653949434643,1
685,248,26,0.0376688909571766,1
685,249,26,0.0399587867970319,1
685,250,26,0.0366460257539916,1
685,252,26,0.0359184195272441,1
685,253,26,0.0384287710872109,1
685,254,26,0.035609295136086,1
685,255,26,0.0348066173842103,1
686,243,26,0.034921293549241,1
686,244,26,0.0350616739478708,1
687,243,26,0.0346599443325906,1
688,241,26,0.0350159253692055,1
689,241,26,0.0351805665986399,1
692,241,26,0.035075702656645,1
692,242,26,0.0344922559194794,1
681,248,27,0.0344936147592817,1
681,249,27,0.0347908886677006,1
682,247,27,0.0344839716622299,1
682,248,27,0.0350686285249704,1
682,249,27,0.035318421771371,1
683,246,27,0.0346390601895349,1
683,247,27,0.0367204236911492,1
683,248,27,0.0369707009877797,1
683,249,27,0.0377935193115747,1
683,250,27,0.0353736705647912,1
683,252,27,0.0355991650728389,1
683,253,27,0.0354266040818101,1
684,246,27,0.0353302226827011,1
684,247,27,0.0369954837763625,1
684,248,27,0.0373407136491341,1
684,249,27,0.0383923827569691,1
684,250,27,0.0353678852897532,1
684,252,27,0.0373489308391831,1
684,253,27,0.0388212629246077,1
684,254,27,0.0346827034412962,1
685,245,27,0.0345510884341808,1
685,246,27,0.0349570345351993,1
685,247,27,0.0357868978310164,1
685,248,27,0.0359390208216714,1
685,249,27,0.0370944953761189,1
685,253,27,0.0347805719826781,1
687,241,27,0.0349619362727694,1
688,241,27,0.0374279068417689,1
689,241,27,0.0379336226935065,1
691,269,27,0.037873469246551,1
692,241,27,0.0361187929947411,1
692,242,27,0.0350258367350595,1
682,247,28,0.0345225732100896,1
682,248,28,0.0355333575692812,1
682,249,28,0.0346967350660356,1
682,257,28,0.0351810914723833,1
683,246,28,0.0351369175149482,1
683,247,28,0.0372037186861491,1
683,248,28,0.0384448118120013,1
683,249,28,0.0387668364333854,1
683,250,28,0.0352191273229862,1
683,251,28,0.0353518066574146,1
683,252,28,0.0377113561589805,1
683,253,28,0.0350109944719831,1
683,256,28,0.035270824470743,1
683,257,28,0.037114367679236,1
683,258,28,0.0357899975020675,1
684,245,28,0.037224302484785,1
684,246,28,0.0390139761514167,1
684,247,28,0.0387742896405413,1
684,248,28,0.0375989311191157,1
684,249,28,0.0381050814496742,1
684,250,28,0.0347241072317524,1
684,252,28,0.034752916968333,1
685,245,28,0.0370668549416,1
685,246,28,0.0387416862331822,1
685,247,28,0.0373836308255504,1
685,248,28,0.0348594605063067,1
685,249,28,0.0354772164904973,1
687,240,28,0.0357496463750633,1
687,241,28,0.0359511862286567,1
688,240,28,0.0368664056590067,1
688,241,28,0.0380454528764621,1
689,240,28,0.0357685389138594,1
689,241,28,0.0381281117431472,1
690,269,28,0.0449852110407682,1
690,270,28,0.0399618310647435,1
691,268,28,0.040176346963659,1
691,269,28,0.0604247950169746,1
691,270,28,0.052693894659286,1
691,271,28,0.0500902001359913,1
692,241,28,0.0370507792252266,1
692,242,28,0.0362602202248923,1
692,269,28,0.0432477069082622,1
692,270,28,0.0358456078751777,1
692,272,28,0.0397546954738527,1
693,241,28,0.0345734247279264,1
682,247,29,0.0355242830854514,1
682,248,29,0.0359538572528174,1
682,249,29,0.0344805541509675,1
682,252,29,0.0376518675520999,1
682,256,29,0.0363193822436659,1
682,257,29,0.0388957949961663,1
682,258,29,0.0349924372691897,1
683,245,29,0.034667210917971,1
683,246,29,0.0371298981101093,1
683,247,29,0.0393091826404798,1
683,248,29,0.0398184676336723,1
683,249,29,0.0386716330842337,1
683,250,29,0.0356723412205605,1
683,251,29,0.0374272332537982,1
683,252,29,0.0403718711809603,1
683,253,29,0.0361665856650402,1
683,256,29,0.0369486825342453,1
683,257,29,0.0393859425094825,1
683,258,29,0.0358887904044308,1
684,245,29,0.0392352454258303,1
684,246,29,0.0424817907301792,1
684,247,29,0.0409883616362363,1
684,248,29,0.0384433509134156,1
684,249,29,0.0370789824410371,1
685,245,29,0.0403464672917812,1
685,246,29,0.0431423647479678,1
685,247,29,0.0398301810660452,1
685,248,29,0.0355678417742207,1
686,240,29,0.035515322324266,1
686,241,29,0.0350119188329645,1
686,242,29,0.0345200946396347,1
687,239,29,0.0345078125940399,1
687,240,29,0.0376185322374654,1
687,241,29,0.0368444221970552,1
688,239,29,0.0348772887177899,1
688,240,29,0.0383272080178687,1
688,241,29,0.0380600152068754,1
689,240,29,0.0371173652915037,1
689,241,29,0.0380764845785562,1
690,240,29,0.0345025696885367,1
690,241,29,0.0355225655819245,1
690,269,29,0.0551829917486115,1
690,270,29,0.0517606224881292,1
691,241,29,0.0347878502319195,1
691,268,29,0.0439948646819503,1
691,269,29,0.074817900303475,1
691,270,29,0.0690980128699975,1
691,271,29,0.0566417908393529,1
692,241,29,0.0350254926511611,1
692,269,29,0.0450232206476839,1
692,270,29,0.0401026371942984,1
692,272,29,0.0376765541138298,1
681,256,30,0.0355427411454266,1
681,257,30,0.0364425992708874,1
682,247,30,0.0365602001490548,1
682,248,30,0.036728457175388,1
682,249,30,0.0350105483293012,1
682,251,30,0.0378598079493971,1
682,252,30,0.0409906040135066,1
682,253,30,0.0352929304032346,1
682,256,30,0.0385178654891828,1
682,257,30,0.0398542727708659,1
683,246,30,0.0370594308940965,1
683,247,30,0.0401452511103296,1
683,248,30,0.0401288896293626,1
683,249,30,0.0384856819808185,1
683,250,30,0.0369525082806414,1
683,251,30,0.0392082435876991,1
683,252,30,0.0412754209184161,1
683,253,30,0.0364646352202132,1
683,256,30,0.0365085904802553,1
683,257,30,0.038006833832811,1
684,245,30,0.0375750960192362,1
684,246,30,0.0412900415681343,1
684,247,30,0.0398968225356618,1
684,248,30,0.0377617207106221,1
684,249,30,0.0358933655538939,1
685,245,30,0.0396034764324224,1
685,246,30,0.0427948866659955,1
685,247,30,0.0388113049033099,1
685,248,30,0.0349209232216554,1
686,240,30,0.0362247766673886,1
686,241,30,0.0352013311871207,1
687,239,30,0.0351234661672917,1
687,240,30,0.0380052796233375,1
687,241,30,0.0370653094800223,1
688,239,30,0.0358490574620577,1
688,240,30,0.0390961334720804,1
688,241,30,0.0384274968104006,1
689,239,30,0.0354016259235562,1
689,240,30,0.0394608740682791,1
689,241,30,0.0389815447860069,1
690,239,30,0.0349373663496491,1
690,240,30,0.0392759610484897,1
690,241,30,0.0386383065174949,1
690,269,30,0.0540211487260778,1
690,270,30,0.0559576820661046,1
691,240,30,0.0362617860982267,1
691,241,30,0.0367644081108436,1
691,268,30,0.0392685690766039,1
691,269,30,0.0710886315333134,1
691,270,30,0.0724497224607611,1
691,271,30,0.0547855398543398,1
692,269,30,0.0398724975536218,1
692,270,30,0.0404233846229069,1
681,255,31,0.0349104928139886,1
681,256,31,0.0372807555718497,1
681,257,31,0.0372700219037978,1
682,247,31,0.0370813210451603,1
682,248,31,0.0382711573340072,1
682,249,31,0.0358388486677491,1
682,250,31,0.03552432682493,1
682,251,31,0.0386850173646896,1
682,252,31,0.0403826806641085,1
682,255,31,0.0348873138062883,1
682,256,31,0.0378799864288645,1
682,257,31,0.0378904664079405,1
683,246,31,0.036541855811724,1
683,247,31,0.0396468805750339,1
683,248,31,0.0396755911687963,1
683,249,31,0.037702975674878,1
683,250,31,0.0383099629994337,1
683,251,31,0.0389532803349264,1
683,252,31,0.0391194699419037,1
683,253,31,0.0345836539339917,1
683,255,31,0.0344797580924567,1
683,256,31,0.0351306365258192,1
683,257,31,0.0351143945994271,1
684,245,31,0.0348574134987076,1
684,246,31,0.0383666901872311,1
684,247,31,0.0382823021531581,1
684,248,31,0.0370827557000589,1
684,249,31,0.0353195181743016,1
684,250,31,0.0355286453694519,1
685,245,31,0.0360990489940946,1
685,246,31,0.0390137457901627,1
685,247,31,0.0368809563255591,1
686,240,31,0.0353324388162842,1
687,240,31,0.036966988964028,1
687,241,31,0.0357279370138444,1
688,239,31,0.0354905803591965,1
688,240,31,0.0386023468341435,1
688,241,31,0.0376364246001838,1
688,242,31,0.0355805262230188,1
689,239,31,0.0380238164143742,1
689,240,31,0.0424236784588923,1
689,241,31,0.0400203224115117,1
689,242,31,0.0353387956205095,1
690,239,31,0.0387652763919815,1
690,240,31,0.0448823824425114,1
690,241,31,0.0417512743701212,1
690,242,31,0.0347117814466789,1
690,269,31,0.0440557850277642,1
691,240,31,0.0400218503772979,1
691,241,31,0.0384954446324451,1
691,269,31,0.0540093507307129,1
691,270,31,0.0657511029580205,1
692,270,31,0.03991640615822,1
681,248,32,0.0353642228374105,1
681,255,32,0.0350336281941833,1
681,256,32,0.0369548672965214,1
681,257,32,0.036421863842059,1
682,247,32,0.0366409782181596,1
682,248,32,0.0392136701990125,1
682,249,32,0.0362862160550153,1
682,250,32,0.0362297454721592,1
682,251,32,0.0382248022345718,1
682,252,32,0.037582802915368,1
682,256,32,0.035389667550103,1
682,257,32,0.0346389202232034,1
683,246,32,0.0359315588666198,1
683,247,32,0.038180438739396,1
683,248,32,0.0386488273200842,1
683,249,32,0.0371058268170453,1
683,250,32,0.0391522366433162,1
683,251,32,0.0391675163011788,1
683,252,32,0.037304891016149,1
684,246,32,0.0357250560401864,1
684,247,32,0.0360805267828841,1
684,248,32,0.0353756592530855,1
684,249,32,0.0347553663791354,1
684,250,32,0.0362497927331907,1
684,251,32,0.034870331224725,1
685,246,32,0.0350947963970427,1
685,247,32,0.0349787701401054,1
686,240,32,0.0353076093722575,1
687,239,32,0.0351078832490441,1
687,240,32,0.0373560487103362,1
687,241,32,0.035801862564633,1
688,239,32,0.0362727267998107,1
688,240,32,0.0388081614927801,1
688,241,32,0.0381164362183225,1
688,242,32,0.036797402257545,1
689,239,32,0.0412926776007121,1
689,240,32,0.0449734509529514,1
689,241,32,0.0413727937457071,1
689,242,32,0.0368760720837805,1
690,238,32,0.036996227347499,1
690,239,32,0.0464279489949624,1
690,240,32,0.0510138087983396,1
690,241,32,0.0438220208422931,1
690,242,32,0.0351722706775294,1
691,237,32,0.0345311840554461,1
691,238,32,0.0365979502350641,1
691,239,32,0.0427003889804321,1
691,240,32,0.0460310365542603,1
691,241,32,0.0396230950465635,1
691,269,32,0.0378004855525353,1
691,270,32,0.0517115409611936,1
692,270,32,0.0348088014421758,1
681,248,33,0.0358590883824866,1
681,256,33,0.0350910231380209,1
681,257,33,0.0347443702742118,1
682,247,33,0.0365687789187937,1
682,248,33,0.0397336976081527,1
682,249,33,0.0363557647419772,1
682,250,33,0.0357898750315274,1
682,251,33,0.0359159380408241,1
683,246,33,0.0372413754612707,1
683,247,33,0.0382389446659904,1
683,248,33,0.0383623016595435,1
683,249,33,0.0358004483214911,1
683,250,33,0.0374143126118156,1
683,251,33,0.0367930049819616,1
683,252,33,0.0345229435376752,1
684,246,33,0.0358276105377105,1
684,247,33,0.0358790160889432,1
684,250,33,0.0350117467910152,1
686,240,33,0.0353467212140344,1
687,239,33,0.0365306993287121,1
687,240,33,0.0384944794479504,1
687,241,33,0.0369409639742525,1
688,239,33,0.0375912650464973,1
688,240,33,0.0394222083691842,1
688,241,33,0.0382251113268874,1
688,242,33,0.0352167828869325,1
689,238,33,0.0359568373692936,1
689,239,33,0.0423407163318221,1
689,240,33,0.0438160868530278,1
689,241,33,0.0403280675511108,1
689,242,33,0.0358205043304183,1
690,237,33,0.0368263344646656,1
690,238,33,0.0456263588981216,1
690,239,33,0.0542784884905219,1
690,240,33,0.0511404608326149,1
690,241,33,0.0415567649087238,1
691,236,33,0.036463253052689,1
691,237,33,0.0403813247402715,1
691,238,33,0.051810625460081,1
691,239,33,0.0589048597989916,1
691,240,33,0.0510820307211168,1
691,241,33,0.0387276429445818,1
691,270,33,0.036380378404576,1
691,271,33,0.0389659297921416,1
692,237,33,0.0372710395756669,1
692,238,33,0.0452521939022641,1
692,239,33,0.0482816339305635,1
692,240,33,0.0403339898765152,1
682,247,34,0.0354960419620928,1
682,248,34,0.0379613097834693,1
682,249,34,0.0362891874235959,1
682,250,34,0.0351010948819631,1
683,246,34,0.0402213432232921,1
683,247,34,0.0414354636706656,1
683,248,34,0.0390879425257186,1
683,249,34,0.0359029095081275,1
683,250,34,0.0356684279952072,1
683,251,34,0.0347473153991051,1
684,246,34,0.0405159723512375,1
684,247,34,0.0409544227167969,1
684,248,34,0.036007029878986,1
684,253,34,0.0351001763529122,1
685,246,34,0.0350205792497301,1
685,247,34,0.0356801268477539,1
685,250,34,0.0359686557764152,1
685,251,34,0.0359267358601113,1
685,252,34,0.03489393013142,1
685,253,34,0.0348926966781231,1
686,240,34,0.0366505338362541,1
686,241,34,0.0352995875518797,1
687,239,34,0.0379606274476029,1
687,240,34,0.0419825162456588,1
687,241,34,0.0403587551693065,1
687,242,34,0.0353152317053974,1
688,239,34,0.0387927943559603,1
688,240,34,0.0427684126175729,1
688,241,34,0.0412932403820036,1
688,242,34,0.036435708845023,1
689,238,34,0.0364875751187638,1
689,239,34,0.0407834713385811,1
689,240,34,0.042043028356339,1
689,241,34,0.0395607138021639,1
689,242,34,0.0357949342312205,1
690,237,34,0.0403737898860889,1
690,238,34,0.0491786519058795,1
690,239,34,0.0535498645919053,1
690,240,34,0.0450470324198415,1
690,241,34,0.0367525109726606,1
691,236,34,0.0388403799927273,1
691,237,34,0.046244053647042,1
691,238,34,0.0618041807103441,1
691,239,34,0.0661444491732329,1
691,240,34,0.0487139578531516,1
691,241,34,0.0347423465943346,1
692,235,34,0.0345868556638263,1
692,236,34,0.036727719436182,1
692,237,34,0.0416648334965185,1
692,238,34,0.0537105051170291,1
692,239,34,0.0565257120950412,1
692,240,34,0.0412176614789235,1
693,238,34,0.0346237455400895,1
693,239,34,0.0358002675316462,1
697,240,34,0.035520853910328,1
679,258,35,0.0347229466775865,1
682,248,35,0.0347857215772937,1
682,249,35,0.0363465881993639,1
682,250,35,0.0361754239556855,1
682,251,35,0.0345778599110579,1
683,246,35,0.0407572655589607,1
683,247,35,0.0417143903257884,1
683,248,35,0.0367269904448718,1
683,249,35,0.0353027426262704,1
683,250,35,0.0352309282343163,1
683,251,35,0.0346083259158953,1
684,245,35,0.0347918451042996,1
684,246,35,0.0448919526404322,1
684,247,35,0.0450521178632217,1
684,248,35,0.0362360993604192,1
684,250,35,0.0368157699225977,1
684,251,35,0.0387129318999412,1
684,252,35,0.0364703009406764,1
684,253,35,0.0348595888087773,1
685,246,35,0.0372493652060309,1
685,247,35,0.0375222528971398,1
685,249,35,0.0348183803879923,1
685,250,35,0.0410179907590495,1
685,251,35,0.0433481735746739,1
685,252,35,0.0393766988996687,1
685,253,35,0.0351392182115233,1
686,240,35,0.0361818157514937,1
686,241,35,0.0357649785203002,1
686,250,35,0.0373502663512634,1
686,251,35,0.0389941417558478,1
686,252,35,0.0363133491115824,1
687,239,35,0.0364322650900735,1
687,240,35,0.041825893920637,1
687,241,35,0.0412552745145664,1
687,242,35,0.0361902778826229,1
688,238,35,0.0346798428793948,1
688,239,35,0.0378168791091199,1
688,240,35,0.0430305520608036,1
688,241,35,0.0421461922905985,1
688,242,35,0.0366256227452007,1
689,238,35,0.0380247670190428,1
689,239,35,0.0391465359312702,1
689,240,35,0.0399030656172427,1
689,241,35,0.037971544821465,1
689,242,35,0.0345327965842243,1
690,237,35,0.0450433203960898,1
690,238,35,0.0512222769853454,1
690,239,35,0.0508350834567914,1
690,240,35,0.0405648322648148,1
691,236,35,0.0421393164445603,1
691,237,35,0.051038320402155,1
691,238,35,0.0660068681012345,1
691,239,35,0.0663569180645493,1
691,240,35,0.0455857307544195,1
692,235,35,0.0365187380392938,1
692,236,35,0.0391885958139056,1
692,237,35,0.04599811530669,1
692,238,35,0.059600177542626,1
692,239,35,0.061056200634458,1
692,240,35,0.0425455599740334,1
693,237,35,0.0346112360492058,1
693,238,35,0.0389597450298656,1
693,239,35,0.0404538856193272,1
697,240,35,0.0356889913820863,1
679,258,36,0.034682047349117,1
681,250,36,0.0347516485234532,1
682,249,36,0.0358222859851806,1
682,250,36,0.0367424042371354,1
682,254,36,0.0381389737136698,1
682,255,36,0.03669205426532,1
682,260,36,0.0346604808701949,1
683,246,36,0.0371744861346086,1
683,247,36,0.0379232185295268,1
683,250,36,0.034887165092061,1
683,251,36,0.0345715614261375,1
683,254,36,0.0353611115024984,1
684,246,36,0.0430456625926822,1
684,247,36,0.0426841703817619,1
684,250,36,0.0383929601180868,1
684,251,36,0.0439699798345841,1
684,252,36,0.0399963531772311,1
684,253,36,0.0349608573656302,1
685,246,36,0.0360185304458963,1
685,247,36,0.0357631356302679,1
685,250,36,0.04474422109343,1
685,251,36,0.0528849428699424,1
685,252,36,0.0462915867964347,1
685,253,36,0.0362183819556152,1
686,240,36,0.0349127818467027,1
686,241,36,0.0363256865605168,1
686,250,36,0.0384589338316632,1
686,251,36,0.0444074125282744,1
686,252,36,0.040288314196981,1
687,239,36,0.0345439355714447,1
687,240,36,0.0396820587797007,1
687,241,36,0.0410339848283961,1
687,242,36,0.0361221871782816,1
688,239,36,0.0358199007256135,1
688,240,36,0.0410364021635809,1
688,241,36,0.0415886276609116,1
688,242,36,0.0359363352176845,1
689,238,36,0.0385054463932216,1
689,239,36,0.0381715042218978,1
689,240,36,0.0383304126636685,1
689,241,36,0.0367692136215607,1
690,237,36,0.0467465094496403,1
690,238,36,0.0502718880982243,1
690,239,36,0.0479293474219088,1
690,240,36,0.0386233301200174,1
691,236,36,0.0459381164058923,1
691,237,36,0.0521030092947908,1
691,238,36,0.0628146093217763,1
691,239,36,0.0607985576096289,1
691,240,36,0.0424722613557717,1
692,235,36,0.0385963311978515,1
692,236,36,0.0415905434500749,1
692,237,36,0.047980093964997,1
692,238,36,0.0602040447843739,1
692,239,36,0.0601583632729092,1
692,240,36,0.0418672918791628,1
693,236,36,0.0350202934851365,1
693,237,36,0.0379972082315506,1
693,238,36,0.0437586977411207,1
693,239,36,0.0448879985915655,1
693,240,36,0.0354313512732224,1
693,274,36,0.0347850567372187,1
693,275,36,0.0387189475362333,1
694,275,36,0.0369513914659542,1
682,249,37,0.0351012319323295,1
682,250,37,0.0367975713835289,1
682,253,37,0.0353968349926653,1
682,254,37,0.041049086612379,1
682,255,37,0.0404532266111828,1
683,250,37,0.0350090407752716,1
683,251,37,0.0358957333176695,1
683,253,37,0.0348731043076691,1
683,254,37,0.0378321995904958,1
683,255,37,0.0366816180257226,1
684,246,37,0.0367371496677713,1
684,247,37,0.0367739870566601,1
684,250,37,0.038809575735922,1
684,251,37,0.0462640921601778,1
684,252,37,0.0421409260573733,1
684,253,37,0.0357761554150688,1
685,250,37,0.0436618993589822,1
685,251,37,0.054540196370897,1
685,252,37,0.0486992643043025,1
685,253,37,0.0370457258574641,1
686,250,37,0.0367747889471014,1
686,251,37,0.0439424356269181,1
686,252,37,0.0405150946457,1
687,241,37,0.0359452668192175,1
688,240,37,0.0354545798523318,1
688,241,37,0.0365976615545053,1
689,238,37,0.036823809238767,1
689,239,37,0.0355200316081301,1
689,240,37,0.034486913871158,1
690,237,37,0.0431479050819256,1
690,238,37,0.0449750605657644,1
690,239,37,0.0429493890842871,1
690,240,37,0.0360259661572608,1
691,236,37,0.0446514204996369,1
691,237,37,0.0471543888356136,1
691,238,37,0.052576322940771,1
691,239,37,0.0505366752378938,1
691,240,37,0.0382435635549321,1
692,236,37,0.0404329664846887,1
692,237,37,0.0446241037372597,1
692,238,37,0.0527221153708879,1
692,239,37,0.05241075443439,1
692,240,37,0.0386604649373609,1
693,237,37,0.0388479469225276,1
693,238,37,0.0443297603739079,1
693,239,37,0.0450177357170657,1
693,240,37,0.0358051780171119,1
693,274,37,0.0345874563526659,1
693,275,37,0.0368793496287113,1
694,275,37,0.036882251014126,1
682,254,38,0.0400061508204406,1
682,255,38,0.041263620007086,1
682,256,38,0.0349318610072742,1
683,254,38,0.0373254864786459,1
683,255,38,0.0373786678527103,1
684,251,38,0.0432237551697731,1
684,252,38,0.0411867989028133,1
685,250,38,0.0389554585609614,1
685,251,38,0.0494344053852326,1
685,252,38,0.047358640536881,1
685,253,38,0.0367891354960869,1
686,251,38,0.0400408741345298,1
686,252,38,0.0387570883615849,1
689,238,38,0.035446630931085,1
690,237,38,0.0397623615464712,1
690,238,38,0.0400575009683337,1
690,239,38,0.0376054657972207,1
691,236,38,0.0415641218890267,1
691,237,38,0.0418273635671185,1
691,238,38,0.0424886636602521,1
691,239,38,0.0397864532512919,1
692,236,38,0.0380065626480436,1
692,237,38,0.0396924133722713,1
692,238,38,0.0432228366407222,1
692,239,38,0.0415987431443324,1
693,237,38,0.0367494346293314,1
693,238,38,0.040797109308013,1
693,239,38,0.0399867888112408,1
682,254,39,0.0358792464501972,1
682,255,39,0.037122415743301,1
685,251,39,0.0381062799113882,1
685,252,39,0.0388131302975507,1
688,256,39,0.0389867410360662,1
688,257,39,0.0376072591158439,1
689,256,39,0.036882831291209,1
689,257,39,0.0361161890377809,1
690,237,39,0.038177146614639,1
690,238,39,0.0367161576340017,1
691,236,39,0.0387152442603773,1
691,237,39,0.0388490637372149,1
691,238,39,0.0365935179678979,1
692,236,39,0.037114125654121,1
692,237,39,0.0371854530798798,1
692,238,39,0.0365945735473151,1
693,237,39,0.0349771167878137,1
693,238,39,0.0361573887106703,1
690,237,40,0.0371787084522775,1
690,238,40,0.034623171094937,1
691,236,40,0.0379812345739607,1
691,237,40,0.0381459253748042,1
691,238,40,0.0345547246428362,1
692,237,40,0.0368620783665892,1
691,237,41,0.036680932773891,1
691,262,42,0.0345177443716505,1
693,263,42,0.034884491151935,1
