x,y,z,signal,mito.p
792,277,24,0.0830648559117669,1
793,278,24,0.0770824460431378,1
793,279,24,0.108033051728105,1
794,278,24,0.0664175004309008,1
794,279,24,0.0978958393928761,1
795,278,24,0.0615355227711847,1
795,279,24,0.084193487838209,1
796,279,24,0.067497331396588,1
796,280,24,0.0918716018468717,1
797,279,24,0.0582404479964266,1
797,280,24,0.0726477083290051,1
797,281,24,0.0913344907060079,1
798,280,24,0.0731215249002965,1
798,281,24,0.0991927679068146,1
799,280,24,0.0758662453072207,1
800,280,24,0.0712495950686479,1
801,279,24,0.061278340866403,1
801,280,24,0.0734079284693095,1
801,281,24,0.0914903736467983,1
802,278,24,0.0573370711574996,1
802,279,24,0.070734930686525,1
802,280,24,0.090824936057396,1
803,277,24,0.0550105012838536,1
803,278,24,0.0634964821949472,1
803,279,24,0.083861264988231,1
804,273,24,0.0547597937120028,1
804,274,24,0.0657972268742839,1
804,275,24,0.0747774993594198,1
804,277,24,0.0741605801925665,1
804,278,24,0.0763258688422541,1
805,271,24,0.0541746330417828,1
805,272,24,0.0666195332824717,1
805,273,24,0.0743792647639318,1
805,274,24,0.0961268616742959,1
806,270,24,0.058054423639373,1
806,271,24,0.0837824789089437,1
806,273,24,0.0957163156267722,1
791,269,25,0.0488460797018397,1
791,270,25,0.0503991892139369,1
791,271,25,0.049952315966876,1
791,272,25,0.051117677860085,1
791,273,25,0.0528159188325204,1
791,274,25,0.0546394745164485,1
791,275,25,0.059427066381041,1
791,276,25,0.0691821608214201,1
791,277,25,0.0833452239837858,1
792,274,25,0.0486819340213896,1
792,275,25,0.0530151443363858,1
792,276,25,0.0607125130232079,1
792,277,25,0.0711723058407067,1
792,278,25,0.0809985638402651,1
792,279,25,0.095177761737623,1
793,275,25,0.0480021170407424,1
793,276,25,0.0515083199927209,1
793,277,25,0.0564652003342559,1
793,278,25,0.0655951459311036,1
793,279,25,0.082609596690297,1
793,280,25,0.106610117185787,1
794,276,25,0.0472657202815014,1
794,277,25,0.0513243996435835,1
794,278,25,0.0603138035230759,1
794,279,25,0.0801572432119655,1
794,280,25,0.116188655304735,1
795,277,25,0.0491334841774757,1
795,278,25,0.0574925212738044,1
795,279,25,0.0749884952847139,1
795,280,25,0.109140841953273,1
796,278,25,0.0513717879133089,1
796,279,25,0.0606390410667719,1
796,280,25,0.0781975762502087,1
796,281,25,0.100584887750336,1
797,278,25,0.04755409861223,1
797,279,25,0.0531007714471265,1
797,280,25,0.06293494051645,1
797,281,25,0.0746695757762178,1
797,282,25,0.0898146215132621,1
798,279,25,0.0517228025597048,1
798,280,25,0.0624845265246387,1
798,281,25,0.0771588876564612,1
798,282,25,0.0922049067580638,1
798,283,25,0.099148199007697,1
799,279,25,0.0507814754294196,1
799,280,25,0.0631694472273456,1
799,281,25,0.0848422196047562,1
800,279,25,0.0508570874624789,1
800,280,25,0.0618628462884435,1
800,281,25,0.0806996203840711,1
801,278,25,0.0482340448390778,1
801,279,25,0.0546160779484196,1
801,280,25,0.0655179949665398,1
801,281,25,0.0812541466990304,1
801,282,25,0.101958636599023,1
802,278,25,0.0528247797115735,1
802,279,25,0.0627469263690527,1
802,280,25,0.0781269537216365,1
802,281,25,0.0971150600895043,1
803,276,25,0.048136397831684,1
803,277,25,0.0513748357190619,1
803,278,25,0.0603250028566416,1
803,279,25,0.0775346574588547,1
803,280,25,0.101188665884889,1
804,273,25,0.0491534211553451,1
804,274,25,0.0561927012518438,1
804,275,25,0.0617077929279172,1
804,276,25,0.0644618070383802,1
804,277,25,0.0656467482281127,1
804,278,25,0.0713859768617801,1
804,279,25,0.091040915475726,1
805,271,25,0.0475043538536384,1
805,272,25,0.0549473089089514,1
805,273,25,0.0645430638241063,1
805,274,25,0.0864902529368584,1
805,277,25,0.0863863690488557,1
805,278,25,0.0834251462273479,1
806,270,25,0.0528635114915863,1
806,271,25,0.0656865199891813,1
806,273,25,0.0794518655408613,1
807,269,25,0.0540729673792689,1
807,270,25,0.0701631815639084,1
790,269,26,0.0476252711885861,1
790,270,26,0.0484323235393809,1
790,271,26,0.0477429784085986,1
790,273,26,0.0477125544541295,1
790,274,26,0.0494569964346804,1
790,275,26,0.0532748570621182,1
790,276,26,0.0589139108731666,1
790,277,26,0.0664409871706975,1
791,274,26,0.0475821149804979,1
791,275,26,0.0516921141013833,1
791,276,26,0.0591986192129443,1
791,277,26,0.0695712580111003,1
791,278,26,0.0785236073054617,1
791,279,26,0.0895067750978568,1
792,275,26,0.0474021561776943,1
792,276,26,0.0528476412604465,1
792,277,26,0.060393599526163,1
792,278,26,0.0681782604957052,1
792,279,26,0.0789380247275514,1
792,280,26,0.0972406272819469,1
792,281,26,0.112954362312952,1
792,282,26,0.119023078586307,1
793,277,26,0.0501850733454755,1
793,278,26,0.0568373933231918,1
793,279,26,0.0673186710672413,1
793,280,26,0.0831668101239379,1
793,281,26,0.0968620561432992,1
794,277,26,0.0473641968691593,1
794,278,26,0.0549365363884202,1
794,279,26,0.0689684837888955,1
794,280,26,0.0889323568909121,1
794,281,26,0.102955323183311,1
795,278,26,0.0529327513863849,1
795,279,26,0.0663169108181498,1
795,280,26,0.0859334182246425,1
795,281,26,0.101566028721848,1
796,278,26,0.0475425716545745,1
796,279,26,0.0538736757494404,1
796,280,26,0.0645279750816211,1
796,281,26,0.0755695862024788,1
796,282,26,0.089511704487832,1
797,280,26,0.0527360987836285,1
797,281,26,0.0599468284737724,1
797,282,26,0.0713994906040537,1
797,283,26,0.0867298753927161,1
798,280,26,0.0510311430202146,1
798,281,26,0.0584148281725265,1
798,282,26,0.0687511938742062,1
798,283,26,0.0776040356170307,1
798,284,26,0.0870454946145092,1
799,280,26,0.0513285475449041,1
799,281,26,0.0608010075961659,1
799,282,26,0.073328439050233,1
799,283,26,0.0812520246567606,1
799,284,26,0.0872687178315224,1
799,285,26,0.10298463501931,1
800,280,26,0.052628283406548,1
800,281,26,0.0634810027081347,1
800,282,26,0.0769056672980133,1
800,283,26,0.0865356333818866,1
800,284,26,0.0967909707329854,1
801,279,26,0.0486209087746412,1
801,280,26,0.0580013004452129,1
801,281,26,0.0713232413571683,1
801,282,26,0.0861074256907686,1
801,283,26,0.0965146363447145,1
802,279,26,0.0562884877150945,1
802,280,26,0.0690439214898704,1
802,281,26,0.0837206571449127,1
802,282,26,0.100148522519954,1
803,278,26,0.0543784813516128,1
803,279,26,0.0714858571232907,1
803,280,26,0.0913499822157228,1
804,274,26,0.048475717199791,1
804,275,26,0.0511581048693332,1
804,276,26,0.0526471473403801,1
804,277,26,0.0559389999773008,1
804,278,26,0.0640235001092641,1
804,279,26,0.0844332305230905,1
805,273,26,0.0564784135039701,1
805,274,26,0.075188538345941,1
805,276,26,0.0764794013056295,1
805,277,26,0.0711354255876602,1
806,270,26,0.0492645578592078,1
806,273,26,0.0679235793546183,1
807,269,26,0.0554520844538678,1
790,275,27,0.0492696044724812,1
790,276,27,0.0545894532311021,1
790,277,27,0.0611029026748938,1
790,278,27,0.0664906056888142,1
790,279,27,0.0712617021313432,1
791,275,27,0.0473000035876341,1
791,276,27,0.0536528390785494,1
791,277,27,0.0616745676371938,1
791,278,27,0.0699791109284912,1
791,279,27,0.0806536448053752,1
791,280,27,0.099947271157038,1
791,281,27,0.108619216310673,1
791,282,27,0.10432160580962,1
792,276,27,0.04803028369529,1
792,277,27,0.0534566794147905,1
792,278,27,0.0605933360033795,1
792,279,27,0.0697433418128459,1
792,280,27,0.0873671854020035,1
792,281,27,0.099693954615371,1
792,282,27,0.103457760273714,1
792,283,27,0.120532650163165,1
793,278,27,0.0519629239660112,1
793,279,27,0.0603408189847207,1
793,280,27,0.074093059572808,1
793,281,27,0.0860521924772411,1
793,282,27,0.100004963054102,1
794,278,27,0.0509044937665579,1
794,279,27,0.0619925132905972,1
794,280,27,0.0751660735528465,1
794,281,27,0.0833563632028396,1
794,282,27,0.0956965860439688,1
795,278,27,0.0490352480478654,1
795,279,27,0.0597014650820289,1
795,280,27,0.070864381276436,1
795,281,27,0.0773383655431697,1
795,282,27,0.0883522338167887,1
796,279,27,0.0488748745530366,1
796,280,27,0.0551972049348917,1
796,281,27,0.0610838103059165,1
796,282,27,0.0715201043607163,1
796,283,27,0.088461503965057,1
797,281,27,0.0513187067993072,1
797,282,27,0.0612397774070235,1
797,283,27,0.0729751460638364,1
797,284,27,0.0914732410109087,1
798,281,27,0.0494268730527707,1
798,282,27,0.0588724919744722,1
798,283,27,0.0676573381928943,1
798,284,27,0.076120872345247,1
798,285,27,0.0899498130390589,1
799,281,27,0.0511755501006846,1
799,282,27,0.061038958868593,1
799,283,27,0.0688467759481165,1
799,284,27,0.0765317249767814,1
799,285,27,0.0915211462654364,1
799,286,27,0.121106695660136,1
800,280,27,0.0473078605543385,1
800,281,27,0.0554174224263102,1
800,282,27,0.066492661605121,1
800,283,27,0.0739071855020341,1
800,284,27,0.0831648624137525,1
801,280,27,0.0526207931383661,1
801,281,27,0.0637097083686326,1
801,282,27,0.0767893096487927,1
801,283,27,0.084156114646165,1
802,279,27,0.0516331958682767,1
802,280,27,0.0626277794064803,1
802,281,27,0.0752467532392584,1
802,282,27,0.0883580649244423,1
803,278,27,0.0502656057513333,1
803,279,27,0.0651148730612349,1
803,280,27,0.0829924660165451,1
804,277,27,0.0494736932403588,1
804,278,27,0.0590166585968946,1
804,279,27,0.077354217739956,1
805,273,27,0.0492310530360041,1
805,274,27,0.0625920232948062,1
805,275,27,0.0705899465067409,1
805,276,27,0.0645600221279114,1
805,277,27,0.0610357066734995,1
806,273,27,0.0617703300546398,1
806,274,27,0.0870387738120795,1
808,268,27,0.0499067010752514,1
790,276,28,0.0490445387456785,1
790,277,28,0.0546815666976761,1
790,278,28,0.0604650877037064,1
790,279,28,0.0664983664722996,1
790,280,28,0.0756076446999584,1
790,281,28,0.0837211560953614,1
791,276,28,0.0478145477407331,1
791,277,28,0.0536182071082477,1
791,278,28,0.0608947201087563,1
791,279,28,0.0710310367377576,1
791,280,28,0.0868865097649051,1
791,281,28,0.0935457308885867,1
791,282,28,0.0928202449132543,1
791,283,28,0.0976272477537371,1
792,277,28,0.0480938307458124,1
792,278,28,0.0546299042861551,1
792,279,28,0.063671998535322,1
792,280,28,0.078663926599123,1
792,281,28,0.0880032871096019,1
792,282,28,0.0912025513753046,1
792,283,28,0.10461739325394,1
793,278,28,0.049054175101935,1
793,279,28,0.0567786373992673,1
793,280,28,0.0692586745721578,1
793,281,28,0.0805139326682841,1
793,282,28,0.0915381105806927,1
794,278,28,0.0481123039353172,1
794,279,28,0.0572563614138318,1
794,280,28,0.0669143528831497,1
794,281,28,0.0743118042586852,1
794,282,28,0.0846567783584679,1
795,279,28,0.0547079689912996,1
795,280,28,0.0610212671677428,1
795,281,28,0.0650866673322545,1
795,282,28,0.0739215228131206,1
796,280,28,0.0495493142905949,1
796,281,28,0.0534187531692371,1
796,282,28,0.0615253634186748,1
796,283,28,0.0739692056439543,1
797,282,28,0.0547949667129116,1
797,283,28,0.0641567379134243,1
797,284,28,0.0758575046571915,1
798,282,28,0.0525663293905908,1
798,283,28,0.0602603076189421,1
798,284,28,0.0668023535360414,1
798,285,28,0.077641511003745,1
798,286,28,0.102322617945634,1
799,282,28,0.0546378454131762,1
799,283,28,0.0613706707452199,1
799,284,28,0.0671544923238097,1
799,285,28,0.0801833509444807,1
799,286,28,0.108058912991121,1
800,281,28,0.0502411571793463,1
800,282,28,0.0612116678612622,1
800,283,28,0.0670540770431432,1
800,284,28,0.0729176224874058,1
800,285,28,0.0931314938100328,1
801,280,28,0.0478834990858747,1
801,281,28,0.0583601540239596,1
801,282,28,0.0708649102841406,1
801,283,28,0.0764644027349121,1
801,284,28,0.0905526113070684,1
802,280,28,0.0576438535460444,1
802,281,28,0.0705583082391315,1
802,282,28,0.0820137115911551,1
803,279,28,0.0578557872577241,1
803,280,28,0.0755837371585784,1
803,281,28,0.0921142961542871,1
804,278,28,0.0525355928406598,1
804,279,28,0.0689541104091019,1
804,280,28,0.0934896500604415,1
805,274,28,0.0496802947948335,1
805,275,28,0.0538673877714964,1
805,276,28,0.0538149919629302,1
806,273,28,0.0580605312737813,1
806,274,28,0.0693433879423178,1
806,275,28,0.0773706049558981,1
807,268,28,0.0480100852192939,1
809,268,28,0.0507574536704671,1
810,269,28,0.051707725840122,1
789,276,29,0.0497680199020393,1
790,276,29,0.0472608540117636,1
790,277,29,0.0521686538600634,1
790,278,29,0.0577580110041297,1
790,279,29,0.0629278650384002,1
790,280,29,0.069447860952537,1
790,281,29,0.0774958054498181,1
790,282,29,0.0914299345165408,1
791,277,29,0.0505075516330756,1
791,278,29,0.0564892160817573,1
791,279,29,0.064452212762282,1
791,280,29,0.0751983370113796,1
791,281,29,0.0809855851171473,1
791,282,29,0.0846662824627983,1
791,283,29,0.0929184058997248,1
791,284,29,0.0957626158238324,1
792,278,29,0.0526670813125239,1
792,279,29,0.0613738748487038,1
792,280,29,0.0739990585105605,1
792,281,29,0.0819159173032072,1
792,282,29,0.0867097550655854,1
792,283,29,0.0966626502958981,1
792,284,29,0.116441448850149,1
793,278,29,0.0486966410367243,1
793,279,29,0.0569597143319922,1
793,280,29,0.0694738244102237,1
793,281,29,0.0796841239690121,1
793,282,29,0.0888748693831886,1
793,283,29,0.104691033531009,1
794,278,29,0.0472874186145692,1
794,279,29,0.0548804194915678,1
794,280,29,0.0633707827505784,1
794,281,29,0.0704504267360879,1
794,282,29,0.0796223683309441,1
794,283,29,0.0977308250577292,1
795,279,29,0.0510932653568051,1
795,280,29,0.0556879196954762,1
795,281,29,0.0595567694519019,1
795,282,29,0.0679665672420732,1
795,283,29,0.0831270263399669,1
796,280,29,0.0474079061307569,1
796,281,29,0.0507593593004941,1
796,282,29,0.0584574253156541,1
796,283,29,0.0689332987650844,1
796,284,29,0.0898421419368069,1
797,282,29,0.0518590280551061,1
797,283,29,0.060292661249243,1
797,284,29,0.0693960362318339,1
797,285,29,0.0821790264988616,1
798,282,29,0.0486275995198149,1
798,283,29,0.0561649283473492,1
798,284,29,0.0626453268325019,1
798,285,29,0.0724761956151225,1
798,286,29,0.100251859365899,1
799,282,29,0.050905672010991,1
799,283,29,0.0576218696690451,1
799,284,29,0.0627024416302517,1
799,285,29,0.073532762264707,1
799,286,29,0.10245553113143,1
800,282,29,0.0579037466153125,1
800,283,29,0.063820535482759,1
800,284,29,0.0684440267527853,1
800,285,29,0.085104324888062,1
801,281,29,0.0544597681945948,1
801,282,29,0.0660572702298317,1
801,283,29,0.0719463463072954,1
801,284,29,0.0883153235064862,1
802,280,29,0.0539390803383803,1
802,281,29,0.0675730336014152,1
802,282,29,0.0808827051414932,1
803,279,29,0.0515334839273994,1
803,280,29,0.0676641852357989,1
803,281,29,0.0889411155752949,1
804,278,29,0.0497214642183036,1
804,279,29,0.0631999793879362,1
804,280,29,0.0828246082649855,1
805,266,29,0.0643267177072537,1
805,267,29,0.0564540070121414,1
805,276,29,0.0495088512126396,1
806,266,29,0.055558649449101,1
806,267,29,0.055626663007857,1
806,273,29,0.0593785239126872,1
806,274,29,0.0640073052597601,1
806,275,29,0.0658240199122347,1
807,268,29,0.0487630525437384,1
809,268,29,0.049765137411194,1
810,269,29,0.0535675486090752,1
789,276,30,0.0478306764642741,1
790,277,30,0.0480984685804049,1
790,278,30,0.0534748640546382,1
790,279,30,0.0584268510749052,1
790,280,30,0.0627539357211395,1
790,281,30,0.0694039713474038,1
790,282,30,0.081287792791337,1
791,278,30,0.0517348975994977,1
791,279,30,0.058978948763584,1
791,280,30,0.0664306114059447,1
791,281,30,0.0705768956462089,1
791,282,30,0.074397275071695,1
791,283,30,0.0832530443912487,1
791,284,30,0.0878910593273484,1
792,278,30,0.0504228322514645,1
792,279,30,0.0610379910249515,1
792,280,30,0.0735642201887807,1
792,281,30,0.078555558168533,1
792,282,30,0.0799289463301485,1
792,283,30,0.0865630696451147,1
792,284,30,0.0979387190742096,1
792,285,30,0.103649369268923,1
793,278,30,0.0481612311365471,1
793,279,30,0.0589299734707445,1
793,280,30,0.0731468090639988,1
793,281,30,0.0808670813798522,1
793,282,30,0.0846225732012007,1
793,283,30,0.0919998441350936,1
793,284,30,0.116289623638911,1
794,279,30,0.0538418270810394,1
794,280,30,0.0627196163462996,1
794,281,30,0.0696603717635309,1
794,282,30,0.0762305512721962,1
794,283,30,0.087084575058691,1
795,279,30,0.0488892359099279,1
795,280,30,0.0529551620764187,1
795,281,30,0.0575366272911805,1
795,282,30,0.0650414912765668,1
795,283,30,0.0768125258732859,1
796,281,30,0.0500960377419104,1
796,282,30,0.056856419566206,1
796,283,30,0.0661217971468979,1
796,284,30,0.0829974555210322,1
797,282,30,0.0500675344460962,1
797,283,30,0.0581466453120684,1
797,284,30,0.0662619300855723,1
797,285,30,0.0793136622780188,1
797,286,30,0.112527248705951,1
798,283,30,0.0541668542239438,1
798,284,30,0.0605863086169392,1
798,285,30,0.071272618926703,1
798,286,30,0.106548632063022,1
799,282,30,0.049071163462996,1
799,283,30,0.0561791334065095,1
799,284,30,0.0609342273659725,1
799,285,30,0.071098046384165,1
799,286,30,0.103497003027078,1
800,282,30,0.0554930585051743,1
800,283,30,0.0617630201299935,1
800,284,30,0.0659382434962831,1
800,285,30,0.0806972518723025,1
801,281,30,0.0518507021952088,1
801,282,30,0.0620635265634967,1
801,283,30,0.0687299494057031,1
801,284,30,0.0856782381331068,1
802,280,30,0.0498136498222919,1
802,281,30,0.0631340397798405,1
802,282,30,0.0781692863609117,1
803,280,30,0.0603419491375443,1
803,281,30,0.0826383133926284,1
804,278,30,0.048567542116708,1
804,279,30,0.0598062687220636,1
804,280,30,0.0746071047754584,1
805,266,30,0.0780163370083018,1
805,267,30,0.0657091350685556,1
806,266,30,0.0624363808120634,1
806,267,30,0.0617680877833461,1
806,268,30,0.0472893783476569,1
806,273,30,0.05683273444852,1
806,274,30,0.0593991852704249,1
806,275,30,0.0598745347617696,1
807,268,30,0.0517404401574943,1
790,277,31,0.0474659617206178,1
790,278,31,0.0527563152939782,1
790,279,31,0.0570950140639103,1
790,280,31,0.0600882178057453,1
790,281,31,0.0647382496327725,1
790,282,31,0.0733218264539248,1
791,278,31,0.0509961022712321,1
791,279,31,0.0586973122753641,1
791,280,31,0.0658300734435824,1
791,281,31,0.0673055841380021,1
791,282,31,0.0694962651575135,1
791,283,31,0.0778890084606607,1
791,284,31,0.0849709728663292,1
792,278,31,0.0513659027025946,1
792,279,31,0.0662995737929198,1
792,280,31,0.0827893030121506,1
792,281,31,0.0829585975005444,1
792,282,31,0.0787185767018851,1
792,283,31,0.0830182671650496,1
792,284,31,0.0912630806773299,1
792,285,31,0.100441797177677,1
793,278,31,0.0488358692519946,1
793,279,31,0.0638250981742117,1
793,280,31,0.0826487071917347,1
793,281,31,0.086751462513937,1
793,282,31,0.0851241326197308,1
793,283,31,0.0890572628237239,1
793,284,31,0.104007038591785,1
793,285,31,0.135961917312441,1
794,279,31,0.0539141448388469,1
794,280,31,0.0646306687022883,1
794,281,31,0.0707146961418218,1
794,282,31,0.0761214674789147,1
794,283,31,0.0855698697025168,1
794,284,31,0.117634830117351,1
795,279,31,0.0472083560085272,1
795,280,31,0.0520308774102553,1
795,281,31,0.0563598195949071,1
795,282,31,0.0633152850331986,1
795,283,31,0.0753357046825069,1
795,284,31,0.107555213495968,1
796,281,31,0.0506296562296332,1
796,282,31,0.0558359877497205,1
796,283,31,0.0644834602855641,1
796,284,31,0.0839265433366959,1
796,285,31,0.112414978843539,1
796,286,31,0.134938491793263,1
797,282,31,0.0485272263193067,1
797,283,31,0.0551881937695589,1
797,284,31,0.0652578133476146,1
797,285,31,0.0816261894016865,1
798,283,31,0.0529044374512832,1
798,284,31,0.0599717218931474,1
798,285,31,0.0725872150956869,1
799,282,31,0.0488560136249301,1
799,283,31,0.0554548316870614,1
799,284,31,0.0610670143112935,1
799,285,31,0.0716465672593861,1
800,282,31,0.0541494390498483,1
800,283,31,0.0598950758904835,1
800,284,31,0.0658934822307274,1
800,285,31,0.0805474825773717,1
801,281,31,0.0513442554668618,1
801,282,31,0.0599138436410966,1
801,283,31,0.0672153943358087,1
801,284,31,0.0860706476323923,1
802,280,31,0.0478206613865927,1
802,281,31,0.0598800292281566,1
802,282,31,0.0747706042249056,1
802,283,31,0.0904755865829796,1
803,280,31,0.0545628826168453,1
803,281,31,0.0754495194878744,1
804,278,31,0.0480086274423805,1
804,279,31,0.0561980754892071,1
804,280,31,0.0667391190809809,1
805,266,31,0.0750570138053698,1
805,267,31,0.0616747479807295,1
805,277,31,0.0554886821687084,1
805,280,31,0.0841014104403422,1
806,266,31,0.0582066636407426,1
806,267,31,0.0583752908580543,1
806,268,31,0.0476513548752965,1
806,272,31,0.0535514258969855,1
806,273,31,0.0575065399779779,1
806,274,31,0.0599218148253736,1
806,275,31,0.0599793444132554,1
807,268,31,0.0559755435890807,1
790,278,32,0.0508407783954023,1
790,279,32,0.0548540051750419,1
790,280,32,0.057636219003034,1
790,281,32,0.0608162225791261,1
791,278,32,0.0490775055440007,1
791,279,32,0.0566836805162807,1
791,280,32,0.0636544691436539,1
791,281,32,0.0632056541978589,1
791,282,32,0.0645383748921786,1
791,283,32,0.071503518766885,1
791,284,32,0.0798758471817932,1
792,278,32,0.0500135906888488,1
792,279,32,0.0661532370366181,1
792,280,32,0.0839685513576069,1
792,281,32,0.0802511901711523,1
792,282,32,0.0735140967087641,1
792,283,32,0.0758462933007234,1
792,284,32,0.0828446023516412,1
792,285,32,0.094079205101481,1
793,278,32,0.0477423442004982,1
793,279,32,0.0631363662114507,1
793,280,32,0.0828823242078542,1
793,281,32,0.085135632525856,1
793,282,32,0.0822614615290208,1
793,283,32,0.0831984844602544,1
793,284,32,0.09219513213843,1
793,285,32,0.115813817277276,1
793,286,32,0.134671126490167,1
794,279,32,0.0512831009739128,1
794,280,32,0.0620981404994448,1
794,281,32,0.0689899146123855,1
794,282,32,0.0755359942132328,1
794,283,32,0.0833082655818738,1
794,284,32,0.104992676128787,1
794,285,32,0.142116200582024,1
795,280,32,0.0514019473639258,1
795,281,32,0.0567964974207508,1
795,282,32,0.0638484226048262,1
795,283,32,0.0759666425535337,1
795,284,32,0.106522734731299,1
795,285,32,0.144202703152424,1
795,286,32,0.143960573921421,1
795,287,32,0.140694624627675,1
796,280,32,0.0476271437556315,1
796,281,32,0.0516534063671752,1
796,282,32,0.056105006201894,1
796,283,32,0.065928240441504,1
796,284,32,0.0927004907941117,1
796,285,32,0.123565872135568,1
796,286,32,0.131390220705862,1
797,282,32,0.0494433744862854,1
797,283,32,0.0565220446167022,1
797,284,32,0.0699218578673641,1
797,285,32,0.089902316563212,1
798,283,32,0.0550698763872506,1
798,284,32,0.062655522253719,1
798,285,32,0.0760141149835758,1
799,282,32,0.0490230087332439,1
799,283,32,0.0569509015445486,1
799,284,32,0.0635462149306365,1
799,285,32,0.074248263219614,1
800,282,32,0.0521782240903568,1
800,283,32,0.0596018132556635,1
800,284,32,0.0677410536621568,1
800,285,32,0.0826294885822824,1
801,281,32,0.0499294634351798,1
801,282,32,0.0575530385529273,1
801,283,32,0.0667847399840567,1
801,284,32,0.0865278906327548,1
802,281,32,0.0572202325921839,1
802,282,32,0.0705311965942676,1
802,283,32,0.0882272797923674,1
803,280,32,0.0505685558397449,1
803,281,32,0.0699081637815548,1
803,282,32,0.102757546439182,1
804,279,32,0.0524831429290329,1
804,280,32,0.0608507523547576,1
804,281,32,0.0869065639660727,1
805,266,32,0.0620977918352758,1
805,267,32,0.0491079986301586,1
805,277,32,0.056428656722476,1
805,278,32,0.0723118725968623,1
805,279,32,0.0776502155850671,1
805,280,32,0.0790294649115922,1
806,266,32,0.0498304488226405,1
806,267,32,0.0504899440925421,1
806,268,32,0.0479548970916503,1
806,269,32,0.0489468767096567,1
806,272,32,0.0549429746526439,1
806,273,32,0.0563880193124362,1
806,274,32,0.0582592518157468,1
806,275,32,0.0600909229587805,1
807,268,32,0.0640330823624599,1
790,278,33,0.0498562169081635,1
790,279,33,0.0530758660048492,1
790,280,33,0.0557658581601458,1
790,281,33,0.0587100445289831,1
791,278,33,0.0483055991425843,1
791,279,33,0.0549794401155584,1
791,280,33,0.0615046479578764,1
791,281,33,0.0610889140279762,1
791,282,33,0.0622066231476074,1
791,283,33,0.0676468963021784,1
792,278,33,0.0489757887841518,1
792,279,33,0.0627045576610703,1
792,280,33,0.0786840469262536,1
792,281,33,0.0754919182531127,1
792,282,33,0.0701891329986927,1
792,283,33,0.0712452367665356,1
792,284,33,0.0773010224083816,1
793,279,33,0.0594888160076577,1
793,280,33,0.0764312856503101,1
793,281,33,0.0788794731929674,1
793,282,33,0.0779684137194205,1
793,283,33,0.077869459221393,1
793,284,33,0.0832523350400084,1
793,285,33,0.101408480609078,1
794,279,33,0.0494604981049982,1
794,280,33,0.0588786477004901,1
794,281,33,0.0655471084246497,1
794,282,33,0.072706861008708,1
794,283,33,0.079236451198943,1
794,284,33,0.0923962692837736,1
794,285,33,0.116284177264134,1
794,286,33,0.132023923844436,1
795,280,33,0.0509471630470998,1
795,281,33,0.0566381918651311,1
795,282,33,0.0640970141458584,1
795,283,33,0.0760948547844996,1
795,284,33,0.102217958580428,1
795,285,33,0.133224013891165,1
795,286,33,0.133085257574813,1
795,287,33,0.137333550130309,1
796,280,33,0.048264646131357,1
796,281,33,0.052811716828139,1
796,282,33,0.0577317048937252,1
796,283,33,0.0689025982838605,1
796,284,33,0.0985462062741468,1
796,285,33,0.132179848865384,1
796,286,33,0.132105956107365,1
797,282,33,0.0513577451633307,1
797,283,33,0.0597781471533999,1
797,284,33,0.0755196250316443,1
797,285,33,0.0985310093255402,1
798,282,33,0.04947840020664,1
798,283,33,0.0587268164778013,1
798,284,33,0.067558642187268,1
798,285,33,0.0826841867766541,1
799,282,33,0.0508942682880849,1
799,283,33,0.0601080195259629,1
799,284,33,0.0685239249505426,1
799,285,33,0.0803064654648381,1
800,282,33,0.0529757573081934,1
800,283,33,0.0614629044408177,1
800,284,33,0.0722730746908864,1
800,285,33,0.0871611188666847,1
801,281,33,0.0503073612912943,1
801,282,33,0.0574107715490808,1
801,283,33,0.0674067568615185,1
801,284,33,0.0873914656533572,1
802,281,33,0.0551280251546049,1
802,282,33,0.066106558118133,1
802,283,33,0.0841104456514797,1
803,280,33,0.0483493234328099,1
803,281,33,0.0631668082002735,1
803,282,33,0.0889211395229928,1
804,279,33,0.0480662321734022,1
804,280,33,0.0558246261069727,1
804,281,33,0.0804605930618812,1
805,277,33,0.0556487190222706,1
805,278,33,0.0697944692052111,1
805,279,33,0.0701651893886056,1
805,280,33,0.072757026568883,1
806,268,33,0.0486005720352677,1
806,269,33,0.0524018981662092,1
806,270,33,0.0553488678369471,1
806,271,33,0.0571357296228156,1
806,272,33,0.0572961151405468,1
806,273,33,0.0549450305689507,1
806,274,33,0.054064713656786,1
806,275,33,0.0558327836462366,1
806,276,33,0.0616206749772815,1
806,280,33,0.0894755636432818,1
807,268,33,0.073086965067409,1
790,278,34,0.0483272193267867,1
790,279,34,0.0509505655284729,1
790,280,34,0.0529004037675352,1
791,279,34,0.0520779049929094,1
791,280,34,0.0572451079772053,1
791,281,34,0.0583589336993682,1
791,282,34,0.0602268779388783,1
792,279,34,0.0561448741461816,1
792,280,34,0.0673371983598068,1
792,281,34,0.0679593775464507,1
792,282,34,0.0666387939720822,1
792,283,34,0.0678653163696914,1
792,284,34,0.0728396178967731,1
793,279,34,0.0534078123280725,1
793,280,34,0.0654379885626611,1
793,281,34,0.0704966487842826,1
793,282,34,0.0733866178748433,1
793,283,34,0.07423702180589,1
793,284,34,0.0778143823055964,1
793,285,34,0.0919680074895949,1
794,279,34,0.0472059003307164,1
794,280,34,0.05491995680604,1
794,281,34,0.0626480981115002,1
794,282,34,0.071122717379846,1
794,283,34,0.077577434945518,1
794,284,34,0.0861523492655065,1
794,285,34,0.10579418291586,1
794,286,34,0.129020903402808,1
795,280,34,0.0518439994271327,1
795,281,34,0.0591255380008356,1
795,282,34,0.0681681372119024,1
795,283,34,0.0799795867949674,1
795,284,34,0.099604317866687,1
795,285,34,0.12506636642113,1
795,286,34,0.136220024980706,1
796,280,34,0.0526241535395809,1
796,281,34,0.0589076228952226,1
796,282,34,0.0660706096400208,1
796,283,34,0.0789102638459591,1
796,284,34,0.105199686461943,1
796,285,34,0.132969729505857,1
797,280,34,0.0509335711559607,1
797,281,34,0.0566995086672622,1
797,282,34,0.0635610331578182,1
797,283,34,0.0737689882506427,1
797,284,34,0.0899810966310481,1
797,285,34,0.110340475129713,1
798,280,34,0.0491698384285432,1
798,281,34,0.0538320885301127,1
798,282,34,0.0609534579983272,1
798,283,34,0.0712533702599948,1
798,284,34,0.0832009732010468,1
799,280,34,0.0497145570608871,1
799,281,34,0.0530110264923211,1
799,282,34,0.0590517414260355,1
799,283,34,0.0689308761502551,1
799,284,34,0.0811532324679152,1
799,285,34,0.0966696175678265,1
800,280,34,0.048762262037907,1
800,281,34,0.052150956147762,1
800,282,34,0.0578562200822097,1
800,283,34,0.0679529693394829,1
800,284,34,0.0822465952102296,1
800,285,34,0.0989962415445332,1
801,280,34,0.0492124986919082,1
801,281,34,0.0543277326806725,1
801,282,34,0.0610134823384526,1
801,283,34,0.0730703313819682,1
801,284,34,0.0933258079582765,1
802,280,34,0.0492875967458909,1
802,281,34,0.0570005681542748,1
802,282,34,0.0671178825860667,1
802,283,34,0.0866359224220781,1
803,280,34,0.0501187279644245,1
803,281,34,0.0621237432700602,1
803,282,34,0.0829594391037109,1
804,280,34,0.0543423525299649,1
804,281,34,0.0763088083437788,1
805,277,34,0.0541395802698978,1
805,278,34,0.0651515970165504,1
805,279,34,0.063294659744168,1
805,280,34,0.0676767491687846,1
806,269,34,0.0487839333194445,1
806,270,34,0.0541042629941605,1
806,271,34,0.0570334808495364,1
806,272,34,0.0564163873505986,1
806,273,34,0.0533440909454657,1
806,274,34,0.0504918617454715,1
806,276,34,0.0546575148814676,1
806,277,34,0.0663427360124592,1
806,278,34,0.0807049164725689,1
806,279,34,0.0776839398262392,1
806,280,34,0.0801032122886759,1
807,269,34,0.0815114187755799,1
807,272,34,0.0803026542047841,1
807,280,34,0.0855780212303296,1
791,279,35,0.0492764905898186,1
791,280,35,0.0534743530812871,1
792,279,35,0.0499282972136491,1
792,280,35,0.056795361256476,1
792,281,35,0.0598977810435187,1
792,282,35,0.0618478056375678,1
793,279,35,0.0484153141382407,1
793,280,35,0.0559725799436443,1
793,281,35,0.0612632461124667,1
793,282,35,0.0658006954816202,1
793,283,35,0.0686771207726513,1
793,284,35,0.0722268346083381,1
794,280,35,0.0523942035086869,1
794,281,35,0.059288977335771,1
794,282,35,0.0675450382732265,1
794,283,35,0.0744241041783529,1
794,284,35,0.0802764502890498,1
794,285,35,0.0970850990167767,1
795,280,35,0.0513578954496104,1
795,281,35,0.0587670090404531,1
795,282,35,0.0700731600823482,1
795,283,35,0.082079116180095,1
795,284,35,0.0939088525976779,1
795,285,35,0.113723791996479,1
795,286,35,0.13889934079869,1
796,279,35,0.0488020277875243,1
796,280,35,0.0534108420994719,1
796,281,35,0.0605597860942919,1
796,282,35,0.0723528466481687,1
796,283,35,0.0882307063195453,1
796,284,35,0.106391552843445,1
796,285,35,0.123144180857539,1
797,279,35,0.0492103165351265,1
797,280,35,0.0545054912923408,1
797,281,35,0.0612478628088732,1
797,282,35,0.0722309825096587,1
797,283,35,0.0890757239903263,1
797,284,35,0.109658824656453,1
797,285,35,0.122826319364452,1
798,279,35,0.0484253021643917,1
798,280,35,0.0535773292401603,1
798,281,35,0.0586381896529171,1
798,282,35,0.0677345312376164,1
798,283,35,0.0843862390091436,1
798,284,35,0.109330130528323,1
799,279,35,0.0486522073952584,1
799,280,35,0.0530575250672705,1
799,281,35,0.0561805280631855,1
799,282,35,0.0626620747355154,1
799,283,35,0.0753933244421566,1
799,284,35,0.0977265148472264,1
799,285,35,0.122918799529549,1
800,279,35,0.049724397806484,1
800,280,35,0.0546391018064747,1
800,281,35,0.0570939019454403,1
800,282,35,0.0618436998164055,1
800,283,35,0.0727426531890893,1
800,284,35,0.0929310299472223,1
801,279,35,0.0505353305490215,1
801,280,35,0.0571786994759169,1
801,281,35,0.0604290791110824,1
801,282,35,0.0654418178570687,1
801,283,35,0.0785951916662242,1
801,284,35,0.102790320871066,1
802,279,35,0.048230446985541,1
802,280,35,0.054519816580525,1
802,281,35,0.0593665911820764,1
802,282,35,0.0692089478479197,1
802,283,35,0.0901140819542583,1
803,280,35,0.0526904718691016,1
803,281,35,0.0616002059859819,1
803,282,35,0.0801930353923467,1
804,278,35,0.0482018955981173,1
804,279,35,0.0491688645734505,1
804,280,35,0.0555740688214016,1
804,281,35,0.0728963960532563,1
805,277,35,0.051579291185462,1
805,278,35,0.0604861818859298,1
805,279,35,0.0596346357791572,1
805,280,35,0.0652241913011127,1
806,270,35,0.05260170678084,1
806,271,35,0.0568304621199705,1
806,272,35,0.0582867782507427,1
806,273,35,0.0564196936487527,1
806,277,35,0.0588742172609635,1
806,278,35,0.0696936571687662,1
806,279,35,0.0689343808262985,1
806,280,35,0.0741060382959258,1
807,270,35,0.0761521859944922,1
807,271,35,0.0788881356941312,1
807,272,35,0.081635603334249,1
807,278,35,0.0688789011432722,1
793,282,36,0.0596228533348261,1
794,281,36,0.0582832375059922,1
794,282,36,0.0649203665465531,1
794,283,36,0.0705873315254735,1
794,284,36,0.0759679951300513,1
795,281,36,0.0620347858153605,1
795,282,36,0.0732285106971129,1
795,283,36,0.0828241393717928,1
795,284,36,0.0888311480986886,1
795,285,36,0.10292489321739,1
796,280,36,0.0592657791456314,1
796,281,36,0.0666525181151475,1
796,282,36,0.0804373648144857,1
796,283,36,0.0968245026077194,1
796,284,36,0.108860972831703,1
796,285,36,0.114539389625139,1
797,279,36,0.0568543215697409,1
797,280,36,0.0648011173893104,1
797,281,36,0.0732176660391674,1
797,282,36,0.085619662552718,1
797,283,36,0.106804371219519,1
797,284,36,0.135045243143483,1
797,285,36,0.137668772694431,1
798,279,36,0.0561848142278834,1
798,280,36,0.0640057242480973,1
798,281,36,0.0708381112347386,1
798,282,36,0.0801149165841415,1
798,283,36,0.102263080533055,1
798,284,36,0.144841107245828,1
799,280,36,0.0609413208783759,1
799,281,36,0.0643702526367668,1
799,282,36,0.0708886074247289,1
799,283,36,0.0856273091186308,1
799,284,36,0.118414960183995,1
800,281,36,0.065614526849738,1
800,282,36,0.0696909159470238,1
800,283,36,0.0832607150029663,1
800,284,36,0.110681204183124,1
801,281,36,0.0691770931680675,1
801,282,36,0.0735855307832469,1
801,283,36,0.0934464397492927,1
802,281,36,0.0638859641175036,1
802,282,36,0.0756433887887301,1
802,283,36,0.103761146192337,1
803,281,36,0.064709118140309,1
803,282,36,0.0829556278436569,1
804,280,36,0.0597418800683747,1
804,281,36,0.0748472321932159,1
805,278,36,0.0563253799910434,1
805,279,36,0.0567882256639143,1
805,280,36,0.0638125462641284,1
806,270,36,0.0478868294298336,1
806,271,36,0.0536390908896794,1
806,272,36,0.0577602532754233,1
806,273,36,0.0571520507127946,1
806,277,36,0.0500780935601103,1
806,278,36,0.0572397277283909,1
807,272,36,0.076940106901877,1
