x,y,z,signal,mito.p
302,482,26,0.166967611936107,1
302,483,26,0.177495189877216,1
302,484,26,0.152141750211411,1
302,485,26,0.138357997596189,1
302,486,26,0.125237897169366,1
302,487,26,0.119131945967345,1
303,480,26,0.145505047983884,1
303,481,26,0.156019388709475,1
303,482,26,0.176341700600106,1
303,483,26,0.181644473831624,1
303,484,26,0.149516501385423,1
303,485,26,0.161895041216433,1
303,486,26,0.149723884428552,1
303,487,26,0.138112802525079,1
303,488,26,0.159566433460834,1
303,489,26,0.139699753501646,1
304,480,26,0.128937151864839,1
304,481,26,0.129286994278253,1
304,482,26,0.135446796060028,1
304,483,26,0.145434329272093,1
304,484,26,0.133902562455611,1
304,485,26,0.165613809082466,1
304,486,26,0.142139428829419,1
305,479,26,0.11559649129388,1
305,480,26,0.0926657686520422,1
305,481,26,0.0874864225363438,1
305,482,26,0.109074427440534,1
305,483,26,0.140548991211162,1
305,484,26,0.110335569785542,1
306,477,26,0.152199929036021,1
306,478,26,0.129755971631337,1
307,475,26,0.093704246844998,1
307,476,26,0.10663009924954,1
307,477,26,0.118830808331467,1
308,474,26,0.110647155323587,1
308,475,26,0.0875534742629095,1
309,474,26,0.114493402023541,1
301,482,27,0.132759593218083,1
301,483,27,0.134743901118265,1
301,484,27,0.127896377297529,1
301,485,27,0.122690244155331,1
301,486,27,0.117860584155315,1
301,487,27,0.105013824414071,1
302,480,27,0.145462715344609,1
302,481,27,0.137299946118161,1
302,482,27,0.154327105085168,1
302,483,27,0.16808336132265,1
302,484,27,0.145183796032327,1
302,485,27,0.142383662068339,1
302,486,27,0.132008053613296,1
302,487,27,0.119610625802649,1
302,488,27,0.126969147020282,1
302,489,27,0.115761493606124,1
302,490,27,0.0955474118827057,1
303,480,27,0.134928657059117,1
303,481,27,0.141801152448094,1
303,482,27,0.173691937076169,1
303,483,27,0.190214290441004,1
303,484,27,0.184275084872072,1
303,485,27,0.230236440474514,1
303,486,27,0.210011922871831,1
303,487,27,0.160883710737048,1
303,488,27,0.16009339727209,1
303,489,27,0.13319411293295,1
303,490,27,0.084722633806247,1
303,491,27,0.0625475145102004,1
303,492,27,0.0640409333177132,1
304,479,27,0.149162246566836,1
304,480,27,0.129147203992296,1
304,481,27,0.136766129252549,1
304,482,27,0.166385402888421,1
304,483,27,0.192780615022434,1
304,484,27,0.183742386136382,1
304,485,27,0.224177402637575,1
304,486,27,0.186632186906309,1
304,487,27,0.11426685447402,1
304,488,27,0.0937135405485367,1
304,489,27,0.080403400115266,1
304,490,27,0.058560269222601,1
304,491,27,0.0483213250988956,1
304,492,27,0.0500314717504115,1
304,493,27,0.0553962621181238,1
305,478,27,0.145354821818663,1
305,479,27,0.110726109723508,1
305,480,27,0.100376128084884,1
305,481,27,0.110144585981257,1
305,482,27,0.155461982909396,1
305,483,27,0.188437341538147,1
305,484,27,0.131384557918841,1
305,485,27,0.111790461202383,1
305,486,27,0.0848378973713511,1
305,487,27,0.0528251704559008,1
306,475,27,0.112405252315515,1
306,476,27,0.123338194433223,1
306,477,27,0.131472108693963,1
306,478,27,0.118331557310194,1
306,479,27,0.0853906683425631,1
306,480,27,0.0688247139222516,1
306,481,27,0.0737413175408182,1
306,482,27,0.101400040531609,1
306,483,27,0.113420502261075,1
306,484,27,0.0639955288268802,1
307,474,27,0.107631631063486,1
307,475,27,0.0882599760753861,1
307,476,27,0.099010903473984,1
307,477,27,0.105196163751546,1
307,478,27,0.087350846277671,1
307,479,27,0.0615600194347812,1
307,480,27,0.049938168016502,1
307,481,27,0.0499932238922194,1
307,482,27,0.0516010766845721,1
308,474,27,0.0990737051045589,1
308,475,27,0.0810550294012864,1
308,476,27,0.08184430889664,1
308,477,27,0.0771473817388849,1
308,478,27,0.0596349724204238,1
309,475,27,0.07487085719639,1
309,476,27,0.0653475222337129,1
309,477,27,0.0568374594491549,1
310,476,27,0.0529914171385415,1
300,482,28,0.100150722711089,1
300,483,28,0.0961010304685354,1
300,484,28,0.103225189250102,1
300,485,28,0.120564715243809,1
300,486,28,0.1234977984623,1
300,487,28,0.103941345453188,1
301,480,28,0.144595864083108,1
301,481,28,0.127744840635948,1
301,482,28,0.121073344128938,1
301,483,28,0.118578159060882,1
301,484,28,0.106588620236334,1
301,485,28,0.0992583588507413,1
301,486,28,0.0944730693719544,1
301,487,28,0.090463533623345,1
301,488,28,0.0947778379243507,1
301,489,28,0.102184631095034,1
301,490,28,0.119214194642518,1
302,480,28,0.126943983085604,1
302,481,28,0.120327214830221,1
302,482,28,0.135847110617627,1
302,483,28,0.142730282343916,1
302,484,28,0.136269715636237,1
302,485,28,0.148385410775445,1
302,486,28,0.145672070143729,1
302,487,28,0.124092775832312,1
302,488,28,0.118704159077811,1
302,489,28,0.107298536553086,1
302,490,28,0.0930454278633552,1
302,491,28,0.0870280493831578,1
302,492,28,0.0968888972728595,1
303,480,28,0.119780569527771,1
303,481,28,0.126603254032193,1
303,482,28,0.156874734053399,1
303,483,28,0.182989632218454,1
303,484,28,0.215162870892111,1
303,485,28,0.274528043371707,1
303,486,28,0.258890455392916,1
303,487,28,0.179479798349958,1
303,488,28,0.142958332756234,1
303,489,28,0.114341083873306,1
303,490,28,0.0801609943575076,1
303,491,28,0.06444189110059,1
303,492,28,0.071722798471918,1
303,493,28,0.0960627856160689,1
304,479,28,0.127322488098288,1
304,480,28,0.119296034539009,1
304,481,28,0.146883257329354,1
304,482,28,0.197796978673487,1
304,483,28,0.236143653100216,1
304,484,28,0.243913093075347,1
304,485,28,0.260901141540917,1
304,486,28,0.213021591978473,1
304,487,28,0.125417904063779,1
304,488,28,0.08788793337273,1
304,489,28,0.0729561318437246,1
304,490,28,0.0569693266424439,1
304,491,28,0.0493127216061366,1
304,492,28,0.0534839473573853,1
304,493,28,0.0651698537938124,1
304,494,28,0.069672027967387,1
305,479,28,0.100417540972128,1
305,480,28,0.107569941551381,1
305,481,28,0.147766856493868,1
305,482,28,0.201580574029146,1
305,483,28,0.207771527150984,1
305,484,28,0.145255296232773,1
305,485,28,0.112916285781119,1
305,486,28,0.0851926571518379,1
305,487,28,0.054088464900435,1
305,493,28,0.04845556982113,1
305,494,28,0.0503396127269251,1
306,478,28,0.0978013694374359,1
306,479,28,0.0796080069740528,1
306,480,28,0.0773793516173785,1
306,481,28,0.0934321986214252,1
306,482,28,0.11101544086925,1
306,483,28,0.100527009498285,1
306,484,28,0.0546525193655293,1
307,475,28,0.0807152261113586,1
307,476,28,0.087504336660888,1
307,477,28,0.0893082168650734,1
307,478,28,0.0759610519039276,1
307,479,28,0.0596878491450851,1
307,480,28,0.0523922137183432,1
307,481,28,0.0505499984899235,1
308,476,28,0.0714204164656437,1
308,477,28,0.0672389291672149,1
308,478,28,0.0542096798022165,1
309,477,28,0.0500699300093952,1
300,482,29,0.089812361207615,1
300,483,29,0.087205964292557,1
300,484,29,0.0908455613464266,1
300,485,29,0.0980812325475549,1
300,486,29,0.0979507299536859,1
300,487,29,0.0917583701522696,1
300,488,29,0.0975078723560195,1
301,480,29,0.121992110282909,1
301,481,29,0.111956774010986,1
301,482,29,0.110247321682083,1
301,483,29,0.105203762225849,1
301,484,29,0.0984875645677949,1
301,485,29,0.0955789539670961,1
301,486,29,0.0958567731838108,1
301,487,29,0.0929737473193737,1
301,488,29,0.0940363554774035,1
301,489,29,0.0977455050215335,1
301,490,29,0.113204474751136,1
302,480,29,0.111940963894359,1
302,481,29,0.109422803059858,1
302,482,29,0.12115160120052,1
302,483,29,0.124341181018357,1
302,484,29,0.134210541122943,1
302,485,29,0.154925424822042,1
302,486,29,0.170448723090821,1
302,487,29,0.139167138926272,1
302,488,29,0.110385440784609,1
302,489,29,0.0937358430324491,1
302,490,29,0.0863519715251504,1
302,491,29,0.0887148625868823,1
302,492,29,0.109758734975219,1
302,493,29,0.156108803034465,1
303,479,29,0.131387263071877,1
303,480,29,0.103777581499889,1
303,481,29,0.116263473826238,1
303,482,29,0.146989647992502,1
303,483,29,0.176249845625933,1
303,484,29,0.228567517349529,1
303,485,29,0.27172928001859,1
303,486,29,0.276868541777758,1
303,487,29,0.188110438822471,1
303,488,29,0.118928410252977,1
303,489,29,0.0886746339555233,1
303,490,29,0.0713249486093061,1
303,491,29,0.0661941088932543,1
303,492,29,0.0852208688922694,1
303,493,29,0.131173808463046,1
303,494,29,0.144276812322686,1
304,480,29,0.107635574575467,1
304,481,29,0.159573599110651,1
304,482,29,0.21840321140379,1
304,483,29,0.245894924257639,1
304,484,29,0.269900981299674,1
304,485,29,0.24779956840666,1
304,486,29,0.203816449138699,1
304,487,29,0.123367674589856,1
304,488,29,0.0771302370800929,1
304,489,29,0.061974250501884,1
304,490,29,0.0537996447280439,1
304,491,29,0.0514739645491739,1
304,492,29,0.0609218978795832,1
304,493,29,0.0828173283975953,1
304,494,29,0.0915169743183111,1
304,495,29,0.071933349549824,1
305,480,29,0.114364215937482,1
305,481,29,0.186994581229806,1
305,482,29,0.228243788680082,1
305,483,29,0.190845709228126,1
305,484,29,0.143088733155433,1
305,485,29,0.103224083143083,1
305,486,29,0.0779859791797957,1
305,487,29,0.0524646456937234,1
305,493,29,0.0569734805552157,1
305,494,29,0.0628505337303007,1
305,495,29,0.0568346220441935,1
306,480,29,0.0847544764631968,1
306,481,29,0.11113265214454,1
306,482,29,0.114746664462147,1
306,483,29,0.0826668737972288,1
306,484,29,0.0480342783046053,1
306,494,29,0.0482115620116297,1
307,481,29,0.0515643527292566,1
300,485,30,0.0805267130135126,1
300,486,30,0.0829011099928209,1
300,487,30,0.0854139987846288,1
300,490,30,0.125895790387526,1
301,481,30,0.0904579309508365,1
301,482,30,0.0893748417786047,1
301,483,30,0.0866803891265256,1
301,484,30,0.0886313995985697,1
301,485,30,0.0962356689408227,1
301,486,30,0.106120785058976,1
301,487,30,0.101663847055601,1
301,488,30,0.0929111260323345,1
301,489,30,0.0901831354940701,1
301,490,30,0.100135525762483,1
301,491,30,0.120705010491666,1
301,492,30,0.132233567193212,1
302,480,30,0.0943878390169921,1
302,481,30,0.0943659332888582,1
302,482,30,0.104246474692656,1
302,483,30,0.111591746671868,1
302,484,30,0.131254217634154,1
302,485,30,0.159762238448972,1
302,486,30,0.193480384009578,1
302,487,30,0.155238417039665,1
302,488,30,0.103019789985865,1
302,489,30,0.0785265769623493,1
302,490,30,0.0748355278977503,1
302,491,30,0.0855805580627315,1
302,492,30,0.117935306493598,1
302,493,30,0.181892157643527,1
302,494,30,0.204811680951798,1
303,480,30,0.0889641634791548,1
303,481,30,0.105775102569785,1
303,482,30,0.138385986912926,1
303,483,30,0.165355725460006,1
303,484,30,0.21340288630451,1
303,485,30,0.237269309358319,1
303,486,30,0.260204221981636,1
303,487,30,0.181192184267042,1
303,488,30,0.0990600470874567,1
303,489,30,0.0673920949320677,1
303,490,30,0.0601046591247481,1
303,491,30,0.0656960962309259,1
303,492,30,0.100702417632539,1
303,493,30,0.170512312221501,1
303,494,30,0.187375334525236,1
303,495,30,0.12126810312457,1
304,481,30,0.157599883387465,1
304,482,30,0.204921762645977,1
304,483,30,0.212475559844045,1
304,484,30,0.239537453937856,1
304,485,30,0.202491525296571,1
304,486,30,0.170578774825851,1
304,487,30,0.110040756196315,1
304,488,30,0.06646303717366,1
304,489,30,0.0509789395780865,1
304,490,30,0.0481969090993557,1
304,491,30,0.0520996664462147,1
304,492,30,0.070419281407476,1
304,493,30,0.10539886988565,1
304,494,30,0.116209611223581,1
304,495,30,0.0854867253211173,1
304,496,30,0.0572178881262201,1
305,481,30,0.190636871413809,1
305,482,30,0.204667694672912,1
305,483,30,0.147393509306304,1
305,484,30,0.120480831453913,1
305,485,30,0.0866844167988224,1
305,486,30,0.0660458063924137,1
305,487,30,0.0482966300574098,1
305,492,30,0.051003436241683,1
305,493,30,0.0664741162782019,1
305,494,30,0.077614110809224,1
305,495,30,0.0727037049968337,1
305,496,30,0.0528581432656742,1
306,481,30,0.108069060320729,1
306,482,30,0.0981474246366006,1
306,483,30,0.0626962798927826,1
306,494,30,0.0559756758410068,1
306,495,30,0.0580417515002659,1
300,485,31,0.0730461533252847,1
300,486,31,0.0798001569998684,1
300,487,31,0.0872845219366991,1
300,488,31,0.0969570851637,1
300,489,31,0.105225980549445,1
300,491,31,0.146488677696189,1
300,495,31,0.20263779592691,1
301,482,31,0.0748340911609161,1
301,483,31,0.075765409224971,1
301,484,31,0.0833518305686429,1
301,485,31,0.0989080054639763,1
301,486,31,0.116976131364732,1
301,487,31,0.112900295320956,1
301,488,31,0.097679000337026,1
301,489,31,0.088440133256079,1
301,490,31,0.0915875968468832,1
301,491,31,0.110810811070765,1
301,492,31,0.12902374080777,1
301,493,31,0.157392644619164,1
301,494,31,0.202314500081948,1
301,495,31,0.22687123009873,1
302,480,31,0.0835424837431123,1
302,481,31,0.0852093749975954,1
302,482,31,0.0964977622012261,1
302,483,31,0.10884392435613,1
302,484,31,0.126019109297224,1
302,485,31,0.158825449964335,1
302,486,31,0.197291295399441,1
302,487,31,0.162121252124687,1
302,488,31,0.10171322511567,1
302,489,31,0.0711969407676806,1
302,490,31,0.0673989720322283,1
302,491,31,0.0837067706926654,1
302,492,31,0.123439667729299,1
302,493,31,0.193660943957501,1
302,494,31,0.225913750199099,1
303,481,31,0.104098256352132,1
303,482,31,0.137062794368742,1
303,483,31,0.157746827300337,1
303,484,31,0.180886598157283,1
303,485,31,0.199816970547929,1
303,486,31,0.219401136347023,1
303,487,31,0.15898428452766,1
303,488,31,0.0879850183094376,1
303,489,31,0.0580922176330002,1
303,490,31,0.0539310009479818,1
303,491,31,0.0671364699931441,1
303,492,31,0.114141744151868,1
303,493,31,0.19608366699292,1
303,494,31,0.2075138282614,1
303,495,31,0.134492790779184,1
304,482,31,0.178489556041345,1
304,483,31,0.170188150727568,1
304,484,31,0.173323663553408,1
304,485,31,0.150126254902459,1
304,486,31,0.128558262119278,1
304,487,31,0.0908095407309001,1
304,488,31,0.0596455405516146,1
304,491,31,0.0542435543296684,1
304,492,31,0.0824289886507649,1
304,493,31,0.131900833369883,1
304,494,31,0.141055095286791,1
304,495,31,0.100403329901516,1
304,496,31,0.0637208175304304,1
305,482,31,0.158183943962118,1
305,483,31,0.109886923160381,1
305,484,31,0.0902755735790084,1
305,485,31,0.0703456531533091,1
305,486,31,0.054625870602407,1
305,492,31,0.0565433612226195,1
305,493,31,0.0803534148986267,1
305,494,31,0.0986378989391376,1
305,495,31,0.0938206105056698,1
305,496,31,0.0641772970764918,1
306,482,31,0.076962367305631,1
306,483,31,0.0513464015549364,1
306,493,31,0.0506416911549142,1
306,494,31,0.066170315569447,1
306,495,31,0.0751579701166433,1
306,496,31,0.0605263383798745,1
307,495,31,0.0518498846378471,1
307,496,31,0.0508342740052154,1
299,489,32,0.116241375731666,1
299,495,32,0.164975032279088,1
300,484,32,0.05216292494708,1
300,485,32,0.0601718972063007,1
300,486,32,0.0701322887162464,1
300,487,32,0.0823568392135906,1
300,488,32,0.0958447202241762,1
300,489,32,0.10864427203923,1
300,490,32,0.123017675878711,1
300,491,32,0.139935871281461,1
300,492,32,0.139656386892766,1
300,494,32,0.195024160743704,1
300,495,32,0.243357394527406,1
300,496,32,0.203105703241682,1
301,479,32,0.0930889267241612,1
301,481,32,0.0603185645924178,1
301,482,32,0.0583246624161379,1
301,483,32,0.0608663761163986,1
301,484,32,0.0704108653758109,1
301,485,32,0.089558918425473,1
301,486,32,0.109746531729305,1
301,487,32,0.110795854580206,1
301,488,32,0.0978403356640451,1
301,489,32,0.0881804686219561,1
301,490,32,0.0886615470262842,1
301,491,32,0.103461415236037,1
301,492,32,0.126160522675002,1
301,493,32,0.168902108951734,1
301,494,32,0.235223059465083,1
301,495,32,0.270424987476945,1
301,496,32,0.225771759722007,1
302,480,32,0.0713432715125311,1
302,481,32,0.0719708008907336,1
302,482,32,0.0832341804574166,1
302,483,32,0.0965567465602957,1
302,484,32,0.111631903165813,1
302,485,32,0.142470623721244,1
302,486,32,0.169460969523,1
302,487,32,0.144587255685005,1
302,488,32,0.0951163667866264,1
302,489,32,0.0666394492202619,1
302,490,32,0.0627999413570914,1
302,491,32,0.0825052679549062,1
302,492,32,0.125850283702023,1
302,493,32,0.192112105581474,1
302,494,32,0.23023439658111,1
302,495,32,0.212672470939202,1
303,481,32,0.0962431952777117,1
303,482,32,0.125480050446175,1
303,483,32,0.139854620507186,1
303,484,32,0.146893536910887,1
303,485,32,0.162853927795642,1
303,486,32,0.166694211136016,1
303,487,32,0.124896518879227,1
303,488,32,0.0761922402937666,1
303,489,32,0.0523595054124221,1
303,490,32,0.0498062106514451,1
303,491,32,0.0693898744943648,1
303,492,32,0.123607291034262,1
303,493,32,0.201039495330497,1
303,494,32,0.203644738046927,1
303,495,32,0.140580022322201,1
304,481,32,0.123690116808749,1
304,482,32,0.143712601559861,1
304,483,32,0.131274199697908,1
304,484,32,0.118946059873669,1
304,485,32,0.109096693855739,1
304,486,32,0.0940043384883691,1
304,487,32,0.0712023089935927,1
304,488,32,0.0522079146477809,1
304,491,32,0.055829369141961,1
304,492,32,0.0953726710195344,1
304,493,32,0.158923725168378,1
304,494,32,0.165435533485995,1
304,495,32,0.111334420492258,1
304,496,32,0.0667139070546929,1
305,482,32,0.109830499679518,1
305,483,32,0.0797654168234453,1
305,484,32,0.0643760596986157,1
305,485,32,0.0540738089824354,1
305,492,32,0.0615883093240782,1
305,493,32,0.0988510589868598,1
305,494,32,0.128160821035347,1
305,495,32,0.115468483452254,1
305,496,32,0.0734529301929128,1
306,482,32,0.0570476378170872,1
306,493,32,0.0558911007342242,1
306,494,32,0.0834660240954353,1
306,495,32,0.0991399693310188,1
306,496,32,0.0758668825210468,1
307,494,32,0.0496846711312993,1
307,495,32,0.0636707060733162,1
307,496,32,0.061563091286339,1
299,489,33,0.111777945361006,1
299,490,33,0.142875302592407,1
299,494,33,0.156212933391967,1
299,495,33,0.185015226765405,1
299,496,33,0.158918447114234,1
300,485,33,0.0543913278228043,1
300,486,33,0.0660374504752605,1
300,487,33,0.0787429831937138,1
300,488,33,0.0932640523202086,1
300,489,33,0.110618432609805,1
300,490,33,0.128524946656787,1
300,491,33,0.128765681231114,1
300,492,33,0.127433399372732,1
300,493,33,0.152891366151817,1
300,494,33,0.218037691125675,1
300,495,33,0.26232501386962,1
300,496,33,0.217944032716145,1
300,497,33,0.142602707326776,1
301,480,33,0.0563212200668204,1
301,481,33,0.0511894786330903,1
301,482,33,0.0502935680165404,1
301,483,33,0.0536969811646326,1
301,484,33,0.064090840385487,1
301,485,33,0.0818581713030826,1
301,486,33,0.0984453401346411,1
301,487,33,0.101447374698273,1
301,488,33,0.0939427271251298,1
301,489,33,0.0870258792492784,1
301,490,33,0.0880388388319356,1
301,491,33,0.0965289556214475,1
301,492,33,0.124857516583911,1
301,493,33,0.180182044054992,1
301,494,33,0.260767783507733,1
301,495,33,0.294441191848588,1
301,496,33,0.237441260908139,1
301,497,33,0.143905773532379,1
302,481,33,0.0651449002599255,1
302,482,33,0.0745042187883531,1
302,483,33,0.0868577269366106,1
302,484,33,0.10202948756274,1
302,485,33,0.12265359834888,1
302,486,33,0.132293513384472,1
302,487,33,0.114876535853641,1
302,488,33,0.0846191827427299,1
302,489,33,0.0638283684036587,1
302,490,33,0.0616894219330826,1
302,491,33,0.0820401078733275,1
302,492,33,0.127393591542956,1
302,493,33,0.183927562878818,1
302,494,33,0.228616522699624,1
302,495,33,0.229218437284309,1
302,496,33,0.175753383918012,1
303,481,33,0.0868413757893757,1
303,482,33,0.108321096423292,1
303,483,33,0.121230832127196,1
303,484,33,0.125048428250781,1
303,485,33,0.128626215563522,1
303,486,33,0.117328486564743,1
303,487,33,0.0904428662541561,1
303,488,33,0.064736362037099,1
303,489,33,0.0496581155456705,1
303,490,33,0.0496966970394036,1
303,491,33,0.0727107444061764,1
303,492,33,0.128464892259405,1
303,493,33,0.188610519424009,1
303,494,33,0.184255607770219,1
303,495,33,0.140052914236117,1
304,482,33,0.108766629116738,1
304,483,33,0.101632431211685,1
304,484,33,0.0888460264403822,1
304,485,33,0.0806614777262749,1
304,486,33,0.0693288883220491,1
304,487,33,0.0563332610035526,1
304,491,33,0.0603153785232875,1
304,492,33,0.112004673254063,1
304,493,33,0.182715534090026,1
304,494,33,0.179045531116041,1
304,495,33,0.113210365973301,1
304,496,33,0.0691828821955628,1
305,482,33,0.0735171625488707,1
305,483,33,0.0593298251466025,1
305,484,33,0.0492698118675472,1
305,492,33,0.0724144339656033,1
305,493,33,0.123700865283475,1
305,494,33,0.154818937975674,1
305,495,33,0.12537721856213,1
305,496,33,0.0756143234222297,1
305,497,33,0.0480285914717802,1
306,493,33,0.0656984587312433,1
306,494,33,0.102960180435872,1
306,495,33,0.117556837549621,1
306,496,33,0.0835504669502917,1
306,497,33,0.0475008461718694,1
307,494,33,0.0577771815219725,1
307,495,33,0.076998658436461,1
307,496,33,0.070036448149935,1
307,497,33,0.0477318001151121,1
308,496,33,0.0489217037578014,1
310,502,33,0.052304729069185,1
311,502,33,0.0472829220490796,1
311,503,33,0.0783891912568684,1
299,489,34,0.103361432779857,1
299,490,34,0.134287764224921,1
299,494,34,0.160898078105391,1
299,495,34,0.183119203037389,1
299,496,34,0.152024033974221,1
300,485,34,0.0508162817318058,1
300,486,34,0.0630582534146966,1
300,487,34,0.0747794410581539,1
300,488,34,0.0876794622569354,1
300,489,34,0.105178983024047,1
300,490,34,0.123823042017447,1
300,491,34,0.114808462180374,1
300,492,34,0.115252696400362,1
300,493,34,0.147686820032733,1
300,494,34,0.211753320052354,1
300,495,34,0.24735568285084,1
300,496,34,0.2057225119902,1
300,497,34,0.135707536743913,1
301,480,34,0.047513707671689,1
301,483,34,0.0498195109872015,1
301,484,34,0.0617573693658756,1
301,485,34,0.0770301223719859,1
301,486,34,0.088877995337807,1
301,487,34,0.0913047280111696,1
301,488,34,0.0869233900179516,1
301,489,34,0.082728984110917,1
301,490,34,0.085115692542261,1
301,491,34,0.0895892702425279,1
301,492,34,0.117491288685853,1
301,493,34,0.174207358901141,1
301,494,34,0.252336025886367,1
301,495,34,0.285735047549136,1
301,496,34,0.2212848366001,1
301,497,34,0.130732904587016,1
302,483,34,0.0780396854847211,1
302,484,34,0.0943898889218477,1
302,485,34,0.1043417201253,1
302,486,34,0.101241602724063,1
302,487,34,0.0883167061402598,1
302,488,34,0.0719335479277133,1
302,489,34,0.0590542421897302,1
302,490,34,0.0591558297033786,1
302,491,34,0.0777948390777799,1
302,492,34,0.11820936855332,1
302,493,34,0.166734067057401,1
302,494,34,0.211962879240814,1
302,495,34,0.223250845642862,1
302,496,34,0.162312308066386,1
303,483,34,0.0981105023033957,1
303,484,34,0.102960228527481,1
303,485,34,0.096924286686011,1
303,486,34,0.0810352757726783,1
303,487,34,0.0656799494730314,1
303,488,34,0.0536443388865677,1
303,490,34,0.0477650374287379,1
303,491,34,0.0703213007645412,1
303,492,34,0.118475459428764,1
303,493,34,0.16323092994553,1
303,494,34,0.158687138495371,1
303,495,34,0.13328448909013,1
304,483,34,0.0774437162252626,1
304,484,34,0.0699362673158649,1
304,485,34,0.0605836214982575,1
304,486,34,0.0516869262190069,1
304,491,34,0.0616939906359865,1
304,492,34,0.116491476146946,1
304,493,34,0.18001710185726,1
304,494,34,0.166296697914671,1
304,495,34,0.106419373839549,1
304,496,34,0.0718699227283255,1
305,491,34,0.047255897570258,1
305,492,34,0.0805469114895087,1
305,493,34,0.136951582521739,1
305,494,34,0.160076781621003,1
305,495,34,0.121954839285536,1
305,496,34,0.0749632291553651,1
305,497,34,0.0519802910484971,1
306,493,34,0.0747819117645927,1
306,494,34,0.116033295360198,1
306,495,34,0.12754524843356,1
306,496,34,0.0874313155632913,1
306,497,34,0.0509731565620424,1
307,494,34,0.0669315215877464,1
307,495,34,0.0935958603800545,1
307,496,34,0.0804826069961365,1
307,497,34,0.0519061999125887,1
308,495,34,0.0516505990194698,1
308,496,34,0.055469998578412,1
309,502,34,0.0477903486439705,1
310,502,34,0.0579409334523697,1
310,503,34,0.107658394044181,1
311,502,34,0.0516371994947688,1
311,503,34,0.0897783484167857,1
311,504,34,0.155628379878317,1
312,503,34,0.0521457442195809,1
312,504,34,0.0744519732660666,1
299,495,35,0.179138143533064,1
300,485,35,0.0503204482205335,1
300,486,35,0.0625133574445427,1
300,487,35,0.0721730802118031,1
300,488,35,0.0806643271541386,1
300,489,35,0.0912984580675791,1
300,490,35,0.10209817440403,1
300,494,35,0.189319293565035,1
300,495,35,0.216771799734227,1
300,496,35,0.177937344135094,1
301,483,35,0.0506097943949037,1
301,484,35,0.0630198702988528,1
301,485,35,0.0753219685165393,1
301,486,35,0.0828099703813395,1
301,487,35,0.0811520361891285,1
301,488,35,0.0756912399401971,1
301,489,35,0.0726078043160104,1
301,490,35,0.0751314055138377,1
301,491,35,0.08026578597464,1
301,492,35,0.106585362029789,1
301,493,35,0.155807773604709,1
301,494,35,0.215907256869983,1
301,495,35,0.248920968557321,1
301,496,35,0.188091093972544,1
302,484,35,0.0874254784441864,1
302,485,35,0.0900627501725527,1
302,486,35,0.0816619154561047,1
302,487,35,0.0700787387090519,1
302,488,35,0.0597203350273122,1
302,489,35,0.053264944179107,1
302,490,35,0.0552751494110124,1
302,491,35,0.0709612678352543,1
302,492,35,0.105840555250334,1
302,493,35,0.148002625609513,1
302,494,35,0.183364626543644,1
302,495,35,0.195974378810298,1
303,484,35,0.0802262666945213,1
303,485,35,0.0721976129441068,1
303,486,35,0.0595171119084059,1
303,487,35,0.0509689184889539,1
303,491,35,0.0646430042001288,1
303,492,35,0.10416759243015,1
303,493,35,0.140046061181761,1
303,494,35,0.138200762078881,1
303,495,35,0.124032324679152,1
304,484,35,0.0535187236025155,1
304,491,35,0.059884423598976,1
304,492,35,0.110664636623646,1
304,493,35,0.16141337970134,1
304,494,35,0.143441509157027,1
304,495,35,0.100058458958236,1
304,496,35,0.0738647807253446,1
305,491,35,0.0479695680382778,1
305,492,35,0.0853210557377907,1
305,493,35,0.139038493870821,1
305,494,35,0.148297102557473,1
305,495,35,0.110167838274458,1
305,496,35,0.0717095131647896,1
305,497,35,0.0552807100033626,1
306,492,35,0.0517388351000267,1
306,493,35,0.0837970687009802,1
306,494,35,0.118714486750954,1
306,495,35,0.121526703731832,1
306,496,35,0.0824532749135698,1
306,497,35,0.0534019571746141,1
307,494,35,0.0731022101076252,1
307,495,35,0.0990494428875587,1
307,496,35,0.0819131460242089,1
307,497,35,0.0534119361835884,1
307,500,35,0.0473228110334464,1
308,495,35,0.0555280571739985,1
308,496,35,0.0566752524617133,1
308,500,35,0.0473743742560228,1
309,502,35,0.052063796116968,1
309,503,35,0.0727757161706306,1
310,502,35,0.0648183582313214,1
310,503,35,0.105911009458273,1
311,502,35,0.0565480200972912,1
311,503,35,0.096350271246296,1
311,504,35,0.158828503781539,1
312,503,35,0.0579708644678413,1
312,504,35,0.0850849199236228,1
300,485,36,0.0509052692437614,1
300,486,36,0.061506571622257,1
300,487,36,0.0690255324606822,1
300,488,36,0.0738236984679167,1
300,489,36,0.0759433301458215,1
300,495,36,0.183933886925469,1
301,483,36,0.0519303960036257,1
301,484,36,0.0636699726762711,1
301,485,36,0.0731254924580814,1
301,486,36,0.0763323191293803,1
301,487,36,0.071623669641806,1
301,488,36,0.0655358129078649,1
301,489,36,0.0621768844985738,1
301,490,36,0.0632855824528721,1
301,491,36,0.0696619708095472,1
301,494,36,0.171966313943566,1
301,495,36,0.199432490152762,1
301,496,36,0.154745790637602,1
302,484,36,0.0778591315482497,1
302,485,36,0.0762611315243963,1
302,486,36,0.0660820313972806,1
302,487,36,0.0564515002369955,1
302,488,36,0.0501640152319593,1
302,489,36,0.0477770543196653,1
302,490,36,0.0509141782144239,1
302,491,36,0.0639593639365252,1
302,492,36,0.0913250346932871,1
302,493,36,0.125493600257155,1
302,495,36,0.159480181159169,1
303,484,36,0.0606707454603444,1
303,485,36,0.0547498207144797,1
303,491,36,0.0592028212173256,1
303,492,36,0.0900561135304397,1
303,493,36,0.119579029615198,1
303,494,36,0.124065772393569,1
304,491,36,0.0562947456357826,1
304,492,36,0.0969310375456967,1
304,493,36,0.134618718658698,1
304,494,36,0.124101841100705,1
304,495,36,0.0975942388752565,1
305,492,36,0.0830046692624594,1
305,493,36,0.128839129141746,1
305,494,36,0.130259695172295,1
305,495,36,0.0997777121647919,1
305,496,36,0.0718330184294742,1
305,497,36,0.0601523118983259,1
306,492,36,0.0548272902859566,1
306,493,36,0.0887507088703242,1
306,494,36,0.112535616646007,1
306,495,36,0.107542012349156,1
306,496,36,0.0782527613721267,1
306,497,36,0.0595886361546565,1
306,498,36,0.0515705385125304,1
307,493,36,0.049890479174217,1
307,494,36,0.0742320443243052,1
307,495,36,0.0929615500849105,1
307,496,36,0.078801889403918,1
307,497,36,0.0577965864864116,1
307,498,36,0.0495149828928527,1
307,499,36,0.056158285693785,1
307,500,36,0.063323520721328,1
308,495,36,0.055322826230395,1
308,496,36,0.0557742441345549,1
308,497,36,0.0477210606575623,1
308,499,36,0.0516912123837049,1
308,500,36,0.0561095869277002,1
308,501,36,0.0474714982671631,1
309,502,36,0.0544735945323303,1
309,503,36,0.0736574638081784,1
310,502,36,0.068578106160112,1
310,503,36,0.101652172817391,1
311,502,36,0.0603413239466206,1
311,503,36,0.0992384308900487,1
311,504,36,0.141316485207406,1
312,503,36,0.0619768294144443,1
312,504,36,0.0866690455181313,1
300,485,37,0.0535781588204244,1
300,486,37,0.0615657363248623,1
300,487,37,0.068618082310521,1
301,483,37,0.0569348629927755,1
301,484,37,0.0671880843130556,1
301,485,37,0.0728254729521246,1
301,486,37,0.0711544878993816,1
301,487,37,0.0653969243395868,1
301,488,37,0.0622943903349715,1
301,489,37,0.0593520494816494,1
301,490,37,0.0588685123937849,1
301,495,37,0.144493861779328,1
302,484,37,0.0726564008874249,1
302,485,37,0.0682723577411717,1
302,486,37,0.0572659015868692,1
302,487,37,0.0493844802989836,1
302,490,37,0.0502306611855697,1
302,491,37,0.0596376895963613,1
302,492,37,0.0777938051081753,1
303,484,37,0.0529786969078249,1
303,485,37,0.0478737394948688,1
303,491,37,0.0554618109818922,1
303,492,37,0.0763263377354469,1
303,493,37,0.100007656184235,1
304,491,37,0.0525416764292634,1
304,492,37,0.0797732196870891,1
304,493,37,0.107915551903158,1
304,494,37,0.110285650694866,1
304,495,37,0.0977615375618554,1
305,492,37,0.0737560576191345,1
305,493,37,0.108249271604482,1
305,494,37,0.109815711509592,1
305,495,37,0.0915607977974812,1
305,496,37,0.071814088369679,1
306,492,37,0.0550299182711951,1
306,493,37,0.0840941726531102,1
306,494,37,0.0970557871807775,1
306,495,37,0.0890825830561333,1
306,496,37,0.0733597587109294,1
306,497,37,0.0667361915042517,1
306,498,37,0.0687377642922492,1
307,493,37,0.0522378456632525,1
307,494,37,0.068519777049222,1
307,495,37,0.0771831739192661,1
307,496,37,0.0712188164385585,1
307,497,37,0.0636070327823189,1
307,498,37,0.0630127347062911,1
307,499,37,0.0730972085802357,1
307,500,37,0.0746046220461172,1
308,495,37,0.0514385510902175,1
308,496,37,0.0528284106280918,1
308,497,37,0.0498767249738959,1
308,498,37,0.0502615870962132,1
308,499,37,0.0572190964279091,1
308,500,37,0.0593781331683599,1
308,501,37,0.0487725746824222,1
309,502,37,0.0525944329249009,1
309,503,37,0.0688105749890544,1
310,502,37,0.0647334945748817,1
310,503,37,0.0910133830292789,1
310,504,37,0.103487396728078,1
311,502,37,0.0599935374495134,1
311,503,37,0.0933777048163939,1
311,504,37,0.111560258690539,1
311,505,37,0.129651961502859,1
312,503,37,0.062098970079709,1
312,504,37,0.0800305158094433,1
313,504,37,0.0479822071144034,1
313,505,37,0.0572886549296208,1
300,484,38,0.0517631694544411,1
300,485,38,0.0574032993152524,1
300,486,38,0.060943989962704,1
301,482,38,0.0546190716511119,1
301,483,38,0.061629169157812,1
301,484,38,0.0703902701440363,1
301,485,38,0.0724076891173689,1
301,486,38,0.0655458099511928,1
301,487,38,0.0593586199977993,1
302,483,38,0.0632815307347705,1
302,484,38,0.0687393693497168,1
302,485,38,0.0643676977700113,1
302,486,38,0.0522426728585576,1
303,484,38,0.0488389531264548,1
303,491,38,0.0489368135403658,1
303,492,38,0.060854004549851,1
304,492,38,0.0618838983905085,1
304,493,38,0.0827088818181398,1
304,494,38,0.095088287298121,1
305,492,38,0.06072975987667,1
305,493,38,0.0834036613007972,1
305,494,38,0.0889486359007328,1
305,495,38,0.0826852147348075,1
305,496,38,0.0698347038480213,1
306,492,38,0.0515895707669958,1
306,493,38,0.0717195943684341,1
306,494,38,0.0777797443238435,1
306,495,38,0.0724361473272992,1
306,496,38,0.0676290843723045,1
306,497,38,0.0740066269276079,1
306,498,38,0.0943504538020457,1
307,493,38,0.0507894105449895,1
307,494,38,0.0590146688065509,1
307,495,38,0.0616584569480064,1
307,496,38,0.0641310569939435,1
307,497,38,0.0722707903394344,1
307,498,38,0.0845410398887199,1
307,499,38,0.0914967217392542,1
308,496,38,0.050455997427676,1
308,497,38,0.0539043762306643,1
308,498,38,0.0584532774143335,1
308,499,38,0.062048708336315,1
308,500,38,0.0588749085778503,1
309,502,38,0.0512049941886099,1
309,503,38,0.0638387742256674,1
310,502,38,0.0602621892031644,1
310,503,38,0.0808849654471404,1
310,504,38,0.0869412861081423,1
311,502,38,0.0600855246756125,1
311,503,38,0.0860176085985489,1
311,504,38,0.0925788190220398,1
312,503,38,0.0616724516063752,1
312,504,38,0.0742525794415679,1
312,505,38,0.0940756342994745,1
313,504,38,0.0483622660872205,1
313,505,38,0.0579116636965289,1
301,481,39,0.0513758456428617,1
301,482,39,0.054381030206917,1
302,482,39,0.0526960024041957,1
302,483,39,0.0565664151379306,1
302,484,39,0.0612608415319909,1
306,492,39,0.0478305923039574,1
307,493,39,0.0485823182637313,1
311,502,39,0.0547960487741256,1
311,504,39,0.0797374755983173,1
312,503,39,0.0579977657119136,1
312,504,39,0.0672815142874401,1
312,505,39,0.0851371654459093,1
313,504,39,0.0483843792104204,1
313,505,39,0.0570109379075764,1
299,479,40,0.0474784565219148,1
300,480,40,0.0499561452612836,1
300,481,40,0.0498253811692878,1
301,480,40,0.0514497023321737,1
301,481,40,0.0517862113468498,1
312,502,40,0.0474023876185651,1
312,504,40,0.0620668268501996,1
313,504,40,0.0480240858891138,1
313,505,40,0.0545424797515087,1
298,481,41,0.047987719615144,1
301,481,41,0.0504915792072656,1
312,502,41,0.0493694456595591,1
312,505,41,0.0648383763637819,1
313,504,41,0.0479629734763232,1
313,505,41,0.051271042002827,1
312,506,42,0.0662128525980626,1
313,502,42,0.0484268050271891,1
313,503,42,0.0506841500346644,1
313,504,42,0.0496102433541243,1
313,505,42,0.0500827073488981,1
315,503,42,0.0482499842019063,1
316,502,42,0.0586125808708506,1
316,503,42,0.0563390259852432,1
317,502,42,0.0580382167669665,1
317,503,42,0.0525074291918378,1
321,504,42,0.0569849744498897,1
321,505,42,0.0520642349529048,1
322,504,42,0.0592797437467442,1
322,505,42,0.0660599693714157,1
323,504,42,0.0495934714053061,1
313,502,43,0.0513958878211269,1
313,503,43,0.0537313967226915,1
313,504,43,0.0521030388703319,1
313,505,43,0.0504663671809776,1
313,506,43,0.0537451328886591,1
314,502,43,0.0487067823548807,1
314,503,43,0.0506054060355355,1
315,502,43,0.0611317576406026,1
315,503,43,0.0584802808530759,1
316,501,43,0.0503071238389724,1
316,502,43,0.0794788028536407,1
316,503,43,0.0683577684396696,1
317,501,43,0.0490210940860401,1
317,502,43,0.071044863075493,1
317,503,43,0.0580600563691373,1
318,502,43,0.0519287608889022,1
320,503,43,0.054338036308011,1
320,504,43,0.052927292988705,1
321,503,43,0.0633946361888977,1
321,504,43,0.0798837342057536,1
321,505,43,0.0626108872286383,1
322,503,43,0.049422214178099,1
322,504,43,0.0811461269326094,1
322,505,43,0.0849920790714549,1
322,506,43,0.0748911518556051,1
323,504,43,0.05740328729235,1
323,505,43,0.0848666561538408,1
330,494,43,0.0500838194673681,1
304,486,44,0.0475723523837664,1
305,487,44,0.0474816245566915,1
312,495,44,0.0545843434975912,1
312,496,44,0.0535327964097497,1
312,508,44,0.119663382298286,1
313,496,44,0.0482606785735721,1
313,502,44,0.0558177970984216,1
313,503,44,0.0607439709472816,1
313,504,44,0.0578545188415231,1
313,505,44,0.0537311502531927,1
313,509,44,0.169864758699387,1
314,501,44,0.0472014398339339,1
314,502,44,0.0591396709225817,1
314,503,44,0.0603965391257946,1
314,504,44,0.050868966090029,1
314,510,44,0.12613984328291,1
315,501,44,0.051248877782292,1
315,502,44,0.0770559656006488,1
315,503,44,0.067753443263058,1
316,501,44,0.059237284866994,1
316,502,44,0.09432687087903,1
316,503,44,0.0744221143880093,1
317,501,44,0.0536303682740037,1
317,502,44,0.0762190273202663,1
317,503,44,0.0594472588455859,1
318,502,44,0.0544076008211739,1
319,503,44,0.0477058516860534,1
320,503,44,0.0629180242928033,1
320,504,44,0.0566226763096115,1
321,503,44,0.0770983643658871,1
321,504,44,0.0922229711688877,1
321,505,44,0.065965769931279,1
322,503,44,0.056624281367079,1
322,504,44,0.0932152693938072,1
322,505,44,0.0937826782486652,1
322,506,44,0.0856117154142457,1
322,507,44,0.0893916858648372,1
323,504,44,0.0608485581750735,1
323,505,44,0.0929704169754148,1
323,506,44,0.132733503519921,1
324,505,44,0.0651463850883693,1
324,506,44,0.11201633546937,1
325,505,44,0.0484913980702184,1
330,495,44,0.0528696251374458,1
297,479,45,0.112420377126707,1
297,482,45,0.0984094938511992,1
305,486,45,0.0490722244841309,1
312,494,45,0.0481355411998895,1
312,496,45,0.056586084606222,1
312,507,45,0.0840263514607923,1
312,508,45,0.110152821669387,1
312,509,45,0.168342647235348,1
313,495,45,0.0532195757569812,1
313,496,45,0.0554665179481734,1
313,497,45,0.0490425098809021,1
313,505,45,0.0569619686261882,1
313,506,45,0.0557631349727571,1
313,507,45,0.0582266577273983,1
313,508,45,0.0775526557437156,1
313,509,45,0.139718593389674,1
313,510,45,0.207375372517607,1
314,500,45,0.0489016916367922,1
314,501,45,0.0568970209075387,1
314,502,45,0.0688589311024213,1
314,503,45,0.0678886227659524,1
314,504,45,0.0550173122580511,1
314,508,45,0.0514855786728716,1
314,509,45,0.0737998570524999,1
314,510,45,0.109667060344582,1
314,511,45,0.116661479986581,1
315,501,45,0.0597579667117574,1
315,502,45,0.0834781612153866,1
315,503,45,0.0700455795442916,1
315,504,45,0.0484546109946653,1
315,510,45,0.0580791667724682,1
315,511,45,0.0747037628991315,1
316,501,45,0.0623252110452192,1
316,502,45,0.0904449702620723,1
316,503,45,0.0693966854685623,1
316,510,45,0.0491579598009931,1
316,511,45,0.0651534004519072,1
316,512,45,0.107135061149443,1
317,501,45,0.0537023554019958,1
317,502,45,0.0694039713474038,1
317,503,45,0.0550548597821796,1
317,510,45,0.0478816806218899,1
317,511,45,0.0653201340620943,1
317,512,45,0.119797533843027,1
318,502,45,0.0521629129241776,1
318,510,45,0.0479749482870923,1
318,511,45,0.0677984570095637,1
319,502,45,0.0479241214672865,1
319,503,45,0.0482854156952162,1
319,510,45,0.0492257930162134,1
320,502,45,0.0494299990073892,1
320,503,45,0.0647909159566421,1
320,504,45,0.055814953682009,1
320,510,45,0.0570304931582953,1
321,503,45,0.0803347012510744,1
321,504,45,0.0893921908267371,1
321,505,45,0.0645537762301257,1
321,506,45,0.048087040811694,1
321,508,45,0.04834899580872,1
321,509,45,0.0546946055353058,1
322,503,45,0.0611846043080079,1
322,504,45,0.091888632288091,1
322,505,45,0.0929417243188882,1
322,506,45,0.0940609182669631,1
322,507,45,0.106153331055715,1
322,508,45,0.0985352954902382,1
323,504,45,0.0624999338740369,1
323,505,45,0.0971543449230265,1
323,506,45,0.156094880513511,1
323,507,45,0.213306943543528,1
324,505,45,0.0699063483232956,1
324,506,45,0.130574070023692,1
324,507,45,0.200388130548329,1
296,479,46,0.147869231507622,1
296,480,46,0.0910978920100985,1
296,481,46,0.068963734742456,1
296,482,46,0.0596883781527897,1
297,479,46,0.125019994086656,1
297,480,46,0.107874385485414,1
297,481,46,0.135572784054053,1
311,509,46,0.102691552728025,1
312,494,46,0.0482136539966436,1
312,508,46,0.100707503320245,1
312,509,46,0.135844573785225,1
312,510,46,0.176205625390985,1
313,495,46,0.0545316050363072,1
313,496,46,0.0583358016351917,1
313,506,46,0.0597903804565702,1
313,507,46,0.0602754624873904,1
313,508,46,0.0739699991555113,1
313,509,46,0.117444868259769,1
313,510,46,0.170705580377238,1
313,511,46,0.147705804195589,1
314,499,46,0.049559873404609,1
314,500,46,0.0609923100073638,1
314,505,46,0.0511472842571924,1
314,506,46,0.0481057664821488,1
314,507,46,0.0483606189495946,1
314,508,46,0.0536898575949732,1
314,509,46,0.0712991414493503,1
314,510,46,0.0962972983384157,1
314,511,46,0.0976564093034565,1
314,512,46,0.0982149813250662,1
315,500,46,0.05409440421421,1
315,501,46,0.0728020403153886,1
315,502,46,0.0865438029440529,1
315,503,46,0.0704612353253263,1
315,504,46,0.0513619050875537,1
315,509,46,0.0508373157995172,1
315,510,46,0.0592069570957439,1
315,511,46,0.0708625658181768,1
315,512,46,0.0993685788082976,1
316,501,46,0.0634035211137555,1
316,502,46,0.0776830561429144,1
316,503,46,0.0620493335272387,1
316,510,46,0.0531526923510487,1
316,511,46,0.0656665679826839,1
316,512,46,0.106101596506779,1
317,501,46,0.0509226062689914,1
317,502,46,0.0586816524450159,1
317,503,46,0.050310003324092,1
317,510,46,0.0516177945303296,1
317,511,46,0.065176286046585,1
317,512,46,0.113343158930073,1
318,510,46,0.0505497279746199,1
318,511,46,0.0672786828939299,1
319,510,46,0.0522542569249994,1
319,511,46,0.0799668244840925,1
320,502,46,0.0487546064548174,1
320,503,46,0.0609994816686327,1
320,504,46,0.055055124286032,1
320,509,46,0.0482791908375096,1
320,510,46,0.0631519779501894,1
320,511,46,0.117021541867016,1
321,502,46,0.0478393810455962,1
321,503,46,0.073867936737219,1
321,504,46,0.0787774468433822,1
321,505,46,0.0635185081521049,1
321,506,46,0.0546628770959285,1
321,507,46,0.0569308232975763,1
321,508,46,0.0601952877628784,1
321,509,46,0.0657688949048286,1
321,510,46,0.088962107562848,1
322,503,46,0.0632405626949153,1
322,504,46,0.0828537938605097,1
322,505,46,0.0885180596978462,1
322,506,46,0.105479808064463,1
322,507,46,0.129508047361387,1
322,508,46,0.117864166980224,1
322,509,46,0.105456471610946,1
323,504,46,0.0655134863781478,1
323,505,46,0.102018630881892,1
323,506,46,0.176147133970913,1
323,507,46,0.240182434558861,1
323,508,46,0.203707738055391,1
324,505,46,0.0816265741345626,1
324,507,46,0.217497766625654,1
324,508,46,0.20640906780763,1
325,508,46,0.206300549090761,1
296,478,47,0.204804659576809,1
296,479,47,0.168031843185958,1
296,480,47,0.102768487280346,1
296,481,47,0.0717439948488115,1
296,482,47,0.0615126972910189,1
297,477,47,0.1795335888152,1
297,478,47,0.156360153831593,1
297,479,47,0.128911314647627,1
297,480,47,0.115524221627682,1
297,481,47,0.1402757346859,1
297,482,47,0.111227657119136,1
298,479,47,0.100890690272337,1
298,480,47,0.16561832969376,1
298,481,47,0.266026192229473,1
300,482,47,0.0876410490838356,1
301,481,47,0.0479142807216896,1
304,485,47,0.0499849280895781,1
312,508,47,0.0924837058413223,1
312,509,47,0.109006329721461,1
313,495,47,0.0513560018424857,1
313,496,47,0.0582156447488194,1
313,507,47,0.0652863677407639,1
313,508,47,0.0753478658482629,1
313,509,47,0.0996387274132947,1
313,510,47,0.129976086928085,1
314,496,47,0.0476956322190315,1
314,497,47,0.0491241483937787,1
314,498,47,0.050425357060964,1
314,499,47,0.0618033629789251,1
314,506,47,0.0538102308935883,1
314,507,47,0.0534793425857743,1
314,508,47,0.0583686542159413,1
314,509,47,0.0706215006140337,1
314,510,47,0.0853986575611937,1
314,511,47,0.0860726734914432,1
315,499,47,0.0527475325637906,1
315,500,47,0.0759631679347462,1
315,501,47,0.102197591783799,1
315,502,47,0.0971808494113202,1
315,503,47,0.0721663714322759,1
315,504,47,0.0562107295939606,1
315,505,47,0.0531292717372151,1
315,506,47,0.0517625202177126,1
315,507,47,0.0505701488743101,1
315,508,47,0.0511703381725035,1
315,509,47,0.0559002261171296,1
315,510,47,0.0630004713458649,1
315,511,47,0.0715957524624828,1
316,500,47,0.0566457242134713,1
316,501,47,0.073069561916216,1
316,502,47,0.0732564338878873,1
316,503,47,0.0605608982127619,1
316,504,47,0.0532279016168784,1
316,505,47,0.0557464772415114,1
316,506,47,0.0549758693135519,1
316,507,47,0.0498760366627347,1
316,508,47,0.0483500177554222,1
316,509,47,0.0526798015432405,1
316,510,47,0.0589412329188221,1
316,511,47,0.0685801560649675,1
316,512,47,0.104252918968331,1
317,501,47,0.0526724134697288,1
317,502,47,0.05572519069285,1
317,503,47,0.0516783779354157,1
317,504,47,0.051585164373274,1
317,505,47,0.0581292301379729,1
317,506,47,0.0570287979290599,1
317,507,47,0.0490206853073593,1
317,509,47,0.0507669337289926,1
317,510,47,0.0561390250041744,1
317,511,47,0.0664537855502796,1
317,512,47,0.105600229454687,1
318,505,47,0.0507066268506613,1
318,506,47,0.0497449479523747,1
318,509,47,0.0478318967888655,1
318,510,47,0.0533148392239784,1
318,511,47,0.0681547797673597,1
319,503,47,0.0476153132196909,1
319,509,47,0.0479505898868731,1
319,510,47,0.0557925129347193,1
320,503,47,0.0541577348524896,1
320,504,47,0.0538686682105997,1
320,505,47,0.0482368551925088,1
320,507,47,0.0481667586659157,1
320,508,47,0.0544380788787037,1
320,509,47,0.0592626652139153,1
320,510,47,0.0710366153644613,1
321,503,47,0.0605295184375536,1
321,504,47,0.0664875218143541,1
321,505,47,0.0645206651569749,1
321,506,47,0.0679790770719981,1
321,507,47,0.0834098110153639,1
321,508,47,0.0902015666034166,1
321,509,47,0.0882059571749988,1
322,503,47,0.058721664664132,1
322,504,47,0.0706689069181127,1
322,505,47,0.0842114320200092,1
322,506,47,0.118832383331679,1
322,507,47,0.159723019741413,1
322,508,47,0.147461486796352,1
323,503,47,0.0506364972610867,1
323,504,47,0.0676283930554177,1
323,505,47,0.106097400513849,1
323,506,47,0.180420818896232,1
323,507,47,0.23552601255922,1
324,504,47,0.0572249455699163,1
324,505,47,0.0993692821480868,1
324,506,47,0.163831762469,1
324,507,47,0.209403684240495,1
325,505,47,0.0738469267153123,1
325,507,47,0.18694243790219,1
330,494,47,0.0782810692957772,1
330,495,47,0.0750858567481762,1
296,478,48,0.20823808790069,1
296,479,48,0.168724530683601,1
296,480,48,0.110109082350533,1
296,481,48,0.07616465975571,1
296,482,48,0.0645324656356595,1
297,476,48,0.156553313781209,1
297,477,48,0.163334519272424,1
297,478,48,0.143504064318103,1
297,479,48,0.12878547092843,1
297,480,48,0.121101850430478,1
297,481,48,0.132749481957182,1
297,482,48,0.108523898740615,1
298,477,48,0.151624104149498,1
298,478,48,0.124111976407411,1
298,479,48,0.109913577934954,1
298,480,48,0.154734573269683,1
298,481,48,0.233191693924991,1
299,479,48,0.0936069755533036,1
299,480,48,0.140535321171158,1
299,481,48,0.219678192109437,1
299,482,48,0.173851456944929,1
300,478,48,0.0727917487109525,1
300,479,48,0.0623034075117555,1
300,480,48,0.0781472784381076,1
300,481,48,0.10444842338391,1
300,482,48,0.0889406887622605,1
300,483,48,0.0636660652329981,1
301,480,48,0.0474625171590863,1
303,485,48,0.0604198876022139,1
304,485,48,0.0504374400778545,1
305,486,48,0.0604300589776262,1
306,487,48,0.0570485876263751,1
312,496,48,0.0480575245863544,1
313,496,48,0.0574820673601861,1
313,497,48,0.061471548907628,1
314,496,48,0.0489006185927549,1
314,497,48,0.055661367115573,1
314,498,48,0.0615415041651181,1
314,499,48,0.0791203219848677,1
314,500,48,0.116022715206105,1
314,505,48,0.0736490778337692,1
315,499,48,0.0649256806694044,1
315,500,48,0.104795031636584,1
315,501,48,0.146288917173167,1
315,503,48,0.0789766723472476,1
315,504,48,0.0658653786964173,1
315,505,48,0.0652422737462902,1
316,500,48,0.0691418059495861,1
316,501,48,0.0918613823798499,1
316,502,48,0.0802244632591645,1
316,503,48,0.0649271715092994,1
316,504,48,0.0607904454764263,1
316,505,48,0.0663782336317321,1
317,501,48,0.0537830651456637,1
317,502,48,0.0559534334716063,1
317,503,48,0.0551858072234367,1
317,504,48,0.0593753017748497,1
317,505,48,0.0726038367582254,1
317,506,48,0.0730883416897314,1
318,503,48,0.0491511247809908,1
318,504,48,0.0530587574147644,1
318,505,48,0.0601316926207465,1
318,506,48,0.0598080421001644,1
319,503,48,0.0476573272520531,1
319,504,48,0.0508994621819125,1
319,505,48,0.0518899689943775,1
319,506,48,0.0510200699271239,1
320,503,48,0.0484639497840879,1
320,504,48,0.0558556151378536,1
320,505,48,0.0588119626724469,1
320,506,48,0.0604224845491277,1
320,507,48,0.0691348507005601,1
321,503,48,0.0497080135962675,1
321,504,48,0.0619518037431431,1
321,505,48,0.0750545731561869,1
321,506,48,0.0949496091306345,1
321,507,48,0.126214180888317,1
322,503,48,0.0516804759318807,1
322,504,48,0.0656877523366751,1
322,505,48,0.0918091669148194,1
322,506,48,0.14236299469915,1
322,507,48,0.190357194658677,1
323,503,48,0.0521468623495021,1
323,504,48,0.0739388057352899,1
323,505,48,0.113611065263777,1
323,506,48,0.172752251072058,1
323,507,48,0.208972591052806,1
324,504,48,0.0735511753396999,1
324,505,48,0.118314328491085,1
324,506,48,0.166408643158718,1
324,507,48,0.196194458038339,1
325,504,48,0.0568083760483009,1
325,505,48,0.0904011828516093,1
325,506,48,0.140354941566771,1
326,505,48,0.0571264419307281,1
329,497,48,0.0514461435530697,1
329,498,48,0.0667253769035621,1
329,499,48,0.0566051889981017,1
330,495,48,0.0852167089680464,1
330,496,48,0.0834600246671484,1
296,478,49,0.198732204180815,1
296,479,49,0.151134339198201,1
296,480,49,0.110472630872659,1
296,481,49,0.0795772283439635,1
296,482,49,0.0670641221780805,1
296,483,49,0.0723018815649856,1
297,476,49,0.140362287560124,1
297,477,49,0.152685173376023,1
297,478,49,0.136408003059396,1
297,479,49,0.125277717022044,1
297,480,49,0.118590254100675,1
297,481,49,0.113066572060852,1
297,482,49,0.0970256517759654,1
298,475,49,0.0928103320302431,1
298,477,49,0.136761344137402,1
298,478,49,0.129545210152639,1
298,479,49,0.118959248997578,1
298,480,49,0.133666781317064,1
298,481,49,0.173901255806581,1
298,482,49,0.153838013416405,1
299,478,49,0.123422895780481,1
299,479,49,0.100052579758973,1
299,480,49,0.117495003762688,1
299,481,49,0.173003649960796,1
299,482,49,0.159862064607422,1
299,483,49,0.0989011463981693,1
300,478,49,0.0780345156366983,1
300,479,49,0.0664013596844575,1
300,480,49,0.0730940886370684,1
300,481,49,0.0951142507558077,1
300,482,49,0.0894070330997235,1
300,483,49,0.0644517438690893,1
300,484,49,0.0557268017617688,1
301,480,49,0.0499580839542922,1
301,481,49,0.0508251546337612,1
302,485,49,0.0601656873772221,1
303,485,49,0.059726965657974,1
304,485,49,0.0476030047733808,1
304,486,49,0.0771304474808845,1
305,486,49,0.0547492977182263,1
305,487,49,0.0778183198061254,1
306,487,49,0.0506780904918656,1
306,488,49,0.0536362174160109,1
312,496,49,0.0490722184726797,1
313,496,49,0.055909381557291,1
313,497,49,0.0656384283796667,1
313,498,49,0.0691868677877013,1
314,496,49,0.0476035157467319,1
314,497,49,0.0588300751748803,1
314,498,49,0.070262520794812,1
314,499,49,0.0917274592702541,1
314,500,49,0.132659598739,1
314,503,49,0.0932468295125511,1
314,504,49,0.0829177857584201,1
315,498,49,0.0498703438184584,1
315,499,49,0.0714363888914538,1
315,500,49,0.118321169522539,1
315,501,49,0.174057649720722,1
315,502,49,0.13528334470219,1
315,503,49,0.0929280602903348,1
315,504,49,0.0814233570271075,1
315,505,49,0.0797026993531871,1
316,500,49,0.0736059937630953,1
316,501,49,0.105121164886508,1
316,502,49,0.0932692582369385,1
316,503,49,0.0811567732126657,1
316,504,49,0.0827899943290374,1
316,505,49,0.0864498860421221,1
317,501,49,0.0546775811055376,1
317,502,49,0.0595321285134768,1
317,503,49,0.0671856677096775,1
317,504,49,0.0810916872306389,1
317,505,49,0.0972896747122006,1
317,506,49,0.10335492838967,1
318,503,49,0.055700327330731,1
318,504,49,0.0666781810002747,1
318,505,49,0.0774269262420909,1
318,506,49,0.0809712177488048,1
319,503,49,0.0490209768627419,1
319,504,49,0.0575826870301931,1
319,505,49,0.06404410135249,1
319,506,49,0.0647280962917137,1
320,504,49,0.0583368115589915,1
320,505,49,0.0717840010564765,1
320,506,49,0.085745464191757,1
321,504,49,0.0609631845263515,1
321,505,49,0.0917549796937988,1
321,506,49,0.139823300846489,1
321,507,49,0.181524773815542,1
322,504,49,0.0657346176101471,1
322,505,49,0.108547583858301,1
322,506,49,0.174960389345823,1
322,507,49,0.210561465693754,1
323,503,49,0.0522128680835609,1
323,504,49,0.0794956168826172,1
323,505,49,0.115113399053403,1
323,506,49,0.157540069448131,1
323,507,49,0.176751970120875,1
324,503,49,0.0554056159361744,1
324,504,49,0.0908728773806309,1
324,505,49,0.125623135007383,1
324,506,49,0.16321349673708,1
325,503,49,0.0499480688766108,1
325,504,49,0.0739579281615232,1
325,505,49,0.104493593428147,1
325,506,49,0.153747697373736,1
326,504,49,0.0523971972113792,1
326,505,49,0.0631864896914673,1
329,495,49,0.0602335867184055,1
329,496,49,0.0670888893569806,1
329,497,49,0.0692314968013309,1
329,498,49,0.0833681276128171,1
329,499,49,0.062702928557798,1
330,494,49,0.0690092113707032,1
330,495,49,0.0909818168990838,1
330,496,49,0.101526377189803,1
330,497,49,0.112968068421664,1
330,498,49,0.146143440054386,1
330,499,49,0.101155590880446,1
330,500,49,0.0493869359767945,1
331,495,49,0.116793154813431,1
331,496,49,0.126979186143769,1
295,480,50,0.113512309143638,1
296,478,50,0.185253965537937,1
296,479,50,0.139780655611752,1
296,480,50,0.1131911533753,1
296,481,50,0.0837474561943147,1
296,482,50,0.0687440823274492,1
296,483,50,0.0728466452832134,1
297,476,50,0.120650715064524,1
297,477,50,0.138393705616254,1
297,478,50,0.131389643606548,1
297,479,50,0.125755386933548,1
297,480,50,0.114464835607489,1
297,481,50,0.0937323323449546,1
297,482,50,0.0826355000334718,1
297,483,50,0.0823816845413561,1
298,475,50,0.0818610147194951,1
298,476,50,0.0986445536156041,1
298,477,50,0.11534831454298,1
298,478,50,0.121867276487512,1
298,479,50,0.122987077592157,1
298,480,50,0.113570079189568,1
298,481,50,0.117569100910047,1
298,482,50,0.115779371661961,1
298,483,50,0.0950837847211802,1
299,477,50,0.107341061558799,1
299,478,50,0.110166287320051,1
299,479,50,0.100453531530398,1
299,480,50,0.0964295141958737,1
299,481,50,0.121293844158562,1
299,482,50,0.12730152015654,1
299,483,50,0.0921135146656325,1
299,484,50,0.0716147125795339,1
300,478,50,0.0752455269032158,1
300,479,50,0.0676838486926392,1
300,480,50,0.0676192796954147,1
300,481,50,0.0800762509300917,1
300,482,50,0.0805640501368495,1
300,483,50,0.0636074896526093,1
300,484,50,0.0560780628776634,1
301,478,50,0.0505961904808622,1
301,479,50,0.0494539396117507,1
301,480,50,0.05152277152138,1
301,481,50,0.0517885798586184,1
301,482,50,0.048157798597918,1
301,484,50,0.0482461729418522,1
301,485,50,0.0573853912021594,1
302,485,50,0.0601964058927996,1
303,485,50,0.0553424355841746,1
303,486,50,0.0846406255891222,1
304,486,50,0.0662689574720126,1
304,487,50,0.0858937306238905,1
305,487,50,0.065929033953061,1
306,488,50,0.0482310421192087,1
312,496,50,0.049554348880966,1
313,496,50,0.0511651683244806,1
313,497,50,0.0634551053764111,1
313,498,50,0.0729650768830943,1
313,499,50,0.0872008365246925,1
313,503,50,0.0883692221778497,1
314,497,50,0.0550445621662923,1
314,498,50,0.0712415878156637,1
314,499,50,0.0974208445771516,1
314,500,50,0.139261434549628,1
314,502,50,0.147762251722257,1
314,503,50,0.104040233825253,1
314,504,50,0.0940629200802091,1
315,498,50,0.0493300586313667,1
315,499,50,0.0727030317143004,1
315,500,50,0.119248544074614,1
315,501,50,0.177300959889289,1
315,502,50,0.151502732949986,1
315,503,50,0.108868463099885,1
315,504,50,0.100229761271327,1
315,505,50,0.0926225583408933,1
316,500,50,0.071103600965064,1
316,501,50,0.103850452311206,1
316,502,50,0.102170732619885,1
316,503,50,0.0993470157328815,1
316,504,50,0.119202496358503,1
316,505,50,0.111498689407458,1
316,506,50,0.103518475930727,1
317,501,50,0.0513919803778538,1
317,502,50,0.0602019905309545,1
317,503,50,0.0788913878892246,1
317,504,50,0.111881606825315,1
317,505,50,0.118442805225904,1
317,506,50,0.126872663228694,1
318,503,50,0.060215438147265,1
318,504,50,0.0813187397420597,1
318,505,50,0.0916003892150141,1
318,506,50,0.0983884778178413,1
319,503,50,0.0488321241179037,1
319,504,50,0.063282498578412,1
319,505,50,0.0765598285110915,1
319,506,50,0.0793410384267349,1
320,504,50,0.0590724869440898,1
320,505,50,0.0839139132777471,1
320,506,50,0.115314313775053,1
320,507,50,0.130681819274809,1
321,504,50,0.0615467040703969,1
321,505,50,0.113051086562589,1
321,506,50,0.195011103871721,1
321,507,50,0.224391290070891,1
322,504,50,0.0691647817160317,1
322,505,50,0.128453398364731,1
322,506,50,0.206703147999812,1
322,507,50,0.21066794051722,1
323,503,50,0.0506280271263609,1
323,504,50,0.0830040621058893,1
323,505,50,0.114319755244486,1
323,506,50,0.148933114093304,1
324,503,50,0.0635089078645556,1
324,504,50,0.0989022825624441,1
324,505,50,0.120206516913242,1
324,506,50,0.158175744342695,1
325,503,50,0.0638691080083687,1
325,504,50,0.0865453418755574,1
325,505,50,0.106889096612581,1
326,503,50,0.0509997151533968,1
326,504,50,0.0587255781188563,1
328,496,50,0.0488404229262706,1
329,495,50,0.0704092723412457,1
329,496,50,0.0960517365687829,1
329,497,50,0.0978005879487813,1
329,498,50,0.0953059859914912,1
329,499,50,0.0648727257958777,1
330,494,50,0.0574408648737345,1
330,495,50,0.091058408798687,1
330,496,50,0.123946889934849,1
330,497,50,0.134098800268236,1
330,498,50,0.143984571634568,1
330,499,50,0.0969756124562655,1
331,495,50,0.0973367864551713,1
331,496,50,0.123687736274078,1
331,497,50,0.117534523042806,1
331,498,50,0.117384164625659,1
295,479,51,0.142327635343255,1
295,480,51,0.108902572073933,1
296,478,51,0.169143071961207,1
296,479,51,0.137536424585046,1
296,480,51,0.116497619850062,1
296,481,51,0.088015670699052,1
296,482,51,0.072315263055333,1
296,483,51,0.0738159316729801,1
297,477,51,0.126633804227137,1
297,478,51,0.12946510155409,1
297,479,51,0.128708560421913,1
297,480,51,0.114003432682904,1
297,481,51,0.0864527114241811,1
297,482,51,0.0773901421722634,1
297,483,51,0.0792632562597963,1
298,476,51,0.0903750510732893,1
298,477,51,0.101126062632204,1
298,478,51,0.110397271320549,1
298,479,51,0.119743887652614,1
298,480,51,0.104556725688537,1
298,481,51,0.089353038245141,1
298,482,51,0.0908019663024016,1
298,483,51,0.0864309139021686,1
299,476,51,0.0761014132777471,1
299,477,51,0.0849826651388924,1
299,478,51,0.0930278263342729,1
299,479,51,0.0957380470228216,1
299,480,51,0.087064538891877,1
299,481,51,0.0886408495998393,1
299,482,51,0.0955690891756944,1
299,483,51,0.0836950784201021,1
299,484,51,0.0715942255538807,1
300,477,51,0.0671807563540558,1
300,478,51,0.0693927960596428,1
300,479,51,0.0677691211277598,1
300,480,51,0.0661111388439393,1
300,481,51,0.0692813317316904,1
300,482,51,0.0703352232854956,1
300,483,51,0.0632541245287984,1
300,484,51,0.0588569343387942,1
301,478,51,0.0527425851394618,1
301,479,51,0.0522211698976534,1
301,480,51,0.0529853155155844,1
301,481,51,0.0526673097476691,1
301,482,51,0.0506189438236138,1
301,483,51,0.0493436144537986,1
301,484,51,0.0514307782838298,1
301,485,51,0.059311171613562,1
302,485,51,0.0581003571379106,1
302,486,51,0.0755411340039997,1
303,485,51,0.0509400034087333,1
303,486,51,0.0712883208372095,1
304,486,51,0.0558275777295066,1
304,487,51,0.0723172829029327,1
305,487,51,0.0553483147834377,1
305,488,51,0.0615055737213595,1
312,496,51,0.0531081595206382,1
312,497,51,0.0650111154137071,1
313,496,51,0.047225368415393,1
313,497,51,0.0588115599052172,1
313,498,51,0.0715431582760274,1
313,499,51,0.088386853764188,1
313,504,51,0.107040488999333,1
314,497,51,0.0473450173341397,1
314,498,51,0.0638594476063075,1
314,499,51,0.090698214666325,1
314,500,51,0.129105544635554,1
314,503,51,0.126773594513094,1
314,504,51,0.112604435739222,1
314,505,51,0.111141152336521,1
315,499,51,0.0683444230180294,1
315,500,51,0.105822328530328,1
315,501,51,0.154108119941244,1
315,502,51,0.155840968838176,1
315,503,51,0.12289115887698,1
315,504,51,0.118273655012338,1
315,505,51,0.10523212425256,1
316,500,51,0.0643848243944497,1
316,501,51,0.0892922985423241,1
316,502,51,0.0994014915035592,1
316,503,51,0.107711378974964,1
316,504,51,0.143773088781728,1
316,505,51,0.128790496501624,1
316,506,51,0.113319582018509,1
317,501,51,0.0486038302418123,1
317,502,51,0.0599200594816263,1
317,503,51,0.0838446373142414,1
317,504,51,0.12721735983989,1
317,505,51,0.126362868122034,1
317,506,51,0.1350038843593,1
318,503,51,0.0625297687062895,1
318,504,51,0.0893016403374723,1
318,505,51,0.103191344779906,1
318,506,51,0.113075517100222,1
318,507,51,0.12381481835222,1
319,503,51,0.04933492790683,1
319,504,51,0.0688392015196179,1
319,505,51,0.0915961571533768,1
319,506,51,0.0994675272948739,1
319,507,51,0.0939786575688883,1
320,504,51,0.0597024269142192,1
320,505,51,0.09438767670781,1
320,506,51,0.138341357899297,1
320,507,51,0.146463477692803,1
321,504,51,0.0644217407162033,1
321,505,51,0.129001883171245,1
321,506,51,0.219481281014279,1
321,507,51,0.225447814640317,1
322,504,51,0.0735890054020343,1
322,505,51,0.134726828596887,1
322,506,51,0.198084001421973,1
323,503,51,0.0502691254560046,1
323,504,51,0.0801582411128629,1
323,505,51,0.106067198983074,1
323,506,51,0.132166695810182,1
324,503,51,0.0659927493242167,1
324,504,51,0.0931351487723559,1
324,505,51,0.106715942772524,1
325,503,51,0.070731882880772,1
325,504,51,0.0871419904290002,1
326,503,51,0.0538087099964374,1
326,504,51,0.0596199798611576,1
328,496,51,0.0631312865351957,1
328,497,51,0.060813583552054,1
328,498,51,0.0504335987605446,1
329,495,51,0.0765774661088809,1
329,496,51,0.124396366140275,1
329,497,51,0.12463167838563,1
329,498,51,0.095237076726508,1
329,499,51,0.0597895328419525,1
330,495,51,0.0897644679759896,1
330,496,51,0.144408402989221,1
330,497,51,0.14985569150733,1
330,498,51,0.120581162574263,1
331,496,51,0.120556106845706,1
331,497,51,0.11333379308912,1
295,479,52,0.129084552648001,1
295,480,52,0.105576315901856,1
296,478,52,0.15707181346919,1
296,479,52,0.14621786182011,1
296,480,52,0.122432509197039,1
296,481,52,0.0956628317455408,1
296,482,52,0.0777202610143251,1
297,477,52,0.119335217177861,1
297,478,52,0.134577371897418,1
297,479,52,0.138021813199877,1
297,480,52,0.117391258138062,1
297,481,52,0.0894291552401002,1
297,482,52,0.0778496935698825,1
298,476,52,0.0863329573050385,1
298,477,52,0.0967086619433011,1
298,478,52,0.108563730616196,1
298,479,52,0.117457444215657,1
298,480,52,0.101488252566361,1
298,481,52,0.0796426329329034,1
298,482,52,0.0771446946202032,1
298,483,52,0.080072860471621,1
299,475,52,0.0649106941215894,1
299,476,52,0.0706024383023123,1
299,477,52,0.0783394765555327,1
299,478,52,0.0887974539147724,1
299,479,52,0.0953079757818349,1
299,480,52,0.0851052205942892,1
299,481,52,0.0731419217541819,1
299,482,52,0.0745563260472621,1
299,483,52,0.0762106954489179,1
300,477,52,0.0650083200889041,1
300,478,52,0.0719886428778635,1
300,479,52,0.0742672233366651,1
300,480,52,0.0686936582748732,1
300,481,52,0.0629457911858468,1
300,482,52,0.0629596535922893,1
300,483,52,0.0630840906319084,1
300,484,52,0.0625791167091027,1
301,478,52,0.0588642081947333,1
301,479,52,0.0595717680226192,1
301,480,52,0.0560805936986141,1
301,481,52,0.0531138824221705,1
301,482,52,0.0534633761714154,1
301,483,52,0.0538697081916555,1
301,484,52,0.0553799470395959,1
302,478,52,0.0478520922591361,1
302,479,52,0.0483006968041394,1
302,483,52,0.0476896057392142,1
302,484,52,0.0496693779994737,1
302,485,52,0.0565798507313387,1
303,485,52,0.0483108080650399,1
303,486,52,0.0596286904539309,1
304,486,52,0.0481643661083423,1
311,495,52,0.0486742874554768,1
312,496,52,0.0565083625537953,1
312,497,52,0.0704265011603544,1
313,497,52,0.0547844647076838,1
313,498,52,0.0690761007880868,1
313,499,52,0.0861204645283983,1
313,500,52,0.107009854644072,1
313,504,52,0.128171473326854,1
314,498,52,0.0558177129381049,1
314,499,52,0.0788638975229358,1
314,500,52,0.111258856550808,1
314,501,52,0.155869775712275,1
314,503,52,0.147475000538626,1
314,504,52,0.128685488472249,1
314,505,52,0.120075984262117,1
315,499,52,0.0609200463526169,1
315,500,52,0.0863328971905266,1
315,501,52,0.122543769135651,1
315,502,52,0.145817667491534,1
315,503,52,0.130892135906119,1
315,504,52,0.132557223725245,1
315,505,52,0.118144841636254,1
316,500,52,0.05436810558686,1
316,501,52,0.0705972744657407,1
316,502,52,0.0884703407983053,1
316,503,52,0.110162560220313,1
316,504,52,0.153547720438472,1
316,505,52,0.138172520281194,1
316,506,52,0.124519805278997,1
317,502,52,0.0579519704767533,1
317,503,52,0.0856378291582122,1
317,504,52,0.129488257664071,1
317,505,52,0.127303479889628,1
317,506,52,0.138231360365435,1
318,503,52,0.0643671026363436,1
318,504,52,0.0955112830610579,1
318,505,52,0.113167840967588,1
318,506,52,0.126945365719377,1
318,507,52,0.134071027363741,1
319,503,52,0.0489737809594545,1
319,504,52,0.0736256331741309,1
319,505,52,0.103479605887336,1
319,506,52,0.119754828493778,1
319,507,52,0.106212086979639,1
320,504,52,0.0631432132543554,1
320,505,52,0.106031875695886,1
320,506,52,0.152285003093252,1
320,507,52,0.143046532768084,1
321,504,52,0.0694172686774346,1
321,505,52,0.136675248133468,1
321,506,52,0.207677219504726,1
322,504,52,0.0739020276769136,1
322,505,52,0.123378879934872,1
322,506,52,0.158004778670871,1
323,503,52,0.0479744884110763,1
323,504,52,0.0709616525681304,1
323,505,52,0.089363420021345,1
324,503,52,0.0598643633863572,1
324,504,52,0.0770202275233283,1
324,505,52,0.0869739222766491,1
325,502,52,0.0472761261035101,1
325,503,52,0.0656507518546048,1
325,504,52,0.076227653752723,1
326,503,52,0.0508195880299599,1
328,495,52,0.0495123348486038,1
328,496,52,0.0828351763961764,1
328,497,52,0.0804556095688453,1
328,498,52,0.0577893727449844,1
329,495,52,0.076629224703621,1
329,496,52,0.140577774039457,1
329,497,52,0.13735893047723,1
329,498,52,0.0864295132340415,1
329,499,52,0.0510788318624995,1
330,496,52,0.146538404420427,1
330,497,52,0.143722304042081,1
330,498,52,0.0912144780944642,1
331,496,52,0.110026352759266,1
331,497,52,0.0999309620899613,1
295,480,53,0.101456295691838,1
295,481,53,0.0945473949544592,1
296,478,53,0.147406013124777,1
296,479,53,0.153836630782631,1
296,480,53,0.12558920637687,1
296,481,53,0.105487863409056,1
296,482,53,0.0857141325081583,1
297,477,53,0.117890509159336,1
297,478,53,0.140113160999936,1
297,479,53,0.146484145061992,1
297,480,53,0.121018832289553,1
297,481,53,0.100098753715558,1
297,482,53,0.0839101681436562,1
298,476,53,0.0865688105810005,1
298,477,53,0.100379049650162,1
298,478,53,0.112198013547214,1
298,479,53,0.115123293902061,1
298,480,53,0.0987613741465663,1
298,481,53,0.0808753831939446,1
298,482,53,0.0748215091935768,1
298,483,53,0.0791999135986143,1
299,475,53,0.065941447599767,1
299,476,53,0.0733727795142055,1
299,477,53,0.0829066224935615,1
299,478,53,0.0920826638981289,1
299,479,53,0.0961131675884866,1
299,480,53,0.0845675383655624,1
299,481,53,0.069782368153967,1
299,482,53,0.0681754411250974,1
299,483,53,0.0739707445754588,1
300,477,53,0.0687503402481373,1
300,478,53,0.0781749190906762,1
300,479,53,0.0826486170199669,1
300,480,53,0.0724324923649761,1
300,481,53,0.062402776799915,1
300,482,53,0.0631790535263461,1
300,483,53,0.0662099851358453,1
300,484,53,0.0666906006584318,1
301,478,53,0.0665496321280422,1
301,479,53,0.0689162863582186,1
301,480,53,0.0600909229587805,1
301,481,53,0.0556812830533632,1
301,482,53,0.060013399284243,1
301,483,53,0.0616443480720651,1
301,484,53,0.0608498927172375,1
302,478,53,0.0524889920710402,1
302,479,53,0.0528124923053425,1
302,480,53,0.0478983143073308,1
302,481,53,0.0472556390778569,1
302,482,53,0.0514889751427936,1
302,483,53,0.0533573281609845,1
302,484,53,0.0538987254665463,1
302,485,53,0.0582946231945448,1
303,485,53,0.0495967476462043,1
311,495,53,0.050267246877508,1
312,496,53,0.0598669242645639,1
312,497,53,0.076732098667824,1
313,497,53,0.0548045910462657,1
313,498,53,0.0686726181957105,1
313,499,53,0.0848758837314164,1
313,500,53,0.10443881708491,1
313,503,53,0.148333676226509,1
313,504,53,0.148269618202636,1
314,498,53,0.0509046200070329,1
314,499,53,0.0702264641105784,1
314,500,53,0.0977137705707051,1
314,501,53,0.13939690861363,1
314,502,53,0.175088613599692,1
314,503,53,0.159157847146398,1
314,504,53,0.143349594068342,1
315,499,53,0.0550282891679228,1
315,500,53,0.0733743244571611,1
315,501,53,0.0998783438577012,1
315,502,53,0.128782272836397,1
315,503,53,0.133545362025942,1
315,504,53,0.141975268120341,1
315,505,53,0.128559103722444,1
316,500,53,0.0491461112306989,1
316,501,53,0.0608724236362951,1
316,502,53,0.0801085384344296,1
316,503,53,0.107244217080139,1
316,504,53,0.142108421764185,1
316,505,53,0.132440649663782,1
316,506,53,0.129839675077697,1
317,502,53,0.0581300957869442,1
317,503,53,0.0838738168983143,1
317,504,53,0.116428079382704,1
317,505,53,0.118367313421868,1
317,506,53,0.131468129113275,1
318,503,53,0.0653954214767895,1
318,504,53,0.0955408413665558,1
318,505,53,0.114229511339232,1
318,506,53,0.127356741347165,1
319,503,53,0.0507290134948904,1
319,504,53,0.0794215858612207,1
319,505,53,0.113959897753391,1
319,506,53,0.131114403302393,1
320,504,53,0.0717399371192587,1
320,505,53,0.120572938909036,1
320,506,53,0.151508443828615,1
321,504,53,0.0741499459354126,1
321,505,53,0.13093141472819,1
321,506,53,0.166117929379203,1
322,504,53,0.0698006489770338,1
322,505,53,0.1012099464221,1
323,504,53,0.0613897931714531,1
323,505,53,0.0716000867187903,1
324,503,53,0.0520890923035727,1
324,504,53,0.0620939745637706,1
325,503,53,0.0559068146676331,1
325,504,53,0.0624120885378073,1
327,496,53,0.0561924066907356,1
327,497,53,0.0587644842309536,1
328,495,53,0.0572555679022748,1
328,496,53,0.113248851283815,1
328,497,53,0.116166088316971,1
328,498,53,0.0695800888328974,1
329,496,53,0.141588827992087,1
329,497,53,0.138702682184482,1
329,498,53,0.0778163540615865,1
330,497,53,0.116979834418665,1
296,479,54,0.153107754348828,1
296,480,54,0.1273382140546,1
296,481,54,0.112353457652068,1
296,482,54,0.0949133420456093,1
297,478,54,0.148794177433416,1
297,479,54,0.155227103488527,1
297,480,54,0.131090694138902,1
297,481,54,0.113613361638131,1
297,482,54,0.0917469904751682,1
297,483,54,0.0868207565117963,1
298,477,54,0.110110140365943,1
298,478,54,0.122734488436084,1
298,479,54,0.119319202671893,1
298,480,54,0.102081570775845,1
298,481,54,0.0865566674495981,1
298,482,54,0.077262741487208,1
298,483,54,0.0839746349462105,1
299,476,54,0.0790841270372568,1
299,477,54,0.0929793499918821,1
299,478,54,0.0988819458230706,1
299,479,54,0.0978221269783926,1
299,480,54,0.0841275241843086,1
299,481,54,0.069050323685387,1
299,482,54,0.0676566108073004,1
299,483,54,0.0763949704736754,1
299,484,54,0.0814205256335973,1
300,476,54,0.0667732340664803,1
300,477,54,0.0759706521914769,1
300,478,54,0.0857018871820856,1
300,479,54,0.0909971160423606,1
300,480,54,0.07776188430236,1
300,481,54,0.0653178316762888,1
300,482,54,0.068060610384479,1
300,483,54,0.0717606525800571,1
300,484,54,0.0723986599176826,1
301,477,54,0.06296021265725,1
301,478,54,0.0734646164540248,1
301,479,54,0.0782079820722174,1
301,480,54,0.0665397072221286,1
301,481,54,0.0611722387529115,1
301,482,54,0.0696718656582049,1
301,483,54,0.0706111549065368,1
301,484,54,0.0675987626125055,1
301,485,54,0.0667624435115955,1
302,478,54,0.056515594329576,1
302,479,54,0.0572129827820496,1
302,480,54,0.0511734821614755,1
302,481,54,0.0507033566212143,1
302,482,54,0.05753035734759,1
302,483,54,0.058799963815873,1
302,484,54,0.0582625701368033,1
302,485,54,0.0596044763285403,1
303,484,54,0.0482652592993783,1
303,485,54,0.0502007301700981,1
303,486,54,0.0526472194777944,1
304,487,54,0.0506340506004526,1
311,495,54,0.047650275819808,1
312,496,54,0.0562477841790916,1
312,497,54,0.0736372953894382,1
312,498,54,0.0861360281755274,1
313,497,54,0.0515926245841999,1
313,498,54,0.06573655329743,1
313,499,54,0.0830759229934065,1
313,500,54,0.10483160530562,1
313,503,54,0.159052791025413,1
313,504,54,0.154157846665482,1
314,499,54,0.0626931118580059,1
314,500,54,0.086398157504638,1
314,501,54,0.121207940521067,1
314,502,54,0.155750544589386,1
314,503,54,0.155885718080829,1
314,504,54,0.147395288695856,1
315,499,54,0.0484605833714219,1
315,500,54,0.0629531311677489,1
315,501,54,0.0840816688346364,1
315,502,54,0.112239191987861,1
315,503,54,0.130198029705995,1
315,504,54,0.139608535741299,1
315,505,54,0.12862464056331,1
316,501,54,0.0554959199559404,1
316,502,54,0.0754843257902606,1
316,503,54,0.102047137183432,1
316,504,54,0.121530611175105,1
316,505,54,0.116885093947921,1
316,506,54,0.12652398703681,1
317,502,54,0.0569545084152622,1
317,503,54,0.0785359969063629,1
317,504,54,0.0981258014466726,1
317,505,54,0.103058082929941,1
317,506,54,0.115093561264478,1
318,503,54,0.0629142310671028,1
318,504,54,0.0886650937824859,1
318,505,54,0.105002186244569,1
318,506,54,0.111679850500499,1
319,503,54,0.0512908256886911,1
319,504,54,0.0821877190572813,1
319,505,54,0.116863332494616,1
319,506,54,0.123620011264979,1
320,504,54,0.0782655477288064,1
320,505,54,0.125050195617431,1
320,506,54,0.132770137303469,1
321,504,54,0.0710750165146587,1
321,505,54,0.109823430212919,1
327,496,54,0.0625482659415991,1
327,497,54,0.0700348731497234,1
328,495,54,0.05656585607297,1
328,496,54,0.120687156481633,1
328,497,54,0.129750104454976,1
328,498,54,0.0698185751244803,1
329,496,54,0.118340682693099,1
329,497,54,0.116706469687281,1
329,498,54,0.0625860539237752,1
330,497,54,0.0791597150245113,1
330,498,54,0.0488346338987752,1
296,480,55,0.122775570693512,1
296,481,55,0.114284888827588,1
296,482,55,0.106247939274532,1
296,483,55,0.10024155573856,1
297,479,55,0.157465311041141,1
297,480,55,0.143175863128971,1
297,481,55,0.125974468260692,1
297,482,55,0.101990701679667,1
297,483,55,0.0981161470560625,1
298,477,55,0.124283627384671,1
298,478,55,0.135945301661354,1
298,479,55,0.130055750679246,1
298,480,55,0.115283571213671,1
298,481,55,0.0988122490579816,1
298,482,55,0.08523022271032,1
298,483,55,0.0922782644969271,1
299,476,55,0.0872018524599435,1
299,477,55,0.110624708564846,1
299,478,55,0.112044877839617,1
299,479,55,0.104306000082333,1
299,480,55,0.0891877654175929,1
299,481,55,0.0758923410168336,1
299,482,55,0.0731006952219255,1
299,483,55,0.081121792578195,1
299,484,55,0.0838775259636981,1
300,475,55,0.0636411778250743,1
300,476,55,0.0753874452428934,1
300,477,55,0.0908874431268626,1
300,478,55,0.0961046613850537,1
300,479,55,0.0978552440629946,1
300,480,55,0.0848119399251156,1
300,481,55,0.0736017015869462,1
300,482,55,0.0768084501093796,1
300,483,55,0.0799709663739619,1
300,484,55,0.0801460739356557,1
300,485,55,0.0715044805990753,1
301,474,55,0.060975520024192,1
301,476,55,0.0642646795309798,1
301,477,55,0.0739296983867381,1
301,478,55,0.0825684062267477,1
301,479,55,0.0878222943371937,1
301,480,55,0.0768248253024193,1
301,481,55,0.0709687881606921,1
301,482,55,0.0802310217524121,1
301,483,55,0.0810391231014394,1
301,484,55,0.0768308607994134,1
301,485,55,0.0695018978872779,1
302,477,55,0.0585975101627189,1
302,478,55,0.0617796598268856,1
302,479,55,0.0630366362362198,1
302,480,55,0.0577456514604845,1
302,481,55,0.0563199336162659,1
302,482,55,0.063124247125853,1
302,483,55,0.0647363259683919,1
302,484,55,0.0628449731379506,1
302,485,55,0.05970197605538,1
302,486,55,0.0572847835550549,1
303,481,55,0.0483742348865384,1
303,482,55,0.0484714550808978,1
303,483,55,0.0488224486872145,1
303,484,55,0.0493833531518856,1
303,485,55,0.0492437882953487,1
303,486,55,0.0498980205397341,1
303,487,55,0.0538891311904482,1
304,487,55,0.047975209785219,1
304,488,55,0.0511198960855738,1
311,496,55,0.0557791254329207,1
312,496,55,0.0482458904036463,1
312,497,55,0.0637926062805334,1
312,498,55,0.0777065368712599,1
312,499,55,0.0959892114649628,1
313,498,55,0.0620599918301974,1
313,499,55,0.0841271454628837,1
313,500,55,0.107569604910115,1
313,502,55,0.153217763905593,1
313,503,55,0.159715084625843,1
313,504,55,0.155342066481072,1
314,499,55,0.0598246637627029,1
314,500,55,0.079417341776681,1
314,501,55,0.102643172568854,1
314,502,55,0.125844681029514,1
314,503,55,0.1378293505786,1
314,504,55,0.138595570147191,1
315,500,55,0.0564235530004163,1
315,501,55,0.0737508216451486,1
315,502,55,0.0968005409632788,1
315,503,55,0.117321982174556,1
315,504,55,0.121977634708446,1
315,505,55,0.119864345111546,1
316,501,55,0.055350989879217,1
316,502,55,0.0755040854303199,1
316,503,55,0.0975542687362987,1
316,504,55,0.100797152091831,1
316,505,55,0.102741255406459,1
317,502,55,0.0560822889278495,1
317,503,55,0.0739756258738245,1
317,504,55,0.08303024798727,1
317,505,55,0.0900263628585037,1
318,503,55,0.0595594866278394,1
318,504,55,0.0790637602406273,1
318,505,55,0.0925854316183481,1
318,506,55,0.092808931362116,1
319,503,55,0.052710712425256,1
319,504,55,0.0821943917681015,1
319,505,55,0.111248817427322,1
319,506,55,0.104968245591154,1
320,503,55,0.0481804978376089,1
320,504,55,0.0795356952276965,1
320,505,55,0.114929761242472,1
327,496,55,0.0606725368727988,1
327,497,55,0.071810499533319,1
327,498,55,0.0475020244163025,1
328,496,55,0.105973480459032,1
328,497,55,0.119451671010301,1
328,498,55,0.0642554699877578,1
329,497,55,0.0906756236327555,1
329,498,55,0.0510984592506327,1
330,497,55,0.0537690284071366,1
296,482,56,0.114778212557989,1
297,479,56,0.151029619718483,1
297,480,56,0.146078600541858,1
297,481,56,0.126266228032715,1
297,482,56,0.107662145189723,1
297,483,56,0.106404477463502,1
297,484,56,0.0896289698661822,1
298,478,56,0.156217153430702,1
298,479,56,0.149410952325441,1
298,480,56,0.137048114404937,1
298,481,56,0.110151066325639,1
298,482,56,0.090963121285885,1
298,483,56,0.0966265695658597,1
298,484,56,0.0885646905247218,1
299,477,56,0.130978917215488,1
299,478,56,0.131995658000943,1
299,479,56,0.11621248469725,1
299,480,56,0.100826415836221,1
299,481,56,0.085221079293061,1
299,482,56,0.0786406622830203,1
299,483,56,0.0858879295734928,1
299,484,56,0.0855458599664667,1
299,485,56,0.0707396196184527,1
300,476,56,0.089665922256643,1
300,477,56,0.117411456614058,1
300,478,56,0.115648911148251,1
300,479,56,0.104583031798942,1
300,480,56,0.0914130603730524,1
300,481,56,0.0830162413059988,1
300,482,56,0.086216503472599,1
300,483,56,0.0940924302940975,1
300,484,56,0.0936513821432391,1
300,485,56,0.0754240309348316,1
301,475,56,0.0629525240111788,1
301,476,56,0.0767852639421423,1
301,477,56,0.0952001964734615,1
301,478,56,0.097958069935588,1
301,479,56,0.0967641776950346,1
301,480,56,0.0870750950001654,1
301,481,56,0.0812636808606167,1
301,482,56,0.0901279443607009,1
301,483,56,0.098021635020464,1
301,484,56,0.0936749951235108,1
301,485,56,0.0742027986142691,1
301,486,56,0.0596273799575717,1
302,475,56,0.0595002798450758,1
302,476,56,0.0626852548913014,1
302,477,56,0.0693643318382614,1
302,478,56,0.0705118637672428,1
302,479,56,0.0714614386085597,1
302,480,56,0.0667561374992979,1
302,481,56,0.0634251022235252,1
302,482,56,0.0688548733728685,1
302,483,56,0.0737509538970747,1
302,484,56,0.0704197923808271,1
302,485,56,0.0603797671769764,1
302,486,56,0.054044996096885,1
302,487,56,0.0525182437925274,1
303,476,56,0.0522909628459614,1
303,477,56,0.052319270769612,1
303,478,56,0.0509507639063622,1
303,479,56,0.0523873624772334,1
303,480,56,0.0532931018164778,1
303,481,56,0.0534236044103469,1
303,482,56,0.0522993788776265,1
303,483,56,0.051902178251743,1
303,484,56,0.0507032844838,1
303,485,56,0.0481637709746746,1
303,486,56,0.0474285584713178,1
303,487,56,0.0485497392040108,1
303,488,56,0.0509859188729173,1
304,480,56,0.0476390374118096,1
304,481,56,0.0498245966749076,1
304,489,56,0.0490021069174586,1
305,490,56,0.0474584534180823,1
310,496,56,0.0486462019555203,1
311,496,56,0.0480465957680923,1
311,497,56,0.0577279958283414,1
312,497,56,0.0543716824003176,1
312,498,56,0.0707295504377106,1
312,499,56,0.0968053922043886,1
312,503,56,0.172019274828544,1
313,498,56,0.0600543673240982,1
313,499,56,0.0863478055894762,1
313,500,56,0.10862000982223,1
313,502,56,0.142084965081644,1
313,503,56,0.163707445658405,1
313,504,56,0.160573255351827,1
314,499,56,0.0574215801383192,1
314,500,56,0.0721081264817025,1
314,501,56,0.0856809673319468,1
314,502,56,0.104280114773512,1
314,503,56,0.124936507052538,1
314,504,56,0.128260178300604,1
315,500,56,0.0497877224333123,1
315,501,56,0.0652061208788376,1
315,502,56,0.0898844505302773,1
315,503,56,0.111108077332078,1
315,504,56,0.107723221533807,1
315,505,56,0.111921498815407,1
316,501,56,0.0546625885462714,1
316,502,56,0.0794196441624865,1
316,503,56,0.10036978600388,1
316,504,56,0.0920920056932771,1
316,505,56,0.0950215601899195,1
317,502,56,0.0574370295678757,1
317,503,56,0.0733890585240262,1
317,504,56,0.0755559281853766,1
317,505,56,0.0804431297961762,1
317,506,56,0.0852137453226101,1
318,503,56,0.0568271077302068,1
318,504,56,0.070686760928145,1
318,505,56,0.0797498110961578,1
318,506,56,0.0747719026983625,1
319,503,56,0.0533320259629287,1
319,504,56,0.0768859978297218,1
319,505,56,0.0946642876228356,1
319,506,56,0.0811689283669705,1
320,503,56,0.0490561107892179,1
320,504,56,0.0725650628980543,1
320,505,56,0.0909694994355969,1
321,504,56,0.0544864169577171,1
321,505,56,0.0623715653453401,1
327,496,56,0.0532318511403098,1
327,497,56,0.0625868955269417,1
328,496,56,0.0772517645773363,1
328,497,56,0.0886030195375049,1
328,498,56,0.053423989143223,1
329,496,56,0.0612053137573551,1
329,497,56,0.0631665977994818,1
297,480,57,0.137496616755271,1
297,481,57,0.121998915245656,1
297,482,57,0.113030226826962,1
297,483,57,0.110014065353035,1
297,484,57,0.0881565610805762,1
297,485,57,0.0698057406761911,1
298,478,57,0.167654925196387,1
298,479,57,0.16106709606703,1
298,480,57,0.154493682397625,1
298,481,57,0.120838693143214,1
298,482,57,0.0986097713590227,1
298,483,57,0.0992959725008329,1
298,484,57,0.0869832700832485,1
298,485,57,0.0692033091067041,1
299,477,57,0.141562954706168,1
299,478,57,0.146072601113571,1
299,479,57,0.128774962911751,1
299,480,57,0.121834826673992,1
299,481,57,0.103656715262276,1
299,482,57,0.0937555365465454,1
299,483,57,0.102279539886411,1
299,484,57,0.0960403869489375,1
299,485,57,0.0728982175229666,1
299,486,57,0.0581028518901541,1
300,476,57,0.100033721836592,1
300,477,57,0.140624603244221,1
300,478,57,0.136109835080405,1
300,479,57,0.111192874862554,1
300,480,57,0.101397912477887,1
300,484,57,0.120588195972155,1
300,485,57,0.0823666138332245,1
300,486,57,0.0586798490096591,1
301,475,57,0.0668186024886061,1
301,476,57,0.0880643093506248,1
301,477,57,0.115692313825838,1
301,478,57,0.112030919249956,1
301,480,57,0.0970500943365012,1
301,484,57,0.116350567731069,1
301,485,57,0.0796746138532306,1
301,486,57,0.0580638736406426,1
301,487,57,0.0521383862033252,1
302,474,57,0.0614814377448344,1
302,475,57,0.0629551690497021,1
302,476,57,0.0704506130910747,1
302,477,57,0.0786117472027996,1
302,478,57,0.0777857858322888,1
302,479,57,0.0810493906600708,1
302,480,57,0.0811669205422733,1
302,481,57,0.0774669023924999,1
302,482,57,0.0776012282693253,1
302,483,57,0.0834429220885147,1
302,484,57,0.0772046528343656,1
302,485,57,0.0615725593219622,1
302,486,57,0.0527729549908703,1
302,487,57,0.0509462673408726,1
302,488,57,0.0523436231583799,1
303,473,57,0.0635622715167632,1
303,475,57,0.0600378117875228,1
303,476,57,0.0589657115480651,1
303,477,57,0.0584585073768682,1
303,478,57,0.0590183898948371,1
303,479,57,0.0648690588106522,1
303,480,57,0.0651852912004666,1
303,481,57,0.0613307366749692,1
303,482,57,0.0574220490315119,1
303,483,57,0.0556684606279764,1
303,484,57,0.0521815844915717,1
303,485,57,0.0481638912036984,1
303,487,57,0.0477613193461773,1
303,488,57,0.0500771978538831,1
303,489,57,0.052853881146781,1
304,476,57,0.0510319305203204,1
304,477,57,0.0473271032095955,1
304,478,57,0.0472635771991524,1
304,479,57,0.0504362618334214,1
304,480,57,0.0514080008952734,1
304,481,57,0.0510953873990749,1
304,482,57,0.0487170198562561,1
304,489,57,0.0484545899545861,1
308,494,57,0.0482325479877316,1
309,495,57,0.0474968275167493,1
310,496,57,0.0473792645715653,1
311,497,57,0.0528180949778509,1
311,498,57,0.0662298950621844,1
311,503,57,0.131457356592744,1
312,497,57,0.0489066570954745,1
312,498,57,0.068749059809034,1
312,499,57,0.101443178705343,1
312,502,57,0.153211704362794,1
312,503,57,0.171319746299447,1
313,498,57,0.0584793550895927,1
313,499,57,0.0862845891687692,1
313,500,57,0.105804306199663,1
313,501,57,0.111914729921368,1
313,502,57,0.131105217804976,1
313,503,57,0.163204239102249,1
314,499,57,0.0554146150786048,1
314,500,57,0.0679517610377939,1
314,501,57,0.0785985099872807,1
314,502,57,0.100094299230226,1
314,503,57,0.131426481779436,1
314,504,57,0.129868193402139,1
315,500,57,0.0480456279244508,1
315,501,57,0.0619256960106279,1
315,502,57,0.0909920183317521,1
315,503,57,0.122248522721939,1
315,504,57,0.112757198736845,1
315,505,57,0.113825601933821,1
316,501,57,0.0523591026451924,1
316,502,57,0.0768614470630647,1
316,503,57,0.10046607742903,1
316,504,57,0.0909217745246048,1
316,505,57,0.0940520694108124,1
317,502,57,0.054941549938712,1
317,503,57,0.0693987834650274,1
317,504,57,0.0714937922388606,1
317,505,57,0.0757552979640706,1
318,503,57,0.0558969378533291,1
318,504,57,0.0659064849996499,1
318,505,57,0.0704477696746622,1
318,506,57,0.0638091738400111,1
319,503,57,0.0522572566391429,1
319,504,57,0.0666151449231034,1
319,505,57,0.0737097453991719,1
320,504,57,0.0590888561256784,1
320,505,57,0.0649371745640784,1
327,497,57,0.0493153185530504,1
328,496,57,0.0529131480440565,1
328,497,57,0.0586643695228466,1
297,482,58,0.114789958933613,1
298,479,58,0.160724130753776,1
298,480,58,0.153820496047639,1
298,481,58,0.12145850982954,1
298,482,58,0.0999844880513511,1
298,483,58,0.094332840250061,1
298,484,58,0.0807330981557445,1
298,485,58,0.0662354616659857,1
298,486,58,0.0593374416552593,1
299,478,58,0.157566603993681,1
299,479,58,0.145219035159199,1
299,480,58,0.142025439691967,1
299,484,58,0.105581978688877,1
299,485,58,0.0735378900325715,1
299,486,58,0.0583475660451692,1
300,477,58,0.158057451006192,1
300,478,58,0.153505496005319,1
301,475,58,0.0702207171632414,1
301,476,58,0.0984315859343199,1
302,474,58,0.0579888387068974,1
302,475,58,0.0650775720066051,1
311,502,58,0.121642075503057,1
312,503,58,0.1650731511854,1
313,503,58,0.153994094735084,1
314,504,58,0.13366170765226,1
315,504,58,0.121888232406358,1
315,505,58,0.112118265635736,1
316,503,58,0.0943368619109066,1
316,504,58,0.0896837882895777,1
316,505,58,0.0902229132665899,1
317,503,58,0.0645313234599335,1
317,504,58,0.0682196012455342,1
317,505,58,0.0703759268214986,1
318,503,58,0.057072843831924,1
318,504,58,0.0618206398896432,1
318,505,58,0.0598905432562867,1
319,503,58,0.0498423304559162,1
319,504,58,0.0543167076791913,1
316,504,59,0.0889735774117173,1
317,504,59,0.0683606960163989,1
318,503,59,0.0607317075868554,1
319,503,59,0.0485997905466131,1
