x,y,z,signal,mito.p
792,312,26,0.103929142207274,1
792,313,26,0.107614823045961,1
792,314,26,0.111733893446691,1
792,319,26,0.0710239612597078,1
792,320,26,0.0660040087722943,1
793,311,26,0.118169981525127,1
793,312,26,0.102714744906714,1
793,313,26,0.0856429509146255,1
793,314,26,0.0731545518131306,1
793,315,26,0.0703817398947986,1
793,316,26,0.0606597986077287,1
793,317,26,0.053182040255755,1
793,318,26,0.0510405629642283,1
793,319,26,0.0517216423496252,1
793,320,26,0.051832733967604,1
793,321,26,0.0538031494040873,1
793,322,26,0.0600143911736892,1
794,310,26,0.090873358296726,1
794,311,26,0.0961046433507002,1
794,312,26,0.081340501195365,1
794,313,26,0.067214865328104,1
794,314,26,0.0590471246315221,1
794,315,26,0.0544799546476886,1
794,316,26,0.0485988166915204,1
794,321,26,0.0484452782166939,1
794,322,26,0.0527247371408807,1
794,323,26,0.0548013268282699,1
795,309,26,0.0703610244340002,1
795,310,26,0.0706338361118742,1
795,311,26,0.0737118253612834,1
795,312,26,0.0679729634261386,1
795,313,26,0.0590097273936733,1
795,314,26,0.0544687973942812,1
795,315,26,0.0535586095811567,1
796,308,26,0.0726034941055076,1
796,309,26,0.0653591724261178,1
796,310,26,0.0626686091829582,1
796,311,26,0.064735790949236,1
796,312,26,0.0611787671889031,1
796,313,26,0.056758877759208,1
796,314,26,0.0594536009265907,1
796,315,26,0.0588545357697697,1
796,316,26,0.0527321071800388,1
796,318,26,0.0635646640743365,1
797,307,26,0.0782614479190953,1
797,308,26,0.0684641771371719,1
797,309,26,0.0598568430609194,1
797,310,26,0.0557827924181462,1
797,311,26,0.0560720213692181,1
797,312,26,0.0560346902573324,1
797,313,26,0.0614203734236532,1
797,314,26,0.0680570636282773,1
797,315,26,0.0601229399478148,1
797,318,26,0.0799129378356313,1
798,307,26,0.0750586970117028,1
798,308,26,0.0608811642863244,1
798,309,26,0.0526774691001791,1
798,313,26,0.0606675954599212,1
798,314,26,0.0630951096219384,1
799,307,26,0.0730455822374217,1
799,308,26,0.0557390771450974,1
800,307,26,0.0754561561299874,1
801,307,26,0.075821958946309,1
802,307,26,0.0794794761361739,1
803,306,26,0.119455049445869,1
803,307,26,0.085071652650848,1
804,307,26,0.0958872151726335,1
804,308,26,0.0623919201190671,1
804,312,26,0.0568758185191939,1
805,308,26,0.0879952317650082,1
805,309,26,0.060359117842141,1
805,310,26,0.0524344922545577,1
805,311,26,0.0568867353145538,1
805,312,26,0.0638383353897305,1
806,309,26,0.07192322025457,1
806,310,26,0.0563837752278965,1
806,311,26,0.0546575749959795,1
807,309,26,0.0703680698547941,1
807,310,26,0.0554862715767815,1
808,309,26,0.07646065158937,1
808,310,26,0.0566694574227668,1
809,310,26,0.0697172160459771,1
791,312,27,0.0929888601076636,1
791,313,27,0.107753603408118,1
792,310,27,0.111985256266721,1
792,311,27,0.107344464040172,1
792,312,27,0.111831098612422,1
792,313,27,0.105976353932701,1
792,314,27,0.0977199142738205,1
792,319,27,0.070737184980721,1
792,320,27,0.0668950441019296,1
792,321,27,0.0682591445714576,1
792,322,27,0.0812115375330005,1
793,309,27,0.0923798459991244,1
793,310,27,0.114361703150885,1
793,311,27,0.115807144566456,1
793,312,27,0.0986016558999171,1
793,313,27,0.0802480161249243,1
793,314,27,0.0690618596602193,1
793,315,27,0.0656898082529819,1
793,316,27,0.0574483671648188,1
793,317,27,0.051633935276773,1
793,318,27,0.0510263158249096,1
793,319,27,0.0531735881553828,1
793,320,27,0.0562535852294893,1
793,321,27,0.0622121717170551,1
793,322,27,0.0742664117907546,1
794,308,27,0.0756203468963214,1
794,309,27,0.0774863734829021,1
794,310,27,0.0832892934419203,1
794,311,27,0.0856647304022844,1
794,312,27,0.0752463504720288,1
794,313,27,0.0643039463301485,1
794,314,27,0.0592054963131049,1
794,315,27,0.0565530877506438,1
794,316,27,0.0499949161157292,1
794,320,27,0.0497900849336297,1
794,321,27,0.0556187339037383,1
794,322,27,0.0627998872540307,1
794,323,27,0.0682021740485364,1
794,326,27,0.0770845260052493,1
794,327,27,0.0649670514764894,1
795,307,27,0.0876468501342333,1
795,308,27,0.0747009675743285,1
795,309,27,0.0676090842741976,1
795,310,27,0.0634570230293405,1
795,311,27,0.0669820418235415,1
795,312,27,0.0652419431164748,1
795,313,27,0.0586569153233718,1
795,314,27,0.0548576661488162,1
795,315,27,0.0556184934456907,1
795,316,27,0.0505047923769797,1
795,321,27,0.0500160133036781,1
795,322,27,0.0522115936559088,1
795,323,27,0.0533754767321251,1
795,324,27,0.054059032835412,1
795,325,27,0.0564231201759307,1
795,326,27,0.0520996604347635,1
796,307,27,0.0878268630400976,1
796,308,27,0.0742803102659043,1
796,309,27,0.0638404574320004,1
796,310,27,0.059678068514,1
796,311,27,0.0619731624292188,1
796,312,27,0.0600031978515747,1
796,313,27,0.0604752711020212,1
796,314,27,0.0687964300444059,1
796,315,27,0.0695566561961614,1
796,316,27,0.0584427814205569,1
796,317,27,0.0558351341236516,1
796,318,27,0.0599217426879593,1
796,319,27,0.0551184909930186,1
797,307,27,0.0828626908082699,1
797,308,27,0.0688542421704936,1
797,309,27,0.0589441665070025,1
797,310,27,0.0550600296302025,1
797,311,27,0.0552090715395394,1
797,312,27,0.0590358050689326,1
797,313,27,0.0781711378878781,1
797,314,27,0.0947406570987448,1
797,315,27,0.0788875525833658,1
797,316,27,0.0572312155135068,1
797,317,27,0.0611325511521595,1
797,318,27,0.0691951034758307,1
797,319,27,0.0569218061207923,1
798,307,27,0.0785031383141621,1
798,308,27,0.0613714642567769,1
798,309,27,0.0527720953533502,1
798,310,27,0.0481235603776692,1
798,311,27,0.0472722306831394,1
798,312,27,0.0584549245519593,1
798,313,27,0.0838243246206726,1
798,314,27,0.0886890614383777,1
798,315,27,0.0601317286894536,1
799,307,27,0.0765064588474326,1
799,308,27,0.0565368207637255,1
799,309,27,0.0484252721071358,1
799,312,27,0.050505213178563,1
799,313,27,0.0613054344769133,1
799,314,27,0.0552948008449503,1
800,308,27,0.055327875849394,1
801,307,27,0.0790147067989224,1
801,308,27,0.0555006449565752,1
802,307,27,0.082456076249824,1
802,308,27,0.0551940128543101,1
803,306,27,0.129274069658196,1
803,307,27,0.0853346596518321,1
803,308,27,0.0535236109123325,1
804,307,27,0.0896222430523014,1
804,308,27,0.0585993436553317,1
804,309,27,0.0473297091736861,1
804,311,27,0.0510677046663481,1
804,312,27,0.0576177037333709,1
804,313,27,0.0526704717709947,1
805,307,27,0.103188819970406,1
805,308,27,0.0758824642025295,1
805,309,27,0.0582585665103112,1
805,310,27,0.0537734708695656,1
805,311,27,0.0602283507444196,1
805,312,27,0.0664176447057294,1
805,313,27,0.0558997692468392,1
806,308,27,0.0861707563290482,1
806,309,27,0.0642112497528091,1
806,310,27,0.0558419631322027,1
806,311,27,0.0567293976025756,1
806,312,27,0.055934942247748,1
807,308,27,0.0831391814942717,1
807,309,27,0.0609477350967949,1
807,310,27,0.0521051188324434,1
807,311,27,0.0481124181528898,1
808,309,27,0.0631724289071355,1
808,310,27,0.0501588964812716,1
809,309,27,0.082317193692997,1
809,310,27,0.0583365711009439,1
809,311,27,0.0485872566708833,1
810,311,27,0.0530534372804618,1
790,312,28,0.0841353571052083,1
790,313,28,0.0911769245588845,1
791,310,28,0.10321870890572,1
791,311,28,0.0949729095154443,1
791,312,28,0.103936981139625,1
791,313,28,0.105923308887406,1
792,309,28,0.108590926421376,1
792,310,28,0.131469800296706,1
792,311,28,0.114611322650071,1
792,312,28,0.110034576424493,1
792,313,28,0.0982604158731551,1
792,314,28,0.0867788927657138,1
792,319,28,0.0700983901429898,1
792,320,28,0.0686754315548671,1
792,321,28,0.0747599519333981,1
793,308,28,0.077938140051231,1
793,309,28,0.0905233655970323,1
793,310,28,0.107914986826746,1
793,311,28,0.101300911701497,1
793,312,28,0.0881077901770771,1
793,313,28,0.0740225632847108,1
793,314,28,0.0658401486357757,1
793,315,28,0.0627950119671161,1
793,316,28,0.0559173166728609,1
793,317,28,0.0506682196890127,1
793,318,28,0.0501993625649525,1
793,319,28,0.0527632645315531,1
793,320,28,0.0590375904699358,1
793,321,28,0.0697140119424932,1
794,307,28,0.0842018918469717,1
794,308,28,0.0770613759067192,1
794,309,28,0.0730845905441893,1
794,310,28,0.072758012446878,1
794,311,28,0.0731734277698651,1
794,312,28,0.0685721848806905,1
794,313,28,0.06123344133747,1
794,314,28,0.0577679178756897,1
794,315,28,0.0567691393063882,1
794,316,28,0.0509951825192001,1
794,320,28,0.0516845036041776,1
794,321,28,0.0611745351272658,1
794,322,28,0.074762963670444,1
794,327,28,0.074175933438904,1
794,328,28,0.069781730940141,1
795,307,28,0.0907014548385161,1
795,308,28,0.0771268586445245,1
795,309,28,0.0663508334372112,1
795,310,28,0.0599934352548432,1
795,311,28,0.062335460569497,1
795,312,28,0.0624471833898506,1
795,313,28,0.057070842018678,1
795,314,28,0.0535087626278948,1
795,315,28,0.0559220717307516,1
795,316,28,0.052512641120019,1
795,317,28,0.0477900089969783,1
795,321,28,0.0539285542873478,1
795,322,28,0.0599722448894008,1
795,323,28,0.0647991877134787,1
795,326,28,0.0606880764741232,1
795,327,28,0.0493160008527604,1
796,308,28,0.0759688788133761,1
796,309,28,0.0625827295912675,1
796,310,28,0.0576240097456685,1
796,311,28,0.0587062873719898,1
796,312,28,0.0581918213677562,1
796,313,28,0.0622949854686393,1
796,314,28,0.0743147378468655,1
796,315,28,0.0766815002831634,1
796,316,28,0.0630277693457156,1
796,317,28,0.0544423890892065,1
796,318,28,0.0529098116886465,1
796,319,28,0.0486892559689382,1
796,321,28,0.0481746517013273,1
796,322,28,0.0516499016911318,1
796,323,28,0.050084450669743,1
796,324,28,0.0490964897068566,1
797,308,28,0.0699977704729829,1
797,309,28,0.0577039921037424,1
797,310,28,0.0535565656877523,1
797,311,28,0.0528014673038613,1
797,312,28,0.0595368174454045,1
797,313,28,0.0894886986641305,1
797,314,28,0.113481602650963,1
797,315,28,0.0919778482351918,1
797,316,28,0.0590229525862898,1
797,317,28,0.0522593185669008,1
797,318,28,0.0553969895037177,1
797,319,28,0.048202935579173,1
798,307,28,0.0827017522370293,1
798,308,28,0.0622514866078333,1
798,309,28,0.0517467101010847,1
798,312,28,0.0616232839470977,1
798,313,28,0.0997164915458798,1
798,314,28,0.105824300286318,1
798,315,28,0.0658800887174776,1
799,307,28,0.0810426097431293,1
799,308,28,0.0573092802186514,1
799,309,28,0.0477348358979627,1
799,312,28,0.0516124984418318,1
799,313,28,0.0673492272736366,1
799,314,28,0.0588594892055497,1
800,308,28,0.055360644269827,1
801,307,28,0.0809070334844564,1
801,308,28,0.0552925525622055,1
802,307,28,0.0837901374977589,1
802,308,28,0.0541152519269346,1
803,307,28,0.082935753986025,1
803,308,28,0.0519888994466002,1
804,307,28,0.0827384942266985,1
804,308,28,0.0568265005736367,1
804,309,28,0.0477640094705845,1
804,311,28,0.0509523028378666,1
804,312,28,0.0547157538205898,1
804,313,28,0.0478169402983065,1
805,307,28,0.08668961069265,1
805,308,28,0.0672025057844588,1
805,309,28,0.0562473633775084,1
805,310,28,0.0537079941432114,1
805,311,28,0.0597466110804607,1
805,312,28,0.0636910428126897,1
805,313,28,0.0507693864010779,1
806,307,28,0.0870498048250119,1
806,308,28,0.0686427112260437,1
806,309,28,0.0572455287787886,1
806,310,28,0.0535229135839945,1
806,311,28,0.055314572507912,1
806,312,28,0.054314158823887,1
807,307,28,0.0893554788943239,1
807,308,28,0.0659712824320196,1
807,309,28,0.0525766330179293,1
807,310,28,0.0479274938914038,1
808,308,28,0.0708042667645427,1
808,309,28,0.0518154750912394,1
809,309,28,0.0635797588282729,1
809,310,28,0.0500367858732628,1
810,310,28,0.0601955642896331,1
811,311,28,0.0490318125035107,1
788,314,29,0.078749595790022,1
789,312,29,0.0718585009710658,1
789,313,29,0.0738631576335235,1
790,310,29,0.089187386696168,1
790,311,29,0.0898240715145317,1
790,312,29,0.0870056026244168,1
790,313,29,0.086288803196053,1
791,309,29,0.100073631861038,1
791,312,29,0.102789058466316,1
791,313,29,0.0945899079372701,1
792,308,29,0.0843774803247607,1
792,309,29,0.109804878874549,1
792,312,29,0.0965379487524267,1
792,313,29,0.0845319806317776,1
792,314,29,0.0774142541029838,1
792,319,29,0.0723977942687113,1
792,320,29,0.0737140736440282,1
792,321,29,0.0825296984925396,1
793,307,29,0.0863272404149575,1
793,308,29,0.0818500438210746,1
793,309,29,0.0857836188724557,1
793,310,29,0.0930028547660324,1
793,311,29,0.0830574558153528,1
793,312,29,0.0756469656021877,1
793,313,29,0.0677951927915679,1
793,314,29,0.063635581164017,1
793,315,29,0.0617948748098458,1
793,316,29,0.0563580582397086,1
793,317,29,0.0526889750177554,1
793,318,29,0.0522370882204027,1
793,319,29,0.0548295926717621,1
793,320,29,0.0630226656236558,1
793,321,29,0.0766772381642702,1
794,307,29,0.0924429482022587,1
794,308,29,0.0816392643080233,1
794,309,29,0.071493263231156,1
794,310,29,0.0662102977313072,1
794,311,29,0.0653785172760451,1
794,312,29,0.0636824284031354,1
794,313,29,0.0590855858962314,1
794,314,29,0.0559160362337575,1
794,315,29,0.0562863356155688,1
794,316,29,0.0527696066125578,1
794,317,29,0.0486267939853555,1
794,319,29,0.04721334851874,1
794,320,29,0.0545209467333486,1
794,321,29,0.0666167559920222,1
794,329,29,0.0753738353174008,1
794,330,29,0.065399407068928,1
795,308,29,0.080826498072873,1
795,309,29,0.066927223400146,1
795,310,29,0.0591047143339158,1
795,311,29,0.0597556823603054,1
795,312,29,0.0593138948009507,1
795,313,29,0.0548806539381642,1
795,314,29,0.0511417597335494,1
795,315,29,0.0547875906623023,1
795,316,29,0.0541715551787738,1
795,317,29,0.0496798198901895,1
795,320,29,0.0487440984381384,1
795,321,29,0.0585615917418627,1
795,322,29,0.0666416975030067,1
795,327,29,0.0571711731390278,1
795,328,29,0.0519243424722781,1
795,329,29,0.0487661965327104,1
796,308,29,0.0780453362488391,1
796,309,29,0.0632963609848546,1
796,310,29,0.0567165270855792,1
796,311,29,0.0562558575580389,1
796,312,29,0.0562153644228276,1
796,313,29,0.0621729349751424,1
796,314,29,0.0729302826036105,1
796,315,29,0.0764263863175908,1
796,316,29,0.0643624678074766,1
796,317,29,0.0530654000683286,1
796,321,29,0.0519043844543295,1
796,322,29,0.0595680709801378,1
796,323,29,0.0591434821826358,1
796,325,29,0.0566702990259333,1
796,326,29,0.0519590646143476,1
797,308,29,0.072047783534664,1
797,309,29,0.0591820456420153,1
797,310,29,0.0533306854093135,1
797,311,29,0.0513653075689268,1
797,312,29,0.0588643224123059,1
797,313,29,0.0918818754169543,1
797,314,29,0.116122733730993,1
797,315,29,0.0953633713045445,1
797,316,29,0.0598918657755484,1
797,322,29,0.0490050104483831,1
797,323,29,0.0534635745493047,1
797,324,29,0.0567333952176165,1
797,325,29,0.0510904099174902,1
798,308,29,0.0654015230997466,1
798,309,29,0.0539237571492987,1
798,310,29,0.0481535094274944,1
798,312,29,0.0619388370429277,1
798,313,29,0.103415824390218,1
798,314,29,0.110300787528961,1
798,315,29,0.0692487376433419,1
799,308,29,0.0600978361276482,1
799,309,29,0.0495959451174705,1
799,312,29,0.0513082348513354,1
799,313,29,0.0685796210458117,1
799,314,29,0.0610373177424183,1
800,308,29,0.0573419885245725,1
801,307,29,0.0821846832744307,1
801,308,29,0.0562137653768112,1
802,307,29,0.0837731551481491,1
802,308,29,0.0536896471941816,1
803,307,29,0.0810378606966897,1
803,308,29,0.0521801537661886,1
804,307,29,0.0790979533749922,1
804,308,29,0.0569609647138395,1
804,309,29,0.0486463342074464,1
804,310,29,0.047314924009486,1
804,311,29,0.0499867134905814,1
804,312,29,0.0509054135185899,1
805,307,29,0.0788210298645048,1
805,308,29,0.0637581306079626,1
805,309,29,0.0553022370100715,1
805,310,29,0.0529044554856368,1
805,311,29,0.0565044611219734,1
805,312,29,0.0574567351048743,1
806,307,29,0.0751797676386558,1
806,308,29,0.0617070895881281,1
806,309,29,0.0544425453869374,1
806,310,29,0.0518343570594251,1
806,311,29,0.052589768038778,1
806,312,29,0.0505169475312846,1
807,307,29,0.0743583689595977,1
807,308,29,0.057403191109131,1
807,309,29,0.0491824744989431,1
808,307,29,0.0769913184545588,1
808,308,29,0.0577120234025314,1
809,307,29,0.086392188133607,1
809,308,29,0.0668893873263604,1
809,309,29,0.0539271055276111,1
810,309,29,0.0651965386256418,1
810,310,29,0.0527912778940954,1
811,310,29,0.0578678161715539,1
812,311,29,0.0472509892203619,1
788,313,30,0.0684408707409109,1
788,314,30,0.0829046627604738,1
789,311,30,0.0726067943922105,1
789,312,30,0.0700951920509571,1
789,313,30,0.0732699295958073,1
790,312,30,0.0869086319052818,1
790,313,30,0.0807001433803246,1
792,308,30,0.0819729238948356,1
793,307,30,0.0885956795556028,1
793,308,30,0.081438199300094,1
793,316,30,0.0552698352881611,1
793,317,30,0.0534533550822828,1
793,318,30,0.0532888156517798,1
793,319,30,0.0554831696679678,1
794,307,30,0.0974840670093098,1
794,314,30,0.0531663744139556,1
794,315,30,0.0528869922199318,1
794,316,30,0.0516247197220997,1
794,317,30,0.0487257364604806,1
794,319,30,0.0477315686742413,1
794,320,30,0.0552869017980876,1
795,313,30,0.0521425220817434,1
795,314,30,0.0482741261898826,1
795,315,30,0.0507754820125838,1
795,316,30,0.0519994074632792,1
795,317,30,0.0484173279743891,1
795,320,30,0.0485455191652759,1
796,311,30,0.054105579501971,1
796,312,30,0.0544728070322245,1
796,313,30,0.0593724162782788,1
796,314,30,0.0654923561272173,1
796,315,30,0.0673320766033935,1
796,316,30,0.0589780169886496,1
796,317,30,0.0490788220518112,1
796,321,30,0.0510906203182818,1
797,310,30,0.0527396275054767,1
797,311,30,0.0507075105339862,1
797,312,30,0.0572912518765346,1
797,313,30,0.0835002893672144,1
797,314,30,0.100580367139042,1
797,315,30,0.085091815058137,1
797,316,30,0.0559571245026366,1
797,322,30,0.0501565971011917,1
798,310,30,0.0485062734061864,1
798,312,30,0.0587765131447834,1
798,313,30,0.0917733567000846,1
798,314,30,0.0977456192391061,1
798,315,30,0.0661045322590822,1
799,309,30,0.0507424731341033,1
799,312,30,0.0487537618459253,1
799,313,30,0.0622883187692703,1
799,314,30,0.0579900229627817,1
800,309,30,0.0477721970671043,1
801,308,30,0.0558928861352275,1
802,308,30,0.0528867517618842,1
803,308,30,0.052531186446938,1
804,309,30,0.0490761439503064,1
804,310,30,0.0474749217886154,1
804,311,30,0.0486531632159975,1
804,312,30,0.0473704217268658,1
805,309,30,0.05337251909814,1
805,310,30,0.0511649759580426,1
805,311,30,0.0527974336201132,1
805,312,30,0.0511524961853735,1
806,309,30,0.050968064862885,1
806,310,30,0.0489261131572488,1
806,311,30,0.04880561962961,1
807,308,30,0.0515507187579592,1
808,308,30,0.0505494334135117,1
809,309,30,0.0476463082620231,1
810,309,30,0.0550598673210203,1
811,310,30,0.0495840965471763,1
813,311,30,0.0504918557340203,1
788,314,31,0.0835254052102835,1
789,312,31,0.0700981136162351,1
789,313,31,0.0733600532720377,1
792,308,31,0.0805443686456556,1
793,307,31,0.093903965287861,1
788,315,36,0.0815843977930183,1
789,313,36,0.077782299190599,1
789,314,36,0.0778397806868713,1
790,312,36,0.085744700737456,1
790,313,36,0.0841815430846959,1
792,308,36,0.0928571672464591,1
793,307,36,0.116734266637581,1
793,308,36,0.0951516780509125,1
793,319,36,0.0635421451781813,1
793,336,36,0.0683247535497379,1
794,315,36,0.0638144579056066,1
794,316,36,0.0580864526513097,1
794,317,36,0.0547576776811842,1
794,318,36,0.0524952379688259,1
794,319,36,0.0533747974381407,1
794,320,36,0.0578059763731693,1
794,335,36,0.0540513081206338,1
794,336,36,0.0546749240441119,1
795,313,36,0.059055282170786,1
795,314,36,0.0550933691384985,1
795,315,36,0.0515977523520644,1
795,316,36,0.0487422408997209,1
795,317,36,0.0472238625468701,1
795,318,36,0.0472107966577101,1
795,319,36,0.0496580103452747,1
795,320,36,0.0535763313392628,1
795,321,36,0.0578656340147722,1
795,322,36,0.0660618269098332,1
795,332,36,0.0576813650014658,1
795,333,36,0.0541641130022014,1
795,334,36,0.0495774418707097,1
795,335,36,0.0473606140442504,1
796,312,36,0.0529458262927217,1
796,313,36,0.0492550387262495,1
796,320,36,0.0485326215967492,1
796,321,36,0.0505737437221213,1
796,322,36,0.0506441257926459,1
796,323,36,0.0541812817067982,1
796,330,36,0.0611051209003827,1
796,331,36,0.0541427903848329,1
796,332,36,0.0549685954576128,1
796,333,36,0.0543919710480816,1
796,334,36,0.0482228334826097,1
797,311,36,0.0512311800699906,1
797,321,36,0.0472503970924198,1
797,325,36,0.0501547245341462,1
797,326,36,0.0540577884650159,1
797,327,36,0.0568710153696937,1
797,328,36,0.0567991604936277,1
797,329,36,0.0547177796796406,1
797,330,36,0.0510689790940002,1
797,331,36,0.0525708500018852,1
797,332,36,0.0591589436350947,1
798,310,36,0.0534688946836072,1
798,315,36,0.0488107443917489,1
798,316,36,0.0535963254259185,1
798,328,36,0.047956538217825,1
798,329,36,0.0477349290754561,1
798,330,36,0.0483573968117571,1
798,331,36,0.0537192415683867,1
799,310,36,0.0511724602147733,1
799,315,36,0.0516292343219429,1
799,316,36,0.0557398045306913,1
800,309,36,0.06108544542064,1
800,310,36,0.0572139025340816,1
800,311,36,0.0553129013244814,1
800,312,36,0.0480934730644666,1
801,309,36,0.068144247704876,1
801,310,36,0.0769589287555507,1
801,311,36,0.0755617112014207,1
801,312,36,0.0591509664393665,1
802,308,36,0.0700857360382363,1
802,309,36,0.0794961098216148,1
802,310,36,0.0918943972697816,1
802,311,36,0.0858912959861589,1
802,312,36,0.0633384712004358,1
803,309,36,0.0830370409271139,1
803,310,36,0.0875413491658606,1
803,311,36,0.0773897634508385,1
803,312,36,0.058563028478697,1
804,309,36,0.0718182302595485,1
804,310,36,0.0703835373187043,1
804,311,36,0.0613787501356183,1
804,312,36,0.0493472273359634,1
805,308,36,0.0550615505273534,1
805,309,36,0.0572905064565871,1
805,310,36,0.0553753723252409,1
805,311,36,0.0479199976117707,1
813,310,36,0.0578427424086433,1
788,324,37,0.0991723229613197,1
789,314,37,0.0781656073527839,1
790,312,37,0.08516582804518,1
790,313,37,0.0837918748071527,1
790,314,37,0.0856146910825844,1
790,325,37,0.105002871550004,1
791,313,37,0.0908141996055719,1
791,325,37,0.0920065829718768,1
791,326,37,0.0903673924844741,1
792,314,37,0.10177741539147,1
792,324,37,0.0812309004172813,1
792,325,37,0.0800650215392701,1
792,326,37,0.0829687328072496,1
792,327,37,0.081085435321402,1
792,328,37,0.0801427075229897,1
792,329,37,0.0811369835153505,1
792,334,37,0.0822264989289037,1
792,335,37,0.079536633014082,1
792,336,37,0.0750614682907011,1
793,307,37,0.111243286892228,1
793,308,37,0.0984002722850748,1
793,313,37,0.0943607754637378,1
793,314,37,0.101205882681096,1
793,315,37,0.112929535019541,1
793,318,37,0.0823306533322099,1
793,319,37,0.0738460730892434,1
793,320,37,0.0758550640080086,1
793,321,37,0.0826095245528827,1
793,322,37,0.0891387179873392,1
793,323,37,0.0896550655757951,1
793,324,37,0.0861293434418049,1
793,325,37,0.0811670227369435,1
793,326,37,0.0786340136180049,1
793,327,37,0.0749182995691761,1
793,328,37,0.0737670705977133,1
793,329,37,0.0743666226820806,1
793,330,37,0.0753311299681518,1
793,331,37,0.0738920246221346,1
793,332,37,0.0700967850855223,1
793,333,37,0.0668052330211611,1
793,334,37,0.0690174049786743,1
793,335,37,0.0689100584947865,1
793,336,37,0.0672452712482196,1
793,337,37,0.067206130689526,1
794,308,37,0.0941881386084827,1
794,309,37,0.0947662057662994,1
794,312,37,0.0943124494076268,1
794,313,37,0.0804849755079051,1
794,314,37,0.0829904161116895,1
794,315,37,0.0814476493013636,1
794,316,37,0.0738162502798932,1
794,317,37,0.0668247942833311,1
794,318,37,0.0601334299301402,1
794,319,37,0.0579213601672972,1
794,320,37,0.0611434318788122,1
794,321,37,0.0684767290472552,1
794,322,37,0.0826680760874667,1
794,323,37,0.10054305406151,1
794,324,37,0.110641468490762,1
794,325,37,0.0958655859712543,1
794,326,37,0.0822853931162055,1
794,327,37,0.0809817197540326,1
794,328,37,0.0869039189275494,1
794,329,37,0.0891622888874525,1
794,330,37,0.0839701443921721,1
794,331,37,0.0724422910304147,1
794,332,37,0.0640202058340124,1
794,333,37,0.0596824628848194,1
794,334,37,0.0576050195713614,1
794,335,37,0.0565777587463248,1
794,336,37,0.0557221068183899,1
794,337,37,0.0557393055802426,1
795,308,37,0.0896549513582225,1
795,309,37,0.0853520748259276,1
795,310,37,0.0837917425552265,1
795,311,37,0.076911372165192,1
795,312,37,0.0683073083183865,1
795,313,37,0.0670097425906219,1
795,314,37,0.0647539094631207,1
795,315,37,0.0600436068264693,1
795,316,37,0.0553414617290819,1
795,317,37,0.0528076530871351,1
795,318,37,0.0521007665417824,1
795,319,37,0.0540208541089086,1
795,320,37,0.0569132818830058,1
795,321,37,0.0584567640560233,1
795,322,37,0.0641853403981831,1
795,323,37,0.0796165612690952,1
795,324,37,0.0967180037384494,1
795,325,37,0.0878593609452271,1
795,326,37,0.0792192344027368,1
795,327,37,0.0847312301814477,1
795,328,37,0.0947047867694981,1
795,329,37,0.0936747546654632,1
795,330,37,0.0801261159177072,1
795,331,37,0.0656832317253808,1
795,332,37,0.0597009661315802,1
795,333,37,0.057861341838623,1
795,334,37,0.0525778593539719,1
795,335,37,0.0497996972440815,1
795,336,37,0.0491316266390582,1
796,308,37,0.0891993795412907,1
796,309,37,0.0824235242416338,1
796,310,37,0.0747313254028346,1
796,311,37,0.0653377055339207,1
796,312,37,0.0571629073936425,1
796,313,37,0.0535940591088202,1
796,314,37,0.0499372302301164,1
796,319,37,0.0504824237671043,1
796,320,37,0.0536349550112611,1
796,321,37,0.0531545078093079,1
796,322,37,0.0510851438862483,1
796,323,37,0.0535738185526657,1
796,324,37,0.0612818154851905,1
796,325,37,0.0620797093900984,1
796,326,37,0.0646354658403374,1
796,327,37,0.0710201980912633,1
796,328,37,0.0749487956610596,1
796,329,37,0.0705579896322185,1
796,330,37,0.0612563329435989,1
796,331,37,0.0564858316347377,1
796,332,37,0.0586191093068422,1
796,333,37,0.0594291042629942,1
796,334,37,0.0507164796191606,1
797,308,37,0.0881748539265453,1
797,309,37,0.0779814345226965,1
797,310,37,0.0661815269259151,1
797,311,37,0.0565674731533399,1
797,312,37,0.0486313867340642,1
797,316,37,0.0484313647129162,1
797,320,37,0.0480665207230593,1
797,321,37,0.0500836481410092,1
797,325,37,0.0472031050059133,1
797,326,37,0.0503683685036892,1
797,327,37,0.0533482388467863,1
797,328,37,0.0539452480873005,1
797,329,37,0.0529814261066649,1
797,330,37,0.0520284067038165,1
797,331,37,0.055341846461958,1
797,332,37,0.0625510913236581,1
797,333,37,0.062373278608929,1
797,334,37,0.0497750623171076,1
798,308,37,0.0854650720739333,1
798,309,37,0.0723846231791555,1
798,310,37,0.0582552662236083,1
798,311,37,0.049520185803857,1
798,315,37,0.0549399148239886,1
798,316,37,0.061796119180242,1
798,317,37,0.0500232901653428,1
798,329,37,0.0472561169882264,1
798,330,37,0.0501363144648789,1
798,331,37,0.0562302908561307,1
798,332,37,0.0643126509114707,1
798,333,37,0.0619017884692479,1
798,334,37,0.0487989889989481,1
799,308,37,0.0803927838924656,1
799,309,37,0.067145168563015,1
799,310,37,0.054970951946479,1
799,311,37,0.0498369622300041,1
799,315,37,0.0579323971916808,1
799,316,37,0.0609153213519821,1
799,331,37,0.0513513970708747,1
799,332,37,0.0540885670951052,1
800,307,37,0.0822285007421497,1
800,308,37,0.0725529017322983,1
800,309,37,0.0664127694188148,1
800,310,37,0.0676972842860473,1
800,311,37,0.0704404357042112,1
800,312,37,0.0575078745201419,1
801,307,37,0.0771662035925586,1
801,308,37,0.0705338716900469,1
801,309,37,0.0786355886182165,1
801,310,37,0.105510718946478,1
801,311,37,0.113438103790157,1
801,312,37,0.0770908260060957,1
801,313,37,0.0507100834350952,1
802,307,37,0.0793160007325314,1
802,308,37,0.0789145740564619,1
802,309,37,0.0964571909171493,1
802,310,37,0.130684620611064,1
802,311,37,0.126293387769188,1
802,312,37,0.0778002373609479,1
802,313,37,0.0485664901127498,1
803,307,37,0.0808278987410001,1
803,308,37,0.085828241874634,1
803,309,37,0.097621813401862,1
803,310,37,0.112085779753509,1
803,311,37,0.0957825017043666,1
803,312,37,0.0622044349793745,1
804,307,37,0.0704738834186286,1
804,308,37,0.0729585785043586,1
804,309,37,0.075297543990357,1
804,310,37,0.0746591940000138,1
804,311,37,0.0631555307178423,1
804,312,37,0.0480243113185334,1
805,306,37,0.076729940556847,1
805,307,37,0.0602662048525588,1
805,308,37,0.0549864554790963,1
805,309,37,0.0538658127712848,1
805,310,37,0.0513134287451629,1
806,307,37,0.0555035003958901,1
807,307,37,0.0534772025091509,1
809,308,37,0.0479165259987088,1
812,309,37,0.0524787846269207,1
813,310,37,0.0539031018030122,1
814,310,37,0.0753553260591888,1
814,311,37,0.0549092323771182,1
815,312,37,0.0547205449471877,1
815,313,37,0.0482635821044965,1
788,323,38,0.0924991733052324,1
788,324,38,0.0922617991321196,1
789,324,38,0.103557141584776,1
790,313,38,0.0884642391753482,1
790,325,38,0.104399935018617,1
791,313,38,0.0999866221165233,1
791,324,38,0.102722319335212,1
791,325,38,0.0922861154521804,1
791,326,38,0.0847999951716024,1
791,327,38,0.08153456887411,1
791,328,38,0.0847806984132847,1
792,309,38,0.107021805409036,1
792,323,38,0.0968348362923139,1
792,324,38,0.082931564004546,1
792,325,38,0.0793045429065645,1
792,326,38,0.0783254638628104,1
792,327,38,0.0761621229233081,1
792,328,38,0.0759417972257682,1
792,329,38,0.0740005613733579,1
792,330,38,0.0713115430731539,1
792,335,38,0.0742860211445341,1
792,336,38,0.0727622745657712,1
793,308,38,0.104615265200219,1
793,313,38,0.105624491671687,1
793,319,38,0.0933144703613334,1
793,320,38,0.0862376457464318,1
793,321,38,0.0872606684983799,1
793,322,38,0.0906273997713148,1
793,323,38,0.0868086915292593,1
793,324,38,0.0823693851122227,1
793,325,38,0.0785491499615652,1
793,326,38,0.0761036735833943,1
793,327,38,0.0722413642858627,1
793,328,38,0.0705821436430972,1
793,329,38,0.0700848102747531,1
793,330,38,0.0691990229420061,1
793,337,38,0.0648654098597803,1
794,308,38,0.0986389449316445,1
794,309,38,0.0994769833075947,1
794,312,38,0.0970726733471683,1
794,313,38,0.094112322186083,1
794,314,38,0.119122736424123,1
794,316,38,0.109186937760993,1
794,317,38,0.0862229357253715,1
794,318,38,0.0721570897516395,1
794,319,38,0.0673428912040831,1
794,320,38,0.068882958872825,1
794,321,38,0.072177234124575,1
794,322,38,0.0797453566108265,1
794,323,38,0.090788422502872,1
794,324,38,0.0998575201907813,1
794,325,38,0.0900013431986537,1
794,326,38,0.0789554879932564,1
794,327,38,0.0761201990627138,1
794,328,38,0.0786290541707737,1
794,329,38,0.0793233527373359,1
794,330,38,0.0753161434203368,1
794,338,38,0.0554643898944524,1
795,308,38,0.0936020521747795,1
795,309,38,0.09130877371782,1
795,310,38,0.090114863442913,1
795,311,38,0.0812017148217571,1
795,312,38,0.0728686892747247,1
795,313,38,0.0794666056191776,1
795,314,38,0.0878424206757756,1
795,315,38,0.0802247277630169,1
795,316,38,0.06564875605281,1
795,317,38,0.0580805193489858,1
795,318,38,0.0596448792919838,1
795,319,38,0.0668758315039285,1
795,320,38,0.06785974976589,1
795,321,38,0.0628798455662999,1
795,322,38,0.0645025947346998,1
795,323,38,0.077091535357336,1
795,324,38,0.0916619825438999,1
795,325,38,0.0844703873028917,1
795,326,38,0.0758409611435184,1
795,327,38,0.0796592786412466,1
795,328,38,0.0867120634628421,1
795,329,38,0.0842967886154464,1
796,308,38,0.0966586707152107,1
796,309,38,0.0932039378083153,1
796,310,38,0.0863238860251938,1
796,311,38,0.072845172477672,1
796,312,38,0.0621851562554103,1
796,313,38,0.0599107838124412,1
796,314,38,0.0567878228966846,1
796,315,38,0.0506646548984575,1
796,318,38,0.0535488469844252,1
796,319,38,0.0651998208779912,1
796,320,38,0.0666818539969514,1
796,321,38,0.0582558553458248,1
796,322,38,0.0528141454544195,1
796,323,38,0.0554708822617369,1
796,324,38,0.0616829415887006,1
796,325,38,0.0615133585506497,1
796,326,38,0.0625789002968599,1
796,327,38,0.0686681516874769,1
796,328,38,0.0725649787377376,1
796,329,38,0.0679746105637645,1
796,330,38,0.061727726900061,1
796,331,38,0.0597170227177069,1
796,335,38,0.0500282977041835,1
796,336,38,0.0481674770343328,1
796,337,38,0.0485438209303149,1
796,338,38,0.0480115429962073,1
797,309,38,0.094577584462332,1
797,310,38,0.0790741540397337,1
797,311,38,0.0629309549243115,1
797,312,38,0.0516618043644867,1
797,316,38,0.0499634251286739,1
797,319,38,0.0502473609969737,1
797,320,38,0.0533087796811796,1
797,321,38,0.0517815885408852,1
797,322,38,0.0472097085850448,1
797,326,38,0.0494514508709583,1
797,327,38,0.0524268577115473,1
797,328,38,0.0533276436150117,1
797,329,38,0.0528600969873107,1
797,330,38,0.0542447566199062,1
797,331,38,0.0586383519620992,1
797,332,38,0.0663121317144543,1
797,333,38,0.0669187712997739,1
797,334,38,0.0539786777673643,1
798,308,38,0.100958619670776,1
798,309,38,0.0865088884355453,1
798,310,38,0.0669545815145087,1
798,311,38,0.0531776518963868,1
798,315,38,0.0570704753201555,1
798,316,38,0.0633446389493561,1
798,317,38,0.0504902446651016,1
798,329,38,0.0487248167084487,1
798,330,38,0.0535568662603118,1
798,331,38,0.0592965217070136,1
798,332,38,0.0656095674025068,1
798,333,38,0.062152568178513,1
798,334,38,0.0499190696360735,1
799,308,38,0.0871826338504913,1
799,309,38,0.073627671056084,1
799,310,38,0.0601456512104081,1
799,311,38,0.0545847101961137,1
799,312,38,0.0489312379193877,1
799,315,38,0.0591560821843286,1
799,316,38,0.0595017766964219,1
799,330,38,0.0503204422090823,1
799,331,38,0.0533867361802027,1
799,332,38,0.0544925065577719,1
799,333,38,0.0509084553128917,1
800,307,38,0.0867244410408409,1
800,308,38,0.0737740318581905,1
800,309,38,0.0707921176216891,1
800,310,38,0.07878001373304,1
800,311,38,0.091538086534888,1
800,312,38,0.0690569843733048,1
800,313,38,0.0507042823846975,1
800,330,38,0.0472034356357288,1
800,331,38,0.048700440273876,1
801,307,38,0.0812824305768762,1
801,308,38,0.0743266164744156,1
801,309,38,0.0865450172571932,1
801,310,38,0.131009840120406,1
801,311,38,0.158582659473701,1
801,312,38,0.0967260170028847,1
801,313,38,0.0545097173425269,1
802,307,38,0.0875140150973028,1
802,308,38,0.0852887201418433,1
802,309,38,0.105499790128216,1
802,310,38,0.158627961769864,1
802,311,38,0.164370039831395,1
802,312,38,0.0893432996942143,1
802,313,38,0.0494694611787215,1
803,307,38,0.0895225190885216,1
803,308,38,0.0924824614709261,1
803,309,38,0.102675417993033,1
803,310,38,0.124105399879809,1
803,311,38,0.105863759451925,1
803,312,38,0.061735824324813,1
804,306,38,0.0759449111574843,1
804,307,38,0.0731461237585632,1
804,308,38,0.0745589951315902,1
804,309,38,0.0738180837725059,1
804,310,38,0.0732433469586481,1
804,311,38,0.0603201696498854,1
805,306,38,0.0744129950165551,1
805,307,38,0.0605225030740157,1
805,308,38,0.0544836757359748,1
805,309,38,0.0507770329669907,1
806,307,38,0.055538360801337,1
806,321,38,0.0480791267362033,1
806,322,38,0.053521753373915,1
807,307,38,0.0525566930343343,1
807,322,38,0.0497506347851998,1
809,308,38,0.0485899467952906,1
812,309,38,0.0515408659894599,1
813,310,38,0.0515317285836521,1
813,311,38,0.0486800794886977,1
814,310,38,0.0719521834264002,1
814,311,38,0.0591269266460604,1
814,312,38,0.0497258345433182,1
815,311,38,0.0740814935407197,1
815,312,38,0.0564109409758211,1
815,313,38,0.0504277556299885,1
815,314,38,0.0481435394356969,1
815,315,38,0.0484676889067277,1
815,316,38,0.0484675356147223,1
816,312,38,0.0770597648378005,1
816,313,38,0.0729002373705662,1
789,324,39,0.0957095707785378,1
789,325,39,0.10520290859978,1
790,324,39,0.105702844926489,1
790,325,39,0.103766929208381,1
790,326,39,0.0949752660043105,1
791,324,39,0.101324188040502,1
791,325,39,0.0913222814486424,1
791,326,39,0.0799985228662138,1
791,327,39,0.0764877331769779,1
791,328,39,0.0793472903359718,1
791,329,39,0.0786126609433804,1
792,323,39,0.103757443138405,1
792,324,39,0.0857153107525914,1
792,325,39,0.0770020068147734,1
792,326,39,0.0726793826653216,1
792,327,39,0.0715639939658496,1
792,328,39,0.0726696681601997,1
792,337,39,0.0761275510675183,1
793,308,39,0.113361938703589,1
793,309,39,0.1178286633495,1
793,320,39,0.0958934250017121,1
793,321,39,0.0943615930210995,1
793,322,39,0.0955751667528468,1
793,323,39,0.0842946966304325,1
793,324,39,0.0762190273202663,1
793,325,39,0.0722529243064998,1
793,326,39,0.0704140454334901,1
793,327,39,0.0677211737930737,1
793,328,39,0.0672592178149789,1
793,338,39,0.0654971652881688,1
794,308,39,0.106210848620694,1
794,309,39,0.11078161946379,1
794,310,39,0.115352185917546,1
794,312,39,0.0965486491355437,1
794,313,39,0.106115519027734,1
794,317,39,0.110647251506806,1
794,318,39,0.0840199793225316,1
794,319,39,0.0764651481548596,1
794,320,39,0.0747364171019919,1
794,321,39,0.0732110714772127,1
794,322,39,0.0741294949784665,1
794,323,39,0.0770552682723109,1
794,324,39,0.0836184985434013,1
794,325,39,0.0803637666175748,1
794,326,39,0.0732316787318897,1
794,327,39,0.0688715852071748,1
794,328,39,0.0695016213605232,1
794,339,39,0.062966404451975,1
795,308,39,0.0986705892107051,1
795,309,39,0.102763509798762,1
795,310,39,0.104194980601768,1
795,311,39,0.0923821363620275,1
795,312,39,0.0780811344406715,1
795,313,39,0.088881265567254,1
795,314,39,0.112859176994821,1
795,316,39,0.0843947271782229,1
795,317,39,0.0665467766887272,1
795,318,39,0.0675750354146612,1
795,319,39,0.0790028702515307,1
795,320,39,0.0775994548912245,1
795,321,39,0.0658563494967309,1
795,322,39,0.0628186670275461,1
795,323,39,0.0703213308217971,1
795,324,39,0.0816299165014239,1
795,325,39,0.0783091668186362,1
795,326,39,0.0713252672162191,1
795,327,39,0.0719051257864902,1
796,309,39,0.118056545441185,1
796,310,39,0.110106785976179,1
796,311,39,0.0872878582921092,1
796,312,39,0.0666468913968343,1
796,313,39,0.0640336173816158,1
796,314,39,0.0622955024534416,1
796,315,39,0.0546439891162917,1
796,316,39,0.0490871208601781,1
796,317,39,0.0510331087647535,1
796,318,39,0.0607713591189002,1
796,319,39,0.0790510099526548,1
796,320,39,0.0783193081367925,1
796,321,39,0.0622526408064617,1
796,322,39,0.0547324055403843,1
796,323,39,0.0572881018761114,1
796,324,39,0.0619035979160559,1
796,325,39,0.0605664768394656,1
796,326,39,0.0601684105646109,1
796,327,39,0.0647867981125775,1
796,328,39,0.0686574212471039,1
797,310,39,0.106480474229438,1
797,311,39,0.0738063554312355,1
797,312,39,0.0541623336126494,1
797,313,39,0.0477639944419565,1
797,316,39,0.0495485838992754,1
797,317,39,0.0481975553303586,1
797,318,39,0.0483615417073522,1
797,319,39,0.054905222739175,1
797,320,39,0.0566434338505682,1
797,321,39,0.051552299769622,1
797,322,39,0.0472519690869058,1
797,326,39,0.0493022165951833,1
797,327,39,0.0525854037252145,1
798,309,39,0.11922729960611,1
798,310,39,0.0844128336692051,1
798,311,39,0.0591937499374809,1
798,312,39,0.0473227719590136,1
798,315,39,0.0545881968378035,1
798,316,39,0.0578152279965497,1
798,317,39,0.0482872131191218,1
799,308,39,0.100324796303179,1
799,309,39,0.0856864798326874,1
799,310,39,0.0684310119609604,1
799,311,39,0.0604728304528383,1
799,312,39,0.0518580301542086,1
799,313,39,0.0472793903215059,1
799,314,39,0.0480037551611915,1
799,315,39,0.0556847336263459,1
799,316,39,0.0532374057212087,1
800,308,39,0.0772395252627148,1
800,309,39,0.0759709888327435,1
800,310,39,0.0850729631472073,1
800,311,39,0.101678058126212,1
800,312,39,0.073756328134438,1
800,313,39,0.0525423737576014,1
801,307,39,0.0889562463979384,1
801,308,39,0.0834677433704754,1
801,309,39,0.0952120931353652,1
801,310,39,0.138165787455862,1
801,311,39,0.171969379783672,1
801,312,39,0.101595785405235,1
801,313,39,0.0553138571452205,1
802,307,39,0.0973185056321046,1
802,308,39,0.098229420830823,1
802,309,39,0.114043132306558,1
802,310,39,0.161145196840881,1
802,311,39,0.169117354973019,1
802,312,39,0.0890645487025653,1
802,313,39,0.0489445803353024,1
803,306,39,0.0968219838096711,1
803,307,39,0.0962313046272592,1
803,308,39,0.098823027589964,1
803,309,39,0.104379447992964,1
803,310,39,0.121965142912874,1
803,311,39,0.104436857351822,1
803,312,39,0.0601564958683536,1
804,306,39,0.0776072577548682,1
804,307,39,0.0752624731841185,1
804,308,39,0.0746996450550668,1
804,309,39,0.0719232923919843,1
804,310,39,0.0701768155352058,1
804,311,39,0.0579684478644632,1
805,306,39,0.0734138617716333,1
805,307,39,0.0618400208082776,1
805,308,39,0.05505668125189,1
805,309,39,0.0500836842097164,1
805,321,39,0.0484383049333143,1
805,322,39,0.0509988735502303,1
806,307,39,0.0567443240358786,1
806,308,39,0.0474441401528005,1
806,321,39,0.0568667292049957,1
806,322,39,0.0600871116987265,1
806,323,39,0.0484593420067513,1
807,307,39,0.0538324131484769,1
807,308,39,0.0472471388858751,1
807,321,39,0.0487825506856709,1
807,322,39,0.0508089177040989,1
808,308,39,0.0490615872212514,1
809,308,39,0.0511907169920353,1
811,309,39,0.0472943077376322,1
813,310,39,0.048540601798203,1
813,311,39,0.0490699010582462,1
814,310,39,0.0666361308992054,1
814,311,39,0.0607278482351918,1
814,312,39,0.050871695288869,1
814,316,39,0.0494086192812343,1
814,317,39,0.0547409658468779,1
815,311,39,0.0740354999276702,1
815,312,39,0.0562602459174071,1
815,313,39,0.0531396535134191,1
815,314,39,0.0522241996690528,1
815,315,39,0.0526840877079385,1
789,324,40,0.0926114792363514,1
789,325,40,0.103319653194091,1
789,326,40,0.104075581158246,1
790,324,40,0.101571787692088,1
790,325,40,0.10350550321906,1
790,326,40,0.0920619364144281,1
790,327,40,0.0839243912371701,1
790,328,40,0.0829212904344634,1
790,329,40,0.0829449875750518,1
791,324,40,0.100706072594862,1
791,325,40,0.0903459977296913,1
791,326,40,0.0777695008110169,1
791,327,40,0.0743926582771816,1
791,328,40,0.0766085873916881,1
792,310,40,0.106203178008977,1
792,323,40,0.112800709620553,1
792,324,40,0.0884103765726918,1
792,325,40,0.0759379378741046,1
792,326,40,0.0702829176486973,1
793,309,40,0.120138286942243,1
793,310,40,0.122650243959117,1
793,322,40,0.107770375356936,1
793,323,40,0.087572446402863,1
793,324,40,0.0746334950461795,1
793,325,40,0.0697460710116859,1
793,326,40,0.067944559319269,1
794,307,40,0.108618482913628,1
794,308,40,0.10863315085453,1
794,309,40,0.121315521451551,1
794,310,40,0.119531238578243,1
794,311,40,0.109121076301763,1
794,312,40,0.0969622790575276,1
794,318,40,0.102165346359619,1
794,319,40,0.0924755002104489,1
794,320,40,0.0859758230013319,1
794,321,40,0.0802266273815927,1
794,322,40,0.0746365428519325,1
794,323,40,0.0705074333277162,1
794,324,40,0.0736229520669004,1
794,325,40,0.0738590337780076,1
794,326,40,0.0696938856039113,1
795,308,40,0.101142606145877,1
795,309,40,0.112039215052597,1
795,310,40,0.118059839716436,1
795,311,40,0.106146141360092,1
795,312,40,0.0855994400309171,1
795,313,40,0.093057901624573,1
795,317,40,0.0764438796405518,1
795,318,40,0.0751147658169456,1
795,319,40,0.0866246208938422,1
795,320,40,0.0839390832238768,1
795,321,40,0.0720855835397425,1
795,322,40,0.0658823490231248,1
795,323,40,0.0678763413711726,1
795,324,40,0.0744343056110212,1
795,325,40,0.0729784824192465,1
795,326,40,0.0675553599349186,1
796,311,40,0.107328569763228,1
796,312,40,0.0738006325297033,1
796,313,40,0.0663136345772517,1
796,314,40,0.0634826738915654,1
796,315,40,0.0566995447359694,1
796,316,40,0.0525723408417801,1
796,317,40,0.0550385687494566,1
796,318,40,0.0645940349187406,1
796,319,40,0.0829022702029004,1
796,320,40,0.0813292477587386,1
796,321,40,0.0666302577113934,1
796,322,40,0.0599657224648604,1
796,323,40,0.0613344036601947,1
796,324,40,0.0630201227798028,1
796,325,40,0.0599940784801205,1
796,326,40,0.0590561598426596,1
797,311,40,0.0914115154300967,1
797,312,40,0.0599756533822252,1
797,313,40,0.0507366480379008,1
797,316,40,0.0483392782978725,1
797,317,40,0.0482385654503722,1
797,318,40,0.0490402555867061,1
797,319,40,0.0559715760312957,1
797,320,40,0.0564502678895016,1
797,321,40,0.0513402818976257,1
797,322,40,0.0485711369645192,1
797,323,40,0.0486967943287296,1
797,324,40,0.048450712568569,1
797,325,40,0.047801127175953,1
797,326,40,0.0509185785966945,1
798,310,40,0.108274495653673,1
798,311,40,0.0692029965112423,1
798,312,40,0.0516881164863424,1
798,315,40,0.0505033436172431,1
798,316,40,0.0510209656333511,1
799,309,40,0.0952488711937415,1
799,310,40,0.0767321167021775,1
799,311,40,0.0663825558651373,1
799,312,40,0.0552369887188626,1
799,313,40,0.0488374622865598,1
799,314,40,0.0474580837138341,1
799,315,40,0.0506137980213958,1
799,316,40,0.0476174713306679,1
800,308,40,0.0831835399925977,1
800,309,40,0.0880339635450211,1
800,310,40,0.0939349002156813,1
800,311,40,0.102174375559305,1
800,312,40,0.0736799827043336,1
800,313,40,0.0525001553358987,1
801,307,40,0.0935302634246766,1
801,308,40,0.0990116008023219,1
801,309,40,0.125616991304268,1
801,310,40,0.149490279435335,1
801,311,40,0.160137942125403,1
801,312,40,0.0952922558369748,1
801,313,40,0.0538760502726602,1
802,306,40,0.0966338133645429,1
802,307,40,0.100398586866528,1
802,308,40,0.115454368564862,1
802,309,40,0.143635955557197,1
802,310,40,0.16380082754118,1
802,311,40,0.152864182369539,1
802,312,40,0.0823764245215654,1
802,313,40,0.0472149686048355,1
803,306,40,0.0928057993960463,1
803,307,40,0.0949367867052477,1
803,308,40,0.100862051718871,1
803,309,40,0.110400361206461,1
803,310,40,0.11453878848002,1
803,311,40,0.0957401991223474,1
803,312,40,0.0573394577036218,1
804,306,40,0.0770729479502587,1
804,307,40,0.0747257948677404,1
804,308,40,0.0720388865869038,1
804,309,40,0.0688878461826419,1
804,310,40,0.064329362745777,1
804,311,40,0.0547897968648887,1
805,306,40,0.071347076761134,1
805,307,40,0.0632618071634184,1
805,308,40,0.0559038329878432,1
805,309,40,0.0496874995190839,1
805,321,40,0.0493656764796634,1
805,322,40,0.0503748458423457,1
806,307,40,0.0591359618571979,1
806,308,40,0.0502730930137896,1
806,321,40,0.055839780975421,1
806,322,40,0.0568163051524196,1
807,308,40,0.0513594223582125,1
808,308,40,0.0547476986722099,1
808,309,40,0.0473304756337128,1
813,310,40,0.047296237413464,1
813,311,40,0.0485907493240243,1
814,310,40,0.0619533126173916,1
814,311,40,0.0587242255423387,1
814,312,40,0.0493578495702149,1
814,315,40,0.0489714605392955,1
815,311,40,0.0706634004288233,1
815,312,40,0.0539906405552311,1
815,313,40,0.0530910930107117,1
790,324,41,0.101672275110168,1
790,325,41,0.100047656380448,1
790,326,41,0.0874075222394839,1
790,327,41,0.0791774968971294,1
790,328,41,0.0780040496020708,1
791,324,41,0.100679171350789,1
791,325,41,0.0893709403467828,1
791,326,41,0.0766368231779243,1
792,324,41,0.0904204916328294,1
792,325,41,0.0763920789656534,1
793,309,41,0.118908283914395,1
793,310,41,0.110059535969831,1
793,311,41,0.109983418974872,1
793,323,41,0.0912998707586086,1
793,324,41,0.0763993167528853,1
793,325,41,0.0693278242951886,1
794,308,41,0.11000433882501,1
794,309,41,0.123984076771906,1
794,310,41,0.11457578295064,1
794,311,41,0.10246078513977,1
794,312,41,0.098264954518803,1
794,319,41,0.113080061757321,1
794,320,41,0.0977361331691293,1
794,321,41,0.0882546619525347,1
794,322,41,0.0787469086713404,1
794,323,41,0.0716019382457566,1
794,324,41,0.0716957228957612,1
794,325,41,0.070746105974286,1
795,311,41,0.119584367783854,1
795,312,41,0.0937785724275029,1
795,313,41,0.0950964328144826,1
795,317,41,0.0861634764616579,1
795,318,41,0.08556361779328,1
795,319,41,0.0915246028498703,1
795,320,41,0.0862080694065803,1
795,321,41,0.0785684226740782,1
795,322,41,0.0732466953369606,1
795,323,41,0.0713693191305345,1
795,324,41,0.0724370670793311,1
795,325,41,0.0701235841349243,1
796,312,41,0.0855063527092504,1
796,313,41,0.0681988557274799,1
796,314,41,0.0625547823546883,1
796,315,41,0.0569730357078277,1
796,316,41,0.05367295940568,1
796,317,41,0.0562957375252289,1
796,318,41,0.0646547926559111,1
796,319,41,0.0770540840164265,1
796,320,41,0.0764735701979758,1
796,321,41,0.0700687116084681,1
796,322,41,0.0676783602377034,1
796,323,41,0.0671497372659189,1
796,324,41,0.0642382291457468,1
796,325,41,0.0596393487568896,1
797,312,41,0.0717149054365064,1
797,313,41,0.0546945875009522,1
797,314,41,0.0488106993058649,1
797,318,41,0.0490702797796712,1
797,319,41,0.0543136658848895,1
797,320,41,0.0546225402584482,1
797,321,41,0.0516809147678176,1
797,322,41,0.0510455644916178,1
797,323,41,0.0516160451980336,1
797,324,41,0.050379886444168,1
797,325,41,0.0492653633936671,1
798,311,41,0.087352818033661,1
798,312,41,0.0587141864188525,1
798,313,41,0.0505860792199618,1
799,310,41,0.0821444245858158,1
799,311,41,0.0699499614016742,1
799,312,41,0.0580241199139276,1
799,313,41,0.050585417960331,1
800,308,41,0.0919675145505974,1
800,309,41,0.10246518552204,1
800,310,41,0.0995044315937252,1
800,311,41,0.0909207585893538,1
800,312,41,0.0679446615139393,1
800,313,41,0.0519848777857546,1
801,307,41,0.0989731395376126,1
801,308,41,0.118884141926419,1
801,309,41,0.170430388164693,1
801,310,41,0.163268778042218,1
801,311,41,0.129080849594068,1
801,312,41,0.0792210859297031,1
801,313,41,0.0522669170412041,1
802,306,41,0.0946313929619276,1
802,307,41,0.102008195002628,1
802,308,41,0.133625638945124,1
802,309,41,0.185804073436272,1
802,310,41,0.1693037700744,1
802,311,41,0.122334594680068,1
802,312,41,0.0700211790639141,1
803,306,41,0.0902852339810696,1
803,307,41,0.0926445542407951,1
803,308,41,0.101058157279569,1
803,309,41,0.116374709719045,1
803,310,41,0.104844157215704,1
803,311,41,0.0810863129932756,1
803,312,41,0.0535079991735938,1
804,306,41,0.0778072046328764,1
804,307,41,0.0743863282190792,1
804,308,41,0.0693256541613093,1
804,309,41,0.065318186351909,1
804,310,41,0.0584063099461913,1
804,311,41,0.0512740236826169,1
805,306,41,0.0703541713796444,1
805,307,41,0.0651114585569593,1
805,308,41,0.0579216727627591,1
805,309,41,0.0512828244471581,1
805,321,41,0.0504936531579259,1
805,322,41,0.0491048907098937,1
806,307,41,0.06307328204267,1
806,308,41,0.0553316149720338,1
806,309,41,0.0478541601983452,1
806,321,41,0.0530122528283637,1
806,322,41,0.0514368919296893,1
807,308,41,0.0604634826462389,1
807,309,41,0.0503622368234761,1
808,308,41,0.0674570907423267,1
808,309,41,0.0539338924560039,1
809,309,41,0.0519243003921197,1
810,309,41,0.0476186375521986,1
810,312,41,0.0504151646454725,1
814,311,41,0.0547974133735456,1
814,312,41,0.0477334803157195,1
815,311,41,0.0666349406318699,1
790,325,42,0.0981883686306511,1
790,326,42,0.0847875153989334,1
791,325,42,0.092561902798393,1
792,324,42,0.100403083432017,1
793,309,42,0.112455231520703,1
793,310,42,0.10098128284176,1
793,311,42,0.101243478296834,1
793,323,42,0.0994044010459348,1
793,324,42,0.0903006834106262,1
794,308,42,0.109197962762474,1
794,309,42,0.118259876766212,1
794,310,42,0.106937657115288,1
794,311,42,0.0983316455582974,1
794,312,42,0.100307729793252,1
794,320,42,0.109046894994087,1
794,321,42,0.0932923181637008,1
794,322,42,0.0818826078521672,1
794,323,42,0.0781375939902416,1
794,324,42,0.0805250658758867,1
795,312,42,0.104236820302046,1
795,313,42,0.0972123013239428,1
795,318,42,0.101615983881231,1
795,319,42,0.0987633218567516,1
795,320,42,0.0870930391819656,1
795,321,42,0.0807140117982184,1
795,322,42,0.0779346233522853,1
795,323,42,0.0752313639242138,1
795,324,42,0.0745896415097534,1
796,313,42,0.0731329045773979,1
796,314,42,0.0644707941579082,1
796,315,42,0.060661331527782,1
796,316,42,0.0586838466247,1
796,317,42,0.060599924553883,1
796,318,42,0.065600207573005,1
796,319,42,0.0703187158405298,1
796,320,42,0.069980691940154,1
796,321,42,0.0702039452144232,1
796,322,42,0.0723027231681521,1
796,323,42,0.0706701212312529,1
796,324,42,0.0660285775733051,1
797,312,42,0.0928516848029744,1
797,313,42,0.0612877427760632,1
797,314,42,0.0528323000370113,1
797,315,42,0.0489788936986911,1
797,316,42,0.0475654422206243,1
797,317,42,0.0481133198705682,1
797,318,42,0.0497435172269916,1
797,319,42,0.0526944514497889,1
797,320,42,0.0535546841035301,1
797,321,42,0.0529042510962963,1
797,322,42,0.0542851716062521,1
797,323,42,0.0549881747541365,1
797,324,42,0.0536775401314863,1
798,311,42,0.112618742993052,1
798,312,42,0.0716110095256013,1
798,313,42,0.0569055752025811,1
798,314,42,0.0499556102421278,1
798,323,42,0.0477902674893795,1
799,310,42,0.086848529416291,1
799,311,42,0.0748875209390868,1
799,312,42,0.0638850383540204,1
799,313,42,0.0552749269873184,1
799,314,42,0.0479187532413745,1
799,322,42,0.0477980372900417,1
799,323,42,0.0477630476383942,1
800,308,42,0.09588421545849,1
800,309,42,0.106487038734137,1
800,310,42,0.0983655140742981,1
800,311,42,0.0805549608226512,1
800,312,42,0.0640612580341843,1
800,313,42,0.0532264047655322,1
800,322,42,0.0482353613468882,1
800,323,42,0.0485607912570223,1
801,307,42,0.100012134715371,1
801,308,42,0.122539380776283,1
801,309,42,0.185763315797209,1
801,310,42,0.161819128610814,1
801,311,42,0.102452609566152,1
801,312,42,0.0659300558997632,1
801,313,42,0.0509260628534252,1
801,322,42,0.0472643316362766,1
802,306,42,0.0886412463556178,1
802,307,42,0.0973948330278554,1
802,308,42,0.131280295309414,1
802,309,42,0.1944630879584,1
802,310,42,0.160006676077233,1
802,311,42,0.0952102836885572,1
802,312,42,0.0588795614410709,1
803,306,42,0.0849417572135491,1
803,307,42,0.0877157593992165,1
803,308,42,0.0941188205648186,1
803,309,42,0.109325597894126,1
803,310,42,0.0906626749668937,1
803,311,42,0.0660799033435595,1
803,312,42,0.0489143367243689,1
804,306,42,0.0768194570765072,1
804,307,42,0.0730262794676528,1
804,308,42,0.0664464215225727,1
804,309,42,0.0602113263146515,1
804,310,42,0.052058746497969,1
804,321,42,0.0475514054820972,1
805,307,42,0.0656275837217212,1
805,308,42,0.0587131584606992,1
805,309,42,0.0510016448292286,1
805,321,42,0.0499276209253903,1
806,307,42,0.0679301017791587,1
806,308,42,0.0609653426373285,1
806,309,42,0.0509081126601739,1
806,321,42,0.0489255450751114,1
807,308,42,0.0738779277690956,1
807,309,42,0.0561092442749824,1
808,309,42,0.0610924848299827,1
809,309,42,0.0558277340272375,1
810,309,42,0.0481741287050738,1
810,312,42,0.0489406217946942,1
814,311,42,0.0503836916927708,1
791,325,43,0.097837696636973,1
793,310,43,0.087971504567164,1
793,311,43,0.0914092671473519,1
794,308,43,0.105641227551799,1
794,309,43,0.10152075047149,1
794,310,43,0.0910957338991215,1
794,311,43,0.0896682005966437,1
794,312,43,0.097863732232074,1
794,313,43,0.106096619025195,1
794,322,43,0.0902133370248453,1
794,323,43,0.0957742539933349,1
795,312,43,0.110818601911507,1
795,313,43,0.0948163893608279,1
795,314,43,0.0956254765878503,1
795,319,43,0.11202502802779,1
795,320,43,0.0949761797448913,1
795,321,43,0.0845859995321648,1
795,322,43,0.0832472012606927,1
795,323,43,0.0819843937437048,1
796,313,43,0.0794036597137741,1
796,314,43,0.0674904062048179,1
796,315,43,0.0660122745176796,1
796,316,43,0.0659314204991832,1
796,317,43,0.0676266978261823,1
796,318,43,0.0698231919189937,1
796,319,43,0.0687139529340883,1
796,320,43,0.0671540294420681,1
796,321,43,0.0693788074127253,1
796,322,43,0.0735706464301021,1
796,323,43,0.0710819236720752,1
797,313,43,0.067282464096728,1
797,314,43,0.0562931285554127,1
797,315,43,0.0530328180028824,1
797,316,43,0.0510934036201825,1
797,317,43,0.0506969664486001,1
797,318,43,0.0514273277108471,1
797,319,43,0.052746210044529,1
797,320,43,0.0542413060469236,1
797,321,43,0.0549945589152995,1
797,322,43,0.0572869356545807,1
797,323,43,0.0577755824759561,1
798,312,43,0.0829139925327196,1
798,313,43,0.0613092998400281,1
798,314,43,0.0523210381362616,1
798,315,43,0.0484393389029188,1
798,319,43,0.0478449536608487,1
798,320,43,0.049015978341078,1
798,321,43,0.049279853996759,1
798,322,43,0.0509475417685247,1
798,323,43,0.0520315446813373,1
799,311,43,0.0784466006157265,1
799,312,43,0.0678821845017286,1
799,313,43,0.0585190967934054,1
799,314,43,0.0498601814602228,1
799,320,43,0.047483987057009,1
799,321,43,0.0488181715396933,1
799,322,43,0.051042967544704,1
799,323,43,0.0519291396103272,1
800,308,43,0.107402366338028,1
800,309,43,0.109735783254579,1
800,310,43,0.0978601674415187,1
800,311,43,0.0753617703348638,1
800,312,43,0.0618535225276488,1
800,313,43,0.0542529502278773,1
800,314,43,0.0472345448956335,1
800,321,43,0.0488393919623916,1
800,322,43,0.0514477906906955,1
801,307,43,0.107417443057611,1
801,308,43,0.127505344420565,1
801,309,43,0.177724707083625,1
801,310,43,0.151643352816206,1
801,311,43,0.088141219857141,1
801,312,43,0.0590080802560474,1
801,313,43,0.0502760025561652,1
801,321,43,0.0477465912907634,1
801,322,43,0.0508034232377118,1
802,305,43,0.0894579561027483,1
802,306,43,0.0859047375910182,1
802,307,43,0.0969235051973564,1
802,308,43,0.127915012796215,1
802,309,43,0.178907520219636,1
802,310,43,0.145541056576508,1
802,311,43,0.081648335587868,1
802,312,43,0.0539309528563723,1
802,321,43,0.0479797724766717,1
802,322,43,0.0494829208179344,1
803,305,43,0.0856670628453459,1
803,306,43,0.0789177000110803,1
803,307,43,0.0838799185212715,1
803,308,43,0.0906809197212533,1
803,309,43,0.101005076165567,1
803,310,43,0.0824904557391757,1
803,311,43,0.0587680309871553,1
803,320,43,0.0501495546861234,1
803,321,43,0.0522890391815808,1
804,305,43,0.0835663251585292,1
804,306,43,0.0729760297471612,1
804,307,43,0.0702831821525497,1
804,308,43,0.0648357914397705,1
804,309,43,0.0583713052659158,1
804,310,43,0.0500371134973527,1
804,320,43,0.0509045298352651,1
804,321,43,0.0543740028204767,1
805,306,43,0.0685456202778849,1
805,307,43,0.0644689245965883,1
805,308,43,0.0594425458678535,1
805,309,43,0.0525944389363521,1
805,320,43,0.0475323191245711,1
805,321,43,0.0507730293404986,1
806,307,43,0.075372476729432,1
806,308,43,0.0728732760119821,1
806,309,43,0.0593638319259805,1
807,308,43,0.104200895869739,1
807,309,43,0.0696710180435872,1
808,308,43,0.121486102390499,1
808,309,43,0.0716538831954835,1
809,309,43,0.058184830050023,1
810,309,43,0.0476703149923477,1
793,309,44,0.0831907356996714,1
793,310,44,0.0758180815602919,1
793,311,44,0.0828561503493759,1
793,312,44,0.103120878549065,1
794,307,44,0.11554291724088,1
794,308,44,0.105237642764752,1
794,309,44,0.0871160930972766,1
794,310,44,0.0779046322223017,1
794,311,44,0.0828836467271159,1
794,312,44,0.0937370212768822,1
794,313,44,0.0971085556993174,1
794,323,44,0.133445872508758,1
794,324,44,0.131831353017037,1
795,305,44,0.0986001530371198,1
795,312,44,0.116826301955289,1
795,313,44,0.0947808676957502,1
795,314,44,0.0888657139430272,1
795,321,44,0.0938644820764495,1
795,322,44,0.0970597547385625,1
795,323,44,0.101020790098976,1
795,324,44,0.0889823360961001,1
796,313,44,0.0928711739277302,1
796,314,44,0.0746535672817006,1
796,315,44,0.0723091433980223,1
796,316,44,0.0742868807820542,1
796,317,44,0.0768049514447874,1
796,318,44,0.0751965936905347,1
796,319,44,0.072022030477769,1
796,320,44,0.0701090484459485,1
796,321,44,0.0736190085549202,1
796,322,44,0.0788030436025463,1
796,323,44,0.0756678373607171,1
796,324,44,0.0681564208935344,1
797,313,44,0.0805449878251281,1
797,314,44,0.0633698269298393,1
797,315,44,0.0584515040362326,1
797,316,44,0.0560949069638959,1
797,317,44,0.05645278668755,1
797,318,44,0.0568538586879993,1
797,319,44,0.0576113315951102,1
797,320,44,0.059326572951509,1
797,321,44,0.0622633472010299,1
797,322,44,0.0646334880728961,1
797,323,44,0.0634934223662919,1
797,324,44,0.0618531257718703,1
798,312,44,0.104836041756598,1
798,313,44,0.0696317813016744,1
798,314,44,0.0567332088626296,1
798,315,44,0.0524759652563129,1
798,316,44,0.0512089918036508,1
798,317,44,0.0538745955014724,1
798,318,44,0.0558080104558854,1
798,319,44,0.0557153259014484,1
798,320,44,0.0553693789084051,1
798,321,44,0.0566602418680936,1
798,322,44,0.0591997914459262,1
798,323,44,0.0598590372406035,1
799,311,44,0.0897117535605104,1
799,312,44,0.0765697353826515,1
799,313,44,0.0637123654300583,1
799,314,44,0.0533707697658439,1
799,315,44,0.0500566897881507,1
799,316,44,0.0508886295468693,1
799,317,44,0.0532866034377421,1
799,318,44,0.0528221406845013,1
799,319,44,0.0524975042859242,1
799,320,44,0.0532931739538921,1
799,321,44,0.054872520444705,1
799,322,44,0.0578876599719299,1
799,323,44,0.0595369857660378,1
800,308,44,0.111683144775751,1
800,309,44,0.105337829610273,1
800,310,44,0.093309060055263,1
800,311,44,0.0737436018922702,1
800,312,44,0.0624920047699182,1
800,313,44,0.0572084501478528,1
800,314,44,0.050331767783123,1
800,315,44,0.0491329641869479,1
800,316,44,0.0520242828483006,1
800,317,44,0.0525093288104136,1
800,318,44,0.0489849923159226,1
800,319,44,0.0492769745116393,1
800,320,44,0.0524593736510304,1
800,321,44,0.0548886371453436,1
800,322,44,0.0573743060861663,1
800,323,44,0.060309553427085,1
801,300,44,0.111007361478852,1
801,304,44,0.100506961308569,1
801,307,44,0.109621541636177,1
801,308,44,0.122215652106836,1
801,309,44,0.145515014969956,1
801,310,44,0.125873716338759,1
801,311,44,0.0792233402238991,1
801,312,44,0.056811267556323,1
801,313,44,0.0514130565257236,1
801,316,44,0.0498615099909357,1
801,317,44,0.04954645885128,1
801,320,44,0.0504690603111104,1
801,321,44,0.0527007274048306,1
801,322,44,0.0552539109539606,1
801,323,44,0.0599620735139885,1
802,304,44,0.0939713055640838,1
802,305,44,0.0832591760714618,1
802,306,44,0.0820332848762276,1
802,307,44,0.0938114490540573,1
802,308,44,0.11535276301686,1
802,309,44,0.139451348315601,1
802,310,44,0.116200065039093,1
802,311,44,0.0714652679029673,1
802,312,44,0.050983177651175,1
802,320,44,0.0501629692394524,1
802,321,44,0.0517515012276826,1
802,322,44,0.0524576663988926,1
803,304,44,0.0845865706200278,1
803,305,44,0.0773318551415317,1
803,306,44,0.0730797393030795,1
803,307,44,0.0783693895366508,1
803,308,44,0.0843894491240787,1
803,309,44,0.0867330734847488,1
803,310,44,0.07162500418397,1
803,311,44,0.0529457782011122,1
803,320,44,0.0539619238528997,1
803,321,44,0.055295678516824,1
803,322,44,0.0506890433559325,1
804,305,44,0.0758683252693323,1
804,306,44,0.0680981699315099,1
804,307,44,0.0654658095587653,1
804,308,44,0.061353718452866,1
804,309,44,0.054900491727089,1
804,320,44,0.0550037083440097,1
804,321,44,0.0558856904281538,1
805,305,44,0.0772187917675629,1
805,306,44,0.0657805992002942,1
805,307,44,0.0609401726911988,1
805,308,44,0.0576328285445632,1
805,309,44,0.0515711516805517,1
805,320,44,0.048448028455613,1
805,321,44,0.0490632193302493,1
806,306,44,0.0664011011920563,1
806,307,44,0.0746788273995982,1
806,308,44,0.0776285022233713,1
806,309,44,0.061970535425049,1
807,307,44,0.121893270002455,1
807,308,44,0.117897133778546,1
807,309,44,0.0744037554160771,1
808,308,44,0.128034292010714,1
808,309,44,0.0714418953807432,1
809,309,44,0.0547961509687959,1
793,308,45,0.0926879388840284,1
793,309,45,0.075522793066421,1
793,310,45,0.0690381865654358,1
793,311,45,0.0752055146840997,1
793,312,45,0.0901625222279419,1
793,313,45,0.102724772007298,1
794,308,45,0.104292558477473,1
794,309,45,0.0808269369088098,1
794,310,45,0.0710686203305933,1
794,311,45,0.0765765944484585,1
794,312,45,0.084975000538626,1
794,313,45,0.0854642785623764,1
794,325,45,0.0938913953434241,1
795,304,45,0.105041008196349,1
795,305,45,0.0954310602449363,1
795,313,45,0.0926609594910907,1
795,314,45,0.0848946695163831,1
795,321,45,0.0982557149183251,1
795,322,45,0.10850557583739,1
795,323,45,0.116909716851992,1
795,324,45,0.093177319102449,1
795,325,45,0.0723079170619797,1
796,304,45,0.101647531977073,1
796,314,45,0.0835527452902925,1
796,315,45,0.079439536054472,1
796,316,45,0.0879725325253174,1
796,317,45,0.0919473040516989,1
796,318,45,0.0808877908291994,1
796,319,45,0.0751389438736291,1
796,320,45,0.0729878362372971,1
796,321,45,0.0759676103971751,1
796,322,45,0.0825879133858571,1
796,323,45,0.0801853707920804,1
796,324,45,0.0707105482405011,1
796,325,45,0.0673919686915927,1
797,314,45,0.0746543668047088,1
797,315,45,0.0643943164758776,1
797,316,45,0.0630916770833093,1
797,317,45,0.0649157497520397,1
797,318,45,0.0632759701424204,1
797,319,45,0.0622539092226626,1
797,320,45,0.0644337696300332,1
797,321,45,0.0700919879474732,1
797,322,45,0.0743709268811322,1
797,323,45,0.0711751973487288,1
797,324,45,0.0673176010289296,1
797,325,45,0.0675705869407811,1
798,313,45,0.0844424761350197,1
798,314,45,0.0631230147783592,1
798,315,45,0.0566607588528958,1
798,316,45,0.0571190839144723,1
798,317,45,0.063783324599897,1
798,318,45,0.0675227718580213,1
798,319,45,0.0641684241745364,1
798,320,45,0.0615631634237533,1
798,321,45,0.0640963829434835,1
798,322,45,0.0692191973721975,1
798,323,45,0.0691633509906487,1
798,324,45,0.0674954017207563,1
799,312,45,0.0857565853764573,1
799,313,45,0.0689845884666317,1
799,314,45,0.057617072530996,1
799,315,45,0.0545459904390033,1
799,316,45,0.0586265815406705,1
799,317,45,0.0663082182597301,1
799,318,45,0.066594459519561,1
799,319,45,0.0613293720755492,1
799,320,45,0.0586216401277929,1
799,321,45,0.0598176784564209,1
799,322,45,0.0647227280658016,1
799,323,45,0.0674894263382741,1
799,324,45,0.0689897763490081,1
800,303,45,0.0993302738413192,1
800,304,45,0.0959890792130366,1
800,308,45,0.11109994985007,1
800,309,45,0.0988467367534547,1
800,310,45,0.0857974993132518,1
800,311,45,0.0716762758511638,1
800,312,45,0.0628940025338507,1
800,313,45,0.0592220999412898,1
800,314,45,0.053414148397626,1
800,315,45,0.0526323832162591,1
800,316,45,0.0578999594010632,1
800,317,45,0.0613612027095967,1
800,318,45,0.0575442678456421,1
800,319,45,0.0553034032316023,1
800,320,45,0.0571515577737971,1
800,321,45,0.0590173980053909,1
800,322,45,0.0618707453353062,1
800,323,45,0.0664435480489042,1
800,324,45,0.0741894291468241,1
801,299,45,0.106839790689926,1
801,300,45,0.104485958885136,1
801,301,45,0.100738384145004,1
801,302,45,0.0975731026128749,1
801,303,45,0.0954615262795638,1
801,304,45,0.0895430301599796,1
801,305,45,0.0862997320143151,1
801,306,45,0.094719358527181,1
801,307,45,0.107232891506098,1
801,308,45,0.110101820517496,1
801,309,45,0.108725162126434,1
801,310,45,0.0929507655414769,1
801,311,45,0.0687690238384337,1
801,312,45,0.0561501702346794,1
801,313,45,0.0529135207540303,1
801,314,45,0.0493017747535209,1
801,315,45,0.0495295245932796,1
801,316,45,0.0538678145845308,1
801,317,45,0.0548203470598329,1
801,318,45,0.0517781439793537,1
801,319,45,0.0525072548597533,1
801,320,45,0.0559479510281217,1
801,321,45,0.0573501701096412,1
801,322,45,0.058896014782976,1
801,323,45,0.0651149752559051,1
801,324,45,0.0770026320056971,1
802,302,45,0.0905172038595633,1
802,303,45,0.0897190274164495,1
802,304,45,0.0854810444997434,1
802,305,45,0.0791093631093495,1
802,306,45,0.080117982424248,1
802,307,45,0.090434450222491,1
802,308,45,0.0985886771767994,1
802,309,45,0.0989335481200797,1
802,310,45,0.0831772520146537,1
802,311,45,0.0612324374251214,1
802,312,45,0.0500488207985439,1
802,316,45,0.0478614430714611,1
802,317,45,0.0497871633683517,1
802,318,45,0.0502462699185828,1
802,319,45,0.0523091835545163,1
802,320,45,0.0549091361938992,1
802,321,45,0.0548127906656879,1
802,322,45,0.0548577022175234,1
802,323,45,0.0584497006008758,1
803,303,45,0.0784014425943923,1
803,304,45,0.0776476847641164,1
803,305,45,0.0727950429862042,1
803,306,45,0.0698717103415428,1
803,307,45,0.0734996391686538,1
803,308,45,0.0760142592584043,1
803,309,45,0.0721893471987215,1
803,310,45,0.06064777570535,1
803,311,45,0.0489000505106175,1
803,318,45,0.0485866915944715,1
803,319,45,0.0534048847513433,1
803,320,45,0.0566927457846742,1
803,321,45,0.0548687753106141,1
803,322,45,0.0514757619730795,1
803,323,45,0.0511777803490758,1
804,304,45,0.074167613590458,1
804,305,45,0.0708165601822249,1
804,306,45,0.0644504694414371,1
804,307,45,0.0616245824205546,1
804,308,45,0.0584557060406139,1
804,309,45,0.0532605858769947,1
804,319,45,0.0531952654483715,1
804,320,45,0.0569166302613183,1
804,321,45,0.053115265055944,1
804,322,45,0.0479473707547613,1
805,304,45,0.0798174278991353,1
805,305,45,0.074836850417012,1
805,306,45,0.0638254288040271,1
805,307,45,0.0586198006237289,1
805,308,45,0.0563204506010682,1
805,309,45,0.0513219469714982,1
805,320,45,0.0494095209989127,1
806,305,45,0.072469384640925,1
806,306,45,0.0645899952235413,1
806,307,45,0.0715615653395691,1
806,308,45,0.0764953797428907,1
806,309,45,0.061123197334109,1
807,306,45,0.0789108349338221,1
807,307,45,0.114828396152517,1
807,308,45,0.113281505486676,1
807,309,45,0.071818025870208,1
808,307,45,0.135734732549094,1
808,308,45,0.111566498576873,1
808,309,45,0.0644462073225439,1
809,308,45,0.0686546499681056,1
809,309,45,0.0500447390231863,1
810,312,45,0.0472753897007394,1
810,313,45,0.0531273961644441,1
810,314,45,0.0472289181773203,1
811,312,45,0.0494644776856855,1
811,313,45,0.0554469687089057,1
811,314,45,0.0481880872947354,1
793,308,46,0.0858707007543842,1
793,309,46,0.0705868987009879,1
793,310,46,0.0635304108254598,1
793,311,46,0.0678994433780932,1
793,312,46,0.0775868188208245,1
794,308,46,0.101090234383115,1
794,309,46,0.0777599065349187,1
794,310,46,0.0663740256158996,1
794,311,46,0.0698237449725031,1
794,312,46,0.075336979110159,1
794,313,46,0.0756510353546429,1
794,314,46,0.0811314469688051,1
794,325,46,0.0914815608593547,1
794,326,46,0.0838943159468699,1
795,303,46,0.100297973207972,1
795,304,46,0.0924587523074354,1
795,305,46,0.0914561444437263,1
795,313,46,0.0874202665160053,1
795,314,46,0.0801141651527428,1
795,315,46,0.0962566248596687,1
795,321,46,0.0984848473918574,1
795,322,46,0.111854603386573,1
795,324,46,0.0915607977974812,1
795,325,46,0.0703234167953598,1
795,326,46,0.0752557644045913,1
796,302,46,0.101995414657399,1
796,303,46,0.0994246416020892,1
796,304,46,0.0951840617384694,1
796,314,46,0.0905662993814265,1
796,315,46,0.0826167503172123,1
796,316,46,0.0974501864704067,1
796,317,46,0.102967562497932,1
796,318,46,0.0826535524213933,1
796,319,46,0.0754859789393376,1
796,320,46,0.0740428218752188,1
796,321,46,0.0776063981173481,1
796,322,46,0.0861835847658862,1
796,323,46,0.0859989610769597,1
796,324,46,0.073517078388554,1
796,325,46,0.069241662165292,1
796,326,46,0.074311100918896,1
797,302,46,0.113476745398402,1
797,303,46,0.103326037355254,1
797,314,46,0.0934787272536305,1
797,315,46,0.0699570729484312,1
797,316,46,0.0675133699483612,1
797,317,46,0.07034247309563,1
797,318,46,0.0670228415427634,1
797,319,46,0.0667378085846216,1
797,320,46,0.0707734821230022,1
797,321,46,0.0794428002724678,1
797,322,46,0.0879868758478551,1
797,323,46,0.0869425725586968,1
797,324,46,0.0794750276622938,1
797,325,46,0.0774928418043818,1
797,326,46,0.0782428424776643,1
798,303,46,0.103794100967757,1
798,313,46,0.115914581222112,1
798,314,46,0.0778712806911034,1
798,315,46,0.0622966085604604,1
798,316,46,0.0609724301382807,1
798,317,46,0.0718219994394442,1
798,318,46,0.081280488878142,1
798,319,46,0.0793671762165061,1
798,320,46,0.0769009663431833,1
798,321,46,0.0801889836742451,1
798,322,46,0.0888996606078933,1
798,323,46,0.0929722805252835,1
798,324,46,0.0894928525769023,1
798,325,46,0.0864366548380544,1
799,303,46,0.0970727875647409,1
799,304,46,0.0951634184150852,1
799,309,46,0.101645704495911,1
799,310,46,0.100605152352295,1
799,312,46,0.0939941130098961,1
799,313,46,0.078092995033868,1
799,314,46,0.0658399322235329,1
799,315,46,0.0601686269768537,1
799,316,46,0.0649206911649173,1
799,317,46,0.0816100907354015,1
799,318,46,0.092415650202408,1
799,319,46,0.0864888402458289,1
799,320,46,0.0793034548338993,1
799,321,46,0.0770646341132638,1
799,322,46,0.0825537984003576,1
799,323,46,0.0887750432247386,1
799,324,46,0.0909241009562151,1
799,325,46,0.0898090428865584,1
800,299,46,0.112263983212566,1
800,302,46,0.0983702090176769,1
800,303,46,0.0877208571098251,1
800,304,46,0.0809157741344857,1
800,305,46,0.0827748755292963,1
800,308,46,0.104394272231597,1
800,309,46,0.0906808956754486,1
800,310,46,0.0788667649851532,1
800,311,46,0.068995805834551,1
800,312,46,0.0630472344246666,1
800,313,46,0.0608175871785461,1
800,314,46,0.0565881826026871,1
800,315,46,0.0559790001735145,1
800,316,46,0.0623259384308131,1
800,317,46,0.0730764570507301,1
800,318,46,0.0789699575562691,1
800,319,46,0.0770081986094984,1
800,320,46,0.0739393888460553,1
800,321,46,0.0711890056521107,1
800,322,46,0.0743043861279175,1
800,323,46,0.0820286260015559,1
800,324,46,0.0912364198913053,1
800,325,46,0.0927160123610826,1
801,300,46,0.0977543298318794,1
801,301,46,0.0941045794369511,1
801,302,46,0.0886111951111224,1
801,303,46,0.0823872270993526,1
801,304,46,0.0759371623969012,1
801,305,46,0.0746231252928779,1
801,306,46,0.0837570083902546,1
801,307,46,0.0974673671979058,1
801,308,46,0.0955167234243842,1
801,309,46,0.0826204653940473,1
801,310,46,0.0697281869443976,1
801,311,46,0.0599296778035292,1
801,312,46,0.055568556320661,1
801,313,46,0.0539242801455521,1
801,314,46,0.0509063873736826,1
801,315,46,0.0515553054952166,1
801,316,46,0.0566472270762687,1
801,317,46,0.0610054330053101,1
801,318,46,0.0636001436592559,1
801,319,46,0.066013777380477,1
801,320,46,0.0673615928287331,1
801,321,46,0.0655182173902338,1
801,322,46,0.0667692184170858,1
801,323,46,0.074928711402636,1
801,324,46,0.0879705487464249,1
801,325,46,0.0906132848839222,1
802,301,46,0.0825106542151719,1
802,302,46,0.0798943564400051,1
802,303,46,0.0770158391639601,1
802,304,46,0.0731911375050689,1
802,305,46,0.070310498186754,1
802,306,46,0.0732669719618222,1
802,307,46,0.0813115981380468,1
802,308,46,0.0810292102184282,1
802,309,46,0.0710911993412604,1
802,310,46,0.0600708627461617,1
802,311,46,0.0522269348793439,1
802,312,46,0.0489309704098098,1
802,313,46,0.0474178851397311,1
802,316,46,0.0508091100705369,1
802,317,46,0.0550734231434523,1
802,318,46,0.0595121284153699,1
802,319,46,0.0630001948191102,1
802,320,46,0.0631829729925216,1
802,321,46,0.0602784742244362,1
802,322,46,0.0598109756883448,1
802,323,46,0.0640176690016105,1
802,324,46,0.0718442418088447,1
803,302,46,0.0738655742369016,1
803,303,46,0.0701406506448508,1
803,304,46,0.0687055369024233,1
803,305,46,0.0659133380540057,1
803,306,46,0.0645948464646511,1
803,307,46,0.0659203774633484,1
803,308,46,0.0652774587701013,1
803,309,46,0.0594841511215348,1
803,310,46,0.0512420607966433,1
803,317,46,0.0510143229797869,1
803,318,46,0.0601254046428025,1
803,319,46,0.0652168513192106,1
803,320,46,0.0606026838099789,1
803,321,46,0.0549309697846188,1
803,322,46,0.0534204724442772,1
803,323,46,0.0545051065594647,1
803,324,46,0.0576311573611326,1
804,303,46,0.0666567201195288,1
804,304,46,0.0674995315877233,1
804,305,46,0.064858767206216,1
804,306,46,0.0601144577901867,1
804,307,46,0.0563074839008528,1
804,308,46,0.0535289250351838,1
804,309,46,0.0496957382129389,1
804,317,46,0.048125490053501,1
804,318,46,0.0604411621279729,1
804,319,46,0.0663542178842308,1
804,320,46,0.0582828407502137,1
804,321,46,0.0499299714028053,1
804,322,46,0.0481068755948932,1
804,323,46,0.0483820678074381,1
804,324,46,0.050728971414732,1
804,325,46,0.0565659702905426,1
805,304,46,0.0739190400837794,1
805,305,46,0.0697063954338363,1
805,306,46,0.0603850392196694,1
805,307,46,0.0547052999069716,1
805,308,46,0.0526732851301513,1
805,309,46,0.048739385460406,1
805,318,46,0.0495630684909161,1
805,319,46,0.0538896241294457,1
805,320,46,0.0499587692597278,1
805,324,46,0.0482081625359821,1
806,305,46,0.0707694845079613,1
806,306,46,0.0638319572400187,1
806,307,46,0.0674361889265414,1
806,308,46,0.0705105713052371,1
806,309,46,0.0571475902160121,1
807,306,46,0.0738820275788068,1
807,307,46,0.096969342512675,1
807,308,46,0.0967405707262141,1
807,309,46,0.0649611422199702,1
808,307,46,0.102849257138526,1
808,308,46,0.0879311617182324,1
808,309,46,0.0570711125339815,1
809,307,46,0.0697331043114705,1
809,308,46,0.0580351869955671,1
810,312,46,0.0498648914322297,1
810,313,46,0.0585055109137175,1
810,314,46,0.0499493883901468,1
811,312,46,0.054347372091708,1
811,313,46,0.062793388875295,1
811,314,46,0.0508264831644741,1
812,316,46,0.0477342287413926,1
793,308,47,0.0752143154486409,1
793,309,47,0.064051723872598,1
793,310,47,0.0590518135634498,1
793,311,47,0.0616545795619893,1
793,312,47,0.0685880911805374,1
793,313,47,0.074540858583352,1
794,304,47,0.0782368490608286,1
794,307,47,0.0975955193143598,1
794,308,47,0.089219235364569,1
794,309,47,0.0716177122936774,1
794,310,47,0.0624453378743355,1
794,311,47,0.0629133413723268,1
794,312,47,0.0666413127701306,1
794,313,47,0.0673239070412272,1
794,314,47,0.0715072879467807,1
795,302,47,0.0768247170962979,1
795,303,47,0.0820121426023947,1
795,304,47,0.0845829637493142,1
795,305,47,0.0910296199589413,1
795,313,47,0.0803432254888608,1
795,314,47,0.0749517052034352,1
795,315,47,0.0873782224263871,1
795,321,47,0.0936214811850234,1
795,322,47,0.104723038497141,1
795,323,47,0.11640819350217,1
795,324,47,0.0854234487858985,1
795,325,47,0.0677922351575827,1
795,326,47,0.0715882321370449,1
795,327,47,0.0849031095938529,1
796,301,47,0.089630550877845,1
796,302,47,0.0935895002646962,1
796,315,47,0.0816260631612115,1
796,316,47,0.0987192218508268,1
796,317,47,0.106446786056973,1
796,318,47,0.0833294018442555,1
796,319,47,0.0742831356479633,1
796,320,47,0.0740794676816689,1
796,321,47,0.0808062034136579,1
796,322,47,0.093189227787255,1
796,323,47,0.0983173503273692,1
796,324,47,0.0820228369740605,1
796,325,47,0.0733408466854878,1
796,326,47,0.0748913742792991,1
796,327,47,0.0848843839233981,1
796,328,47,0.0963311488200627,1
797,300,47,0.100445007292612,1
797,319,47,0.0725056998175597,1
797,320,47,0.0821270875605858,1
797,321,47,0.0995617147121082,1
797,322,47,0.119488749641237,1
797,324,47,0.108935382574525,1
797,325,47,0.0932227055589284,1
797,327,47,0.0876937815336684,1
801,310,47,0.0602026578020365,1
801,311,47,0.0594084669510612,1
801,314,47,0.0565543561668448,1
801,315,47,0.0534018369455903,1
801,316,47,0.0577018640500214,1
802,309,47,0.0605573334222066,1
802,310,47,0.0527296244506976,1
802,311,47,0.0522636648461107,1
802,312,47,0.0571384828674603,1
802,313,47,0.0583606649973107,1
802,314,47,0.0516183295494855,1
802,315,47,0.0493200465594108,1
802,316,47,0.0531686106737981,1
803,308,47,0.0583954532653433,1
803,309,47,0.0539863784363379,1
803,310,47,0.0481779219307742,1
803,316,47,0.0486718588291963,1
803,317,47,0.0575132667918587,1
804,307,47,0.0537135487241104,1
804,308,47,0.0511891780605308,1
804,309,47,0.0480996227790333,1
804,317,47,0.05508392514868,1
804,321,47,0.0514218753246184,1
804,322,47,0.0499177260767327,1
805,308,47,0.0523387959630749,1
805,309,47,0.0477238259251094,1
805,318,47,0.0584779544214656,1
805,319,47,0.0595728681181869,1
805,320,47,0.0510162045640092,1
806,308,47,0.064105574452352,1
806,309,47,0.0531443664911515,1
807,308,47,0.0741263750352992,1
807,309,47,0.0560126763230771,1
808,309,47,0.0494646460063189,1
810,312,47,0.0494775135175896,1
810,313,47,0.0574197767029624,1
810,314,47,0.0493108400219144,1
811,313,47,0.0623187006435812,1
811,314,47,0.0502663842342623,1
811,317,47,0.0483987616073909,1
812,316,47,0.0518659953270345,1
813,315,47,0.0511648076374093,1
794,311,48,0.056657524692156,1
794,312,48,0.058825843113243,1
794,313,48,0.0601965501676281,1
795,315,48,0.0758970119144077,1
795,316,48,0.105652360759401,1
795,317,48,0.129799434423435,1
796,319,48,0.0713841794378745,1
796,320,48,0.0717195522882757,1
796,321,48,0.0819975828676142,1
796,322,48,0.0995937256896914,1
796,324,48,0.0997174954582284,1
796,325,48,0.0817345578322765,1
796,327,48,0.083556063611349,1
