x,y,z,signal,mito.p
650,425,1,0.052872997561563,1
651,424,1,0.054619360200769,1
651,425,1,0.0506819618664315,1
652,423,1,0.0536371792482012,1
652,424,1,0.0508931080780054,1
652,425,1,0.0478385574767833,1
653,423,1,0.0526177753898691,1
653,424,1,0.0481381381468033,1
654,423,1,0.053595513880008,1
655,422,1,0.0623981359595969,1
655,423,1,0.0558853958670456,1
655,424,1,0.048041681406745,1
655,427,1,0.0503521195511245,1
656,422,1,0.0639428925602665,1
656,423,1,0.0560361510399714,1
656,424,1,0.0487458627990625,1
656,426,1,0.0495032846088382,1
656,427,1,0.0536353698013932,1
656,428,1,0.0487172001997918,1
657,422,1,0.0611449708103167,1
657,423,1,0.0542679367756923,1
657,424,1,0.0488093106606402,1
657,425,1,0.0475679640243982,1
657,426,1,0.0540924264467687,1
657,427,1,0.0574953646902169,1
657,428,1,0.0523228896632279,1
658,421,1,0.0589874008639561,1
658,422,1,0.0572045066358726,1
658,423,1,0.0516771035077635,1
658,424,1,0.0477485329894976,1
658,425,1,0.0497713081658399,1
658,426,1,0.0574698460799183,1
658,427,1,0.0605047392357512,1
658,428,1,0.055469553731024,1
658,429,1,0.0495644060388057,1
659,421,1,0.0554979337920888,1
659,422,1,0.0535668392578349,1
659,423,1,0.049102056310658,1
659,425,1,0.0510704458880904,1
659,426,1,0.059098336184204,1
659,427,1,0.0615338696221077,1
659,428,1,0.0564850381231807,1
659,429,1,0.0506050874286224,1
660,421,1,0.0523358804092481,1
660,422,1,0.0490945570252993,1
660,425,1,0.050866615612614,1
660,426,1,0.0577376261731467,1
660,427,1,0.0578700704657499,1
660,428,1,0.0513462813259126,1
661,421,1,0.0513646282749424,1
661,422,1,0.047221193462542,1
661,425,1,0.0502942292761713,1
661,426,1,0.0562658606128179,1
661,427,1,0.0553445816722491,1
661,428,1,0.0483728282069601,1
662,420,1,0.0554715555442701,1
662,421,1,0.0517426283257272,1
662,425,1,0.0483498584519657,1
662,426,1,0.0509014038806466,1
662,427,1,0.0486421352087907,1
663,420,1,0.0584676928742855,1
663,421,1,0.0509975570424199,1
663,425,1,0.0487470139919652,1
663,426,1,0.0477595249279972,1
664,420,1,0.0608960245936644,1
664,421,1,0.0513840332393816,1
664,425,1,0.0485276741724203,1
665,420,1,0.0634273985978795,1
665,421,1,0.0528939053887995,1
666,419,1,0.0793794215425788,1
666,420,1,0.0676951562323263,1
666,421,1,0.0554876181418479,1
667,419,1,0.105530785170548,1
667,420,1,0.0755492614860076,1
667,421,1,0.0560891059134982,1
668,418,1,0.218210123591589,1
668,419,1,0.149756490539803,1
668,420,1,0.0876078598618193,1
668,421,1,0.0563575172091016,1
669,417,1,0.239303512303373,1
669,418,1,0.256876138328397,1
669,419,1,0.173751005595555,1
669,420,1,0.0961765944099852,1
669,421,1,0.0573522380488503,1
670,417,1,0.208204664232077,1
670,418,1,0.22704611523673,1
670,419,1,0.163042278584306,1
670,420,1,0.0939563851422319,1
670,421,1,0.0565117590237172,1
671,416,1,0.12995725906296,1
671,417,1,0.170323312196109,1
671,418,1,0.190043998051713,1
671,419,1,0.144159108108399,1
671,420,1,0.0846126963868966,1
671,421,1,0.0526408713853384,1
672,416,1,0.113886582094686,1
672,417,1,0.140209897272475,1
672,418,1,0.155806559291568,1
672,419,1,0.124023223342051,1
672,420,1,0.0764605794519557,1
672,421,1,0.050259675454735,1
673,416,1,0.105566805786075,1
673,417,1,0.112690447582839,1
673,418,1,0.11724709151564,1
673,419,1,0.096826804993525,1
673,420,1,0.0665283455793808,1
673,421,1,0.0492036588529343,1
674,416,1,0.105730677945496,1
674,417,1,0.0965014532322563,1
674,418,1,0.0926733070118336,1
674,419,1,0.078338658998171,1
674,420,1,0.0598353641458199,1
674,421,1,0.0491178363700299,1
675,416,1,0.109809555783574,1
675,417,1,0.0931339044019597,1
675,418,1,0.0857573007391488,1
675,419,1,0.0724930998158669,1
675,420,1,0.0575531647934023,1
675,421,1,0.0485511038034307,1
676,416,1,0.113127828748472,1
676,417,1,0.0946258564153822,1
676,418,1,0.0838344539159266,1
676,419,1,0.0705793783755501,1
676,420,1,0.0572385194267018,1
676,421,1,0.0473990332288014,1
677,416,1,0.114473311753666,1
677,417,1,0.0985727287967941,1
677,418,1,0.0849339363155518,1
677,419,1,0.0708062264976304,1
677,420,1,0.057751350316212,1
678,416,1,0.115911190763641,1
678,417,1,0.105449209777909,1
678,418,1,0.0895400845488969,1
678,419,1,0.0710908867457985,1
678,420,1,0.055292534527852,1
679,416,1,0.11666895823186,1
679,417,1,0.108729322050657,1
679,418,1,0.0913541721972018,1
679,419,1,0.0709479765166747,1
679,420,1,0.0530258627538564,1
680,417,1,0.101170090500714,1
680,418,1,0.0839896214940255,1
680,419,1,0.067020286676008,1
680,420,1,0.0514477185532813,1
681,417,1,0.0930369817744342,1
681,418,1,0.0782471466767159,1
681,419,1,0.0649853683682632,1
681,420,1,0.0510680052389076,1
682,417,1,0.0826223710240743,1
682,418,1,0.0723503278501204,1
682,419,1,0.062212454255261,1
682,420,1,0.0496617194106585,1
683,417,1,0.0761032948619694,1
683,418,1,0.0681772505719054,1
683,419,1,0.0586032390757023,1
684,417,1,0.072873588607444,1
684,418,1,0.0655236276963042,1
684,419,1,0.0561351355952549,1
685,418,1,0.0642730715168401,1
685,419,1,0.0555636149077834,1
686,418,1,0.0618966907586394,1
686,419,1,0.0530649552209405,1
687,419,1,0.049956869641152,1
651,424,2,0.0552679296581341,1
651,425,2,0.0505320603195745,1
652,423,2,0.0550867144620319,1
652,424,2,0.0514035343870397,1
652,425,2,0.0477453529318184,1
653,422,2,0.0599014901089025,1
653,423,2,0.0548762475444424,1
653,424,2,0.0497036312483505,1
654,422,2,0.0611106454240256,1
654,423,2,0.0558089662766245,1
654,424,2,0.0493292290511025,1
655,422,2,0.0655759633903584,1
655,423,2,0.0586290221898534,1
655,424,2,0.0508155723805655,1
655,426,2,0.0475965033889195,1
655,427,2,0.0504304607830237,1
656,421,2,0.0674839859749477,1
656,422,2,0.0655318814187871,1
656,423,2,0.0575555813967804,1
656,424,2,0.0514894620703399,1
656,426,2,0.0505397008740361,1
656,427,2,0.0537949257388603,1
656,428,2,0.0501151511509669,1
657,421,2,0.0631691466547861,1
657,422,2,0.0610341136389344,1
657,423,2,0.055430689699085,1
657,424,2,0.0523968064670519,1
657,425,2,0.0512946910518058,1
657,426,2,0.0562997832318793,1
657,427,2,0.0583994268345795,1
657,428,2,0.0541425739725901,1
657,429,2,0.0503492070030232,1
657,430,2,0.0474725021795117,1
658,421,2,0.0580864045597002,1
658,422,2,0.0562175405681581,1
658,423,2,0.0527039615655704,1
658,424,2,0.0521508299072871,1
658,425,2,0.0543426531025244,1
658,426,2,0.0603953548699103,1
658,427,2,0.061378804238679,1
658,428,2,0.056226617859454,1
658,429,2,0.0524005155324357,1
658,430,2,0.0502419627138057,1
658,431,2,0.0480978103264997,1
659,420,2,0.0560039116272431,1
659,421,2,0.054823905838937,1
659,422,2,0.0532141173593013,1
659,423,2,0.0513033836102256,1
659,424,2,0.0519375376076386,1
659,425,2,0.0560088590515719,1
659,426,2,0.061332413869851,1
659,427,2,0.0614130274302999,1
659,428,2,0.0551156475766061,1
659,429,2,0.0502059751612608,1
659,430,2,0.0479345092549417,1
660,420,2,0.0529754146554756,1
660,421,2,0.0514992607357785,1
660,422,2,0.0495400897187449,1
660,423,2,0.0483731768711291,1
660,424,2,0.049844007650798,1
660,425,2,0.0550673996693606,1
660,426,2,0.058319270144421,1
660,427,2,0.0562161338885798,1
660,428,2,0.0485355822364599,1
661,420,2,0.0514550645466346,1
661,421,2,0.0503721707465664,1
661,422,2,0.048566369883726,1
661,423,2,0.0480378671409654,1
661,424,2,0.0498427181945179,1
661,425,2,0.0550104892609512,1
661,426,2,0.056994286187782,1
661,427,2,0.0536592352626148,1
662,419,2,0.0557356746637242,1
662,420,2,0.0522817593141906,1
662,421,2,0.0505724272143108,1
662,422,2,0.0488632754579668,1
662,423,2,0.0491507731110962,1
662,424,2,0.050856390134141,1
662,425,2,0.054079447723651,1
662,426,2,0.0525720162234159,1
662,427,2,0.0474077017414164,1
663,419,2,0.0599051450712256,1
663,420,2,0.0558010371725058,1
663,421,2,0.0503696459370669,1
663,422,2,0.04819450451888,1
663,423,2,0.0500169330557101,1
663,424,2,0.0525001974160571,1
663,425,2,0.0546176228913753,1
663,426,2,0.0499527638199896,1
664,419,2,0.0654920796004626,1
664,420,2,0.0595369557087818,1
664,421,2,0.0515116202794238,1
664,422,2,0.0483732279684642,1
664,423,2,0.0500925511002206,1
664,424,2,0.0506642220739718,1
664,425,2,0.0513254817047975,1
665,419,2,0.0708247297443912,1
665,420,2,0.0625539888431313,1
665,421,2,0.0534606529840267,1
665,422,2,0.0484398709163491,1
665,423,2,0.0489375198858805,1
665,424,2,0.0476761671400805,1
666,419,2,0.0783504053737949,1
666,420,2,0.0666247933022623,1
666,421,2,0.0561799269180665,1
666,422,2,0.0486610772914882,1
666,423,2,0.0475759111628705,1
667,418,2,0.129968861163755,1
667,419,2,0.100494511593156,1
667,420,2,0.0735070152192631,1
667,421,2,0.0571059128249165,1
667,422,2,0.0481514865741692,1
668,418,2,0.204716315290131,1
668,419,2,0.147095136937973,1
668,420,2,0.0864273851803204,1
668,421,2,0.0578639267626344,1
668,422,2,0.0473207941915723,1
669,417,2,0.221795521401536,1
669,418,2,0.253665350110765,1
669,419,2,0.180533846201494,1
669,420,2,0.0985045950090143,1
669,421,2,0.0595031533187443,1
670,417,2,0.19396719132689,1
670,418,2,0.229609878939953,1
670,419,2,0.17561437512071,1
670,420,2,0.0992430296502086,1
670,421,2,0.0586229746699569,1
671,416,2,0.120434855875217,1
671,417,2,0.161645902633343,1
671,418,2,0.19689193065113,1
671,419,2,0.158907854937239,1
671,420,2,0.0912479979462959,1
671,421,2,0.0544088031114117,1
672,417,2,0.132630262857196,1
672,418,2,0.155489202760381,1
672,419,2,0.128727965386353,1
672,420,2,0.0793159646638243,1
672,421,2,0.0513341983090221,1
673,416,2,0.105076018888076,1
673,417,2,0.111720920735024,1
673,418,2,0.116517337409963,1
673,419,2,0.0966645919946322,1
673,420,2,0.0683067252076211,1
673,421,2,0.0506073898144279,1
674,417,2,0.101749798784706,1
674,418,2,0.0965990551537662,1
674,419,2,0.0804904940200969,1
674,420,2,0.0635373360172299,1
674,421,2,0.0515214129334112,1
675,417,2,0.099041892504865,1
675,418,2,0.0908581192679611,1
675,419,2,0.0764014808753135,1
675,420,2,0.062339842917414,1
675,421,2,0.0510815851071443,1
676,417,2,0.0989806418286969,1
676,418,2,0.0875035852294893,1
676,419,2,0.072960526214544,1
676,420,2,0.0596120267112341,1
676,421,2,0.0481581352391846,1
677,417,2,0.107309862127127,1
677,418,2,0.0922750964621504,1
677,419,2,0.0737186784156392,1
677,420,2,0.0580287787885993,1
678,417,2,0.124884880709724,1
678,418,2,0.106069423220014,1
678,419,2,0.0774334606895336,1
678,420,2,0.0563043880034903,1
679,417,2,0.133499049805979,1
679,418,2,0.11224302729372,1
679,419,2,0.0802630808216048,1
679,420,2,0.055701247082763,1
680,417,2,0.117686805124334,1
680,418,2,0.0972470234660123,1
680,419,2,0.0735205650302438,1
680,420,2,0.0543326260019406,1
681,417,2,0.104202290526415,1
681,418,2,0.085651192614206,1
681,419,2,0.0680622996022631,1
681,420,2,0.0526835827460386,1
682,418,2,0.0775724033608725,1
682,419,2,0.06335552568746,1
682,420,2,0.0504294989508334,1
683,418,2,0.0716341956928385,1
683,419,2,0.0591777414429637,1
683,420,2,0.0476945080776591,1
684,418,2,0.0679399966278163,1
684,419,2,0.0571448129255627,1
684,420,2,0.0476292147005662,1
685,419,2,0.0564835112145786,1
685,420,2,0.0491741366161435,1
686,419,2,0.0535384772311237,1
686,420,2,0.047636987506954,1
652,424,3,0.0571798416516428,1
652,425,3,0.0523933438711668,1
652,426,3,0.0477036755407228,1
653,423,3,0.0629144955709551,1
653,424,3,0.0554646904670118,1
653,425,3,0.0504487536289929,1
653,426,3,0.0477557437251992,1
654,422,3,0.0694041577023907,1
654,423,3,0.0641304558488246,1
654,424,3,0.0555351867551091,1
654,425,3,0.0503323058080044,1
654,426,3,0.0495465490230478,1
654,427,3,0.0496478149240576,1
655,422,3,0.0740778986929085,1
655,423,3,0.066282146595922,1
655,424,3,0.0563643402062014,1
655,425,3,0.0512480121333207,1
655,426,3,0.0516614677232201,1
655,427,3,0.0537160074076468,1
655,428,3,0.0509983806112328,1
656,421,3,0.0745039602959519,1
656,422,3,0.071969544497435,1
656,423,3,0.0636432036841251,1
656,424,3,0.0568776039201972,1
656,425,3,0.0535373530897513,1
656,426,3,0.0553724207027069,1
656,427,3,0.0581667055246872,1
656,428,3,0.0567882136410119,1
656,429,3,0.0534671934429206,1
656,430,3,0.0496291794253707,1
657,421,3,0.0714600860320421,1
657,422,3,0.0656706677923951,1
657,423,3,0.0604556136566321,1
657,424,3,0.0585787844922642,1
657,425,3,0.0582753264362271,1
657,426,3,0.0611715714818295,1
657,427,3,0.0628075939344554,1
657,428,3,0.0614737671331168,1
657,429,3,0.0606713285711098,1
657,430,3,0.05957738271803,1
657,431,3,0.0542428209326233,1
658,420,3,0.0693238447145013,1
658,421,3,0.0654710154754952,1
658,422,3,0.0601536223946851,1
658,423,3,0.0581987405480751,1
658,424,3,0.06037569141307,1
658,425,3,0.0624783707986208,1
658,426,3,0.0656078120587595,1
658,427,3,0.0652590456951084,1
658,428,3,0.062010986480102,1
658,429,3,0.0606902345851002,1
658,430,3,0.0602345786078518,1
658,431,3,0.0556945563375892,1
659,420,3,0.0627400252230874,1
659,421,3,0.0600461977619319,1
659,422,3,0.0572376116975723,1
659,423,3,0.0579759862242546,1
659,424,3,0.0620483115805365,1
659,425,3,0.0645027690667842,1
659,426,3,0.065653679431334,1
659,427,3,0.0633258110842311,1
659,428,3,0.0576017854106216,1
659,429,3,0.0538190557039342,1
659,430,3,0.0521990958488862,1
659,431,3,0.0486739267684054,1
660,420,3,0.0573561695379281,1
660,421,3,0.0561760074518911,1
660,422,3,0.0552344999780702,1
660,423,3,0.0574084751747264,1
660,424,3,0.061601131749465,1
660,425,3,0.0637032520700552,1
660,426,3,0.0629269753436242,1
660,427,3,0.0586509158950849,1
660,428,3,0.0512229624162148,1
661,419,3,0.0604072695661675,1
661,420,3,0.0551590442427418,1
661,421,3,0.0547547801617109,1
661,422,3,0.05487896472038,1
661,423,3,0.0576138383702561,1
661,424,3,0.0611030229039176,1
661,425,3,0.0629254183777661,1
661,426,3,0.0607056058657913,1
661,427,3,0.0552096606617559,1
661,428,3,0.047664862606119,1
662,419,3,0.0587588515011892,1
662,420,3,0.056187308980127,1
662,421,3,0.0548184233954523,1
662,422,3,0.054952184195866,1
662,423,3,0.0580249374712893,1
662,424,3,0.0611975649967721,1
662,425,3,0.0623824580948951,1
662,426,3,0.0574778593443536,1
662,427,3,0.0503570850098068,1
663,419,3,0.0611529540174961,1
663,420,3,0.0592244864874119,1
663,421,3,0.0551171925195617,1
663,422,3,0.0544361071227136,1
663,423,3,0.0581095847154862,1
663,424,3,0.0610447659304418,1
663,425,3,0.0611290043959578,1
663,426,3,0.0536502661774403,1
664,419,3,0.0658378041698119,1
664,420,3,0.0625698771086247,1
664,421,3,0.0560005031344187,1
664,422,3,0.0537243452904464,1
664,423,3,0.0566565808943193,1
664,424,3,0.0576681398088493,1
664,425,3,0.0556904445049757,1
664,426,3,0.047866219169431,1
665,419,3,0.070979993505709,1
665,420,3,0.0647917154796503,1
665,421,3,0.0574814722265184,1
665,422,3,0.0541633134791933,1
665,423,3,0.0559902776559457,1
665,424,3,0.0549004075667723,1
665,425,3,0.0509739320392458,1
666,418,3,0.103126493244475,1
666,419,3,0.0792122911766132,1
666,420,3,0.0675681102228912,1
666,421,3,0.0588748304289849,1
666,422,3,0.0546674097301253,1
666,423,3,0.0547517443788603,1
666,424,3,0.0515420562567953,1
667,417,3,0.133349761427144,1
667,418,3,0.121545507551152,1
667,419,3,0.096522781861076,1
667,420,3,0.0719389281765277,1
667,421,3,0.0593398642700886,1
667,422,3,0.0548260098468532,1
667,423,3,0.0529175484263271,1
667,424,3,0.0481357245491508,1
668,417,3,0.163378030156132,1
668,418,3,0.176887768803242,1
668,419,3,0.138971983174862,1
668,420,3,0.083013451992647,1
668,421,3,0.0596341728974156,1
668,422,3,0.0541541700619343,1
668,423,3,0.0500718656966781,1
669,417,3,0.205515309290606,1
669,418,3,0.235785490838356,1
669,419,3,0.180936397018936,1
669,420,3,0.0961091278932874,1
669,421,3,0.0619369374243519,1
669,422,3,0.0541941101436362,1
669,423,3,0.0484040937645958,1
670,417,3,0.191711237970365,1
670,418,3,0.234264521550043,1
670,419,3,0.18876200799398,1
670,420,3,0.100582585364531,1
670,421,3,0.061376105097095,1
670,422,3,0.0511591027702306,1
671,417,3,0.160751939726978,1
671,418,3,0.205299377963886,1
671,419,3,0.176330483232187,1
671,420,3,0.0979659810053532,1
671,421,3,0.0594353561722311,1
671,422,3,0.0478031951151621,1
672,417,3,0.131117348913476,1
672,418,3,0.154699093684764,1
672,419,3,0.136213183949252,1
672,420,3,0.0852319720426161,1
672,421,3,0.0569240664264395,1
673,417,3,0.116167062172063,1
673,418,3,0.117598737364411,1
673,419,3,0.102292741033223,1
673,420,3,0.0762255016531972,1
673,421,3,0.0585450301938361,1
674,417,3,0.11068821353521,1
674,418,3,0.102695376010982,1
674,419,3,0.0886339364309716,1
674,420,3,0.0730308181133008,1
674,421,3,0.0598090159552571,1
674,422,3,0.0475044350082294,1
675,418,3,0.0972399299536089,1
675,419,3,0.0850734560862048,1
675,420,3,0.0719269052741491,1
675,421,3,0.0592380062411367,1
676,418,3,0.0927379721922772,1
676,419,3,0.0804000276911488,1
676,420,3,0.0671032807711278,1
676,421,3,0.0552626816612458,1
677,418,3,0.0982431209280834,1
677,419,3,0.0800296922406304,1
677,420,3,0.063627483739265,1
677,421,3,0.0522515637948666,1
678,418,3,0.115200324637601,1
678,419,3,0.0837900473259911,1
678,420,3,0.0616727221216787,1
678,421,3,0.0503597300483301,1
679,418,3,0.126111024385909,1
679,419,3,0.0876421612023056,1
679,420,3,0.0609899475070464,1
679,421,3,0.0488728156310042,1
680,418,3,0.108850236379879,1
680,419,3,0.0809930453280733,1
680,420,3,0.0594466757348206,1
680,421,3,0.0478028795139747,1
681,418,3,0.0947845046237197,1
681,419,3,0.0747587255973555,1
681,420,3,0.0578318015674787,1
682,420,3,0.0552322817525814,1
683,420,3,0.0525060104893571,1
684,420,3,0.051578052826517,1
687,426,3,0.0473031986739412,1
688,425,3,0.0488232572273994,1
688,426,3,0.0479198924113749,1
652,425,4,0.057030324837662,1
652,426,4,0.0513640391527259,1
653,424,4,0.0613011903923737,1
653,425,4,0.055943706943582,1
653,426,4,0.0520787285617223,1
653,427,4,0.0485790480342843,1
654,423,4,0.0691285386768113,1
654,424,4,0.0622132658011716,1
654,425,4,0.0570629429718152,1
654,426,4,0.0547941792128058,1
654,427,4,0.0536185557724167,1
654,428,4,0.0493279335833712,1
655,422,4,0.0740894346677408,1
655,423,4,0.0689897583146546,1
655,424,4,0.0623035638094864,1
655,425,4,0.0584892920184087,1
655,426,4,0.057997050349222,1
655,427,4,0.0586736992950924,1
655,428,4,0.0557561256206703,1
655,429,4,0.0507320071975826,1
656,422,4,0.0704671025016871,1
656,423,4,0.0651992317557746,1
656,424,4,0.0624585450325984,1
656,425,4,0.0612266664319796,1
656,426,4,0.0624973188927696,1
656,427,4,0.0640945855195779,1
656,428,4,0.0630452566572253,1
656,429,4,0.0609528147730499,1
656,430,4,0.0581689958875903,1
656,431,4,0.0514591342990898,1
657,421,4,0.0711197837916656,1
657,422,4,0.0650524741978897,1
657,423,4,0.0626237817914394,1
657,424,4,0.0647899721588054,1
657,425,4,0.0660039787150384,1
657,426,4,0.0678795695204612,1
657,427,4,0.0680004237351714,1
657,428,4,0.0676683932516315,1
657,429,4,0.0688729798638507,1
657,430,4,0.0688786606852246,1
657,431,4,0.0604215647970957,1
657,432,4,0.0479264989962319,1
658,421,4,0.0652707560020252,1
658,422,4,0.061190543621783,1
658,423,4,0.0630059598008007,1
658,424,4,0.0689054837804314,1
658,425,4,0.0705672292326964,1
658,426,4,0.0707641703851099,1
658,427,4,0.068332249829371,1
658,428,4,0.0661783588911383,1
658,429,4,0.0662608840930653,1
658,430,4,0.0653611201363032,1
658,431,4,0.0583167032547632,1
658,432,4,0.0476894855101904,1
659,420,4,0.0623685235510383,1
659,421,4,0.0597203891303729,1
659,422,4,0.0595676141098474,1
659,423,4,0.0652111704978366,1
659,424,4,0.0727843726603432,1
659,425,4,0.0728808023488711,1
659,426,4,0.0694984533257464,1
659,427,4,0.0643527172336475,1
659,428,4,0.0590575845565915,1
659,429,4,0.0554827248205798,1
659,430,4,0.0528197000353185,1
659,431,4,0.0485091619084828,1
660,420,4,0.0570911186435396,1
660,421,4,0.0568734980990349,1
660,422,4,0.0593078893612126,1
660,423,4,0.0662577581384469,1
660,424,4,0.0730210495051181,1
660,425,4,0.0718813324626828,1
660,426,4,0.0661175530623583,1
660,427,4,0.0590343142290376,1
660,428,4,0.0518030013300216,1
661,420,4,0.0554185706134874,1
661,421,4,0.0568161127859816,1
661,422,4,0.060442021765493,1
661,423,4,0.0669761085212176,1
661,424,4,0.0711086265382582,1
661,425,4,0.0692490622617061,1
661,426,4,0.0624172643972813,1
661,427,4,0.0547564633680439,1
661,428,4,0.0476380936139729,1
662,419,4,0.0586130798212993,1
662,420,4,0.0573299776450962,1
662,421,4,0.0581709135405197,1
662,422,4,0.0614354862119432,1
662,423,4,0.0671082702756149,1
662,424,4,0.0692192574867094,1
662,425,4,0.0668251609818537,1
662,426,4,0.0586407745769285,1
662,427,4,0.0505282911396788,1
663,419,4,0.0616551807071083,1
663,420,4,0.0610157366326486,1
663,421,4,0.0596582307250753,1
663,422,4,0.0607897661824419,1
663,423,4,0.0655351997398436,1
663,424,4,0.0661589779725039,1
663,425,4,0.0627801757055809,1
663,426,4,0.0535958926014329,1
664,419,4,0.0673266783202255,1
664,420,4,0.0654475708158568,1
664,421,4,0.0616451956866828,1
664,422,4,0.0600450014831452,1
664,423,4,0.062501587023114,1
664,424,4,0.0608624867074791,1
664,425,4,0.0557529215171864,1
664,426,4,0.0473410377534524,1
665,419,4,0.0741846440316774,1
665,420,4,0.0693755131374735,1
665,421,4,0.0646873266297477,1
665,422,4,0.0615728298372657,1
665,423,4,0.0618013190855207,1
665,424,4,0.0575334231876966,1
665,425,4,0.0505254357003639,1
666,419,4,0.0826974540494289,1
666,420,4,0.0722620496894052,1
666,421,4,0.0664217144581845,1
666,422,4,0.0624575050515427,1
666,423,4,0.0603824783414627,1
666,424,4,0.0539227532369501,1
667,418,4,0.116400955714938,1
667,419,4,0.0959734494399443,1
667,420,4,0.0759533091547957,1
667,421,4,0.0674840400780084,1
667,422,4,0.0628956556829278,1
667,423,4,0.0581512921638377,1
667,424,4,0.0500398216561134,1
668,418,4,0.151805457608978,1
668,419,4,0.128238813603077,1
668,420,4,0.0847425798012932,1
668,421,4,0.0676233013562603,1
668,422,4,0.0621083780008203,1
668,423,4,0.0549255173983901,1
669,418,4,0.208811195611275,1
669,419,4,0.168715405300696,1
669,420,4,0.0962787049198871,1
669,421,4,0.069050419868606,1
669,422,4,0.0616324995017709,1
669,423,4,0.0526502793064497,1
670,418,4,0.225186484834215,1
670,419,4,0.184480664479845,1
670,420,4,0.100901486838673,1
670,421,4,0.0673336335692515,1
670,422,4,0.05776144955421,1
670,423,4,0.0485071330437064,1
671,418,4,0.195293461734083,1
671,419,4,0.169832248771356,1
671,420,4,0.0979542887327899,1
671,421,4,0.0643597085513807,1
671,422,4,0.0530913935832712,1
672,418,4,0.144133066501847,1
672,419,4,0.129507482284975,1
672,420,4,0.0870897088380067,1
672,421,4,0.0621291776219353,1
672,422,4,0.0501758036877416,1
673,418,4,0.116832409589698,1
673,419,4,0.105069093696306,1
673,420,4,0.0830165899701678,1
673,421,4,0.0646045549583219,1
673,422,4,0.0509429430083649,1
674,418,4,0.109063258164224,1
674,419,4,0.0988619457249637,1
674,420,4,0.0826677093889442,1
674,421,4,0.0659805280439488,1
674,422,4,0.0511088229924831,1
675,419,4,0.0956139466244692,1
675,420,4,0.0811939660611741,1
675,421,4,0.0650165677999358,1
675,422,4,0.0499802842435344,1
676,419,4,0.0872839748946409,1
676,420,4,0.0738449429364198,1
676,421,4,0.0602377105739214,1
676,422,4,0.0474535961655213,1
677,419,4,0.0840391137716672,1
677,420,4,0.0683654931544479,1
677,421,4,0.0565460783985571,1
678,419,4,0.0852918881766201,1
678,420,4,0.0653247207993518,1
678,421,4,0.0540060298702758,1
679,419,4,0.087643159103203,1
679,420,4,0.063475898986075,1
679,421,4,0.0518074858726088,1
680,420,4,0.0618141595452611,1
680,421,4,0.0504115758091125,1
681,420,4,0.060254302179204,1
681,421,4,0.0491282151405083,1
682,421,4,0.0489095786607526,1
683,421,4,0.0484871239284228,1
684,421,4,0.0500266265207529,1
686,425,4,0.0478177999358266,1
686,426,4,0.0472165165535167,1
687,425,4,0.0505727037410655,1
687,426,4,0.0505116875114939,1
687,427,4,0.049405766847645,1
688,427,4,0.0501060077337079,1
652,426,5,0.0541329135705288,1
653,425,5,0.0622521057873058,1
653,426,5,0.0563405889625524,1
653,427,5,0.0506166534607107,1
654,424,5,0.0693895919561589,1
654,425,5,0.0647490281647549,1
654,426,5,0.0606072945930411,1
654,427,5,0.0574676218429782,1
654,428,5,0.0525487278615085,1
655,423,5,0.0742330963282633,1
655,424,5,0.0708452408158491,1
655,425,5,0.0679635615164785,1
655,426,5,0.0654740933385041,1
655,427,5,0.0651285250668858,1
655,428,5,0.0620006828527635,1
655,429,5,0.0569662908595933,1
655,430,5,0.0521469104411116,1
655,431,5,0.0473225705753988,1
656,422,5,0.0694121048408629,1
656,423,5,0.0704177003958132,1
656,424,5,0.0723581667824713,1
656,425,5,0.0730984108704735,1
656,426,5,0.0723390022760797,1
656,427,5,0.0735815572140107,1
656,428,5,0.0727270895419601,1
656,429,5,0.0710234863550638,1
656,430,5,0.0700894691494249,1
656,431,5,0.0616017389060352,1
656,432,5,0.0479641276749515,1
657,422,5,0.0661590380870158,1
657,423,5,0.0687707190676691,1
657,424,5,0.0754648847571143,1
657,425,5,0.0785588644666871,1
657,426,5,0.0782295331247312,1
657,427,5,0.0778530058794878,1
657,428,5,0.0776829419253418,1
657,429,5,0.0815955430235233,1
657,430,5,0.0857419234470065,1
657,431,5,0.0725992500209679,1
657,432,5,0.0520951278005668,1
658,421,5,0.0662221402901502,1
658,422,5,0.064422395964383,1
658,423,5,0.0716179828089809,1
658,424,5,0.0821001742936112,1
658,425,5,0.0836178192494169,1
658,426,5,0.0799541523449853,1
658,427,5,0.0751304256472938,1
658,428,5,0.072062325235091,1
658,429,5,0.0734713913595152,1
658,430,5,0.073486816743267,1
658,431,5,0.0626039139452587,1
658,432,5,0.0485092580917018,1
659,421,5,0.062173397856884,1
659,422,5,0.0663870644535293,1
659,423,5,0.0797845753183857,1
659,424,5,0.0920428801141579,1
659,425,5,0.0872720181182253,1
659,426,5,0.0766262009436728,1
659,427,5,0.0676631753119991,1
659,428,5,0.0614422190372752,1
659,429,5,0.0582475595431836,1
659,430,5,0.0539090170709824,1
659,431,5,0.0483126475691038,1
660,421,5,0.0605870901055938,1
660,422,5,0.070439191333815,1
660,423,5,0.0874978442936035,1
660,424,5,0.097585997175676,1
660,425,5,0.0874911775942346,1
660,426,5,0.0716801532371809,1
660,427,5,0.0606231588127297,1
660,428,5,0.0530856646702878,1
660,429,5,0.0477759572298233,1
661,420,5,0.057092050418474,1
661,421,5,0.0631015538976133,1
661,422,5,0.0754924532722685,1
661,423,5,0.090608325436691,1
661,424,5,0.0946530702549163,1
661,425,5,0.083167513463727,1
661,426,5,0.0665314474881945,1
661,427,5,0.0554321564931752,1
661,428,5,0.0483097560610817,1
662,420,5,0.0601746985425549,1
662,421,5,0.0672914452048048,1
662,422,5,0.0796089688062431,1
662,423,5,0.0903352973465743,1
662,424,5,0.0887057372039769,1
662,425,5,0.0774417384578213,1
662,426,5,0.061687846932871,1
662,427,5,0.0510816993247169,1
663,420,5,0.0652001695421602,1
663,421,5,0.0716929876854701,1
663,422,5,0.0804132829410212,1
663,423,5,0.0858331051386462,1
663,424,5,0.0809131290959624,1
663,425,5,0.0696995784481876,1
663,426,5,0.0557289779070993,1
664,420,5,0.0709992421724173,1
664,421,5,0.077071210640865,1
664,422,5,0.0818429382857688,1
664,423,5,0.0810554982944792,1
664,424,5,0.0726143688207091,1
664,425,5,0.060554423879831,1
664,426,5,0.0490664204280076,1
665,419,5,0.0774743806377794,1
665,420,5,0.0759773970397114,1
665,421,5,0.0808981124908914,1
665,422,5,0.0833161165371271,1
665,423,5,0.0785998445294448,1
665,424,5,0.0673762247009279,1
665,425,5,0.0546017286144307,1
666,419,5,0.0860278220541196,1
666,420,5,0.0775607531684676,1
666,421,5,0.0788290190831354,1
666,422,5,0.0795499002868568,1
666,423,5,0.0739016549669399,1
666,424,5,0.0618678357929306,1
666,425,5,0.0494987008773064,1
667,419,5,0.0942382741114017,1
667,420,5,0.0786375543627554,1
667,421,5,0.0760149024836815,1
667,422,5,0.0748668355355443,1
667,423,5,0.0679869039814466,1
667,424,5,0.0558896760202924,1
668,419,5,0.112954831206145,1
668,420,5,0.0844108979819222,1
668,421,5,0.0753793838868485,1
668,422,5,0.0722257465356728,1
668,423,5,0.0629091273450431,1
668,424,5,0.0502628044150791,1
669,419,5,0.149333416628001,1
669,420,5,0.0962387648381852,1
669,421,5,0.0767670071648804,1
669,422,5,0.070550481329683,1
669,423,5,0.0595322727883053,1
670,419,5,0.173607199660204,1
670,420,5,0.103061605640338,1
670,421,5,0.0748940433636272,1
670,422,5,0.0655730718823364,1
670,423,5,0.05474360487395,1
671,419,5,0.155960392327503,1
671,420,5,0.0987435381708876,1
671,421,5,0.0713646602558628,1
671,422,5,0.0602727332885504,1
671,423,5,0.0506059230203377,1
672,419,5,0.120210785043586,1
672,420,5,0.0909866861745472,1
672,421,5,0.0694300369997607,1
672,422,5,0.0565980113253817,1
673,419,5,0.108850284471489,1
673,420,5,0.0928426736376416,1
673,421,5,0.0723828858697618,1
673,422,5,0.0566160035987913,1
674,419,5,0.112010179743352,1
674,420,5,0.0941002271462901,1
674,421,5,0.0726119281715262,1
675,420,5,0.0909616244345389,1
675,421,5,0.0710531709010367,1
676,420,5,0.0816963670828707,1
676,421,5,0.0670009237917272,1
677,420,5,0.0766356509449424,1
678,420,5,0.0739634226279102,1
653,425,6,0.0690683941076621,1
653,426,6,0.0621474644564532,1
653,427,6,0.0547640137507377,1
653,428,6,0.0485788706964742,1
654,424,6,0.0767756576431418,1
654,425,6,0.0726476361915908,1
654,426,6,0.0670853245664253,1
654,427,6,0.0621701997648513,1
654,428,6,0.0576628076516444,1
654,429,6,0.0526551606048155,1
654,430,6,0.0476862513494506,1
655,423,6,0.0817450357916995,1
655,424,6,0.0812670051931244,1
655,425,6,0.0788466807267296,1
655,426,6,0.0738010954114449,1
655,427,6,0.0710628854061587,1
655,428,6,0.0689723371291079,1
655,429,6,0.0656791078698649,1
655,430,6,0.0623313607597859,1
655,431,6,0.0568884726239475,1
656,422,6,0.075530127036872,1
656,423,6,0.0816040852956634,1
656,424,6,0.087394826054572,1
656,425,6,0.0884394960422529,1
656,426,6,0.0836406928211923,1
656,427,6,0.0815039465417516,1
656,428,6,0.0811598210184187,1
656,429,6,0.0816547858749941,1
656,430,6,0.0844147753679393,1
656,431,6,0.0745380452241954,1
656,432,6,0.0549135365761698,1
657,422,6,0.0737915612498586,1
657,423,6,0.0831955448606228,1
657,424,6,0.0945685191939385,1
657,425,6,0.0978334886211405,1
657,426,6,0.0921158531201452,1
657,427,6,0.0872285132459682,1
657,428,6,0.0855525206543845,1
657,429,6,0.0919225849644084,1
657,430,6,0.102685252727179,1
657,431,6,0.0868364343764981,1
657,432,6,0.0583153266324408,1
658,421,6,0.0704906192987397,1
658,422,6,0.0739831942908719,1
658,423,6,0.0888885815033514,1
658,424,6,0.105232508985436,1
658,425,6,0.10577432108113,1
658,426,6,0.094506018135923,1
658,427,6,0.0831219105950048,1
658,428,6,0.076959698221303,1
658,429,6,0.078405307957507,1
658,430,6,0.0814168466254695,1
658,431,6,0.0686396874660954,1
658,432,6,0.0516600129520323,1
659,421,6,0.0688098536149116,1
659,422,6,0.080656019328595,1
659,423,6,0.105554133646968,1
659,424,6,0.125069287986408,1
659,425,6,0.114696949760812,1
659,426,6,0.0917817727317496,1
659,427,6,0.074388450261349,1
659,428,6,0.065684415981265,1
659,429,6,0.0616061994028176,1
659,430,6,0.0568956683310211,1
659,431,6,0.0505804284558438,1
660,421,6,0.0701000312691645,1
660,422,6,0.0920570070244529,1
660,423,6,0.125949027799259,1
660,424,6,0.14225573838703,1
660,425,6,0.119494676932109,1
660,426,6,0.0867276571672272,1
660,427,6,0.0663946689392838,1
660,428,6,0.0575435104027922,1
660,429,6,0.0514124613920559,1
661,421,6,0.0758075615207106,1
661,422,6,0.104561510803684,1
661,423,6,0.138052700036088,1
661,424,6,0.143982383466335,1
661,425,6,0.115926315574833,1
661,426,6,0.0810473467666664,1
661,427,6,0.0608755736367183,1
661,428,6,0.0523261418583214,1
662,420,6,0.0677564429772015,1
662,421,6,0.0857507843260596,1
662,422,6,0.118092253461249,1
662,423,6,0.143262957033802,1
662,424,6,0.135994487354985,1
662,425,6,0.106177052242108,1
662,426,6,0.0741126689265876,1
662,427,6,0.0559202021694317,1
662,428,6,0.0478415541852012,1
663,420,6,0.0765746767955291,1
663,421,6,0.0980222602113876,1
663,422,6,0.127180593804416,1
663,423,6,0.13769379235428,1
663,424,6,0.119823851976334,1
663,425,6,0.0899879316510504,1
663,426,6,0.0646058714661324,1
663,427,6,0.0507576400254539,1
664,420,6,0.0851355423540881,1
664,421,6,0.10802853111681,1
664,422,6,0.128820986582056,1
664,423,6,0.123721568721371,1
664,424,6,0.100063406382565,1
664,425,6,0.0727580545270363,1
664,426,6,0.054703057635678,1
665,420,6,0.0906735316477417,1
665,421,6,0.109949622596285,1
665,422,6,0.123289405495371,1
665,423,6,0.109803664561408,1
665,424,6,0.0854337764590417,1
665,425,6,0.0620369258919839,1
665,426,6,0.0485309143446114,1
666,420,6,0.0902747019185859,1
666,421,6,0.101246255587283,1
666,422,6,0.109526572730288,1
666,423,6,0.0962552722831511,1
666,424,6,0.0741862791464009,1
666,425,6,0.0545406522703472,1
667,420,6,0.088478774864324,1
667,421,6,0.0925842052823054,1
667,422,6,0.0959751927607893,1
667,423,6,0.0833072616695252,1
667,424,6,0.064100176169184,1
667,425,6,0.0484608959668837,1
668,420,6,0.0893575829022401,1
668,421,6,0.0869418992761636,1
668,422,6,0.0855885232355573,1
668,423,6,0.0722601620937317,1
668,424,6,0.0552136522653457,1
669,420,6,0.0955948963356502,1
669,421,6,0.0830075126788719,1
669,422,6,0.077491513273669,1
669,423,6,0.0645166615304828,1
669,424,6,0.049572479417753,1
670,420,6,0.100156421566817,1
670,421,6,0.078555017137926,1
670,422,6,0.0699538267647889,1
670,423,6,0.0582795885551203,1
671,420,6,0.0952310833096723,1
671,421,6,0.0749939957625521,1
671,422,6,0.0647490161418526,1
671,423,6,0.0538895339576778,1
672,420,6,0.0942398851803204,1
672,421,6,0.0746795547851921,1
672,422,6,0.0610700741399489,1
672,423,6,0.0497857266315175,1
673,421,6,0.0774929379876008,1
673,422,6,0.0597373354112756,1
653,425,7,0.0778609049263506,1
653,426,7,0.0701352102815244,1
653,427,7,0.061584684419011,1
653,428,7,0.0551473399472762,1
653,429,7,0.0510555435005921,1
654,424,7,0.0859707553479793,1
654,425,7,0.0859438781497119,1
654,426,7,0.0792662199052326,1
654,427,7,0.0716352717426014,1
654,428,7,0.0667657197524937,1
654,429,7,0.0644463515973724,1
654,430,7,0.0586812977693957,1
654,431,7,0.0503543678338693,1
655,423,7,0.0903874587085441,1
655,424,7,0.0968274482188022,1
655,425,7,0.101440629850039,1
655,426,7,0.0939688889607057,1
655,427,7,0.0840686660657139,1
655,428,7,0.080435122543192,1
655,429,7,0.0814947550328831,1
655,430,7,0.0782901766443291,1
655,431,7,0.0695991751904235,1
655,432,7,0.0520653410599237,1
656,422,7,0.0815963846266898,1
656,423,7,0.0973865552595677,1
656,424,7,0.11273387430623,1
656,425,7,0.12021813103694,1
656,426,7,0.109541529220847,1
656,427,7,0.0961300357205239,1
656,428,7,0.0921736592347817,1
656,429,7,0.0956838417674474,1
656,430,7,0.0985978927314726,1
656,431,7,0.0867837800755308,1
656,432,7,0.0614218221833899,1
657,422,7,0.0821136219099217,1
657,423,7,0.10566261629513,1
657,424,7,0.127726265251773,1
657,425,7,0.131904969248301,1
657,426,7,0.115444028868816,1
657,427,7,0.0988428052643769,1
657,428,7,0.0932287290330201,1
657,429,7,0.10020602205058,1
657,430,7,0.113093118629304,1
657,431,7,0.0974487797908284,1
657,432,7,0.0641804049967567,1
658,421,7,0.0738064155457474,1
658,422,7,0.0869365550960563,1
658,423,7,0.119882042823847,1
658,424,7,0.149138898090417,1
658,425,7,0.143363468497687,1
658,426,7,0.114540615961182,1
658,427,7,0.0910497883776815,1
658,428,7,0.0811797910592696,1
658,429,7,0.0821389842224895,1
658,430,7,0.086931751946556,1
658,431,7,0.0752031822410382,1
658,432,7,0.0562042732953833,1
659,421,7,0.0762407286590597,1
659,422,7,0.103024587123914,1
659,423,7,0.154584888135069,1
659,425,7,0.161695653403385,1
659,426,7,0.11085814523743,1
659,427,7,0.0791916177959731,1
659,428,7,0.0680822455973093,1
659,429,7,0.0644439770741526,1
659,430,7,0.0602237459728086,1
659,431,7,0.0539190261372127,1
659,432,7,0.048649718654466,1
660,421,7,0.0828978277404715,1
660,422,7,0.129224775758443,1
660,425,7,0.171523943273446,1
660,426,7,0.104354043600238,1
660,427,7,0.0698844966982225,1
660,428,7,0.0593814094092581,1
660,429,7,0.0544144418526273,1
660,430,7,0.0487993076058612,1
661,421,7,0.0933732082509043,1
661,422,7,0.153646476558611,1
661,425,7,0.159576544721734,1
661,426,7,0.095098128043718,1
661,427,7,0.0644511427239703,1
661,428,7,0.0544136423296191,1
661,429,7,0.0496243372014377,1
662,420,7,0.0748538868696825,1
662,421,7,0.110493670951821,1
662,422,7,0.178121390724706,1
662,425,7,0.138099913973729,1
662,426,7,0.0855760614972419,1
662,427,7,0.0602666196426909,1
662,428,7,0.0502898258881751,1
663,420,7,0.0877719484334832,1
663,421,7,0.132958716527278,1
663,424,7,0.165580433505463,1
663,425,7,0.110664997310717,1
663,426,7,0.0730585429261859,1
663,427,7,0.0553633253770575,1
664,420,7,0.101777211002129,1
664,421,7,0.149952824535647,1
664,424,7,0.130362743468582,1
664,425,7,0.0857545835632112,1
664,426,7,0.061230141050767,1
664,427,7,0.0500445075823155,1
665,419,7,0.102223332817791,1
665,420,7,0.110865527299491,1
665,421,7,0.149467099279549,1
665,422,7,0.177859327521559,1
665,423,7,0.149035128419987,1
665,424,7,0.105018296933756,1
665,425,7,0.0712277975466354,1
665,426,7,0.0539170603926738,1
666,419,7,0.122519747376699,1
666,420,7,0.111214876773907,1
666,421,7,0.133293121534038,1
666,422,7,0.150529695414677,1
666,423,7,0.123600630346344,1
666,424,7,0.0874918568882189,1
666,425,7,0.0612694318957405,1
666,426,7,0.0481250752633689,1
667,419,7,0.133666769294161,1
667,420,7,0.105412600040166,1
667,421,7,0.11465893334349,1
667,422,7,0.123505192547263,1
667,423,7,0.102385485702172,1
667,424,7,0.074399721732329,1
667,425,7,0.0544271680947951,1
668,419,7,0.130254910057148,1
668,420,7,0.101219612835612,1
668,421,7,0.101932258351204,1
668,422,7,0.102315476341621,1
668,423,7,0.0851867058151605,1
668,424,7,0.0637803068514,1
668,425,7,0.0483100626450924,1
669,420,7,0.102566466451678,1
669,421,7,0.0932434931571411,1
669,422,7,0.0866884865512776,1
669,423,7,0.0731361988526496,1
669,424,7,0.0572366678997355,1
670,420,7,0.102933718027736,1
670,421,7,0.0862651661699765,1
670,422,7,0.0757103563549792,1
670,423,7,0.0640201397080493,1
670,424,7,0.0515861201940131,1
671,421,7,0.0830949372135183,1
671,422,7,0.0708394097081955,1
671,423,7,0.0590837343692651,1
671,424,7,0.0481204374287763,1
672,421,7,0.083728351802435,1
672,422,7,0.066914076356395,1
672,423,7,0.054756180829838,1
653,425,8,0.0911440599552325,1
653,426,8,0.082516341047997,1
653,427,8,0.0714474439501909,1
653,428,8,0.062794723417459,1
653,429,8,0.0583419333154048,1
653,430,8,0.0507745442261983,1
654,424,8,0.0986096090498406,1
654,425,8,0.107164204664809,1
654,426,8,0.099696653756955,1
654,427,8,0.0848548436522538,1
654,428,8,0.0777043667373806,1
654,429,8,0.0775464218688322,1
654,430,8,0.0703034647888624,1
654,431,8,0.0576791527874282,1
655,423,8,0.0985493141944117,1
655,424,8,0.117190920515727,1
655,425,8,0.135319004630645,1
655,426,8,0.125914822641991,1
655,427,8,0.100986116048516,1
655,428,8,0.0935656408149258,1
655,429,8,0.0982364361943609,1
655,430,8,0.0932831026090275,1
655,431,8,0.0797866011774365,1
655,432,8,0.0568300112611313,1
656,422,8,0.086487920493797,1
656,423,8,0.11253027847735,1
656,424,8,0.143288613907478,1
656,425,8,0.161647814274821,1
656,426,8,0.144952030543174,1
656,427,8,0.112300989706087,1
656,428,8,0.102972022994715,1
656,429,8,0.107898359152757,1
656,430,8,0.105901751823441,1
656,431,8,0.0924956686291891,1
656,432,8,0.067147867704599,1
657,422,8,0.090492586966943,1
657,423,8,0.128899123424615,1
657,424,8,0.167073329316722,1
657,425,8,0.1713422531727,1
657,426,8,0.143138964841571,1
657,427,8,0.10961999068177,1
657,428,8,0.0987622999100495,1
657,429,8,0.103363512741968,1
657,430,8,0.110075165742923,1
657,431,8,0.0975466762734466,1
657,432,8,0.069075313287981,1
657,433,8,0.0493082881608845,1
658,421,8,0.073849806200432,1
658,422,8,0.0974893330405516,1
658,423,8,0.1479211824688,1
658,426,8,0.135130930368736,1
658,427,8,0.0976372568199673,1
658,428,8,0.0840476861010632,1
658,429,8,0.0843527973061774,1
658,430,8,0.0872096853808432,1
658,431,8,0.0782126469583403,1
658,432,8,0.0604639455279805,1
658,433,8,0.0498938305582551,1
659,421,8,0.0791080165442831,1
659,422,8,0.118674426440228,1
659,426,8,0.1293489002026,1
659,427,8,0.083492877247898,1
659,428,8,0.0694532351899003,1
659,429,8,0.0665586673391797,1
659,430,8,0.0634079635761844,1
659,431,8,0.0579282011987507,1
659,432,8,0.0521639048136239,1
659,433,8,0.0498219997279939,1
660,421,8,0.0912627139788074,1
660,426,8,0.119548299076718,1
660,427,8,0.0731346659325963,1
660,428,8,0.0604911353217098,1
660,429,8,0.0569007660416296,1
660,430,8,0.0526697684312055,1
660,431,8,0.049053826437766,1
660,432,8,0.0472336010977968,1
660,433,8,0.0476840000609802,1
661,420,8,0.0696836961941454,1
661,421,8,0.111116721798888,1
661,426,8,0.105988292674763,1
661,427,8,0.0675513502969753,1
661,428,8,0.056345879039599,1
661,429,8,0.0522898146587843,1
661,430,8,0.0481010054128068,1
662,420,8,0.0804738663461072,1
662,421,8,0.138184110359087,1
662,426,8,0.0932426154852674,1
662,427,8,0.063705277929106,1
662,428,8,0.052975396621122,1
662,429,8,0.0477332759263791,1
663,420,8,0.0976677228545948,1
663,425,8,0.118213492408836,1
663,426,8,0.0781342756691851,1
663,427,8,0.0591156491636292,1
663,428,8,0.0497531205202666,1
664,420,8,0.117475298225689,1
664,425,8,0.0906985092274333,1
664,426,8,0.0656896579667021,1
664,427,8,0.0537261667601568,1
665,419,8,0.117333572252449,1
665,420,8,0.131275065346879,1
665,421,8,0.188037760377592,1
665,424,8,0.110441900334179,1
665,425,8,0.0740662184432477,1
665,426,8,0.0572275725740861,1
665,427,8,0.0489643610154409,1
666,419,8,0.149180485309745,1
666,420,8,0.131988648648857,1
666,421,8,0.164469865989845,1
666,422,8,0.184300705677041,1
666,423,8,0.136885973543459,1
666,424,8,0.090126645887244,1
666,425,8,0.0628284476586311,1
666,426,8,0.0504236317744727,1
667,419,8,0.157689429964381,1
667,420,8,0.119512194300875,1
667,421,8,0.134458958331891,1
667,422,8,0.144505536017538,1
667,423,8,0.111103664926905,1
667,424,8,0.0766308898756005,1
667,425,8,0.0556676671164194,1
668,419,8,0.137963333802707,1
668,420,8,0.108476468390732,1
668,421,8,0.112904190741326,1
668,422,8,0.113391719432781,1
668,423,8,0.0910891814173251,1
668,424,8,0.0661387915194102,1
668,425,8,0.0495328459200617,1
669,420,8,0.106237347097537,1
669,421,8,0.0996701552801125,1
669,422,8,0.0915522314795364,1
669,423,8,0.0767194565859728,1
669,424,8,0.0596600582062368,1
670,420,8,0.105346618351912,1
670,421,8,0.0917667380923251,1
670,422,8,0.0786621652439245,1
670,423,8,0.0661382745346079,1
670,424,8,0.0535478430720766,1
671,421,8,0.0896533402893037,1
671,422,8,0.0740207778837076,1
671,423,8,0.0607299642660105,1
671,424,8,0.0497193662218385,1
672,422,8,0.0693381339339783,1
672,423,8,0.0557778750510733,1
673,423,8,0.0521465557654915,1
652,426,9,0.0836454057989248,1
652,427,9,0.0721795725790876,1
653,425,9,0.102409747919172,1
653,426,9,0.0940234909718583,1
653,427,9,0.0821426271619102,1
653,428,9,0.073351108232668,1
653,429,9,0.0690463380932485,1
653,430,9,0.0585489857287187,1
654,424,9,0.113435735278389,1
654,425,9,0.12755591274797,1
654,426,9,0.118342786701016,1
654,427,9,0.098150995438607,1
654,428,9,0.0930883676592005,1
654,429,9,0.0966826864627121,1
654,430,9,0.0844544509457888,1
654,431,9,0.0646747687082132,1
655,423,9,0.107928163927753,1
655,424,9,0.142654069165738,1
655,425,9,0.168502768249227,1
655,426,9,0.15322795932681,1
655,427,9,0.115752464406438,1
655,428,9,0.110573106267837,1
655,429,9,0.121333555805119,1
655,430,9,0.111315772970669,1
655,431,9,0.0894626390232248,1
655,432,9,0.0617291816712488,1
656,422,9,0.0923843966676747,1
656,423,9,0.133578437030385,1
656,424,9,0.184650524044651,1
656,425,9,0.202787336786696,1
656,426,9,0.174345213499815,1
656,427,9,0.125611064013395,1
656,428,9,0.11511343512211,1
656,429,9,0.122397065680827,1
656,430,9,0.114862240622713,1
656,431,9,0.0987653477158024,1
656,432,9,0.0745459142138022,1
656,433,9,0.0498133732955372,1
657,422,9,0.103312619796199,1
657,423,9,0.164335630284787,1
657,426,9,0.164979733233918,1
657,427,9,0.117168930627276,1
657,428,9,0.104985486433165,1
657,429,9,0.107976664315949,1
657,430,9,0.106943752726794,1
657,431,9,0.0962804302063784,1
657,432,9,0.0750397909977124,1
657,433,9,0.0534030452472794,1
658,421,9,0.0771019712366007,1
658,422,9,0.116091919032197,1
658,427,9,0.10399275538376,1
658,428,9,0.0896092342719277,1
658,429,9,0.0892900382366769,1
658,430,9,0.0884426580655785,1
658,431,9,0.0809017975104705,1
658,432,9,0.0667214213686795,1
658,433,9,0.0542960162641976,1
659,421,9,0.0846888915307213,1
659,427,9,0.0905561039602094,1
659,428,9,0.0744777623916688,1
659,429,9,0.0722047485366685,1
659,430,9,0.0692529516706256,1
659,431,9,0.0637780886259111,1
659,432,9,0.0584839538497526,1
659,433,9,0.0554290605958127,1
660,421,9,0.0994127629745391,1
660,427,9,0.0805876631171211,1
660,428,9,0.0649610039565929,1
660,429,9,0.0621357180808293,1
660,430,9,0.0586839848880774,1
660,431,9,0.0548143656658995,1
660,432,9,0.05365228602504,1
660,433,9,0.0548298992557727,1
660,434,9,0.0489707932682135,1
661,420,9,0.0726573987883223,1
661,427,9,0.0752148444563455,1
661,428,9,0.0610738312969422,1
661,429,9,0.0573364880467343,1
661,430,9,0.0531596415886236,1
661,431,9,0.049714112213499,1
661,432,9,0.0484399190079586,1
661,433,9,0.0497397300127424,1
662,420,9,0.0820562125510637,1
662,426,9,0.100460336493144,1
662,427,9,0.0708522922480942,1
662,428,9,0.0577725106243984,1
662,429,9,0.0523569445342155,1
663,420,9,0.0996463739792075,1
663,426,9,0.0846063122257335,1
663,427,9,0.0661452057378292,1
663,428,9,0.0546479566740766,1
663,429,9,0.0487628631830259,1
664,420,9,0.12586123656609,1
664,425,9,0.0943183466412435,1
664,426,9,0.0722065940521836,1
664,427,9,0.0600885664699143,1
664,428,9,0.0503503521844748,1
665,419,9,0.131993890634294,1
665,420,9,0.151576132769007,1
665,424,9,0.113031621483638,1
665,425,9,0.0789498793092968,1
665,426,9,0.0638921919809357,1
665,427,9,0.054829941335931,1
666,419,9,0.171283930073261,1
666,420,9,0.157781068526311,1
666,421,9,0.208307796688681,1
666,423,9,0.145486304279076,1
666,424,9,0.0918463597633277,1
666,425,9,0.0683951716889696,1
666,426,9,0.0568298249061444,1
666,427,9,0.0497032435097487,1
667,419,9,0.172594546661557,1
667,420,9,0.137158508694578,1
667,421,9,0.161879411443341,1
667,422,9,0.166663949490729,1
667,423,9,0.117356031034093,1
667,424,9,0.0801556501774003,1
667,425,9,0.0615806627581654,1
667,426,9,0.0512992417203561,1
668,419,9,0.142935645539446,1
668,420,9,0.117147806387797,1
668,421,9,0.124429958129521,1
668,422,9,0.122513375238438,1
668,423,9,0.0950406465474456,1
668,424,9,0.0705763065239923,1
668,425,9,0.0549615560482701,1
669,420,9,0.111332136140806,1
669,421,9,0.106315339665267,1
669,422,9,0.0956104599827794,1
669,423,9,0.079731464147128,1
669,424,9,0.0644176048377851,1
669,425,9,0.0513913611983813,1
670,420,9,0.112513230001777,1
670,421,9,0.0990590672209128,1
670,422,9,0.082278263535095,1
670,423,9,0.0692730178946955,1
670,424,9,0.0582521643147946,1
671,421,9,0.0986459242264753,1
671,422,9,0.0776211021269572,1
671,423,9,0.064025970815703,1
671,424,9,0.0542529261820725,1
672,421,9,0.0958897279592306,1
672,422,9,0.0723006011258823,1
672,423,9,0.058847147696258,1
672,424,9,0.0499197639586858,1
673,422,9,0.0677125112919099,1
673,423,9,0.0548116124212548,1
652,426,10,0.0973798164227845,1
652,427,10,0.0852879446646399,1
652,428,10,0.0713103648287208,1
652,429,10,0.0618123320640996,1
653,424,10,0.114800454927389,1
653,425,10,0.121633118440785,1
653,426,10,0.111635389807503,1
653,427,10,0.0970766469164045,1
653,428,10,0.089972169626032,1
653,429,10,0.0883571932640199,1
653,430,10,0.0710115416015506,1
653,431,10,0.0496699821503182,1
654,423,10,0.103002344754513,1
654,424,10,0.133327158370672,1
654,425,10,0.152604932525548,1
654,426,10,0.138655456223939,1
654,427,10,0.114201461907983,1
654,428,10,0.117074827370358,1
654,429,10,0.129860354469788,1
654,430,10,0.104939715243809,1
654,431,10,0.0705704934506922,1
655,422,10,0.0873510927471697,1
655,423,10,0.118167047936947,1
655,424,10,0.170880693950383,1
655,425,10,0.198348409091084,1
655,426,10,0.175548225111823,1
655,427,10,0.132769295700302,1
655,428,10,0.132431211685415,1
655,429,10,0.151553505666731,1
655,430,10,0.131144448535437,1
655,431,10,0.0961194856236866,1
655,432,10,0.0641566297073029,1
656,422,10,0.0973176339716821,1
656,423,10,0.154814790074353,1
656,426,10,0.196232678845001,1
656,427,10,0.140682204969518,1
656,428,10,0.128504531768548,1
656,429,10,0.138859785449864,1
656,430,10,0.127084182150241,1
656,431,10,0.106298904357715,1
656,432,10,0.0804771546099078,1
656,433,10,0.0519633207217897,1
657,421,10,0.0744914745118317,1
657,422,10,0.114446873391336,1
657,427,10,0.127077966309711,1
657,428,10,0.112432087433624,1
657,429,10,0.115511970290158,1
657,430,10,0.110145776248593,1
657,431,10,0.0997513218940707,1
657,432,10,0.0816119542852702,1
657,433,10,0.0577194655791038,1
658,421,10,0.0778427683781124,1
658,422,10,0.131016344510593,1
658,427,10,0.109700339738366,1
658,428,10,0.0964807858630674,1
658,429,10,0.0973051602104643,1
658,430,10,0.0945454231984691,1
658,431,10,0.0879967947423175,1
658,432,10,0.075459985424395,1
658,433,10,0.0604014444699651,1
659,421,10,0.0866981048731805,1
659,427,10,0.0966241229052257,1
659,428,10,0.0828394325036184,1
659,429,10,0.0822522038941892,1
659,430,10,0.0797961353390228,1
659,431,10,0.0744804194530945,1
659,432,10,0.0684508737956899,1
659,433,10,0.0632474878866854,1
659,434,10,0.0505507799785781,1
660,420,10,0.069174442118093,1
660,421,10,0.103160061187917,1
660,427,10,0.0881420855061122,1
660,428,10,0.0736430663825799,1
660,429,10,0.0719440318985875,1
660,430,10,0.068863908584006,1
660,431,10,0.0641158660567881,1
660,432,10,0.0622604556930078,1
660,433,10,0.0632861956208935,1
660,434,10,0.0536485048222419,1
661,420,10,0.0730694837673505,1
661,427,10,0.0827547612136168,1
661,428,10,0.0689620695704765,1
661,429,10,0.0659207621962245,1
661,430,10,0.0614229222789575,1
661,431,10,0.0565084467141119,1
661,432,10,0.054613865734382,1
661,433,10,0.0565339232442523,1
661,434,10,0.0511544499070101,1
662,420,10,0.0824745855080359,1
662,426,10,0.106286665043094,1
662,427,10,0.0771804206746214,1
662,428,10,0.0652098600014774,1
662,429,10,0.0604276002940898,1
662,430,10,0.0549562118681628,1
662,431,10,0.0500516311519749,1
662,432,10,0.0477708084218796,1
662,433,10,0.0494423825968392,1
662,434,10,0.0473220776364013,1
663,420,10,0.099472420616142,1
663,426,10,0.0888255153689242,1
663,427,10,0.0710948182348763,1
663,428,10,0.0610968792008021,1
663,429,10,0.0559475662952455,1
663,430,10,0.0504769713808755,1
664,419,10,0.102561561107507,1
664,420,10,0.130723923478939,1
664,425,10,0.0955565432770623,1
664,426,10,0.0763662056797345,1
664,427,10,0.0645026187805045,1
664,428,10,0.0560542274736977,1
664,429,10,0.0514204926908448,1
665,419,10,0.141808762945299,1
665,424,10,0.115010314688409,1
665,425,10,0.0815259604760069,1
665,426,10,0.06848120156694,1
665,427,10,0.0591674438270764,1
665,428,10,0.0519917789317199,1
665,429,10,0.0477574119029042,1
666,419,10,0.180025866553094,1
666,420,10,0.18349829717229,1
666,424,10,0.0930425123095284,1
666,425,10,0.0726668307552383,1
666,426,10,0.0619644037448359,1
666,427,10,0.0547302293950537,1
666,428,10,0.0488968494128592,1
667,419,10,0.16991698618732,1
667,420,10,0.151104847018666,1
667,421,10,0.184901033238612,1
667,423,10,0.121995681084916,1
667,424,10,0.0824446484811131,1
667,425,10,0.0656537395458459,1
667,426,10,0.05595542326195,1
667,427,10,0.050572811947187,1
668,419,10,0.137735415642315,1
668,420,10,0.119213365062254,1
668,421,10,0.128791350127693,1
668,422,10,0.125173334183593,1
668,423,10,0.0954388090055194,1
668,424,10,0.0713773804865794,1
668,425,10,0.0574144204999527,1
668,426,10,0.0491445692934689,1
669,420,10,0.108782583508194,1
669,421,10,0.106095140208202,1
669,422,10,0.0943784250844296,1
669,423,10,0.0784140606304387,1
669,424,10,0.0642780790556809,1
669,425,10,0.0528022127238087,1
670,420,10,0.112419655752564,1
670,421,10,0.100832607630946,1
670,422,10,0.0828922010221583,1
670,423,10,0.0696140294863124,1
670,424,10,0.0591391599492306,1
670,425,10,0.0487996682929325,1
671,420,10,0.123832528087424,1
671,421,10,0.102886648364924,1
671,422,10,0.0792747140857631,1
671,423,10,0.0654834411451035,1
671,424,10,0.0562175465796093,1
672,421,10,0.0987609112648247,1
672,422,10,0.0740464047001277,1
672,423,10,0.0608728865180367,1
672,424,10,0.0526253979099771,1
673,422,10,0.069822789151764,1
673,423,10,0.0568400503846175,1
673,424,10,0.0482345858696848,1
652,425,11,0.134170072033536,1
652,426,11,0.117164650474029,1
652,427,11,0.0973079735696209,1
652,428,11,0.0838089593514327,1
652,429,11,0.0775598394278868,1
652,430,11,0.0636567955752641,1
653,424,11,0.141115967241535,1
653,425,11,0.155288660748706,1
653,426,11,0.138243142809766,1
653,427,11,0.112347121582514,1
653,428,11,0.107525973797383,1
653,429,11,0.116457872134798,1
653,430,11,0.0928523280282517,1
653,431,11,0.0607532526279179,1
654,423,11,0.112333571771533,1
654,424,11,0.161087835573633,1
654,425,11,0.187297269820091,1
654,426,11,0.168244624512255,1
654,427,11,0.133539290460241,1
654,428,11,0.137987644111317,1
654,429,11,0.167879104234139,1
654,430,11,0.134943325000019,1
654,431,11,0.0862467711293372,1
654,432,11,0.052969108643178,1
655,422,11,0.0872989674539071,1
655,423,11,0.126842281354383,1
655,426,11,0.205682355496255,1
655,427,11,0.153496562988851,1
655,428,11,0.148423847994349,1
655,429,11,0.183712148536899,1
655,430,11,0.16502240251446,1
655,431,11,0.118374623346514,1
655,432,11,0.0744712700243844,1
656,422,11,0.0987236041987438,1
656,427,11,0.158085993376439,1
656,428,11,0.138774302613952,1
656,429,11,0.160984510750591,1
656,430,11,0.159281683040898,1
656,431,11,0.133284453021423,1
656,432,11,0.0944206194603275,1
656,433,11,0.057106213397476,1
657,421,11,0.0759617913124239,1
657,422,11,0.119114693102432,1
657,427,11,0.138898595378743,1
657,428,11,0.119512326552801,1
657,429,11,0.1288404155923,1
657,430,11,0.130418313323376,1
657,431,11,0.120290953756647,1
657,432,11,0.0969909536797006,1
657,433,11,0.065625323416074,1
658,421,11,0.0811503229255396,1
658,427,11,0.117182732919207,1
658,428,11,0.103718561072112,1
658,429,11,0.108241805382105,1
658,430,11,0.110287586382149,1
658,431,11,0.106672143339158,1
658,432,11,0.0938651072673732,1
658,433,11,0.0717531502889729,1
658,434,11,0.048929136917197,1
659,420,11,0.0709927858738399,1
659,421,11,0.0907269554144612,1
659,427,11,0.103556023454855,1
659,428,11,0.092099814568372,1
659,429,11,0.0940067009886865,1
659,430,11,0.0960807778894786,1
659,431,11,0.0938161319745338,1
659,432,11,0.087473221389532,1
659,433,11,0.0757484028295564,1
659,434,11,0.0552994837654268,1
660,420,11,0.072219145962267,1
660,421,11,0.107375002212214,1
660,427,11,0.0975579056642682,1
660,428,11,0.0833508086219407,1
660,429,11,0.0821326902330943,1
660,430,11,0.0810000907488672,1
660,431,11,0.0778741782105766,1
660,432,11,0.0761699678671102,1
660,433,11,0.0741115327623128,1
660,434,11,0.0588464744137248,1
661,420,11,0.0756664186582364,1
661,427,11,0.0933920060587733,1
661,428,11,0.077544666525085,1
661,429,11,0.0743335657119905,1
661,430,11,0.0702954755702318,1
661,431,11,0.0657553511052991,1
661,432,11,0.0641928847694257,1
661,433,11,0.0652254537058625,1
661,434,11,0.0565512783038359,1
662,420,11,0.0845773310195498,1
662,426,11,0.111137954244489,1
662,427,11,0.0869323831489309,1
662,428,11,0.0734861975637945,1
662,429,11,0.0687880560928991,1
662,430,11,0.0633329106080857,1
662,431,11,0.0586039063467844,1
662,432,11,0.0567669451267041,1
662,433,11,0.0578956852592676,1
662,434,11,0.0528699738016148,1
663,420,11,0.100916984359839,1
663,426,11,0.0948407838297542,1
663,427,11,0.081023361076421,1
663,428,11,0.0700571395649287,1
663,429,11,0.0648221153883147,1
663,430,11,0.0591827309474509,1
663,431,11,0.054968409102626,1
663,432,11,0.0531701255594978,1
663,433,11,0.0540418821651689,1
663,434,11,0.0500869394105354,1
664,419,11,0.116504340652492,1
664,425,11,0.0985128787887532,1
664,426,11,0.0868107354226637,1
664,427,11,0.0766162099117961,1
664,428,11,0.0655059119496492,1
664,429,11,0.0595736616297439,1
664,430,11,0.054273611585615,1
664,431,11,0.0510935839637182,1
664,432,11,0.0494474773017221,1
664,433,11,0.0501161159888828,1
665,419,11,0.156872425656143,1
665,425,11,0.0891304161732468,1
665,426,11,0.0826564920210249,1
665,427,11,0.0726922111021597,1
665,428,11,0.0614421769571169,1
665,429,11,0.0550352203711441,1
665,430,11,0.0501676611771056,1
665,431,11,0.0475734314392549,1
666,419,11,0.184838538192048,1
666,424,11,0.0963424443368475,1
666,425,11,0.0814391791666378,1
666,426,11,0.0747490651952943,1
666,427,11,0.0666057550363457,1
666,428,11,0.0574051688765723,1
666,429,11,0.0515177158909298,1
667,419,11,0.163527679222039,1
667,420,11,0.175503920716557,1
667,423,11,0.126047651667471,1
667,424,11,0.084386665822178,1
667,425,11,0.0721693471006146,1
667,426,11,0.0653900893195845,1
667,427,11,0.0598294849465568,1
667,428,11,0.053044648538823,1
667,429,11,0.0480167368900349,1
668,419,11,0.130547150745266,1
668,420,11,0.127276716908933,1
668,421,11,0.139078854754106,1
668,422,11,0.129503610910409,1
668,423,11,0.0954703210326538,1
668,424,11,0.0728731978631167,1
668,425,11,0.0630660382439868,1
668,426,11,0.0569138770166736,1
668,427,11,0.0528307310482509,1
668,428,11,0.0479989490059657,1
669,419,11,0.114995766976531,1
669,420,11,0.112410506323854,1
669,421,11,0.112509178283676,1
669,422,11,0.097526718255498,1
669,423,11,0.0792644465271317,1
669,424,11,0.0674623567735685,1
669,425,11,0.0594233573156572,1
669,426,11,0.0527966821887146,1
669,427,11,0.0484916565626195,1
670,420,11,0.118811415389931,1
670,421,11,0.10888703848406,1
670,422,11,0.0879660642038376,1
670,423,11,0.0727908469932741,1
670,424,11,0.0636887825070425,1
670,425,11,0.0558084252460174,1
670,426,11,0.0488900594787408,1
671,420,11,0.134441909856318,1
671,421,11,0.110281298404205,1
671,422,11,0.0834075867784239,1
671,423,11,0.0690972370504685,1
671,424,11,0.0605493922951855,1
671,425,11,0.0524746968401119,1
672,421,11,0.103557382042824,1
672,422,11,0.0774101783390774,1
672,423,11,0.0644368835617492,1
672,424,11,0.0563763871543848,1
672,425,11,0.0487743390433463,1
673,422,11,0.0742022335378573,1
673,423,11,0.0612249291225859,1
673,424,11,0.0522893277312379,1
674,423,11,0.0585715587279346,1
674,424,11,0.0486081194122359,1
652,425,12,0.185125909604702,1
652,426,12,0.151586953381148,1
652,427,12,0.11206314062833,1
652,428,12,0.0937900122191161,1
652,429,12,0.092985854382069,1
652,430,12,0.0771216226705386,1
653,424,12,0.172099744114164,1
653,425,12,0.200761273346553,1
653,426,12,0.170886020096137,1
653,427,12,0.128908393082349,1
653,428,12,0.123109855471248,1
653,429,12,0.145278993373361,1
653,430,12,0.116802436494068,1
653,431,12,0.0705733789472631,1
654,423,12,0.116169815416708,1
654,424,12,0.177946156922537,1
654,426,12,0.194997842610397,1
654,427,12,0.149985118051436,1
654,428,12,0.153564167768926,1
654,429,12,0.199911025713237,1
654,430,12,0.163627601563708,1
654,431,12,0.100815487017959,1
654,432,12,0.0597606959105973,1
655,422,12,0.083676941871864,1
655,423,12,0.129768331174982,1
655,427,12,0.16886928642824,1
655,428,12,0.159607864382431,1
655,429,12,0.20919713077763,1
655,430,12,0.197892993571883,1
655,431,12,0.142463963033326,1
655,432,12,0.0876863213227424,1
655,433,12,0.0481969752253188,1
656,421,12,0.0698548121522496,1
656,422,12,0.0948181867847335,1
656,428,12,0.144754818875457,1
656,429,12,0.180619461289332,1
656,430,12,0.196496785941553,1
656,431,12,0.167675352107528,1
656,432,12,0.115440542227126,1
656,433,12,0.0658185074114941,1
657,421,12,0.0743793248784436,1
657,422,12,0.114105795673756,1
657,427,12,0.142797959261405,1
657,428,12,0.123412459901216,1
657,429,12,0.141103667812401,1
657,430,12,0.158729723615596,1
657,431,12,0.152942956425924,1
657,432,12,0.123644550008733,1
657,433,12,0.0796559482972877,1
658,421,12,0.0814548570313396,1
658,427,12,0.118970286021962,1
658,428,12,0.108277176760903,1
658,429,12,0.117897915267201,1
658,430,12,0.131035172375718,1
658,431,12,0.13350991850973,1
658,432,12,0.120642347124468,1
658,433,12,0.0877186509072386,1
658,434,12,0.0540469137498144,1
659,420,12,0.0717660208059692,1
659,421,12,0.0917962483062135,1
659,427,12,0.107444037717672,1
659,428,12,0.100047974987362,1
659,429,12,0.105583144910407,1
659,430,12,0.11381877292527,1
659,431,12,0.11422727507939,1
659,432,12,0.106402662005243,1
659,433,12,0.0861763590015566,1
659,434,12,0.0582904031558099,1
660,420,12,0.0736973618097219,1
660,427,12,0.103830951163548,1
660,428,12,0.0922854241352936,1
660,429,12,0.0932604514609462,1
660,430,12,0.0942100804053238,1
660,431,12,0.0902938063104656,1
660,432,12,0.0851447819545661,1
660,433,12,0.0772608057999251,1
660,434,12,0.0588328103851715,1
661,420,12,0.0778797087456708,1
661,426,12,0.127138213073531,1
661,427,12,0.101152753475484,1
661,428,12,0.0862762753317744,1
661,429,12,0.0854594694014249,1
661,430,12,0.0818452346601231,1
661,431,12,0.0747235465849956,1
661,432,12,0.0696846940950429,1
661,433,12,0.066719088925618,1
661,434,12,0.0560401546664635,1
662,420,12,0.0879685409217276,1
662,426,12,0.112161944840078,1
662,427,12,0.0952194451401697,1
662,428,12,0.0825943215928249,1
662,429,12,0.0819098277031524,1
662,430,12,0.075721940421421,1
662,431,12,0.067937574012987,1
662,432,12,0.0628578977580076,1
662,433,12,0.0600178597810254,1
662,434,12,0.0526720527826575,1
663,420,12,0.106497642934034,1
663,426,12,0.100935776156257,1
663,427,12,0.0919775897427907,1
663,428,12,0.0806013872601864,1
663,429,12,0.0786738695393901,1
663,430,12,0.0704855997369966,1
663,431,12,0.063498886775423,1
663,432,12,0.0594635378554066,1
663,433,12,0.0565173677076769,1
663,434,12,0.0502389539824854,1
664,419,12,0.12996221249874,1
664,425,12,0.102980595324111,1
664,426,12,0.102473962240777,1
664,427,12,0.0948345078747125,1
664,428,12,0.0776725902063938,1
664,429,12,0.0710884340737133,1
664,430,12,0.062978884224644,1
664,431,12,0.0583175749151856,1
664,432,12,0.0555536058415532,1
664,433,12,0.0531477990297806,1
664,434,12,0.0479427088743639,1
665,419,12,0.166201644848465,1
665,425,12,0.101612677583077,1
665,426,12,0.10507634350644,1
665,427,12,0.0936424731725766,1
665,428,12,0.0739396894186148,1
665,429,12,0.0650366039667498,1
665,430,12,0.0577919276117399,1
665,431,12,0.0541439746407172,1
665,432,12,0.0516962800370575,1
665,433,12,0.0498696194385901,1
666,419,12,0.185112744526598,1
666,424,12,0.104023858632213,1
666,425,12,0.0931538684313594,1
666,426,12,0.0914768959732318,1
666,427,12,0.0802159750900852,1
666,428,12,0.0666401705944046,1
666,429,12,0.0595871453147615,1
666,430,12,0.0534823302770154,1
666,431,12,0.0499606087637917,1
666,432,12,0.0476288780592996,1
667,419,12,0.160704833995459,1
667,420,12,0.197478564126891,1
667,423,12,0.135599763446991,1
667,424,12,0.0894894500955292,1
667,425,12,0.0794548953122607,1
667,426,12,0.0746557734842871,1
667,427,12,0.0674188158326043,1
667,428,12,0.0596770104985907,1
667,429,12,0.0544405976767521,1
667,430,12,0.0495054186740104,1
668,419,12,0.131126642617015,1
668,420,12,0.1427878239547,1
668,421,12,0.157906287054585,1
668,422,12,0.13856200220375,1
668,423,12,0.0992112651421242,1
668,424,12,0.0751785292797108,1
668,425,12,0.067271511232661,1
668,426,12,0.0625291314924635,1
668,427,12,0.0580107444350313,1
668,428,12,0.0531116702081328,1
668,429,12,0.0487780360858278,1
669,420,12,0.128390290150146,1
669,421,12,0.130109072251295,1
669,422,12,0.106574481303136,1
669,423,12,0.0817229076398716,1
669,424,12,0.068775161530098,1
669,425,12,0.0623316553208942,1
669,426,12,0.0569504807429654,1
669,427,12,0.0530289766855724,1
669,428,12,0.0488711865277319,1
670,420,12,0.13196556467629,1
670,421,12,0.12225019390537,1
670,422,12,0.0952361930431832,1
670,423,12,0.0748644008978126,1
670,424,12,0.064873020356986,1
670,425,12,0.0582071144995818,1
670,426,12,0.0522643982431558,1
670,427,12,0.048146415915091,1
671,421,12,0.116079811969501,1
671,422,12,0.0876852633073331,1
671,423,12,0.0709428848175173,1
671,424,12,0.0617951633595029,1
671,425,12,0.0547482457142681,1
671,426,12,0.0484974726416452,1
672,421,12,0.105334811861776,1
672,422,12,0.0799872213379778,1
672,423,12,0.0664475997670058,1
672,424,12,0.0579664821199243,1
672,425,12,0.0515770729599732,1
673,422,12,0.0773283384425859,1
673,423,12,0.0637238172445739,1
673,424,12,0.0546073914014511,1
673,425,12,0.0483541446166637,1
674,423,12,0.0611764227229392,1
674,424,12,0.0515103939433812,1
653,426,13,0.205894439494215,1
653,427,13,0.147598187196398,1
653,428,13,0.133929349482111,1
653,429,13,0.162406928308106,1
653,430,13,0.136659606337474,1
654,424,13,0.185773150531355,1
654,427,13,0.164332095551488,1
654,428,13,0.160051966350493,1
654,429,13,0.216201072558312,1
654,430,13,0.191900165858343,1
654,431,13,0.118179635915737,1
655,423,13,0.129734294338348,1
655,428,13,0.159619490529031,1
655,429,13,0.226791133523084,1
655,430,13,0.239642293646598,1
655,431,13,0.173569279426102,1
655,432,13,0.100895295043948,1
656,422,13,0.093523163900822,1
656,428,13,0.142068493705385,1
656,429,13,0.202556136373954,1
656,430,13,0.255498409899023,2
656,431,13,0.219898692139061,1
656,432,13,0.139732768391578,1
656,433,13,0.073613285653388,1
657,422,13,0.109653775037454,1
657,427,13,0.139245528249781,1
657,428,13,0.122613165328181,1
657,429,13,0.160207939463051,1
657,430,13,0.214114858537569,1
657,431,13,0.213924608130329,1
657,432,13,0.160611211654636,1
657,433,13,0.0931600842718892,1
657,434,13,0.0482382378262823,1
658,421,13,0.0823242872054004,1
658,422,13,0.130201372072856,1
658,427,13,0.119062189087744,1
658,428,13,0.111606943620475,1
658,429,13,0.131544895344963,1
658,430,13,0.167001312131474,1
658,431,13,0.179807302210752,1
658,432,13,0.156823624695388,1
658,433,13,0.104315450083602,1
658,434,13,0.0573514204914886,1
659,421,13,0.0921652131458607,1
659,426,13,0.132216963565027,1
659,427,13,0.111636291525181,1
659,428,13,0.107536481814062,1
659,429,13,0.116886560742011,1
659,430,13,0.135805078550911,1
659,431,13,0.141255973939734,1
659,432,13,0.130967519504033,1
659,433,13,0.0994023331067257,1
659,434,13,0.061142758596279,1
660,421,13,0.107334256596053,1
660,426,13,0.124154729848269,1
660,427,13,0.111286316859841,1
660,428,13,0.102928656385835,1
660,429,13,0.107347830452838,1
660,430,13,0.115275083044591,1
660,431,13,0.110551212562606,1
660,432,13,0.101845741545687,1
660,433,13,0.0857318362319108,1
660,434,13,0.060101196528863,1
661,420,13,0.0831713968611953,1
661,426,13,0.122881083684787,1
661,427,13,0.11255701741224,1
661,428,13,0.0990283727511402,1
661,429,13,0.103362334497535,1
661,430,13,0.106132880098769,1
661,431,13,0.0955093413623237,1
661,432,13,0.0847499017488418,1
661,433,13,0.073537685643231,1
661,434,13,0.0564107666437366,1
662,420,13,0.0956424469145578,1
662,426,13,0.121520331593571,1
662,427,13,0.112428408425496,1
662,428,13,0.097232121078514,1
662,429,13,0.1018528831497,1
662,430,13,0.09734087424198,1
662,431,13,0.0849992747785285,1
662,432,13,0.074851584483877,1
662,433,13,0.0654887011648942,1
662,434,13,0.0528175960274022,1
663,420,13,0.117384729702071,1
663,425,13,0.124098138046773,1
663,426,13,0.121564732172056,1
663,427,13,0.117165263642051,1
663,428,13,0.10029457673805,1
663,429,13,0.100706174789532,1
663,430,13,0.0891343777195805,1
663,431,13,0.0764070655134683,1
663,432,13,0.0682601845525133,1
663,433,13,0.0605597380026824,1
663,434,13,0.0503982333931978,1
664,425,13,0.113058192097895,1
664,426,13,0.130126325116209,1
664,427,13,0.12840198843416,1
664,428,13,0.100507730774321,1
664,429,13,0.0906432940482594,1
664,430,13,0.077579659182458,1
664,431,13,0.0683701339947661,1
664,432,13,0.0626058376096393,1
664,433,13,0.0570873374407415,1
664,434,13,0.048951078714038,1
665,425,13,0.115099236074401,1
665,426,13,0.135105862617276,1
665,427,13,0.125350251192095,1
665,428,13,0.0933926252382458,1
665,429,13,0.0800727402425972,1
665,430,13,0.0693730364195835,1
665,431,13,0.0629242822134913,1
665,432,13,0.0589578125012023,1
665,433,13,0.055003528000474,1
665,434,13,0.0480859407161264,1
666,424,13,0.109031926480625,1
666,425,13,0.104515114423405,1
666,426,13,0.112169146558603,1
666,427,13,0.0982015096629509,1
666,428,13,0.0791516837257224,1
666,429,13,0.0716698075296841,1
666,430,13,0.0630129210612779,1
666,431,13,0.0574727796680986,1
666,432,13,0.0547394269153734,1
666,433,13,0.0531012884319288,1
666,434,13,0.047471588438931,1
667,424,13,0.0918174086143999,1
667,425,13,0.0869061551873918,1
667,426,13,0.0862750489957318,1
667,427,13,0.0769461965019317,1
667,428,13,0.0685594285812667,1
667,429,13,0.0641624668264078,1
667,430,13,0.0574747153553816,1
667,431,13,0.0525854397939217,1
667,432,13,0.0498596885212253,1
667,433,13,0.0491197540229593,1
668,420,13,0.178008712083613,1
668,423,13,0.101122551944709,1
668,424,13,0.0778588129413367,1
668,425,13,0.0735884703828785,1
668,426,13,0.070469831700527,1
668,427,13,0.0653605009568307,1
668,428,13,0.0604864824584892,1
668,429,13,0.0566869146770206,1
668,430,13,0.0516262225848971,1
668,431,13,0.0479151343477585,1
669,421,13,0.157254188875372,1
669,422,13,0.117424465394432,1
669,423,13,0.0845002642153027,1
669,424,13,0.0727893140732208,1
669,425,13,0.0684329957398529,1
669,426,13,0.0633869475428265,1
669,427,13,0.059274309394869,1
669,428,13,0.054968060438457,1
669,429,13,0.051013691777412,1
670,421,13,0.141841393102355,1
670,422,13,0.103817353260957,1
670,423,13,0.0782468400927052,1
670,424,13,0.0691126924914762,1
670,425,13,0.0639886096465613,1
670,426,13,0.0579241074004908,1
670,427,13,0.0535357480322837,1
670,428,13,0.0490247760998936,1
671,422,13,0.0953115886639997,1
671,423,13,0.0750814202971985,1
671,424,13,0.0659686674507523,1
671,425,13,0.0604850817903621,1
671,426,13,0.0539987860715926,1
671,427,13,0.0486804191356899,1
672,422,13,0.0895405895107968,1
672,423,13,0.0713828208499057,1
672,424,13,0.0622414534957983,1
672,425,13,0.0574628247049291,1
672,426,13,0.0511511736661119,1
673,423,13,0.0686505802156505,1
673,424,13,0.0598639185389692,1
673,425,13,0.0554119940858862,1
673,426,13,0.0493303742325541,1
674,425,13,0.0535538184545588,1
674,426,13,0.0475664491386985,1
653,429,14,0.170381286631379,1
653,430,14,0.155782008524911,1
654,428,14,0.162693542277911,1
654,429,14,0.223579094923604,1
654,430,14,0.227719926777639,1
654,431,14,0.143389221554582,1
655,428,14,0.15788356376909,1
655,429,14,0.238847507661955,1
655,430,14,0.290697909284605,2
655,431,14,0.210575460352123,1
655,432,14,0.119199166014544,1
656,428,14,0.138307573543613,1
656,429,14,0.217815339569084,2
656,430,14,0.316953884186171,2
656,431,14,0.274163052101296,2
656,432,14,0.16795058038878,1
657,427,14,0.132885857738863,1
657,428,14,0.121120870662041,1
657,429,14,0.176017298648126,1
657,430,14,0.273203961132746,2
657,431,14,0.281390283224954,2
657,432,14,0.201970645073919,1
657,433,14,0.109637976943728,1
658,422,14,0.119257248655936,1
658,426,14,0.143840032302172,1
658,427,14,0.116033259291491,1
658,428,14,0.112382456892605,1
658,429,14,0.142672548366694,1
658,430,14,0.203982773970205,1
658,431,14,0.231128395556181,1
658,432,14,0.196669903712903,1
658,433,14,0.123129104137956,1
659,422,14,0.148312948742808,1
659,426,14,0.122008220972097,1
659,427,14,0.112539067218989,1
659,428,14,0.111180719708249,1
659,429,14,0.128225612456265,1
659,430,14,0.163663309583773,1
659,431,14,0.176541533260542,1
659,432,14,0.16244940522221,1
659,433,14,0.117549166937903,1
660,426,14,0.116276434515002,1
660,427,14,0.116564755736944,1
660,428,14,0.111046580186411,1
660,429,14,0.125047153823129,1
660,430,14,0.153440043324769,1
660,431,14,0.147822654783807,1
660,432,14,0.130610884150775,1
660,433,14,0.102544801181592,1
661,421,14,0.13534526264944,1
661,426,14,0.120316490401299,1
661,427,14,0.122401105376026,1
661,428,14,0.109446404017227,1
661,429,14,0.123269074767448,1
661,430,14,0.147420524767948,1
661,431,14,0.13281927490549,1
661,432,14,0.110443403196976,1
661,433,14,0.0871810227815725,1
662,425,14,0.133120592884904,1
662,426,14,0.133285462945223,1
662,427,14,0.130042910219506,1
662,428,14,0.108968445556066,1
662,429,14,0.118868896886203,1
662,430,14,0.126639515105767,1
662,431,14,0.110094462501241,1
662,432,14,0.0922434040914802,1
662,433,14,0.0742980260125592,1
663,425,14,0.125491171630875,1
663,426,14,0.146077314091303,1
663,427,14,0.14492264656976,1
663,428,14,0.118141559383904,1
663,429,14,0.120395324572196,1
663,430,14,0.112244722522955,1
663,431,14,0.0927774493922375,1
663,432,14,0.0787891210815918,1
663,433,14,0.0657988680004586,1
664,425,14,0.120988342209121,1
664,426,14,0.157455404169581,1
664,427,14,0.163111326112667,1
664,428,14,0.126325885674317,1
664,429,14,0.115512511320765,1
664,430,14,0.100583306738673,1
664,431,14,0.0829569744087233,1
664,432,14,0.0711540610863471,1
665,425,14,0.123192837543465,1
665,426,14,0.157957336298085,1
665,427,14,0.153577092388983,1
665,428,14,0.116006448219187,1
665,429,14,0.102378584556207,1
665,430,14,0.0884242389791344,1
665,431,14,0.0758107475898409,1
666,424,14,0.110788111831075,1
666,425,14,0.109953542062461,1
666,426,14,0.126454362409136,1
666,427,14,0.113299611977658,1
666,428,14,0.0944600365457759,1
666,429,14,0.0909786308299535,1
666,430,14,0.0790913528015863,1
667,424,14,0.0921511944416872,1
667,425,14,0.0907644548469802,1
667,426,14,0.09467214458954,1
667,427,14,0.0857358939614636,1
667,428,14,0.0800213663807332,1
667,429,14,0.0797222666268083,1
668,423,14,0.10106528686068,1
669,422,14,0.133546191606206,1
670,422,14,0.116954213613696,1
653,429,15,0.17686865238846,1
653,430,15,0.173963306005757,1
654,428,15,0.165882076103241,1
654,429,15,0.226063411287909,1
654,430,15,0.267682900085642,2
654,431,15,0.188704803024462,1
655,428,15,0.152678705054544,1
655,429,15,0.246646499931133,2
655,430,15,0.34919668737299,2
655,431,15,0.26998304963131,2
655,432,15,0.150429412385936,1
656,428,15,0.132986068630189,1
656,429,15,0.22989357134448,2
656,430,15,0.375212108043764,2
656,431,15,0.333370027231393,2
656,432,15,0.199202828671525,2
657,429,15,0.19102259016792,2
657,430,15,0.32504250817365,2
657,431,15,0.341081637046083,2
657,432,15,0.236281195103428,2
657,433,15,0.125580345497817,1
658,429,15,0.155264278302682,1
658,430,15,0.242938155921462,2
658,431,15,0.28585157351899,2
658,432,15,0.236386275270217,1
658,433,15,0.143158730493081,1
659,429,15,0.14176186160312,1
659,430,15,0.204008358706467,1
659,431,15,0.237147324990786,2
659,432,15,0.215764785476796,1
659,433,15,0.148941494056262,1
660,429,15,0.146688834974989,1
660,430,15,0.208172370716288,1
660,431,15,0.221023651068826,2
660,432,15,0.194079016341914,1
661,430,15,0.200089589859365,1
661,431,15,0.19242850028047,1
661,432,15,0.157585732431366,1
662,430,15,0.164469457211164,1
653,429,16,0.172717168242917,1
653,430,16,0.178188454474174,1
653,431,16,0.137408188308276,1
654,428,16,0.158199080796212,1
654,429,16,0.209549401817324,1
654,430,16,0.281859897791864,2
654,431,16,0.239200764579645,2
654,432,16,0.143664858614515,1
655,428,16,0.141607186964019,1
655,429,16,0.233606171461593,2
655,430,16,0.374661242702579,2
655,431,16,0.335507530953684,2
655,432,16,0.198825730338419,2
656,428,16,0.124739800346721,1
656,429,16,0.222118216101379,2
656,430,16,0.391805011799757,2
656,431,16,0.382474446042368,2
656,432,16,0.241711122550502,2
656,433,16,0.127544154349444,1
657,429,16,0.191562262186991,2
657,430,16,0.341408972586244,2
657,431,16,0.380618494647981,2
657,432,16,0.272335186206865,2
657,433,16,0.152450077542911,1
658,429,16,0.161274671476597,1
658,430,16,0.270241085162161,2
658,431,16,0.338995014246658,2
658,432,16,0.284067807630484,2
658,433,16,0.174734322712398,1
659,429,16,0.151579992120671,1
659,430,16,0.245206156226171,2
659,431,16,0.31833704696742,2
659,432,16,0.292772028265555,2
659,433,16,0.194965392796877,1
660,429,16,0.164070344943802,1
660,430,16,0.264605590130217,2
660,431,16,0.32103438511607,2
660,432,16,0.286228683874999,2
660,433,16,0.196722600094029,1
661,429,16,0.173031603208826,1
661,430,16,0.254862951416702,1
661,431,16,0.266464258700542,2
661,432,16,0.218676299608419,2
661,433,16,0.15586337952821,1
662,429,16,0.170010620551045,1
662,430,16,0.213373766834949,1
662,431,16,0.189801231606883,1
662,432,16,0.151416552785735,1
663,430,16,0.180488567951136,1
663,431,16,0.144892312787059,1
664,429,16,0.184029505068086,1
664,430,16,0.169290160148907,1
665,429,16,0.179711768228451,1
665,430,16,0.156379931506006,1
653,430,17,0.180253748644778,1
653,431,17,0.162683418994108,1
654,429,17,0.187360474217896,1
654,430,17,0.274485362068262,2
654,431,17,0.288010742511367,2
654,432,17,0.198488776476355,1
655,428,17,0.128379325263177,1
655,429,17,0.207385231297558,2
655,430,17,0.359883147969034,2
655,431,17,0.390518465062023,2
655,432,17,0.2654895379589,2
655,433,17,0.13582898008084,1
656,429,17,0.201705888740638,2
656,430,17,0.36390894469311,2
656,431,17,0.407506609710812,2
656,432,17,0.293789430310641,2
656,433,17,0.163841849684096,2
657,429,17,0.183681189563274,2
657,430,17,0.32423004852251,2
657,431,17,0.396119815051212,2
657,432,17,0.317535023195545,2
657,433,17,0.190671846036828,2
658,429,17,0.164347953759725,1
658,430,17,0.281376601162047,2
658,431,17,0.38312623162612,2
658,432,17,0.345248654781499,2
658,433,17,0.220280130739926,2
659,429,17,0.160019564628583,1
659,430,17,0.272288729712074,2
659,431,17,0.39559833368344,2
659,432,17,0.383705446971113,2
659,433,17,0.25381842570385,2
659,434,17,0.121709451847987,1
660,429,17,0.179238895454997,1
660,430,17,0.290877290988094,2
660,431,17,0.401373414612001,2
660,432,17,0.385465575833543,2
660,433,17,0.262306690966395,2
660,434,17,0.128005412999201,1
661,429,17,0.200597365118425,1
661,430,17,0.281902001995994,2
661,431,17,0.326582882426403,2
661,432,17,0.295787275998901,2
661,433,17,0.213476129825801,2
662,428,17,0.204159871322242,1
662,429,17,0.202784619610758,1
662,430,17,0.25132119674239,1
662,431,17,0.245926664719918,2
662,432,17,0.214607821580898,2
662,433,17,0.162501524504022,1
663,428,17,0.211484584138387,1
663,429,17,0.199383821443933,1
663,430,17,0.221750651929859,1
663,431,17,0.19982900547321,1
663,432,17,0.178401800876883,1
664,428,17,0.221177279715421,1
664,429,17,0.224663079802063,1
664,430,17,0.215642704926043,1
664,431,17,0.174202309282142,1
664,432,17,0.157779096770321,1
665,428,17,0.202757039072701,1
665,429,17,0.232462937720211,1
665,430,17,0.209034340679423,1
665,431,17,0.155557552960404,1
666,429,17,0.177732666244999,1
666,430,17,0.167506562581034,1
653,430,18,0.176245553449784,1
653,431,18,0.178856999983841,2
653,432,18,0.14097699451294,1
654,429,18,0.163061154541041,1
654,430,18,0.253567315364769,2
654,431,18,0.315004346519668,2
654,432,18,0.251974136524769,2
654,433,18,0.127283738283922,1
655,429,18,0.176681287477791,2
655,430,18,0.319467969256765,2
655,431,18,0.415782887158617,2
655,432,18,0.333953787233486,2
655,433,18,0.169852735797009,2
656,429,18,0.174148037900805,2
656,430,18,0.312337306085012,2
656,431,18,0.408209612858696,2
656,432,18,0.350247849727955,2
656,433,18,0.199068797355808,2
657,429,18,0.167905097749082,2
657,430,18,0.290406065352265,2
657,431,18,0.401098018010115,2
657,432,18,0.381400656585126,2
657,433,18,0.238460322113753,2
657,434,18,0.109108692712313,1
658,429,18,0.16275115602611,1
658,430,18,0.280688145726041,2
658,431,18,0.417802446208573,2
658,432,18,0.422234376575,2
658,433,18,0.277041960121668,2
658,434,18,0.127570256070508,1
659,429,18,0.16596041733514,2
659,430,18,0.286916177478815,2
659,431,18,0.448661004552929,2
659,432,18,0.467248988729635,2
659,433,18,0.313805062007398,2
659,434,18,0.143612883607532,2
660,429,18,0.192423065928595,2
660,430,18,0.296055891683845,2
660,431,18,0.438259270331016,2
660,432,18,0.457226264482307,2
660,433,18,0.316129040945581,2
660,434,18,0.14643601738377,2
661,428,18,0.213660657331508,1
661,429,18,0.221789461858737,1
661,430,18,0.284410869126956,2
661,431,18,0.355596838996217,2
661,432,18,0.362245816607072,2
661,433,18,0.264794061147904,2
661,434,18,0.132560626206618,1
662,427,18,0.23689027533793,1
662,428,18,0.234268945978118,1
662,429,18,0.223089257834893,1
662,430,18,0.263323660186996,2
662,431,18,0.287271213786056,2
662,432,18,0.277040204777921,2
662,433,18,0.204887016458103,1
663,427,18,0.247542134020928,1
663,428,18,0.233401902350179,1
663,429,18,0.220807912108544,1
663,430,18,0.249783227070113,1
663,431,18,0.253941059308112,2
663,432,18,0.238371881643856,2
663,433,18,0.173283495036561,1
664,427,18,0.221292050341527,1
664,428,18,0.230347411863469,1
664,429,18,0.24715304885415,1
664,430,18,0.247748711529598,1
664,431,18,0.218509902639498,1
664,432,18,0.20575228069649,1
664,433,18,0.154348205278843,1
665,428,18,0.208896077302068,1
665,429,18,0.253069879801755,1
665,430,18,0.235522814467187,1
665,431,18,0.183096443683186,1
665,432,18,0.16691627414295,1
666,429,18,0.188273373195507,1
666,430,18,0.186206516047593,1
653,430,19,0.173256671941354,1
653,431,19,0.192865352438399,2
653,432,19,0.166587435739991,1
654,429,19,0.147319640594089,1
654,430,19,0.231209862742699,2
654,431,19,0.321815921862292,2
654,432,19,0.29043677184494,2
654,433,19,0.153146492140292,1
655,429,19,0.15141389572431,1
655,430,19,0.272137770149807,2
655,431,19,0.410059504710285,2
655,432,19,0.377562849962642,2
655,433,19,0.195990224995633,2
656,429,19,0.148205692430688,1
656,430,19,0.258743920258725,2
656,431,19,0.391944212963497,2
656,432,19,0.389981353921159,2
656,433,19,0.22383357167535,2
656,434,19,0.0989727127245782,1
657,429,19,0.151463261761476,1
657,430,19,0.253839754332669,2
657,431,19,0.400148617500883,2
657,432,19,0.440689339359789,2
657,433,19,0.277464661323497,2
657,434,19,0.120593173453739,1
658,429,19,0.160821155575972,1
658,430,19,0.26631584799358,2
658,431,19,0.433854175082698,2
658,432,19,0.490838740753907,2
658,433,19,0.324859207003985,2
658,434,19,0.142643044164256,2
659,429,19,0.17813980981115,2
659,430,19,0.280375574310001,2
659,431,19,0.458370940971974,2
659,432,19,0.518169683357148,2
659,433,19,0.356459722699932,2
659,434,19,0.159067422897608,2
660,428,19,0.198740319639921,1
660,429,19,0.217713048715646,2
660,430,19,0.286226038836475,2
660,431,19,0.433706197200222,2
660,432,19,0.491607340857169,2
660,433,19,0.350368583713642,2
660,434,19,0.159115201911661,2
661,427,19,0.205920072322086,1
661,428,19,0.251784559400063,1
661,429,19,0.248890093744013,1
661,430,19,0.275155542692653,2
661,431,19,0.368085773116867,2
661,432,19,0.417044618625842,2
661,433,19,0.308396102502072,2
661,434,19,0.146741651585138,2
662,427,19,0.236318129459535,1
662,428,19,0.270821502797393,1
662,429,19,0.249382623962856,1
662,430,19,0.263683337334555,2
662,431,19,0.325345028443302,2
662,432,19,0.348192270062473,2
662,433,19,0.254021588708244,2
662,434,19,0.126185854930313,1
663,427,19,0.239682522277957,1
663,428,19,0.269688151881767,1
663,429,19,0.258299649970029,1
663,430,19,0.274132153242182,2
663,431,19,0.311511044141942,2
663,432,19,0.309976392790721,2
663,433,19,0.218658169071632,2
663,434,19,0.110590250926629,1
664,427,19,0.201441529163137,1
664,428,19,0.245075419185705,1
664,429,19,0.270685980641781,1
664,430,19,0.275152609104473,1
664,431,19,0.276156112674409,2
664,432,19,0.271875021641224,2
664,433,19,0.195203338057853,1
665,428,19,0.208527719618991,1
665,429,19,0.254661712076688,1
665,430,19,0.249286560972851,1
665,431,19,0.227512315299364,1
665,432,19,0.224577356508103,1
665,433,19,0.167977427529792,1
666,429,19,0.186678583286588,1
666,430,19,0.196086131687908,1
666,431,19,0.182650766714912,1
666,432,19,0.176810281197412,1
667,430,19,0.168096610561071,1
653,430,20,0.161249218992261,1
653,431,20,0.190022008163262,1
653,432,20,0.173984466313944,1
654,429,20,0.132638510568227,1
654,430,20,0.20256298942831,1
654,431,20,0.299119231026706,2
654,432,20,0.288975772793692,2
654,433,20,0.164226330079263,1
655,429,20,0.132290591819194,1
655,430,20,0.229770769419584,2
655,431,20,0.379258295610275,2
655,432,20,0.379008868477527,2
655,433,20,0.203664335377804,2
656,429,20,0.130020355254643,1
656,430,20,0.220594770095175,2
656,431,20,0.372011395018325,2
656,432,20,0.405122420077516,2
656,433,20,0.233047467188057,2
656,434,20,0.102968897040096,1
657,429,20,0.136756162266477,1
657,430,20,0.226446292637059,2
657,431,20,0.395667200868265,2
657,432,20,0.475911826534719,2
657,433,20,0.295996835187361,2
657,434,20,0.126641787434316,2
658,429,20,0.15204798359576,1
658,430,20,0.245307677613856,2
658,431,20,0.432121771033154,2
658,432,20,0.535185937551699,2
658,433,20,0.35480633316482,2
658,434,20,0.153181839473285,2
659,429,20,0.180263703607948,1
659,430,20,0.259115331759006,2
659,431,20,0.442489552578749,2
659,432,20,0.553262371277998,2
659,433,20,0.390566388350904,2
659,434,20,0.172484284623843,2
660,428,20,0.217262742929956,1
660,429,20,0.230596334034317,1
660,430,20,0.269817229761704,2
660,431,20,0.419291650988802,2
660,432,20,0.521854558661376,2
660,433,20,0.381870199014622,2
660,434,20,0.17175020227331,2
661,427,20,0.203313603269614,1
661,428,20,0.271132102457443,1
661,429,20,0.256403998951988,1
661,430,20,0.262609283373461,2
661,431,20,0.376616767774467,2
661,432,20,0.46356089128757,2
661,433,20,0.345061842924339,2
661,434,20,0.159577001592025,2
662,427,20,0.235116897237079,1
662,428,20,0.298869924122982,3
662,429,20,0.263538341131869,1
662,430,20,0.260046962418523,2
662,431,20,0.352519553086596,2
662,432,20,0.407417784508038,2
662,433,20,0.297139924653914,2
662,434,20,0.140368142713583,2
663,427,20,0.228821417001961,1
663,428,20,0.296936978061762,3
663,429,20,0.280305721247181,2
663,430,20,0.282486266959987,2
663,431,20,0.349869513035904,2
663,432,20,0.365224057846896,2
663,433,20,0.256526055456936,2
663,434,20,0.123094694591348,1
664,427,20,0.177872119889689,1
664,428,20,0.243219588020342,1
664,429,20,0.269527141173112,1
664,430,20,0.283758915222572,2
664,431,20,0.325230618504266,2
664,432,20,0.327106479824993,2
664,433,20,0.227280802291161,2
664,434,20,0.109933331563562,1
665,428,20,0.189764068815631,1
665,429,20,0.231603420429162,1
665,430,20,0.246056728477851,1
665,431,20,0.271604458246095,2
665,432,20,0.281254352290661,2
665,433,20,0.20144043507902,1
666,429,20,0.172390097206608,1
666,430,20,0.195675393273946,1
666,431,20,0.217088050158395,1
666,432,20,0.23055591303652,1
666,433,20,0.177637829591037,1
667,430,20,0.183029680506278,1
667,431,20,0.194886666832102,1
667,432,20,0.191532469434897,1
668,431,20,0.17886831353498,1
653,431,21,0.175193393193922,1
653,432,21,0.168653860063419,1
654,430,21,0.172882038303236,1
654,431,21,0.255259057958469,2
654,432,21,0.260504746449493,2
654,433,21,0.164205867099414,1
655,430,21,0.1930169973061,2
655,431,21,0.328452539929502,2
655,432,21,0.348156465859189,2
655,433,21,0.198749649412167,2
656,430,21,0.193221314509123,2
656,431,21,0.344834057015873,2
656,432,21,0.393179734503537,2
656,433,21,0.22839849938789,2
656,434,21,0.105537590133295,1
657,429,21,0.124697323432617,1
657,430,21,0.203859659449847,2
657,431,21,0.375363259972468,2
657,432,21,0.466914415402242,2
657,433,21,0.288238528419833,2
657,434,21,0.127769956479017,2
658,429,21,0.144792125941538,1
658,430,21,0.220029741774988,2
658,431,21,0.408461276251286,2
658,432,21,0.540275568769847,2
658,433,21,0.359641102898347,2
658,434,21,0.156789323354901,2
659,429,21,0.183561489547192,1
659,430,21,0.231850563210457,2
659,431,21,0.416859129287944,2
659,432,21,0.575627903290466,2
659,433,21,0.408572223594436,2
659,434,21,0.178012451206253,2
660,428,21,0.227695856927077,1
660,429,21,0.237236366605802,1
660,430,21,0.24627321285808,2
660,431,21,0.40186890246483,2
660,432,21,0.546944913177332,2
660,433,21,0.397958261099736,2
660,434,21,0.176098777857546,2
661,427,21,0.196062290272491,1
661,428,21,0.275451714869849,3
661,429,21,0.253367542818845,1
661,430,21,0.247409377132863,2
661,431,21,0.381133531740078,2
661,432,21,0.493377112087307,2
661,433,21,0.36034920375684,2
661,434,21,0.163716979819991,2
662,427,21,0.23105919173009,3
662,428,21,0.321252913389704,3
662,429,21,0.271890651414317,3
662,430,21,0.25290189580972,2
662,431,21,0.366915151203868,2
662,432,21,0.442592757172767,2
662,433,21,0.319664832260313,2
662,434,21,0.147506909321539,2
663,427,21,0.221381116002348,3
663,428,21,0.322149653586518,3
663,429,21,0.29015548402089,3
663,430,21,0.273241857321043,2
663,431,21,0.36447464629583,2
663,432,21,0.397155179312452,2
663,433,21,0.279129472615868,2
663,434,21,0.130708991034185,1
664,427,21,0.16414782052673,1
664,428,21,0.238666707255985,3
664,429,21,0.254670200245767,1
664,430,21,0.275261945378704,2
664,431,21,0.357416409088006,2
664,432,21,0.365914148397626,2
664,433,21,0.249418356028726,2
664,434,21,0.117564436023924,1
665,428,21,0.170215334509846,1
665,429,21,0.205943156294653,1
665,430,21,0.242280839802617,2
665,431,21,0.318815774894333,2
665,432,21,0.337628611391325,2
665,433,21,0.232091213624468,2
665,434,21,0.109160547490272,1
666,429,21,0.156891181383853,1
666,430,21,0.196614802751302,1
666,431,21,0.261361907251676,2
666,432,21,0.295270002646962,2
666,433,21,0.216743569959441,1
667,430,21,0.191496400727761,1
667,431,21,0.229157673535687,1
667,432,21,0.244156412573686,1
667,433,21,0.190882294920064,1
668,430,21,0.201367035259999,1
668,431,21,0.209569816705563,1
668,432,21,0.194971692797724,1
669,431,21,0.167992961119665,1
653,431,22,0.155562915174865,1
653,432,22,0.153363084726643,1
654,430,22,0.146808474876558,1
654,431,22,0.207350388926464,1
654,432,22,0.219116963026401,1
654,433,22,0.154807083393929,1
655,430,22,0.164722118504651,1
655,431,22,0.27387036656579,2
655,432,22,0.299235540584317,2
655,433,22,0.183379558988399,1
656,430,22,0.176842262117739,2
656,431,22,0.317452401810399,2
656,432,22,0.362349333796552,2
656,433,22,0.212562244970195,2
657,430,22,0.187886283830524,2
657,431,22,0.345843139212513,2
657,432,22,0.427254178776134,2
657,433,22,0.261818633267236,2
657,434,22,0.121141069138037,1
658,429,22,0.135530150842219,1
658,430,22,0.201128428739392,2
658,431,22,0.377636550354224,2
658,432,22,0.515448179174717,2
658,433,22,0.339736057857669,2
658,434,22,0.148400896273708,2
659,429,22,0.174034962503934,1
659,430,22,0.212104821626297,2
659,431,22,0.394942075580004,2
659,432,22,0.577848196718536,2
659,433,22,0.399375328465693,2
659,434,22,0.169183000020006,2
660,428,22,0.214672264337648,1
660,429,22,0.222664128006784,1
660,430,22,0.229517374729052,2
660,431,22,0.39189535188823,2
660,432,22,0.560349727955383,2
660,433,22,0.389753063050793,2
660,434,22,0.167288779727348,2
661,427,22,0.181527406831163,1
661,428,22,0.259898407436733,3
661,429,22,0.236460168028236,1
661,430,22,0.238794294296027,2
661,431,22,0.38832919072209,2
661,432,22,0.51838941392102,2
661,433,22,0.359594093350046,2
661,434,22,0.15809630902668,2
662,427,22,0.223744722426772,3
662,428,22,0.331036502108721,3
662,429,22,0.269499488497641,3
662,430,22,0.249140891487631,2
662,431,22,0.376632902509459,2
662,432,22,0.473319400232225,2
662,433,22,0.329741924072197,2
662,434,22,0.146729436316321,2
663,427,22,0.217085861990162,3
663,428,22,0.334261140709894,3
663,429,22,0.280126099085644,3
663,430,22,0.257737026230318,2
663,431,22,0.364049997383816,2
663,432,22,0.420116037359101,2
663,433,22,0.290196554255415,2
663,434,22,0.131598926268253,1
664,428,22,0.228257999750693,3
664,429,22,0.228249006619714,1
664,430,22,0.261277338156345,2
664,431,22,0.367532575332621,2
664,432,22,0.389012332035245,2
664,433,22,0.260194315110076,2
664,434,22,0.119865330989541,1
665,429,22,0.179196719113452,1
665,430,22,0.237624634215218,2
665,431,22,0.346934938977519,2
665,432,22,0.37495642900178,2
665,433,22,0.250494069150348,2
665,434,22,0.114053892804187,1
666,429,22,0.140759596392129,1
666,430,22,0.196385429819722,2
666,431,22,0.295760825613668,2
666,432,22,0.349807426768021,2
666,433,22,0.245380536402271,2
666,434,22,0.11128246953108,1
667,430,22,0.189686052202096,1
667,431,22,0.253294708076236,2
667,432,22,0.292314388509414,2
667,433,22,0.215882898469763,1
668,429,22,0.148223991288109,1
668,430,22,0.204678467193443,1
668,431,22,0.229783249192253,1
668,432,22,0.230349672169116,1
668,433,22,0.17359196664289,1
669,430,22,0.182975649582988,1
669,431,22,0.196955579896322,1
669,432,22,0.185139086705709,1
654,431,23,0.172432165342031,1
654,432,23,0.187206015991037,1
655,431,23,0.228128777595927,1
655,432,23,0.250148434752767,1
656,430,23,0.164911948110308,1
656,431,23,0.278953745874702,2
656,432,23,0.30889168653812,2
656,433,23,0.18757505897955,1
657,430,23,0.169200036472677,1
657,431,23,0.295754188971555,2
657,432,23,0.35620334632961,2
657,433,23,0.220566756732633,2
658,430,23,0.174744962981003,1
658,431,23,0.323355983519583,2
658,432,23,0.446518715715492,2
658,433,23,0.290848243655947,2
658,434,23,0.13501677291065,1
659,430,23,0.184165327796258,2
659,431,23,0.34985953402693,2
659,432,23,0.521048879927178,2
659,433,23,0.348600086911157,2
659,434,23,0.151237447609001,2
660,430,23,0.203181183022815,2
660,431,23,0.360098021280345,2
660,432,23,0.517751622995638,2
660,433,23,0.343760051146389,2
660,434,23,0.149948508313693,2
661,428,23,0.22812747912247,1
661,429,23,0.210669551586138,1
661,430,23,0.223183373114713,2
661,431,23,0.384138968785083,2
661,432,23,0.515640257063119,2
661,433,23,0.333649776123939,2
661,434,23,0.14419322910535,2
662,427,23,0.197716629616891,1
662,428,23,0.305484323866596,3
662,429,23,0.253388053890303,1
662,430,23,0.237367055554658,2
662,431,23,0.380418289277572,2
662,432,23,0.49177869126187,2
662,433,23,0.318430272552464,2
662,434,23,0.136100445193648,1
663,427,23,0.199636446668713,1
663,428,23,0.310532091338663,3
663,429,23,0.255491148065986,1
663,430,23,0.233870098214609,2
663,431,23,0.350417516926323,2
663,432,23,0.425515041901258,2
663,433,23,0.278752458443078,2
663,434,23,0.123213733347799,1
664,428,23,0.206959620553354,1
664,429,23,0.197283083757117,1
664,430,23,0.233740106594091,2
664,431,23,0.352517797742849,2
664,432,23,0.393069580671944,2
664,433,23,0.253803685625533,2
665,430,23,0.222737034886808,1
665,431,23,0.351872408343163,2
665,432,23,0.396370035695516,2
665,433,23,0.253665710797836,2
666,430,23,0.19202231854651,1
666,431,23,0.313195356581972,2
666,432,23,0.383586372145955,2
666,433,23,0.252471043080079,2
667,430,23,0.184003331209608,1
667,431,23,0.268125366938981,1
667,432,23,0.324218650811055,2
667,433,23,0.222138727172837,1
668,430,23,0.200727104257993,1
668,431,23,0.24868471852558,1
668,432,23,0.261397374813693,1
669,431,23,0.236810900136426,1
