x,y,z,signal,cytoplasm.p
70,158,3,0.0427202689707835,1
71,156,3,0.0438019349319794,1
71,157,3,0.0444180918387111,1
72,155,3,0.0441411048139231,1
72,156,3,0.0439932495401896,1
73,154,3,0.043110508166462,1
73,155,3,0.0436846601503834,1
73,156,3,0.0437378921580459,1
74,153,3,0.0427060087076978,1
75,152,3,0.0444554442662096,1
69,158,4,0.0424109334515721,1
69,159,4,0.0423904635535466,1
70,156,4,0.0414700129078224,1
70,157,4,0.0428727388926851,1
70,158,4,0.0430649320953035,1
71,154,4,0.0417394575375377,1
71,155,4,0.0416801294363665,1
71,156,4,0.0423173672021583,1
71,157,4,0.042890927148617,1
72,153,4,0.045051217782673,1
72,154,4,0.0443444412970039,1
72,155,4,0.0437599489327408,1
72,156,4,0.0434917965126474,1
73,152,4,0.0502610987938483,1
73,153,4,0.0450951907569576,1
73,154,4,0.0431921741925388,1
73,155,4,0.0428114292232027,1
73,156,4,0.0427195877221963,1
74,151,4,0.0508615004753169,1
74,152,4,0.047405580459697,1
74,153,4,0.0423472610389737,1
75,150,4,0.0493824557251136,1
75,151,4,0.0469724198996562,1
75,152,4,0.0437778181913183,1
76,149,4,0.0519238535797386,1
76,150,4,0.0472452112982245,1
76,151,4,0.0438972827005161,1
77,148,4,0.056739843145865,1
77,149,4,0.0514347225008493,1
77,150,4,0.0447317770760845,1
77,151,4,0.0412401942375972,1
78,147,4,0.0520072578710597,1
78,148,4,0.0541728822490148,1
78,149,4,0.0482595309705124,1
78,150,4,0.0415899315827451,1
79,146,4,0.0441542458829012,1
79,147,4,0.0464888631643655,1
79,148,4,0.0475382184782818,1
79,149,4,0.0433439763826902,1
80,146,4,0.0410360737779676,1
82,143,4,0.041973461020513,1
83,143,4,0.0419058470982314,1
84,142,4,0.0416608273930619,1
68,158,5,0.0417816814331083,1
68,159,5,0.0414298706051572,1
69,157,5,0.041829628357485,1
69,158,5,0.0428650072618937,1
69,159,5,0.0437290413331468,1
69,160,5,0.041713607938367,1
70,154,5,0.0409838095758378,1
70,156,5,0.0411317729842676,1
70,157,5,0.0422799850376183,1
70,158,5,0.0431301210970187,1
71,153,5,0.0444961056154175,1
71,154,5,0.0427558479892613,1
71,155,5,0.0418147165828536,1
71,156,5,0.0418312990385441,1
71,157,5,0.0416987853748602,1
72,152,5,0.0485219900988412,1
72,153,5,0.0458072198855035,1
72,154,5,0.0444796177775863,1
72,155,5,0.0436405222706868,1
72,156,5,0.0427533230441007,1
73,151,5,0.0534075967824997,1
73,152,5,0.0507612920521777,1
73,153,5,0.0462600717737559,1
73,154,5,0.044039682578817,1
73,155,5,0.042918647478035,1
73,156,5,0.0417999805271039,1
74,150,5,0.0524076968719747,1
74,151,5,0.0509240672106447,1
74,152,5,0.047946875716122,1
74,153,5,0.0433287537208068,1
75,149,5,0.053723452823903,1
75,150,5,0.0496993768932763,1
75,151,5,0.0469223913823741,1
75,152,5,0.0438645259976139,1
76,148,5,0.0546949079025442,1
76,149,5,0.0513095187426409,1
76,150,5,0.0465360477391327,1
76,151,5,0.0428955282799481,1
77,147,5,0.0540391899171403,1
77,148,5,0.0551458890605491,1
77,149,5,0.0504850295298554,1
77,150,5,0.0441128816581668,1
78,146,5,0.0475211494164576,1
78,147,5,0.0507464721920382,1
78,148,5,0.0524698851358652,1
78,149,5,0.04728930862741,1
78,150,5,0.0412280804482348,1
79,145,5,0.0429931766141504,1
79,146,5,0.0435283622602297,1
79,147,5,0.0446481565153707,1
79,148,5,0.0452376501093415,1
79,149,5,0.0421989083456369,1
81,143,5,0.0418297283820792,1
82,142,5,0.0458722683121134,1
82,143,5,0.0422706530133204,1
83,142,5,0.0456833191503866,1
83,143,5,0.0424513082438346,1
84,142,5,0.0427519875806004,1
67,158,6,0.0423401755129932,1
68,157,6,0.041339502439389,1
69,158,6,0.0424045156573417,1
69,159,6,0.0442124791202715,1
70,153,6,0.0429225619540441,1
70,158,6,0.0426713218004652,1
71,152,6,0.0457818622992014,1
71,153,6,0.0437838953612551,1
71,154,6,0.0419475411337897,1
71,155,6,0.041032578323907,1
72,151,6,0.0512390419542725,1
72,152,6,0.0474787173615965,1
72,153,6,0.0448286792808818,1
72,154,6,0.0431766811939143,1
72,155,6,0.0423909907101915,1
73,150,6,0.0547726837829185,1
73,151,6,0.0521872426664563,1
73,152,6,0.0492993163637987,1
73,153,6,0.045768956423188,1
73,154,6,0.0435019882077816,1
73,155,6,0.0419457785382386,1
74,149,6,0.056654519463683,1
74,150,6,0.0523406101063379,1
74,151,6,0.0498006017825615,1
74,152,6,0.047639924566966,1
74,153,6,0.0436844492877254,1
75,148,6,0.0566068266558428,1
75,149,6,0.05282591862371,1
75,150,6,0.0486002093314706,1
75,151,6,0.045838605981129,1
75,152,6,0.0437307768950238,1
76,147,6,0.0534946560265586,1
76,148,6,0.0526455445434064,1
76,149,6,0.0490738717420422,1
76,150,6,0.0444185216741293,1
76,151,6,0.041146190042663,1
77,146,6,0.0517432361963681,1
77,147,6,0.0514283804009064,1
77,148,6,0.051451629360629,1
77,149,6,0.0473061397929022,1
77,150,6,0.041742469088832,1
78,145,6,0.0475156291402072,1
78,146,6,0.0475306814899439,1
78,147,6,0.0479500602829305,1
78,148,6,0.0480046034237867,1
78,149,6,0.0439322345377549,1
79,144,6,0.043303866520434,1
79,145,6,0.0427635174426023,1
79,146,6,0.0426457182077288,1
79,147,6,0.0417805270952244,1
79,148,6,0.0412454090333303,1
80,143,6,0.0413512350539467,1
81,142,6,0.0457230856849818,1
82,142,6,0.0444619350513601,1
82,143,6,0.0410074180834258,1
83,142,6,0.0454959109080832,1
83,143,6,0.0412259312711441,1
84,142,6,0.0440382579041921,1
85,142,6,0.0411384421916671,1
66,159,7,0.0423384426544836,1
67,158,7,0.043323738974262,1
68,157,7,0.0421814364820686,1
69,158,7,0.0423395240014474,1
70,153,7,0.0435366156409312,1
70,158,7,0.0427640121588383,1
71,152,7,0.0474663737860042,1
71,153,7,0.0439727201680811,1
71,154,7,0.0415769473090767,1
71,155,7,0.0411227167034454,1
72,151,7,0.0520195041254252,1
72,152,7,0.0476560312299924,1
72,153,7,0.0450167633650376,1
72,154,7,0.0425837353997614,1
72,155,7,0.0419917438943041,1
73,149,7,0.0606992977819325,1
73,150,7,0.0552769645327712,1
73,151,7,0.0507862603535728,1
73,152,7,0.0477570776970286,1
73,153,7,0.0458598328220292,1
73,154,7,0.0431421564887263,1
73,155,7,0.0413080784966198,1
74,148,7,0.0620327175365151,1
74,149,7,0.0579822242995618,1
74,150,7,0.0520577567742711,1
74,151,7,0.0484049667304142,1
74,152,7,0.0467481701662947,1
75,147,7,0.0574208213963442,1
75,148,7,0.056547936500192,1
75,149,7,0.0529933381673868,1
75,150,7,0.047831290539157,1
75,151,7,0.0451339029782631,1
76,146,7,0.0549085820625993,1
76,147,7,0.0524447924795692,1
76,148,7,0.051845607313435,1
76,149,7,0.0486701616665616,1
76,150,7,0.0438257461921232,1
76,151,7,0.0410125436680344,1
77,145,7,0.0550141918138228,1
77,146,7,0.0522585953458654,1
77,147,7,0.0505419300070928,1
77,148,7,0.0500279387615048,1
77,149,7,0.0465653089879743,1
77,150,7,0.0415570667451465,1
78,144,7,0.0514728345745899,1
78,145,7,0.0501608146764216,1
78,146,7,0.0498630063158448,1
78,147,7,0.0480430074612075,1
78,148,7,0.0465113714014179,1
78,149,7,0.0430301613836812,1
79,143,7,0.0479083256968611,1
79,144,7,0.0449280009995106,1
79,145,7,0.0449599196585158,1
79,146,7,0.04523986416725,1
79,147,7,0.042657810370152,1
80,142,7,0.0509878991219203,1
80,143,7,0.0417982801090032,1
80,146,7,0.0413162345560945,1
81,142,7,0.0470371222952377,1
81,143,7,0.041071650093078,1
81,145,7,0.0412583473497527,1
81,146,7,0.0416532147104365,1
82,142,7,0.0459710169168514,1
82,143,7,0.042196394213946,1
83,142,7,0.0471344218950441,1
83,143,7,0.042404358862032,1
84,142,7,0.0460145357254112,1
85,142,7,0.0426341856423595,1
88,138,7,0.0453368420663347,1
88,139,7,0.0420325782590262,1
66,159,8,0.0415973604363866,1
67,158,8,0.0422200648989845,1
68,157,8,0.0414317818859158,1
69,158,8,0.0416267865906402,1
70,153,8,0.0428088448039591,1
70,158,8,0.0414117526367781,1
71,152,8,0.0474773494576872,1
71,153,8,0.0423040423041964,1
72,150,8,0.054541973001448,1
72,151,8,0.0513165583113755,1
72,152,8,0.0462197483454743,1
72,153,8,0.0433815369694793,1
73,149,8,0.0573547727237928,1
73,150,8,0.0532294827173505,1
73,151,8,0.0488360132571408,1
73,152,8,0.0455259453200039,1
73,153,8,0.0445911316832325,1
74,148,8,0.0580477863659795,1
74,149,8,0.0555900090720685,1
74,150,8,0.04964693156553,1
74,151,8,0.0462594824396606,1
74,152,8,0.0448363162938139,1
75,146,8,0.0559569641642481,1
75,147,8,0.0557847542535215,1
75,148,8,0.0549706351581193,1
75,149,8,0.0514479635944215,1
75,150,8,0.0458204285386669,1
75,151,8,0.043814729969929,1
76,145,8,0.0568538549629976,1
76,146,8,0.0536294351121318,1
76,147,8,0.0513118814857569,1
76,148,8,0.0499496005807093,1
76,149,8,0.046758897128176,1
76,150,8,0.0421627562132683,1
77,144,8,0.057606391348809,1
77,145,8,0.0546440791885088,1
77,146,8,0.051442535232663,1
77,147,8,0.0486103631794611,1
77,148,8,0.0470240596239144,1
77,149,8,0.0441117732775289,1
78,143,8,0.056633049319716,1
78,144,8,0.0529021319577216,1
78,145,8,0.0513167042932156,1
78,146,8,0.0500500739338546,1
78,147,8,0.0465211629981755,1
78,148,8,0.043745826541393,1
79,142,8,0.0585877299386997,1
79,143,8,0.0495647005356647,1
79,144,8,0.0463343278697629,1
79,145,8,0.0465430656809281,1
79,146,8,0.04644880466609,1
79,147,8,0.0426506924037625,1
80,142,8,0.0522629964280082,1
80,143,8,0.0428681756084977,1
80,144,8,0.0414221741181421,1
80,145,8,0.0422783522037029,1
80,146,8,0.042175010577736,1
81,142,8,0.0477277786010433,1
81,143,8,0.0419563946620561,1
81,144,8,0.0415047646958729,1
81,145,8,0.0419226755603562,1
81,146,8,0.0414626056811201,1
82,141,8,0.0525576742891247,1
82,142,8,0.0463713856302138,1
82,143,8,0.0432938532475488,1
82,144,8,0.0414606944003615,1
82,145,8,0.0410017193849264,1
83,142,8,0.0467449531590773,1
83,143,8,0.0433356446043338,1
87,137,8,0.0572321641982976,1
88,137,8,0.0482990542020408,1
88,138,8,0.0475454851298789,1
88,139,8,0.0446285192545073,1
89,137,8,0.0437710651795291,1
89,138,8,0.0415429713874728,1
69,159,9,0.0415778123866478,1
71,152,9,0.0459574460124552,1
72,150,9,0.0506242096975715,1
72,151,9,0.0487692833360021,1
72,152,9,0.0428883940933542,1
73,149,9,0.0548925240601862,1
73,150,9,0.0494582635540138,1
73,151,9,0.0451295640735707,1
73,152,9,0.0420711093547153,1
73,153,9,0.0419356409104526,1
74,148,9,0.0544534214985791,1
74,149,9,0.052254897139249,1
74,150,9,0.0461325485263101,1
74,151,9,0.0428394009657899,1
75,146,9,0.053767771829216,1
75,147,9,0.0530786294091598,1
75,148,9,0.0518926837535058,1
75,149,9,0.048241029123961,1
75,150,9,0.0431251847481288,1
76,145,9,0.0541726173190087,1
76,146,9,0.0524035661265728,1
76,147,9,0.049390938892045,1
76,148,9,0.0471229758374319,1
76,149,9,0.0440084938290124,1
77,143,9,0.0570459508443892,1
77,144,9,0.0551983722354392,1
77,145,9,0.0537303950714109,1
77,146,9,0.0510821439165539,1
77,147,9,0.0470381657950578,1
77,148,9,0.0444327900473171,1
78,142,9,0.0599465289065238,1
78,143,9,0.0557285999056892,1
78,144,9,0.0525834536007427,1
78,145,9,0.0510803326603895,1
78,146,9,0.0492984512862276,1
78,147,9,0.0451378336744767,1
78,148,9,0.0422909931497102,1
79,142,9,0.0575901657376166,1
79,143,9,0.0503414699069358,1
79,144,9,0.0474716994198011,1
79,145,9,0.0474492236231577,1
79,146,9,0.0468505358766268,1
79,147,9,0.0430981835144416,1
80,143,9,0.0441516695737598,1
80,144,9,0.0426160595638781,1
80,145,9,0.0434795718852212,1
80,146,9,0.0430634209129215,1
81,144,9,0.0419087505148293,1
81,145,9,0.0421586741284798,1
81,146,9,0.041510639113254,1
82,143,9,0.0436750577893444,1
82,144,9,0.0414051618270335,1
86,137,9,0.0682715866915428,1
87,137,9,0.0573831418613891,1
87,138,9,0.0603739961748,1
88,137,9,0.0498841304287835,1
88,138,9,0.048770899949713,1
88,139,9,0.0455304491301083,1
89,136,9,0.0471420886450178,1
89,137,9,0.0447875610625817,1
89,138,9,0.0423924289016534,1
90,137,9,0.0411849617380516,1
72,151,10,0.0458266408769741,1
73,149,10,0.0544265175861187,1
73,150,10,0.0449369221119623,1
73,151,10,0.0413984520691228,1
74,148,10,0.052248198194808,1
74,149,10,0.0493344493266539,1
74,150,10,0.0435159321768803,1
75,146,10,0.0531995942872699,1
75,147,10,0.0519109747373992,1
75,148,10,0.0500863639379611,1
75,149,10,0.0466779312742584,1
75,150,10,0.0417797566355126,1
76,144,10,0.0509063601541118,1
76,145,10,0.0522495552852476,1
76,146,10,0.0524474417796307,1
76,147,10,0.0490418098045643,1
76,148,10,0.0461578141981202,1
77,143,10,0.0547136908993061,1
77,144,10,0.0525943968320167,1
77,145,10,0.0524239981774546,1
77,146,10,0.0511745774550231,1
77,147,10,0.0466155321477099,1
78,141,10,0.057582466547234,1
78,142,10,0.0580236344815421,1
78,143,10,0.0544859862623952,1
78,144,10,0.0512500446596296,1
78,145,10,0.0498829625740625,1
78,146,10,0.0484153746949412,1
78,147,10,0.0442858268848288,1
79,141,10,0.0606309890942266,1
79,143,10,0.0513854022658285,1
79,144,10,0.048408740631318,1
79,145,10,0.048006268698111,1
79,146,10,0.0467448612445854,1
79,147,10,0.0431318701757327,1
80,144,10,0.0448567591581653,1
80,145,10,0.0453510320418677,1
80,146,10,0.0441385447249862,1
81,145,10,0.0438417636440251,1
82,145,10,0.041578809929222,1
86,137,10,0.0632718059887071,1
87,136,10,0.0574204212979676,1
87,137,10,0.0565710665117486,1
87,138,10,0.0576885088372432,1
88,136,10,0.0510481463680107,1
88,137,10,0.0505387508470191,1
88,138,10,0.0503509370996043,1
88,139,10,0.0482591308721357,1
88,140,10,0.0418213884936205,1
89,136,10,0.0474497697033744,1
89,137,10,0.0458069928026411,1
89,138,10,0.0444914450100033,1
89,139,10,0.0422784657451341,1
90,136,10,0.0457346723176994,1
90,137,10,0.0420486254479696,1
73,149,11,0.055886719865477,1
73,150,11,0.0427951603581317,1
74,147,11,0.0554715799525886,1
74,148,11,0.0523710121762263,1
74,149,11,0.046849481563337,1
74,150,11,0.0418382980567676,1
75,145,11,0.0517749899499613,1
75,146,11,0.053196750344755,1
75,147,11,0.0505808693112607,1
75,148,11,0.0470292987499543,1
76,143,11,0.0488537797877567,1
76,144,11,0.0490948877202844,1
76,145,11,0.0511748099446203,1
76,146,11,0.0524580930472245,1
76,147,11,0.0483328733283349,1
77,142,11,0.0536381832090693,1
77,143,11,0.0520976584772368,1
77,144,11,0.0507471426271558,1
77,145,11,0.0512318834373719,1
77,146,11,0.0507642279091845,1
78,141,11,0.0546654736381884,1
78,142,11,0.0553612879690115,1
78,143,11,0.0528637008866267,1
78,144,11,0.0506032045327989,1
78,145,11,0.0495537627111254,1
78,146,11,0.0478442504825186,1
79,144,11,0.0499538448675423,1
79,145,11,0.0487704620041927,1
79,146,11,0.0462019007138361,1
80,145,11,0.0469660940199177,1
80,155,11,0.0419890026797508,1
81,145,11,0.0450392499751506,1
83,155,11,0.0412701286249237,1
85,137,11,0.0628978005143232,1
86,136,11,0.0599231447784307,1
86,137,11,0.0585467306685657,1
87,136,11,0.0559616950572149,1
87,137,11,0.054304730884316,1
87,138,11,0.0541649289420958,1
88,136,11,0.0506183650172319,1
88,137,11,0.0499438099677179,1
88,138,11,0.0497121421941845,1
88,139,11,0.0486273889874068,1
89,136,11,0.0476410870149521,1
89,137,11,0.0465960354619519,1
89,138,11,0.0454407135523139,1
89,139,11,0.0428205449781079,1
90,136,11,0.0457077738119738,1
90,137,11,0.042906193064379,1
73,149,12,0.0540999832434474,1
74,148,12,0.0523486985816275,1
74,149,12,0.0443559630489036,1
75,145,12,0.0505656439460098,1
75,146,12,0.0519850091572786,1
75,147,12,0.04877906411929,1
75,148,12,0.0442079590899626,1
76,143,12,0.048214114398031,1
76,144,12,0.0482565951135055,1
76,145,12,0.0496230013572202,1
76,146,12,0.0505057643578871,1
76,147,12,0.0462783843845886,1
77,141,12,0.0494437680979635,1
77,142,12,0.0509522849596662,1
77,143,12,0.0505645085316978,1
77,144,12,0.0495328008002314,1
77,145,12,0.0495722969980857,1
78,140,12,0.0499835765023132,1
78,141,12,0.052430145634944,1
78,142,12,0.0529398223061463,1
78,144,12,0.0509313500824462,1
79,140,12,0.0558126692253931,1
80,139,12,0.0560515820235843,1
81,139,12,0.054907095210524,1
81,154,12,0.0424942917856473,1
81,155,12,0.0427102962484094,1
82,138,12,0.0514256283728834,1
82,154,12,0.045505156424624,1
82,155,12,0.0434995497703781,1
83,137,12,0.0512246059723052,1
83,154,12,0.0431037227142639,1
84,137,12,0.0563340082236004,1
85,136,12,0.0566760004211198,1
85,137,12,0.0582303555806197,1
86,136,12,0.056006073536611,1
86,137,12,0.0558660769519372,1
86,138,12,0.0566212680445449,1
87,136,12,0.0543145927686263,1
87,137,12,0.0528018424335601,1
87,138,12,0.0516247151623963,1
88,136,12,0.0508903454055773,1
88,137,12,0.0500036679289014,1
88,138,12,0.0491108538082056,1
88,139,12,0.048660429543887,1
89,136,12,0.0476951273294701,1
89,137,12,0.0473720208566742,1
89,138,12,0.0460495118929567,1
89,139,12,0.0437181737961602,1
90,136,12,0.0450672730817186,1
90,137,12,0.0437065574264011,1
90,138,12,0.0415930026081224,1
91,136,12,0.0430603498875442,1
73,148,13,0.075196511021045,1
73,149,13,0.0515083784492914,1
74,146,13,0.0540156814341464,1
74,147,13,0.0581093420418962,1
74,148,13,0.0516067323623876,1
74,149,13,0.0434765495204572,1
75,144,13,0.0483101001612764,1
75,145,13,0.0493193591297735,1
75,146,13,0.0512040711934619,1
75,147,13,0.0491694628136458,1
76,143,13,0.0483769544373159,1
76,144,13,0.0481819497325915,1
76,145,13,0.0488168842293504,1
77,141,13,0.0468945304778507,1
77,142,13,0.0480539344722772,1
77,143,13,0.0490566945455215,1
78,140,13,0.0481921468344606,1
78,141,13,0.0497659121719615,1
79,139,13,0.0504826343463305,1
79,140,13,0.0537811318709543,1
80,138,13,0.0483668276229995,1
80,139,13,0.055771253636678,1
80,140,13,0.0568368778156653,1
81,138,13,0.0484879979570328,1
81,139,13,0.0534200106456446,1
82,137,13,0.0464114873823678,1
82,138,13,0.0495307840881438,1
83,137,13,0.0492963426596481,1
83,138,13,0.0536920451013382,1
84,136,13,0.0496633734461152,1
84,137,13,0.0526042533095921,1
84,138,13,0.0576153827488134,1
85,136,13,0.0522232947742308,1
85,137,13,0.0548934053579617,1
85,138,13,0.0574796574846468,1
86,136,13,0.0533687223591496,1
86,137,13,0.054193092623769,1
86,138,13,0.054458119951137,1
87,136,13,0.0532236704774199,1
87,137,13,0.0514688389975585,1
87,138,13,0.0494317218927863,1
87,139,13,0.0497170515094003,1
88,136,13,0.0514999277227689,1
88,137,13,0.0492804738929537,1
88,138,13,0.0467354859664089,1
88,139,13,0.0458263110661501,1
89,136,13,0.0484675118388028,1
89,137,13,0.0473754162861407,1
89,138,13,0.0449293283529087,1
90,136,13,0.0449302772348695,1
90,137,13,0.0439450728295831,1
72,158,14,0.0415631601352877,1
73,148,14,0.0604754427402128,1
74,145,14,0.0468463672840812,1
74,146,14,0.0501788299168392,1
74,147,14,0.0538093496199758,1
74,148,14,0.0478090201984367,1
75,143,14,0.0482428998542085,1
75,144,14,0.046660986567335,1
75,145,14,0.046151153100823,1
75,146,14,0.0470057794534907,1
75,147,14,0.0468421932848007,1
76,142,14,0.0450050415639495,1
76,143,14,0.0474313651780498,1
77,141,14,0.0452962699282513,1
77,142,14,0.0451413615689462,1
78,140,14,0.0481809657068544,1
78,141,14,0.0482241222641814,1
79,139,14,0.0506478587556707,1
79,140,14,0.0532972128844307,1
80,138,14,0.049479668817163,1
80,139,14,0.0549493758768102,1
80,140,14,0.0564458032794572,1
81,137,14,0.0455345149946923,1
81,138,14,0.0486074489493936,1
81,139,14,0.0527462071322704,1
82,137,14,0.0465860762564149,1
82,138,14,0.0492726125005266,1
82,139,14,0.0537628354803261,1
83,136,14,0.0469522852191895,1
83,137,14,0.049056829713892,1
83,138,14,0.0528390083287073,1
84,136,14,0.0474484234264044,1
84,137,14,0.0508705351291998,1
84,138,14,0.0551348809484572,1
85,135,14,0.0490623608036121,1
85,136,14,0.049297932239685,1
85,137,14,0.0525089379814643,1
85,138,14,0.0550483245307365,1
86,135,14,0.0504748702751301,1
86,136,14,0.0508214581972458,1
86,137,14,0.05242383597541,1
86,138,14,0.0531499983087734,1
86,139,14,0.052561642832482,1
87,135,14,0.0521309477435187,1
87,136,14,0.0520422556655444,1
87,137,14,0.0505874979681491,1
87,138,14,0.04831911318822,1
87,139,14,0.0473049989718553,1
88,135,14,0.0525641677776425,1
88,136,14,0.0520039219156762,1
88,137,14,0.0489620334323069,1
88,138,14,0.0449932467719414,1
89,136,14,0.0495557740164782,1
89,137,14,0.0478541880611163,1
73,147,15,0.0528770393014256,1
73,148,15,0.0480270467800212,1
74,144,15,0.0427436774291832,1
74,145,15,0.0432832073866898,1
74,146,15,0.0459336401590462,1
74,147,15,0.0477104446092129,1
74,148,15,0.0434870250691694,1
75,142,15,0.043797101311051,1
75,143,15,0.0464412190171387,1
75,147,15,0.0444139908303508,1
75,148,15,0.0418768156356196,1
76,141,15,0.0412856459538549,1
76,142,15,0.043163861825658,1
77,140,15,0.0431565302932431,1
77,141,15,0.0442999817165855,1
77,142,15,0.0434428439355943,1
78,139,15,0.0451923984422721,1
78,140,15,0.0481926064069202,1
78,141,15,0.0474108520261458,1
79,138,15,0.0470327644669734,1
79,139,15,0.0503761432973314,1
79,140,15,0.0519359322253247,1
80,137,15,0.0469247108716115,1
80,138,15,0.0501073528825293,1
80,139,15,0.0528392029711608,1
80,140,15,0.0536963434555195,1
81,137,15,0.0473453602472807,1
81,138,15,0.0490295743636684,1
81,139,15,0.0513927878655915,1
81,140,15,0.0531542209686671,1
82,136,15,0.0465129393545154,1
82,137,15,0.0474275155828586,1
82,138,15,0.0491803898247154,1
82,139,15,0.0519356943289926,1
82,140,15,0.0540755231751254,1
83,136,15,0.0478077442090193,1
83,137,15,0.0492241519363421,1
83,138,15,0.0513941287358267,1
83,139,15,0.053283836622488,1
84,135,15,0.0472899520288535,1
84,136,15,0.0476249587249864,1
84,137,15,0.0499577971906952,1
84,138,15,0.0524947344890943,1
85,135,15,0.0485300515404566,1
85,136,15,0.0490266601336009,1
85,137,15,0.0512257900472306,1
85,138,15,0.0530401713043908,1
85,139,15,0.0529998857232529,1
86,135,15,0.0492702659776151,1
86,136,15,0.0495512756131086,1
86,137,15,0.0510293795914533,1
86,138,15,0.0517223770134356,1
86,139,15,0.0508298170092763,1
86,140,15,0.0486636789915133,1
87,135,15,0.0497777475144807,1
87,136,15,0.0494649895321288,1
87,137,15,0.0488795320657006,1
87,138,15,0.047266340817898,1
87,139,15,0.0459224157775616,1
88,135,15,0.0510631716840733,1
88,136,15,0.0495777469867834,1
88,137,15,0.0470560999344531,1
88,138,15,0.0434788636029598,1
89,135,15,0.0485073054070722,1
89,136,15,0.0475734001017504,1
62,157,16,0.0413162156325227,1
63,156,16,0.0423434817313351,1
63,157,16,0.0417674914575753,1
71,158,16,0.0426607759642003,1
72,158,16,0.0411393478197493,1
73,146,16,0.0425086088194485,1
73,147,16,0.041994125560992,1
74,141,16,0.0411068181997096,1
74,147,16,0.0411135631013965,1
75,141,16,0.0414561094892348,1
75,142,16,0.0429626934432397,1
75,143,16,0.0441961399676478,1
76,141,16,0.0410695928304793,1
76,142,16,0.0421355306000861,1
77,140,16,0.0435178731946804,1
77,141,16,0.0433820938631657,1
78,138,16,0.0428059386839938,1
78,139,16,0.0460576490288596,1
78,140,16,0.0486964708381918,1
78,141,16,0.0465152101831395,1
79,138,16,0.0484913393191511,1
79,139,16,0.0505204003890427,1
79,140,16,0.0510462323838847,1
80,137,16,0.048598462956124,1
80,138,16,0.0505604751075227,1
80,139,16,0.0509525823300813,1
80,140,16,0.0507634601528402,1
81,136,16,0.0471016408618353,1
81,137,16,0.0485437576132233,1
81,138,16,0.0494240010754644,1
81,139,16,0.0500389630938011,1
81,140,16,0.0510338347409443,1
82,136,16,0.0470518718678245,1
82,137,16,0.0478607518371869,1
82,138,16,0.0492580305367192,1
82,139,16,0.0506472153542272,1
82,140,16,0.0524592122413321,1
82,141,16,0.0517946596512336,1
83,136,16,0.0477597540307641,1
83,137,16,0.0489226832162927,1
83,138,16,0.0500391847699287,1
83,139,16,0.0502421644085114,1
83,140,16,0.0525580581672968,1
83,141,16,0.0523060826977825,1
83,142,16,0.048618770652105,1
84,135,16,0.0454779281080745,1
84,136,16,0.0470693734684342,1
84,137,16,0.0487387623179477,1
84,138,16,0.0496959598368706,1
84,139,16,0.0502312373974418,1
84,142,16,0.0473335303114963,1
85,135,16,0.046294999280688,1
85,136,16,0.0479972448576978,1
85,137,16,0.0496192653034601,1
85,138,16,0.0503695092337082,1
85,139,16,0.0505277319214575,1
85,140,16,0.0511995998237664,1
86,135,16,0.0467332962388071,1
86,136,16,0.0479506117698821,1
86,137,16,0.049400416898183,1
86,138,16,0.0500452997870093,1
86,139,16,0.048640181321989,1
86,140,16,0.0464371531525546,1
87,135,16,0.0468075090809355,1
87,136,16,0.0469515336830496,1
87,137,16,0.0470633665860501,1
87,138,16,0.0466873660265179,1
87,139,16,0.0447684185179543,1
88,135,16,0.0484921287024347,1
88,136,16,0.0470768509826892,1
88,137,16,0.0451250927038752,1
89,136,16,0.0458120535064319,1
61,153,17,0.044497435672183,1
61,154,17,0.0418057549198908,1
62,152,17,0.0441306427820479,1
63,146,17,0.0590271298707219,1
63,147,17,0.0581621820612843,1
63,151,17,0.0427420472986352,1
64,146,17,0.0875279430868926,1
64,147,17,0.0727080396935653,1
64,148,17,0.0585446598891299,1
64,149,17,0.0477846520446065,1
64,150,17,0.0418920193739312,1
65,147,17,0.100926999823611,1
65,148,17,0.0631542581670027,1
65,149,17,0.0456657472622241,1
66,143,17,0.0663531744497263,1
66,147,17,0.123176524614874,1
66,148,17,0.0629340256376119,1
66,149,17,0.0429190989403924,1
67,143,17,0.0681041779613357,1
67,144,17,0.105880509689864,1
67,146,17,0.152104869980139,1
67,147,17,0.0884377397616556,1
67,148,17,0.0497626356906611,1
68,144,17,0.0759418023821987,1
68,145,17,0.0793168484583928,1
68,146,17,0.0752784014266167,1
68,147,17,0.0533757511144146,1
68,148,17,0.0410746156871264,1
69,144,17,0.0551629527156385,1
69,145,17,0.0486987416668159,1
69,146,17,0.0447564371935949,1
70,143,17,0.0434229309312551,1
70,144,17,0.0433026229714255,1
75,142,17,0.0410142116457262,1
77,140,17,0.0426521549255311,1
77,141,17,0.0418816303329761,1
78,138,17,0.0425450826525389,1
78,139,17,0.0451282826774185,1
78,140,17,0.04720871043146,1
79,137,17,0.0449389388240499,1
79,138,17,0.0471185639418194,1
79,139,17,0.0483866757465209,1
79,140,17,0.0486772174555006,1
80,137,17,0.0473123791648835,1
80,138,17,0.0486714376559789,1
80,139,17,0.0479584299084307,1
80,140,17,0.0472684710714167,1
81,136,17,0.0462722747742429,1
81,137,17,0.0474651194235261,1
81,138,17,0.0480008349296177,1
81,139,17,0.0470921412287579,1
81,140,17,0.0470750721669337,1
82,136,17,0.0458013914253684,1
82,137,17,0.0464870789418752,1
82,138,17,0.0470910869154682,1
82,139,17,0.0470009350190927,1
82,140,17,0.0480182986830838,1
82,141,17,0.0471181314030338,1
83,136,17,0.0452767272852473,1
83,137,17,0.046056081075762,1
83,138,17,0.0461935905624189,1
83,139,17,0.0456698077200734,1
83,140,17,0.0472213567842022,1
83,141,17,0.0468168789523772,1
83,142,17,0.0448865800040607,1
84,135,17,0.0432945020557271,1
84,136,17,0.044805270822482,1
84,137,17,0.0457874907101482,1
84,138,17,0.0455183867047266,1
84,139,17,0.0453845970516253,1
84,140,17,0.047523020146705,1
84,141,17,0.0469775887381434,1
84,142,17,0.0430630424414842,1
85,135,17,0.0439420585749214,1
85,136,17,0.0462217218036833,1
85,137,17,0.0471057121331541,1
85,138,17,0.0467960143627099,1
85,139,17,0.0462699282513313,1
85,140,17,0.0468778831413423,1
85,141,17,0.045163991457532,1
85,142,17,0.0409888297291174,1
86,135,17,0.0448877262318423,1
86,136,17,0.0468691891117531,1
86,137,17,0.0473758596383958,1
86,138,17,0.0472445462698417,1
86,139,17,0.0450023219763355,1
86,140,17,0.043186724203841,1
86,141,17,0.0420408586734018,1
87,135,17,0.0446830380650568,1
87,136,17,0.0453570064838429,1
87,137,17,0.0452513534787408,1
87,138,17,0.0452582119218589,1
87,139,17,0.0428612955384403,1
88,136,17,0.0439642505179868,1
88,137,17,0.043121035079155,1
60,151,18,0.0476111391107885,1
60,152,18,0.0453521836763842,1
60,153,18,0.0419227350344392,1
61,152,18,0.0475763792126358,1
61,153,18,0.0424404569270524,1
62,146,18,0.0478131509438386,1
62,147,18,0.0508539418600396,1
62,151,18,0.0494675144772894,1
62,152,18,0.0432865271218688,1
63,145,18,0.0508770394311873,1
63,146,18,0.0538607027872886,1
63,147,18,0.0543609501129662,1
63,148,18,0.0536341389714245,1
63,149,18,0.0502969130052907,1
63,150,18,0.0462152175016958,1
63,151,18,0.0411469145451288,1
64,144,18,0.0535998548659359,1
64,145,18,0.0647096081657094,1
64,146,18,0.0711378319875754,1
64,147,18,0.064731391900296,1
64,148,18,0.0551652289509974,1
64,149,18,0.0460758264713218,1
65,142,18,0.0428533043843775,1
65,143,18,0.0511663916585068,1
65,144,18,0.0704449643272287,1
65,145,18,0.0975347278902826,1
65,146,18,0.105327260142753,1
65,147,18,0.0797009212730101,1
65,148,18,0.0567171618932984,1
65,149,18,0.043382201997862,1
66,142,18,0.0433282698180405,1
66,143,18,0.0589598430558969,1
66,144,18,0.0917603567303078,1
66,146,18,0.13437308304217,1
66,147,18,0.0888681861408172,1
66,148,18,0.0543356033401337,1
67,142,18,0.0443356283192486,1
67,143,18,0.059608137594394,1
67,144,18,0.0827103315003205,1
67,145,18,0.106442464080033,1
67,146,18,0.104070951240162,1
67,147,18,0.0680443254068871,1
67,148,18,0.0444708156133006,1
68,142,18,0.0442004788723402,1
68,143,18,0.0556619294586336,1
68,144,18,0.064660277117219,1
68,145,18,0.0680518299548161,1
68,146,18,0.0636250225677111,1
68,147,18,0.0477308820668295,1
69,143,18,0.0484619861558176,1
69,144,18,0.0506843379954959,1
69,145,18,0.0476185949981042,1
69,146,18,0.0440465626488744,1
70,143,18,0.0414889391830571,1
70,144,18,0.0423461932088469,1
75,141,18,0.0411292453357396,1
77,140,18,0.0423597749267128,1
78,138,18,0.0418885158097684,1
78,139,18,0.0440458895103895,1
78,140,18,0.0455128880554155,1
79,137,18,0.0431126411233482,1
79,138,18,0.0446287652609416,1
79,139,18,0.0458601626328532,1
79,140,18,0.0467176491482403,1
80,137,18,0.0451139467200454,1
80,138,18,0.0462127736575575,1
80,139,18,0.0457071898846134,1
80,140,18,0.0454089814256599,1
81,136,18,0.0441040362400026,1
81,137,18,0.0461936554432368,1
81,138,18,0.047091660029359,1
81,139,18,0.045742220119507,1
81,140,18,0.04484704866243,1
81,141,18,0.0441341923034568,1
82,136,18,0.0432103813720424,1
82,137,18,0.0447568940626872,1
82,138,18,0.0455757846015673,1
82,139,18,0.0450992539181742,1
82,140,18,0.0449472678990389,1
82,141,18,0.0438766884475898,1
82,142,18,0.0441098944371792,1
83,136,18,0.0419203344441794,1
83,137,18,0.0425532954827293,1
83,138,18,0.0430474034610197,1
83,139,18,0.0430460274470082,1
83,140,18,0.0437292873395811,1
83,141,18,0.0427610411580551,1
83,142,18,0.0417669913346045,1
84,136,18,0.0414195113012436,1
84,137,18,0.0419320454317978,1
84,138,18,0.0419667539659698,1
84,139,18,0.0419857126816133,1
84,140,18,0.042896398764254,1
84,141,18,0.0419456433698682,1
85,136,18,0.0427210691675367,1
85,137,18,0.0435118203550503,1
85,138,18,0.0432122710258618,1
85,139,18,0.0423644652691685,1
85,140,18,0.0427022375101614,1
85,141,18,0.0415825730166561,1
86,136,18,0.0437254755915336,1
86,137,18,0.0442891547301101,1
86,138,18,0.0437891696310712,1
86,139,18,0.0416508033067071,1
87,136,18,0.0427334235565986,1
87,137,18,0.0432701230884273,1
87,138,18,0.0435316008943864,1
87,139,18,0.0413887902340009,1
88,137,18,0.0422839643944453,1
60,149,19,0.0445715214560432,1
60,150,19,0.0450651644551391,1
60,151,19,0.0446515005808563,1
60,152,19,0.0436523981637171,1
61,146,19,0.0440295341375613,1
61,147,19,0.0455085788877646,1
61,148,19,0.0481497796604173,1
61,149,19,0.0497526981120634,1
61,150,19,0.0500851906765054,1
61,151,19,0.0481335540492248,1
61,152,19,0.0446063624552182,1
62,145,19,0.043183958658981,1
62,146,19,0.0450769295101057,1
62,147,19,0.0473922690785721,1
62,148,19,0.0504980111001563,1
62,149,19,0.0508186575086095,1
62,150,19,0.0492273419098854,1
62,151,19,0.0452957752120154,1
63,144,19,0.0443339089775761,1
63,145,19,0.0462364875964745,1
63,146,19,0.048346865958047,1
63,147,19,0.0496104685459093,1
63,148,19,0.049548691193865,1
63,149,19,0.046483645665265,1
63,150,19,0.0423780226567276,1
64,142,19,0.0441198860831251,1
64,143,19,0.0455410787707628,1
64,144,19,0.0484019119252414,1
64,145,19,0.0535578715700648,1
64,146,19,0.057075147212413,1
64,147,19,0.0545448656045763,1
64,148,19,0.0483165071420372,1
64,149,19,0.0417158301063777,1
65,141,19,0.0427245078508817,1
65,142,19,0.0438372625372881,1
65,143,19,0.0485674769588752,1
65,144,19,0.0561438425465392,1
65,145,19,0.0670699885385873,1
65,146,19,0.0707874809780256,1
65,147,19,0.060291305572475,1
65,148,19,0.0473010466487025,1
66,142,19,0.0439553834728833,1
66,143,19,0.0536580151123861,1
66,144,19,0.0692639225800558,1
66,145,19,0.0854821481727356,1
66,146,19,0.0841198402340139,1
66,147,19,0.0629090411160124,1
66,148,19,0.0443853567627482,1
67,142,19,0.0433928640789255,1
67,143,19,0.0540266300721553,1
67,144,19,0.068647917061899,1
67,145,19,0.0799846559028525,1
67,146,19,0.0738427024694591,1
67,147,19,0.0535829642263607,1
68,142,19,0.0410579169866372,1
68,143,19,0.049157973502155,1
68,144,19,0.0571521391162385,1
68,145,19,0.0607265315052168,1
68,146,19,0.0546287835357053,1
68,147,19,0.0429804545671208,1
69,143,19,0.0441649836582521,1
69,144,19,0.0467234451679665,1
69,145,19,0.0455765199175027,1
69,146,19,0.0416838492699221,1
78,138,19,0.0410590253672752,1
78,139,19,0.0418621985280359,1
79,136,19,0.0412496127696522,1
79,137,19,0.0415910345566482,1
79,138,19,0.0416484351568563,1
79,139,19,0.0423670632052491,1
79,140,19,0.0437225424378941,1
80,136,19,0.0419249544990825,1
80,137,19,0.0428714601999004,1
80,138,19,0.0429767428436674,1
80,139,19,0.0429822523064482,1
80,140,19,0.0435320712803157,1
80,141,19,0.0430720797987345,1
81,136,19,0.0424490238983735,1
81,137,19,0.0444328657416046,1
81,138,19,0.0448951334585447,1
81,139,19,0.0436610813798368,1
81,140,19,0.0427657882712264,1
81,141,19,0.0420638264829138,1
82,136,19,0.0413598885330248,1
82,137,19,0.0427804405225864,1
82,138,19,0.0432116249210509,1
82,139,19,0.0427031945022244,1
82,140,19,0.0418961203822916,1
82,141,19,0.0413924505934735,1
82,142,19,0.0417468945012815,1
86,137,19,0.0421397127094688,1
86,138,19,0.0414309925026322,1
87,138,19,0.0423369287687342,1
87,139,19,0.0409949420428305,1
60,150,20,0.0412713938008714,1
60,151,20,0.0414855788973669,1
60,152,20,0.0411969890196569,1
61,147,20,0.0437861499696747,1
61,148,20,0.0446875418751612,1
61,149,20,0.044771089444955,1
61,150,20,0.0450387417420776,1
61,151,20,0.043802618883934,1
61,152,20,0.041207153681117,1
62,146,20,0.0438000074310163,1
62,147,20,0.0458335020234597,1
62,148,20,0.0475204086937874,1
62,149,20,0.0464692529371762,1
62,150,20,0.0443953132649178,1
62,151,20,0.0413238066882088,1
63,145,20,0.043351115976019,1
63,146,20,0.0451699929331813,1
63,147,20,0.0468601868982791,1
63,148,20,0.0470734122993442,1
63,149,20,0.0437907429909036,1
64,143,20,0.0441183586805387,1
64,144,20,0.0450635397313259,1
64,145,20,0.0470805437825707,1
64,146,20,0.0483807337449545,1
64,147,20,0.0472224327244312,1
64,148,20,0.0435842543814233,1
65,142,20,0.0438055277072667,1
65,143,20,0.0459741906701903,1
65,144,20,0.0487251373462033,1
65,145,20,0.051807716915822,1
65,146,20,0.0525066941865144,1
65,147,20,0.0478558479287058,1
66,141,20,0.0418331157014434,1
66,142,20,0.0437653989214386,1
66,143,20,0.0489083499622869,1
66,144,20,0.0558681801717819,1
66,145,20,0.0608389321153733,1
66,146,20,0.057467481517834,1
66,147,20,0.0478049597405875,1
67,142,20,0.0424727378372905,1
67,143,20,0.048880115993061,1
67,144,20,0.0582146003553566,1
67,145,20,0.0629906233376994,1
67,146,20,0.0563375063810284,1
67,147,20,0.0444875710845054,1
68,143,20,0.044326285481481,1
68,144,20,0.0504836994730899,1
68,145,20,0.0526805964052394,1
68,146,20,0.046426047719236,1
69,144,20,0.0428982181305207,1
69,145,20,0.0418471813220756,1
77,138,20,0.0413776523602733,1
78,138,20,0.0410558245802622,1
80,140,20,0.0413343336009018,1
81,136,20,0.0410302074706888,1
81,137,20,0.0419465787349919,1
81,138,20,0.0416445936717673,1
86,140,20,0.0411044230161847,1
61,147,21,0.0436591133283626,1
61,148,21,0.0437639228828329,1
61,149,21,0.0431065639534114,1
61,150,21,0.0420322754818763,1
62,146,21,0.0440115918880638,1
62,147,21,0.0453336250591172,1
62,148,21,0.0459412690618761,1
62,149,21,0.0445066244180082,1
62,150,21,0.0418735013071755,1
63,144,21,0.04218491030919,1
63,145,21,0.042789499506776,1
63,146,21,0.0443470473431867,1
63,147,21,0.0451476658217454,1
63,148,21,0.045038849876774,1
63,149,21,0.0422405807542559,1
64,143,21,0.0444962218602161,1
64,144,21,0.0447501572711024,1
64,145,21,0.0449706466203971,1
64,146,21,0.0446231611803015,1
64,147,21,0.0431940692530929,1
65,142,21,0.0438729605039319,1
65,143,21,0.0451735316411205,1
65,144,21,0.0465175080454377,1
65,145,21,0.0469484788778767,1
65,146,21,0.0457337207323712,1
65,147,21,0.0424599806464846,1
66,142,21,0.0434495185497286,1
66,143,21,0.0459862639090416,1
66,144,21,0.0492544134311252,1
66,145,21,0.0502297829857754,1
66,146,21,0.0467720787476653,1
66,147,21,0.0416688455807988,1
67,142,21,0.0414952893931022,1
67,143,21,0.0452834857037713,1
67,144,21,0.0513467819590149,1
67,145,21,0.0530008751557248,1
67,146,21,0.0473982867744259,1
68,143,21,0.0417281655718677,1
68,144,21,0.0468287142948965,1
68,145,21,0.0476226500492186,1
68,146,21,0.0421156419260537,1
69,144,21,0.0414474749337286,1
76,139,21,0.0411933313635517,1
77,138,21,0.0416161569499856,1
61,146,22,0.0433242418006001,1
61,147,22,0.0431419321092313,1
61,148,22,0.0422965729000437,1
62,145,22,0.0418784430628002,1
62,146,22,0.0442544218656315,1
62,147,22,0.0449579380902046,1
62,148,22,0.0436062679022397,1
63,143,22,0.0430567003415413,1
63,144,22,0.0415736410907348,1
63,145,22,0.0416243589667064,1
63,146,22,0.043143329750182,1
63,147,22,0.0434826212836592,1
63,148,22,0.0423860300309949,1
64,142,22,0.0435119771503601,1
64,143,22,0.0441992353233318,1
64,144,22,0.0431835315269303,1
64,145,22,0.0421068073213591,1
64,146,22,0.0411773328352217,1
65,141,22,0.0424504837167746,1
65,142,22,0.0428618551354941,1
65,143,22,0.0435078220746515,1
65,144,22,0.0433690122682706,1
65,145,22,0.0426114313988728,1
66,140,22,0.0420691548200781,1
66,141,22,0.041277806188367,1
66,143,22,0.0417247998794428,1
66,144,22,0.0428474326703638,1
66,145,22,0.0428288470194228,1
67,144,22,0.0435255967153697,1
67,145,22,0.0441110460716957,1
68,138,22,0.0502393420929358,1
68,144,22,0.041833694222069,1
68,145,22,0.0423268803520727,1
69,138,22,0.0436865119570589,1
70,137,22,0.0414586101040887,1
58,160,23,0.0441078966486635,1
60,144,23,0.0428774914125912,1
60,145,23,0.0417574457442812,1
60,146,23,0.0433594666779473,1
60,147,23,0.0413609779900909,1
61,142,23,0.0425944893953168,1
61,145,23,0.0419620933605556,1
61,146,23,0.0444115577996821,1
61,147,23,0.0443974137813951,1
61,148,23,0.0420704524364348,1
62,143,23,0.0412036501169542,1
62,145,23,0.0421111327092145,1
62,146,23,0.0449107156682936,1
62,147,23,0.0455226472117642,1
62,148,23,0.0423413487744489,1
63,141,23,0.0441341274226389,1
63,142,23,0.0448542098826981,1
63,143,23,0.0441791114563347,1
63,144,23,0.0419498579196597,1
63,145,23,0.0422394480433113,1
63,146,23,0.0435353585750857,1
63,147,23,0.0435556797879037,1
64,141,23,0.0431875595443706,1
64,142,23,0.0449935089985802,1
64,143,23,0.0449413772614533,1
64,144,23,0.0426324041232365,1
64,145,23,0.0412278831024139,1
65,140,23,0.0411869757467717,1
65,141,23,0.0428971259700872,1
65,142,23,0.0436704052940325,1
65,143,23,0.043241002414691,1
65,144,23,0.0417440046015206,1
66,138,23,0.0604241814873919,1
66,140,23,0.0412831561524706,1
66,141,23,0.0416001124644096,1
67,136,23,0.229379210819145,1
67,137,23,0.146619997029324,1
67,138,23,0.0657698742704909,1
67,139,23,0.0410899464837062,1
68,136,23,0.129095071765538,1
68,137,23,0.0888734523005311,1
68,138,23,0.0537117093958757,1
69,136,23,0.0571230454761763,1
69,137,23,0.0509343940741494,1
69,138,23,0.0448613548827617,1
70,135,23,0.0430135600044188,1
70,136,23,0.0441991677391466,1
70,137,23,0.042999767423895,1
77,132,23,0.044317745543834,1
78,132,23,0.0724661315642843,1
78,133,23,0.0410735451536322,1
79,132,23,0.114300990937707,1
79,133,23,0.0476000120505306,1
80,133,23,0.0442033606619989,1
58,159,24,0.0427084579585709,1
58,160,24,0.0481480278783358,1
59,144,24,0.0518285328448759,1
59,145,24,0.0429348271319815,1
59,146,24,0.0461302614774816,1
59,147,24,0.0441308725682778,1
59,160,24,0.0431167772754849,1
60,141,24,0.0571066846966134,1
60,142,24,0.0727643886838511,1
60,143,24,0.0575018142839359,1
60,144,24,0.0426292817338784,1
60,145,24,0.0417053897014418,1
60,146,24,0.0485140584188614,1
60,147,24,0.0486362127786318,1
60,148,24,0.0418560429604442,1
61,140,24,0.0411777870009465,1
61,142,24,0.0410191642148206,1
61,145,24,0.0411342844125911,1
61,146,24,0.047628289273635,1
61,147,24,0.0486241395397805,1
61,148,24,0.0424453365052268,1
62,140,24,0.0428673240477637,1
62,141,24,0.0414310411632456,1
62,145,24,0.041026149716207,1
62,146,24,0.0442770274239106,1
62,147,24,0.0444375993379388,1
63,137,24,0.044844434506145,1
63,138,24,0.0443174103262753,1
63,139,24,0.0425828595087207,1
63,140,24,0.0422882059779109,1
63,141,24,0.0428353269911036,1
63,142,24,0.0435779501286241,1
63,143,24,0.0433657466004398,1
63,144,24,0.0415797885482242,1
63,145,24,0.0417689918264876,1
63,146,24,0.0429348379454512,1
63,147,24,0.0422835724061709,1
64,136,24,0.0505514242334353,1
64,137,24,0.0487319876792192,1
64,138,24,0.0447305713742198,1
64,141,24,0.0421694308274026,1
64,142,24,0.0441537160228889,1
64,143,24,0.043877983360579,1
64,144,24,0.0416659556810379,1
65,136,24,0.0865425224122134,1
65,137,24,0.0681197601710847,1
65,138,24,0.0484656627354947,1
65,142,24,0.0420110945982221,1
65,143,24,0.0411883031001698,1
66,135,24,0.136243478072057,1
66,136,24,0.16425168367885,1
66,137,24,0.11722480173936,1
66,138,24,0.0601850740467472,1
67,135,24,0.176971232796959,1
67,136,24,0.192429476929982,1
67,137,24,0.136867966757145,1
67,138,24,0.0663994344728395,1
68,134,24,0.161095134570169,1
68,135,24,0.120530014428629,1
68,136,24,0.114724435595278,1
68,137,24,0.0848110263998318,1
68,138,24,0.0510971584191469,1
69,133,24,0.0954961293401699,1
69,134,24,0.0815681912101717,1
69,135,24,0.0649912828295857,1
69,136,24,0.0577072377666569,1
69,137,24,0.0506235284489843,1
69,138,24,0.0417358025847999,1
70,133,24,0.0448197176179189,1
70,134,24,0.0429619500172021,1
70,135,24,0.044290038731253,1
70,136,24,0.0453470770153474,1
70,137,24,0.0427705516046021,1
71,133,24,0.0429484926542371,1
71,136,24,0.0411754783251787,1
72,133,24,0.0412749568391173,1
77,131,24,0.0474221250682438,1
77,132,24,0.0415874255611564,1
78,131,24,0.0861776813533481,1
78,132,24,0.0568338284172273,1
79,131,24,0.143740521453188,1
79,132,24,0.0910800489149462,1
79,133,24,0.0452261824247899,1
80,131,24,0.112729285566172,1
80,132,24,0.0732658903720067,1
80,133,24,0.041888678011813,1
81,132,24,0.04626324012036,1
57,147,25,0.0425339961427921,1
58,144,25,0.0477982553894116,1
58,145,25,0.043484646105849,1
58,146,25,0.0427085958303088,1
58,147,25,0.0410911521855709,1
58,160,25,0.0425133478225176,1
59,141,25,0.0651017802690858,1
59,142,25,0.0822179401603352,1
59,143,25,0.067981407233796,1
59,144,25,0.0479199880238661,1
59,145,25,0.0425937432659118,1
59,146,25,0.0458443587469767,1
59,147,25,0.0471864725311486,1
60,140,25,0.0452020062100459,1
60,141,25,0.0506890040076449,1
60,142,25,0.0602494141910958,1
60,143,25,0.0522347894924564,1
60,144,25,0.0416864255790635,1
60,145,25,0.0426208093804167,1
60,146,25,0.0517887068361976,1
60,147,25,0.0556210545434004,1
60,148,25,0.0439573839647664,1
61,137,25,0.0453891603358127,1
61,138,25,0.0442913147206703,1
61,139,25,0.0434087652860288,1
61,140,25,0.0420320592124836,1
61,141,25,0.0414152129470624,1
61,142,25,0.0420697522642757,1
61,145,25,0.0410051823985781,1
61,146,25,0.0490754775422835,1
61,147,25,0.0521394957912679,1
61,148,25,0.0419437564194163,1
62,137,25,0.0449697409923149,1
62,138,25,0.0453158747487058,1
62,139,25,0.043693462314669,1
62,140,25,0.0416015993164849,1
62,146,25,0.0428837551148793,1
62,147,25,0.0433316895778136,1
63,136,25,0.0451226191226954,1
63,137,25,0.046269279443153,1
63,138,25,0.0447440882112679,1
63,139,25,0.0416055029790244,1
63,143,25,0.0410087373267217,1
64,135,25,0.0482607637060511,1
64,136,25,0.0508034213298889,1
64,137,25,0.0494649408715155,1
64,138,25,0.04420923507938,1
65,135,25,0.0582735932389689,1
65,136,25,0.066850518358806,1
65,137,25,0.059018425027663,1
65,138,25,0.0463145986944076,1
66,134,25,0.0864594911855949,1
66,135,25,0.0900874318762226,1
66,136,25,0.10858230914637,1
66,137,25,0.0885346392630854,1
66,138,25,0.054681185609573,1
67,133,25,0.150594476981454,1
67,134,25,0.145204243516914,1
67,135,25,0.121989443544908,1
67,136,25,0.132994462984499,1
67,137,25,0.106915142464867,1
67,138,25,0.0615400396395845,1
68,133,25,0.150703887667255,1
68,134,25,0.138863668273202,1
68,135,25,0.0994620882782249,1
68,136,25,0.0937616704371073,1
68,137,25,0.0765116343849995,1
68,138,25,0.0495434196274163,1
69,133,25,0.0851687900428187,1
69,134,25,0.0796110505268452,1
69,135,25,0.063402616530923,1
69,136,25,0.0589314414778916,1
69,137,25,0.0522279878200538,1
70,133,25,0.0483302618754172,1
70,134,25,0.0472539161412834,1
70,135,25,0.0470965531243704,1
70,136,25,0.0471868131554422,1
70,137,25,0.0439453026158129,1
71,133,25,0.044093214660262,1
71,134,25,0.0422428569896148,1
71,135,25,0.0421865323296357,1
71,136,25,0.0421360847904051,1
72,133,25,0.0420995541865991,1
78,130,25,0.047727994870436,1
78,131,25,0.0542666296240451,1
78,132,25,0.0430425995771328,1
79,130,25,0.0651030941056469,1
79,131,25,0.0811619399693261,1
79,132,25,0.0602292957308335,1
80,130,25,0.0559243939936972,1
80,131,25,0.0715716143221205,1
80,132,25,0.0547854707107659,1
81,131,25,0.0461671191887441,1
56,147,26,0.0476342042415272,1
57,144,26,0.0455631220286207,1
57,145,26,0.0446449611350925,1
57,146,26,0.0443434680847364,1
57,147,26,0.0419009296729133,1
58,141,26,0.0508323852083154,1
58,142,26,0.0514494180060879,1
58,143,26,0.0479434640664511,1
58,144,26,0.0439954852250374,1
58,145,26,0.0413215628932589,1
59,140,26,0.0501182420464552,1
59,141,26,0.0504556493328479,1
59,142,26,0.0544191860537038,1
59,143,26,0.0503403507128282,1
59,144,26,0.0429784324482984,1
59,146,26,0.0420381553059922,1
59,147,26,0.045218810341864,1
60,137,26,0.0495759843912324,1
60,138,26,0.0483652056025538,1
60,139,26,0.04690098071249,1
60,140,26,0.0462044689128752,1
60,141,26,0.0468361215215988,1
60,142,26,0.049834799380293,1
60,143,26,0.0455444471665552,1
60,145,26,0.0413934427293128,1
60,146,26,0.0501057903361666,1
60,147,26,0.0554521157072394,1
60,148,26,0.0427102232574894,1
61,136,26,0.0450902462979654,1
61,137,26,0.0456084737202843,1
61,138,26,0.0442073751626021,1
61,139,26,0.0425529981123142,1
61,140,26,0.0414869413945414,1
61,146,26,0.0469032353209096,1
61,147,26,0.050084963593643,1
62,136,26,0.0437458319481279,1
62,137,26,0.0444134609703385,1
62,138,26,0.0433685878395873,1
63,135,26,0.0440819983888795,1
63,136,26,0.0452186211061453,1
63,137,26,0.0448364379453473,1
63,138,26,0.0419405177852595,1
64,134,26,0.0434698370591792,1
64,135,26,0.04795306642749,1
64,136,26,0.0485003523460947,1
64,137,26,0.0459106615360646,1
65,133,26,0.0434380724921163,1
65,134,26,0.0474842268243772,1
65,135,26,0.0500018728929414,1
65,136,26,0.0515130660883796,1
65,137,26,0.0475720484180456,1
66,133,26,0.0603221455878838,1
66,134,26,0.0649940672980176,1
66,135,26,0.0611422337185264,1
66,136,26,0.0649969112405325,1
66,137,26,0.0578491429287218,1
66,138,26,0.0427622928171658,1
67,132,26,0.0677774057223324,1
67,133,26,0.0931144085849606,1
67,134,26,0.0975131117644754,1
67,135,26,0.0807340023151206,1
67,136,26,0.0817894996797915,1
67,137,26,0.0708397208498487,1
67,138,26,0.0479242539376385,1
68,132,26,0.0780433785794855,1
68,133,26,0.103585426453397,1
68,134,26,0.104819135204444,1
68,135,26,0.08027197519788,1
68,136,26,0.0730692906805107,1
68,137,26,0.0618765926618757,1
68,138,26,0.0427869286043695,1
69,133,26,0.0705286011081471,1
69,134,26,0.0723612841626702,1
69,135,26,0.0622655747917088,1
69,136,26,0.0583106401859502,1
69,137,26,0.0502179260163169,1
70,133,26,0.050312127557072,1
70,134,26,0.0513565465220984,1
70,135,26,0.050753684776287,1
70,136,26,0.0487972415617522,1
70,137,26,0.0434548658104648,1
71,133,26,0.0445474047153821,1
71,134,26,0.0433737458646048,1
71,135,26,0.0427220126427627,1
71,136,26,0.042104595966818,1
72,133,26,0.0413458661662712,1
78,168,26,0.046175586135471,1
79,129,26,0.0414219118915034,1
79,130,26,0.0426778936866379,1
79,131,26,0.0443348875965783,1
80,131,26,0.0436045350437301,1
56,144,27,0.0494555818135434,1
56,145,27,0.0497772176544685,1
56,146,27,0.0517353639904713,1
56,147,27,0.0474811557989999,1
56,148,27,0.0420289395264929,1
57,142,27,0.0475962705900357,1
57,143,27,0.0461843288256736,1
57,144,27,0.0455967951730748,1
57,145,27,0.0449584301030731,1
57,146,27,0.0446018802720531,1
57,147,27,0.0414640871264606,1
58,140,27,0.0510926329821032,1
58,141,27,0.0469973882010513,1
58,142,27,0.043567469173177,1
58,143,27,0.0423843323162616,1
58,144,27,0.0417358539487807,1
59,137,27,0.0488794401512086,1
59,138,27,0.0512507583486257,1
59,139,27,0.0514164369236907,1
59,140,27,0.0486225121125999,1
59,141,27,0.0442695661298601,1
59,142,27,0.0416252240442774,1
59,147,27,0.0415713405250692,1
60,136,27,0.0456774204026988,1
60,137,27,0.0469196934216993,1
60,138,27,0.0477787262632447,1
60,139,27,0.0468291360202124,1
60,140,27,0.0445306762778515,1
60,141,27,0.0417586811831874,1
60,146,27,0.0425811969377638,1
60,147,27,0.0466091684208277,1
61,135,27,0.0431270960288874,1
61,136,27,0.0453504454111398,1
61,137,27,0.0453615968017044,1
61,138,27,0.0431120761195596,1
61,147,27,0.0413291593556798,1
62,135,27,0.0435580317175501,1
62,136,27,0.0445205792005766,1
62,137,27,0.0431217136243748,1
63,134,27,0.042299076218265,1
63,135,27,0.0447494625056782,1
63,136,27,0.0442715233678646,1
63,137,27,0.0417263597224381,1
64,134,27,0.0436724274128549,1
64,135,27,0.0467291006125874,1
64,136,27,0.0451014409424086,1
64,137,27,0.0410502448299288,1
65,133,27,0.0419672405721035,1
65,134,27,0.0452187616812506,1
65,135,27,0.0467043161401761,1
65,136,27,0.0441673220710615,1
66,132,27,0.0431778382351656,1
66,133,27,0.0487555340093569,1
66,134,27,0.0524065019835796,1
66,135,27,0.0502213809198664,1
66,136,27,0.0463296942980229,1
66,137,27,0.0417047490033658,1
67,131,27,0.0495284213450278,1
67,132,27,0.0518475699581744,1
67,133,27,0.0593008187872702,1
67,134,27,0.0638504239355891,1
67,135,27,0.0588005119875097,1
67,136,27,0.0538905858106343,1
67,137,27,0.0475552172525534,1
68,131,27,0.0575727993053773,1
68,132,27,0.0612020484258313,1
68,133,27,0.0678854863513684,1
68,134,27,0.0710362935076707,1
68,135,27,0.0634694924339018,1
68,136,27,0.0560059924355887,1
68,137,27,0.0480576218654239,1
69,132,27,0.0543994244379396,1
69,133,27,0.0575828287984669,1
69,134,27,0.0608537790091869,1
69,135,27,0.0577834673208729,1
69,136,27,0.0518946247713059,1
69,137,27,0.0442260932785462,1
70,132,27,0.0473052747153311,1
70,133,27,0.0502578385327523,1
70,134,27,0.0517402895258916,1
70,135,27,0.0507397840610669,1
70,136,27,0.0461785111790082,1
71,132,27,0.0431691739426179,1
71,133,27,0.0452093188188888,1
71,134,27,0.0438569079082537,1
71,135,27,0.0418446131230364,1
72,132,27,0.0411458737486761,1
72,133,27,0.0410029467137303,1
74,131,27,0.0437251376706074,1
78,168,27,0.0413175916465341,1
55,147,28,0.0556289700031757,1
55,148,28,0.0474275858704112,1
56,143,28,0.0531895485739759,1
56,144,28,0.0523382311430175,1
56,145,28,0.0515809963046481,1
56,146,28,0.0510871018923831,1
56,147,28,0.0473584823926869,1
56,148,28,0.0424913802589471,1
57,141,28,0.0486489402323962,1
57,142,28,0.0473905767705737,1
57,143,28,0.0480229430682935,1
57,144,28,0.0478732413946192,1
57,145,28,0.046840571264355,1
57,146,28,0.0443047180162872,1
58,139,28,0.0502846991913341,1
58,140,28,0.0496358531658855,1
58,141,28,0.0464976382949771,1
58,142,28,0.0428581515221429,1
58,143,28,0.0426974282195397,1
58,144,28,0.0427031242146718,1
58,145,28,0.0414794449567145,1
59,137,28,0.0462667599047273,1
59,138,28,0.0489016618313156,1
59,139,28,0.0508071952307927,1
59,140,28,0.0470941903812544,1
59,141,28,0.0416321365547438,1
60,136,28,0.0437306579468578,1
60,137,28,0.045988642872362,1
60,138,28,0.0467750794854899,1
60,139,28,0.0456158214729036,1
60,140,28,0.0409882214714502,1
61,135,28,0.0429496848392647,1
61,136,28,0.0458795565906497,1
61,137,28,0.0452759324952289,1
61,138,28,0.0410172475273272,1
62,134,28,0.0417568510034511,1
62,135,28,0.0447363863175179,1
62,136,28,0.0455790989300115,1
62,137,28,0.041563841383875,1
63,134,28,0.043201917128683,1
63,135,28,0.0452441463012268,1
63,136,28,0.043503621041697,1
64,133,28,0.0416229937661645,1
64,134,28,0.0438813112058602,1
64,135,28,0.0451747968170682,1
64,136,28,0.0420712850735969,1
65,133,28,0.0421417753788023,1
65,134,28,0.0441300858883616,1
65,135,28,0.0439786243225037,1
66,132,28,0.0425767661185795,1
66,133,28,0.0448371327107716,1
66,134,28,0.0463625023649058,1
66,135,28,0.0443365366506982,1
67,131,28,0.048050798566082,1
67,132,28,0.0468411551917155,1
67,133,28,0.0473835372018391,1
67,134,28,0.0485668065237576,1
67,135,28,0.0463630538518574,1
68,130,28,0.0545124306023959,1
68,131,28,0.0537322117343101,1
68,132,28,0.0520204557107534,1
68,133,28,0.0506431711165824,1
68,134,28,0.0515336062739578,1
68,135,28,0.049703123760506,1
68,136,28,0.0425030966533004,1
69,129,28,0.0596931206522823,1
69,130,28,0.0562227430277559,1
69,131,28,0.0524927610308853,1
69,132,28,0.0506143153728523,1
69,133,28,0.0494427516318175,1
69,134,28,0.0508553476110926,1
69,135,28,0.0495777091396397,1
69,136,28,0.0423121875502015,1
70,130,28,0.0672969957067065,1
70,131,28,0.0522519883159163,1
70,132,28,0.0482110163389796,1
70,133,28,0.0478226830173248,1
70,134,28,0.0475861924363327,1
70,135,28,0.04516106100726,1
71,130,28,0.095114197592541,1
71,131,28,0.056714512593237,1
71,132,28,0.0455046968521644,1
71,133,28,0.0436834598552535,1
72,130,28,0.088429413390034,1
72,131,28,0.0536547440378205,1
72,132,28,0.0417552154661682,1
73,129,28,0.0734783534234623,1
73,130,28,0.0596240333947625,1
73,131,28,0.0456706673909096,1
74,129,28,0.049351523795213,1
74,130,28,0.0462328272370019,1
74,131,28,0.0422372637224444,1
75,129,28,0.0445774715677117,1
76,128,28,0.0462527618682803,1
76,129,28,0.0412432247124634,1
77,126,28,0.0427788130954059,1
77,127,28,0.0430656106405233,1
77,128,28,0.04110777789514,1
55,144,29,0.0569696239689465,1
55,145,29,0.0560450723148619,1
55,146,29,0.0554284990895491,1
55,147,29,0.0512127868499904,1
55,148,29,0.0452848427942109,1
56,141,29,0.0480989617598515,1
56,142,29,0.0507448988322058,1
56,143,29,0.0530356080202034,1
56,144,29,0.0529316743567737,1
56,145,29,0.052491512075142,1
56,146,29,0.0508117747351846,1
56,147,29,0.04665620160702,1
56,148,29,0.0423276913622956,1
57,139,29,0.0452831234525384,1
57,140,29,0.0464909880111495,1
57,141,29,0.0483172532714422,1
57,142,29,0.0485569392327125,1
57,143,29,0.0490362300542308,1
57,144,29,0.0480774429552711,1
57,145,29,0.0472009571737293,1
57,146,29,0.0445162592194561,1
58,138,29,0.0442659084737549,1
58,139,29,0.0468311256986258,1
58,140,29,0.0469527015377705,1
58,141,29,0.0461351005051447,1
58,142,29,0.0433733727999023,1
58,143,29,0.0428148841267522,1
58,144,29,0.0420216431378544,1
59,137,29,0.0442400345442776,1
59,138,29,0.045689255745218,1
59,139,29,0.0466030371835427,1
59,140,29,0.0431813661296352,1
60,136,29,0.0424409894904321,1
60,137,29,0.0449840796530554,1
60,138,29,0.0442494395594956,1
60,139,29,0.041261075047469,1
61,135,29,0.0421113895291184,1
61,136,29,0.0447800375910808,1
61,137,29,0.0436238424937695,1
62,134,29,0.0426492163651569,1
62,135,29,0.0448583865853459,1
62,136,29,0.0444651736855168,1
63,133,29,0.0425323281651004,1
63,134,29,0.0447008100024075,1
63,135,29,0.045335068657314,1
63,136,29,0.0417040272042674,1
64,132,29,0.0428255894616942,1
64,133,29,0.0435897908778781,1
64,134,29,0.0449140786573512,1
64,135,29,0.0437607680530659,1
65,132,29,0.0430429699384679,1
65,133,29,0.0447047839524996,1
65,134,29,0.0446846654922374,1
65,135,29,0.0416613896934831,1
66,131,29,0.0440181637742366,1
66,132,29,0.0436566748909591,1
66,133,29,0.0454245041613259,1
66,134,29,0.0445675772429926,1
67,130,29,0.0486698751096161,1
67,131,29,0.0459537640260433,1
67,132,29,0.0446505571056304,1
67,133,29,0.0444801935948445,1
67,134,29,0.0433149665470178,1
68,129,29,0.0529701378682776,1
68,130,29,0.0498539824754316,1
68,131,29,0.0482718204787564,1
68,132,29,0.0465186488664845,1
68,133,29,0.0445902584955592,1
68,134,29,0.0434621567923685,1
68,135,29,0.0410687710067868,1
69,128,29,0.0550006317228963,1
69,129,29,0.0535061723717235,1
69,130,29,0.0511606767398029,1
69,131,29,0.0493944640831471,1
69,132,29,0.0478501816706153,1
69,133,29,0.0460704089230329,1
69,134,29,0.044207783371081,1
69,135,29,0.0411505613877644,1
70,127,29,0.0523784572500724,1
70,128,29,0.0552585708209162,1
70,129,29,0.0587612536859874,1
70,130,29,0.0550857175087461,1
70,131,29,0.0504261664078787,1
70,132,29,0.047441378450935,1
70,133,29,0.0458047057538126,1
70,134,29,0.0424949730342345,1
71,126,29,0.0543768188796605,1
71,127,29,0.0552422587019667,1
71,128,29,0.0621741847530597,1
71,129,29,0.071649054984936,1
71,130,29,0.064290970095393,1
71,131,29,0.0523243790884107,1
71,132,29,0.0454065700219306,1
71,133,29,0.0422397643372982,1
72,126,29,0.0558226879050131,1
72,127,29,0.0558607945720189,1
72,128,29,0.0630237666221411,1
72,129,29,0.0729685361771547,1
72,130,29,0.0641572182894354,1
72,131,29,0.050291252153935,1
72,132,29,0.0417887210018429,1
73,126,29,0.0530370786520742,1
73,127,29,0.0518716785887332,1
73,128,29,0.053750367549833,1
73,129,29,0.0582271115397282,1
73,130,29,0.0524240576515376,1
73,131,29,0.0442110301153399,1
74,125,29,0.0476883905378853,1
74,126,29,0.0499942602103159,1
74,127,29,0.0506649061905557,1
74,128,29,0.049545522847261,1
74,129,29,0.0490715955066833,1
74,130,29,0.0455907936974254,1
75,124,29,0.0412901308403874,1
75,125,29,0.045091933199229,1
75,126,29,0.0485837458239462,1
75,127,29,0.0509036135328237,1
75,128,29,0.0475881010137238,1
75,129,29,0.0430442459278852,1
76,125,29,0.0421547623558381,1
76,126,29,0.043909247804671,1
76,127,29,0.045569723651835,1
76,128,29,0.0429498010840633,1
55,143,30,0.0530255082395611,1
55,144,30,0.0550126725213387,1
55,145,30,0.0530793268779515,1
55,146,30,0.050755571726739,1
55,147,30,0.0461314779928159,1
55,148,30,0.042313833900954,1
55,151,30,0.0412463227715148,1
56,140,30,0.0435948380648319,1
56,141,30,0.0455969195279756,1
56,142,30,0.049493785801776,1
56,143,30,0.0514349279567724,1
56,144,30,0.0523743210979357,1
56,145,30,0.051590631106096,1
56,146,30,0.0500756748232236,1
56,147,30,0.0455294434774319,1
56,148,30,0.0421647918489277,1
56,149,30,0.0420778731799741,1
56,150,30,0.0456236071710432,1
56,151,30,0.0448316881288087,1
57,139,30,0.043438994340403,1
57,140,30,0.0456252670386327,1
57,141,30,0.0485317330349854,1
57,142,30,0.0512433294949841,1
57,143,30,0.0501313533783918,1
57,144,30,0.0484211328675237,1
57,145,30,0.046994376649757,1
57,146,30,0.0457315634451783,1
57,147,30,0.0419232405641448,1
58,137,30,0.0432394452750631,1
58,138,30,0.0440206211352119,1
58,139,30,0.0450312939648642,1
58,140,30,0.0453076754353524,1
58,141,30,0.0448152462482235,1
58,142,30,0.0436431986044223,1
58,143,30,0.0416583781421888,1
59,137,30,0.0440580222233238,1
59,138,30,0.0443940886394813,1
59,139,30,0.0426115936009174,1
60,136,30,0.0420926146424587,1
60,137,30,0.0442216786795664,1
60,138,30,0.0414886201857027,1
61,135,30,0.0411097486499816,1
61,136,30,0.0426166759316475,1
62,134,30,0.0433234848577254,1
62,135,30,0.0438931600652165,1
62,136,30,0.0410673490355293,1
63,133,30,0.0433637244816174,1
63,134,30,0.0455129799699074,1
63,135,30,0.0438522932600855,1
64,132,30,0.0441848858491216,1
64,133,30,0.0448232806561648,1
64,134,30,0.0444817561412073,1
65,131,30,0.0452551327863794,1
65,132,30,0.0452143497856381,1
65,133,30,0.0463261420732466,1
65,134,30,0.0435661255995744,1
66,131,30,0.0453119710861663,1
66,132,30,0.0450205237491043,1
66,133,30,0.0460351624187465,1
66,134,30,0.0423520811430651,1
67,130,30,0.0468306553126966,1
67,131,30,0.0444504592567063,1
67,132,30,0.0427564724671329,1
67,133,30,0.0425896909181648,1
68,129,30,0.0503446112198658,1
68,130,30,0.0457251618711524,1
68,131,30,0.0444114361481487,1
68,132,30,0.042590088313174,1
68,133,30,0.0414198519255372,1
69,128,30,0.0524794550564952,1
69,129,30,0.0487706890870551,1
69,130,30,0.045680345446236,1
69,131,30,0.045489963499782,1
69,132,30,0.0445128367563155,1
69,133,30,0.0433303405974762,1
70,127,30,0.0505728511235238,1
70,128,30,0.0486110768684573,1
70,129,30,0.0475541467190592,1
70,130,30,0.0464383047870711,1
70,131,30,0.0465614702062527,1
70,132,30,0.0450350462388287,1
70,133,30,0.0434366207838174,1
71,126,30,0.0547155886632276,1
71,127,30,0.0507371942350885,1
71,128,30,0.0470653454509939,1
71,129,30,0.0475754276273076,1
71,130,30,0.0469721009023019,1
71,131,30,0.0458991343774301,1
71,132,30,0.0424995471318915,1
72,125,30,0.0541939847350142,1
72,126,30,0.0543806090007688,1
72,127,30,0.0503804470582475,1
72,128,30,0.0477776557297505,1
72,129,30,0.0491669270550156,1
72,130,30,0.0472641997509096,1
72,131,30,0.0441761674892257,1
73,124,30,0.0470082449245683,1
73,125,30,0.0504570064232875,1
73,126,30,0.0501468707073229,1
73,127,30,0.0484587258947216,1
73,128,30,0.0477726869404516,1
73,129,30,0.0485302299627056,1
73,130,30,0.0450472438325808,1
73,131,30,0.0410799278040862,1
74,124,30,0.0430376497114058,1
74,125,30,0.0453423163853391,1
74,126,30,0.0461104295741647,1
74,127,30,0.047295558812861,1
74,128,30,0.0472563383584824,1
74,129,30,0.0466462856553616,1
74,130,30,0.0420808793245336,1
75,125,30,0.0423244446180367,1
75,126,30,0.0441868998578418,1
75,127,30,0.0456363562517469,1
75,128,30,0.0433915989029778,1
55,142,31,0.0444062889366008,1
55,143,31,0.0479548668701848,1
55,144,31,0.0495271832027542,1
55,145,31,0.0480700735757125,1
55,146,31,0.04495044976248,1
55,150,31,0.041400822922341,1
56,140,31,0.0417367947206392,1
56,141,31,0.0432640378083883,1
56,142,31,0.0462760108280029,1
56,143,31,0.0475884632649567,1
56,144,31,0.0484872247939537,1
56,145,31,0.0479606466697065,1
56,146,31,0.0464039179536209,1
56,147,31,0.0426396924017728,1
56,149,31,0.0426227071443383,1
56,150,31,0.0468677455135563,1
56,151,31,0.0456290679732106,1
57,138,31,0.0420374362102613,1
57,139,31,0.0421506532373755,1
57,140,31,0.0440856614517195,1
57,141,31,0.0461900815915213,1
57,142,31,0.0489056952554907,1
57,143,31,0.0479203070212204,1
57,144,31,0.0463498343852244,1
57,145,31,0.0451708526040176,1
57,146,31,0.0447242454944814,1
57,147,31,0.0412977083792365,1
58,137,31,0.0427470890788542,1
58,138,31,0.044101946536995,1
58,139,31,0.0429758858761986,1
58,140,31,0.042475460128272,1
58,141,31,0.0411350467622006,1
59,137,31,0.043803859729575,1
59,138,31,0.043138141988123,1
60,136,31,0.0416422768858972,1
60,137,31,0.0427271436341061,1
62,134,31,0.0416443990293138,1
63,132,31,0.0437582566247424,1
63,133,31,0.044507619257215,1
63,134,31,0.0439346432381168,1
64,132,31,0.0463670980895021,1
64,133,31,0.046295448039678,1
64,134,31,0.0426808673907885,1
65,131,31,0.0467563289291369,1
65,132,31,0.0472387340299111,1
65,133,31,0.0473110977687314,1
65,134,31,0.0419290122535643,1
66,130,31,0.0470956393861859,1
66,131,31,0.0459504605110688,1
66,132,31,0.0458364000333228,1
66,133,31,0.0457307902820992,1
67,130,31,0.0450220349314863,1
67,131,31,0.0429834012375973,1
67,132,31,0.0411479580449489,1
68,129,31,0.0469623363392184,1
68,130,31,0.0426902453723324,1
68,131,31,0.0415912724529802,1
69,128,31,0.0477439393314179,1
69,129,31,0.0442780384833218,1
69,130,31,0.0415890989455829,1
69,131,31,0.0414250072471874,1
70,125,31,0.0514369338553903,1
70,127,31,0.0471612663334215,1
70,128,31,0.0435282487187985,1
70,129,31,0.0418095126005901,1
70,131,31,0.0417299011337447,1
70,132,31,0.0410982106778774,1
71,126,31,0.0537465666152551,1
71,127,31,0.0466715621406414,1
72,125,31,0.0537447175119469,1
72,126,31,0.0530642312743363,1
72,127,31,0.0460967613485417,1
73,124,31,0.0467114259964634,1
73,125,31,0.0486560663088879,1
73,126,31,0.0478435097598484,1
73,127,31,0.0444919694632808,1
73,128,31,0.0421898385479777,1
74,124,31,0.042991887107896,1
74,125,31,0.0437196011741525,1
74,126,31,0.043590377508606,1
74,127,31,0.0432507291306308,1
74,128,31,0.0427717032391186,1
55,142,32,0.0409875456295978,1
55,143,32,0.0426602839513318,1
55,144,32,0.0436355318544486,1
55,145,32,0.0429171254821834,1
56,142,32,0.0417317340168484,1
56,143,32,0.0427766936553567,1
56,144,32,0.0431991461770881,1
56,145,32,0.0438655613873318,1
56,146,32,0.0422545436469265,1
56,150,32,0.0433184457808739,1
57,140,32,0.0413229875678837,1
57,141,32,0.0423103600738326,1
57,142,32,0.0431222975517353,1
57,143,32,0.0424925237833614,1
57,144,32,0.0409846773567762,1
57,145,32,0.0416345641786776,1
57,146,32,0.0418231619026412,1
58,137,32,0.0417150947904423,1
58,138,32,0.0428949524626899,1
59,137,32,0.043626518827505,1
59,138,32,0.041697728358203,1
60,136,32,0.0416270947745249,1
60,137,32,0.0414113849788104,1
62,132,32,0.0434315735968636,1
62,133,32,0.0428672645736807,1
63,131,32,0.0464320924487638,1
63,132,32,0.0472519805302182,1
63,133,32,0.0463731374122952,1
63,134,32,0.041737070464115,1
64,131,32,0.0475950594814362,1
64,132,32,0.0489356864135329,1
64,133,32,0.0465896663283348,1
65,130,32,0.0455659659711357,1
65,131,32,0.0475666524966961,1
65,132,32,0.0486530060969802,1
65,133,32,0.0460958638305618,1
66,130,32,0.0455119959441703,1
66,131,32,0.0450376874287879,1
66,132,32,0.0453556007327899,1
66,133,32,0.0432717937694864,1
67,129,32,0.0468054707419087,1
67,130,32,0.0419801221178102,1
68,128,32,0.0451075721796936,1
68,129,32,0.0422723453213188,1
69,125,32,0.0546819803995914,1
69,127,32,0.0461488173913811,1
69,128,32,0.042443054863133,1
70,124,32,0.0528150240530493,1
70,125,32,0.0554261850070465,1
70,126,32,0.0524574928996596,1
70,127,32,0.0448871909650952,1
71,125,32,0.0556127984593314,1
71,126,32,0.0541331265278892,1
71,127,32,0.0453534731826385,1
72,124,32,0.0491032249053757,1
72,125,32,0.0529976040811592,1
72,126,32,0.0530301850651797,1
72,127,32,0.045173515420916,1
73,124,32,0.0461242708153019,1
73,125,32,0.0479295957916398,1
73,126,32,0.0478323448524467,1
73,127,32,0.04346532784234,1
74,124,32,0.0432684091534896,1
74,125,32,0.0432919987375058,1
74,126,32,0.0427369487477007,1
54,144,33,0.0412829723234868,1
55,144,33,0.0417633228650296,1
56,144,33,0.0418779456431968,1
56,145,33,0.0422829614451363,1
59,137,33,0.0416240697063935,1
61,132,33,0.0416023292256855,1
62,131,33,0.0466439445391849,1
62,132,33,0.0470001942964225,1
62,133,33,0.0441328595433238,1
63,130,33,0.0434620378442025,1
63,131,33,0.0477355264520392,1
63,132,33,0.0489865583814468,1
63,133,33,0.0450175338247493,1
64,130,33,0.0428146732640943,1
64,131,33,0.0467595405296195,1
64,132,33,0.0478322691581593,1
64,133,33,0.0431336922453668,1
65,130,33,0.0448594868558816,1
65,131,33,0.0465720079324153,1
65,132,33,0.0468393709692251,1
65,133,33,0.0420029493522169,1
66,129,33,0.0518275542258737,1
66,130,33,0.0455532979914542,1
66,131,33,0.0442906253619809,1
66,132,33,0.0439635422357255,1
67,129,33,0.046845204836095,1
67,130,33,0.041311690195479,1
68,128,33,0.0428646909679067,1
68,129,33,0.0416295629489699,1
69,125,33,0.0558773391805657,1
69,126,33,0.0509368325115529,1
69,127,33,0.043388425149639,1
70,124,33,0.0542592332108124,1
70,125,33,0.0568765632492383,1
70,126,33,0.0516745382237553,1
70,127,33,0.0433190161913974,1
71,124,33,0.0511059713969022,1
71,125,33,0.0544754269092932,1
71,126,33,0.0521632692042679,1
71,127,33,0.0444241581951783,1
72,124,33,0.0472084455014539,1
72,125,33,0.0500403201842408,1
72,126,33,0.0507183247305694,1
72,127,33,0.044622009545785,1
73,124,33,0.0444831672989951,1
73,125,33,0.0458607735938878,1
73,126,33,0.0472319918315915,1
73,127,33,0.0433435519540069,1
74,124,33,0.0427328504427078,1
74,125,33,0.0418827008664703,1
74,126,33,0.041995366406633,1
84,127,33,0.0458655693676724,1
84,128,33,0.0471699711764804,1
85,127,33,0.0466552932755704,1
85,128,33,0.0472029252252035,1
61,132,34,0.0425490376790592,1
61,133,34,0.0418975207266098,1
62,131,34,0.0485122525694318,1
62,132,34,0.0502569410147723,1
62,133,34,0.0450246653079758,1
63,130,34,0.0428221048211033,1
63,131,34,0.0486637817194749,1
63,132,34,0.050444700694839,1
63,133,34,0.0436679317128527,1
64,131,34,0.0451111811751854,1
64,132,34,0.0461747534983088,1
65,130,34,0.0427234021736112,1
65,131,34,0.04407570494955,1
65,132,34,0.0443016334740728,1
66,129,34,0.0503576955181283,1
66,130,34,0.0440612284170715,1
66,131,34,0.0424073379729174,1
66,132,34,0.0423546817825131,1
67,128,34,0.0479139054471945,1
67,129,34,0.0457587322876449,1
68,127,34,0.0432735671785071,1
68,128,34,0.0412717966026155,1
69,125,34,0.0548603431745423,1
69,126,34,0.0493932962284262,1
69,127,34,0.0422952806904219,1
70,124,34,0.0534989760076791,1
70,125,34,0.0556801771886484,1
70,126,34,0.0494506184309794,1
70,127,34,0.0420346544451968,1
71,125,34,0.0517668528140584,1
71,126,34,0.0484161424512855,1
71,127,34,0.0428487329900879,1
72,124,34,0.04544965088497,1
72,125,34,0.0464817803417524,1
72,126,34,0.0469926627148193,1
72,127,34,0.0436342423481942,1
73,124,34,0.0432490178990605,1
73,125,34,0.0436705810129141,1
73,126,34,0.045799818065536,1
73,127,34,0.043113695436638,1
74,124,34,0.0420323079222852,1
75,123,34,0.045455782122255,1
76,123,34,0.0414694100568901,1
83,127,34,0.0413381345354797,1
83,128,34,0.0426067410564172,1
84,126,34,0.042757634915119,1
84,127,34,0.0525821505776512,1
84,128,34,0.055254721225725,1
84,129,34,0.0453022200399199,1
85,126,34,0.0467634009382804,1
85,127,34,0.0565205351681283,1
85,128,34,0.0569405627692932,1
85,129,34,0.0450841258741501,1
86,126,34,0.0426342397097077,1
86,127,34,0.0467581888459147,1
86,128,34,0.0456372267360528,1
61,132,35,0.0417804351807324,1
61,133,35,0.0420243086581202,1
61,134,35,0.041154908402559,1
62,131,35,0.047975407055763,1
62,132,35,0.0511654779203224,1
62,133,35,0.045429494577564,1
63,130,35,0.0434102926886152,1
63,131,35,0.0494968460136836,1
63,132,35,0.0519059086268736,1
63,133,35,0.0440888027646495,1
64,130,35,0.0416170842050071,1
64,131,35,0.0444118632801994,1
64,132,35,0.0455735732470263,1
64,133,35,0.0411796604345613,1
65,129,35,0.0477653500013019,1
65,130,35,0.0435180570236643,1
65,131,35,0.0421183371833611,1
65,132,35,0.0424240826306524,1
66,129,35,0.0522857966287408,1
66,130,35,0.0447920621693187,1
67,128,35,0.0489006940257829,1
67,129,35,0.0474034502061783,1
68,127,35,0.0466060541415718,1
68,128,35,0.0440769620153954,1
68,129,35,0.0414215550470053,1
69,126,35,0.0504207056057113,1
69,127,35,0.0458429529959237,1
69,128,35,0.0424188840551238,1
70,125,35,0.0528387055515575,1
70,126,35,0.0484661331214239,1
70,127,35,0.0431736317954763,1
71,125,35,0.049203038636873,1
71,126,35,0.0458438180734947,1
71,127,35,0.0423278184205639,1
72,124,35,0.0443780847044164,1
72,125,35,0.0445560149405817,1
72,126,35,0.0447251105720524,1
72,127,35,0.0437186090383132,1
73,124,35,0.0429548644912215,1
73,125,35,0.0429855666348924,1
73,126,35,0.0447335126379615,1
73,127,35,0.0433594612712125,1
74,123,35,0.0470928386975496,1
74,124,35,0.0423064807415999,1
75,123,35,0.047856858988117,1
75,124,35,0.0424300300389536,1
76,123,35,0.0442999654963811,1
83,127,35,0.0439654183727078,1
83,128,35,0.0431526401475407,1
84,125,35,0.0422911580551222,1
84,126,35,0.047608522251136,1
84,127,35,0.0567447308341415,1
84,128,35,0.0581709355649566,1
84,129,35,0.0457281734224467,1
85,125,35,0.0437699784258305,1
85,126,35,0.0527252235944371,1
85,127,35,0.0630715621579429,1
85,128,35,0.0629156643661659,1
85,129,35,0.0472611936063501,1
86,125,35,0.0422128036541223,1
86,126,35,0.0502830122900705,1
86,127,35,0.0561967744804193,1
86,128,35,0.0530538341232789,1
87,126,35,0.0416494354027978,1
87,127,35,0.0436075628152289,1
60,134,36,0.0415626113517036,1
61,133,36,0.0425729949210431,1
61,134,36,0.0445870820388529,1
61,135,36,0.0414531871490651,1
62,131,36,0.0442641729118779,1
62,132,36,0.048415650438417,1
62,133,36,0.0462082914743924,1
62,134,36,0.0429927602955693,1
63,130,36,0.0467483648087482,1
63,131,36,0.0493174938062609,1
63,132,36,0.0518857090655891,1
63,133,36,0.0465042669518654,1
64,130,36,0.0478504628208259,1
64,131,36,0.0455383051158006,1
64,132,36,0.0469775779246737,1
64,133,36,0.0448280818366843,1
65,129,36,0.0559820946676878,1
65,130,36,0.0506669985969307,1
65,131,36,0.0446526684355773,1
65,132,36,0.0449577245241792,1
65,133,36,0.0446657067765938,1
66,128,36,0.0513772272827818,1
66,129,36,0.057102840508157,1
66,130,36,0.0501688220506889,1
66,131,36,0.0429860991982721,1
66,132,36,0.0420540943602392,1
67,128,36,0.0478577835397711,1
67,129,36,0.0491242462903527,1
67,130,36,0.04271551374751,1
68,127,36,0.0483217841152207,1
68,128,36,0.0452268069026616,1
68,129,36,0.0410806847469609,1
69,126,36,0.0515459768832241,1
69,127,36,0.0492980349676465,1
69,128,36,0.0450968317009752,1
70,125,36,0.0504713288638236,1
70,126,36,0.0492443244639525,1
70,127,36,0.0455743626303099,1
70,128,36,0.0436616409768906,1
70,129,36,0.0414418735564559,1
71,124,36,0.0471854344380633,1
71,125,36,0.0472718556874136,1
71,126,36,0.0452824665342579,1
71,127,36,0.0430784516357189,1
71,128,36,0.0413233660393211,1
72,124,36,0.0455161375030418,1
72,125,36,0.04422747740266,1
72,126,36,0.043709493283408,1
72,127,36,0.0435453042637857,1
73,124,36,0.0454187568022131,1
73,125,36,0.0437429339382648,1
73,126,36,0.0439117592329945,1
73,127,36,0.0426863822603041,1
74,123,36,0.0489211909574826,1
74,124,36,0.0436123856226876,1
75,123,36,0.0489707166484265,1
75,124,36,0.0437658828242049,1
76,123,36,0.0465569663961483,1
76,124,36,0.0437088661021689,1
77,124,36,0.0412674090373097,1
83,126,36,0.0450222214638376,1
83,127,36,0.0461267416931143,1
83,128,36,0.0418074688548285,1
84,125,36,0.0459508660161802,1
84,126,36,0.0538227204751836,1
84,127,36,0.0582192879944448,1
84,128,36,0.0549013802918201,1
84,129,36,0.0410416832653426,1
85,125,36,0.0468242050780572,1
85,126,36,0.057122964375154,1
85,127,36,0.0653220236119463,1
85,128,36,0.0614846854885054,1
85,129,36,0.0443220520081175,1
86,125,36,0.0461188911141568,1
86,126,36,0.0564154120230384,1
86,127,36,0.06549521754841,1
86,128,36,0.0593906841267003,1
86,129,36,0.0417954848271017,1
87,125,36,0.0433015389210943,1
87,126,36,0.0479505360755946,1
87,127,36,0.0532088884644242,1
87,128,36,0.0485763494107135,1
60,134,37,0.043349829173132,1
60,135,37,0.0450824362695191,1
61,133,37,0.0432671899347879,1
61,134,37,0.0493041770184012,1
61,135,37,0.0487460938503625,1
62,132,37,0.044551489503538,1
62,133,37,0.0467835139918079,1
62,134,37,0.0466162890905846,1
62,135,37,0.0420025032965944,1
63,131,37,0.0469597897671185,1
63,132,37,0.0503802740427333,1
63,133,37,0.0499063250752163,1
63,134,37,0.0429650399661512,1
64,130,37,0.0533455058398359,1
64,131,37,0.0466517194238549,1
64,132,37,0.0491563622951788,1
64,133,37,0.0488616141465097,1
65,129,37,0.061141201032176,1
65,130,37,0.0546410784506841,1
65,131,37,0.0472964292971669,1
65,132,37,0.0484707775066336,1
65,133,37,0.0476036453763291,1
66,128,37,0.050676498230008,1
66,129,37,0.0575992112049691,1
66,130,37,0.0521425614099103,1
66,131,37,0.046177170308773,1
66,132,37,0.0456075437618954,1
66,133,37,0.0425332932672656,1
67,127,37,0.0465900177660981,1
67,128,37,0.0464810288056125,1
67,129,37,0.0475322007824281,1
67,130,37,0.0429429074971688,1
68,126,37,0.0494649624984548,1
68,127,37,0.0508804835212671,1
68,128,37,0.0460572705574223,1
69,126,37,0.0522414938436322,1
69,127,37,0.0526082326664191,1
69,128,37,0.0470120782995551,1
69,129,37,0.0415188654602814,1
70,125,37,0.0467220015697698,1
70,126,37,0.0493976108028119,1
70,127,37,0.0485981493655045,1
70,128,37,0.0464216412303583,1
70,129,37,0.0440738125923633,1
71,125,37,0.0453201190355389,1
71,126,37,0.0449239270248244,1
71,127,37,0.0439409826346924,1
71,128,37,0.0424644141690363,1
72,124,37,0.0489473595540075,1
72,125,37,0.0452643134221024,1
72,126,37,0.0426010261377133,1
72,127,37,0.0411850725761154,1
73,124,37,0.0497179328071759,1
73,125,37,0.0455158671663009,1
73,126,37,0.0425720000818363,1
74,124,37,0.0456776907394398,1
74,125,37,0.0419090370717747,1
75,123,37,0.0494020875792422,1
75,124,37,0.0447034836327756,1
76,123,37,0.0483053800817792,1
76,124,37,0.0460464462743142,1
77,123,37,0.0435262184898739,1
77,124,37,0.0429027570844014,1
81,126,37,0.043131040241938,1
82,126,37,0.0433525920146247,1
83,126,37,0.0473452467058495,1
83,127,37,0.0456984580078803,1
84,125,37,0.0459164359288515,1
84,126,37,0.0564278745467967,1
84,127,37,0.0567854273271257,1
84,128,37,0.0509128806763038,1
85,125,37,0.0458337074793828,1
85,126,37,0.0565488448316416,1
85,127,37,0.0620255482061449,1
85,128,37,0.0575339086618228,1
86,125,37,0.0468086390885127,1
86,126,37,0.0564570384744115,1
86,127,37,0.0647560412043368,1
86,128,37,0.0594012380730674,1
86,129,37,0.0420345733441745,1
87,125,37,0.0474571012357893,1
87,126,37,0.0523404262773541,1
87,127,37,0.0549944680452024,1
87,128,37,0.0486949839861165,1
88,125,37,0.0453843429350888,1
88,126,37,0.0463789604656955,1
88,127,37,0.0420825418954905,1
60,134,38,0.043018742359743,1
60,135,38,0.0472530456569775,1
61,133,38,0.0430340515293836,1
61,134,38,0.0512164958700764,1
61,135,38,0.0530672806727743,1
62,132,38,0.0411185508142672,1
62,133,38,0.047059062825134,1
62,134,38,0.047875879881211,1
62,135,38,0.0443968217439324,1
63,131,38,0.0439296203814698,1
63,132,38,0.0480305124970404,1
63,133,38,0.052469560731776,1
63,134,38,0.0450847179116128,1
64,129,38,0.0664147193121734,1
64,130,38,0.057206941780366,1
64,131,38,0.048050052436677,1
64,132,38,0.0503632482347876,1
64,133,38,0.0522393689968483,1
64,134,38,0.041469218117804,1
65,129,38,0.0647958618062802,1
65,130,38,0.0570961740041249,1
65,131,38,0.0497981525316884,1
65,132,38,0.0497562503368396,1
65,133,38,0.048170541522123,1
66,128,38,0.0494413621009689,1
66,129,38,0.0550640905694693,1
66,130,38,0.05160292061434,1
66,131,38,0.0478636714739892,1
66,132,38,0.046682489151711,1
66,133,38,0.0429339620544104,1
67,127,38,0.0475419112781634,1
67,128,38,0.0441528698688897,1
67,129,38,0.0448424367176293,1
67,130,38,0.0425028127997223,1
68,126,38,0.0527242233484955,1
68,127,38,0.0541652857865938,1
68,128,38,0.0465569123288001,1
69,126,38,0.0559881069568068,1
69,127,38,0.0611006883681756,1
69,128,38,0.0528315362211872,1
69,129,38,0.0434172187159186,1
70,125,38,0.0436700944067804,1
70,126,38,0.0524158772617561,1
70,127,38,0.0587672119077582,1
70,128,38,0.0546696584509385,1
70,129,38,0.0470395120720277,1
71,125,38,0.0434527301502112,1
71,126,38,0.0457171815305593,1
71,127,38,0.0489483597999491,1
71,128,38,0.0466636574943357,1
71,129,38,0.0418921248052602,1
72,124,38,0.0519293522290497,1
72,125,38,0.045692126721407,1
72,126,38,0.0412149123455826,1
73,123,38,0.0544337031366934,1
73,124,38,0.0525863678308102,1
73,125,38,0.0460870238191324,1
74,123,38,0.0501107158715868,1
74,124,38,0.0461929147205665,1
74,125,38,0.0419102373669046,1
75,123,38,0.0476836109843052,1
75,124,38,0.0447744172902362,1
76,122,38,0.0457704540887329,1
76,123,38,0.0468051571512892,1
76,124,38,0.0465145127143478,1
76,125,38,0.041295751141232,1
77,123,38,0.0423798717600358,1
77,124,38,0.0426017073863005,1
80,126,38,0.0422072374206259,1
81,126,38,0.04370330257204,1
82,126,38,0.0441950099600706,1
82,127,38,0.0412403996935203,1
83,126,38,0.0473563034785548,1
83,127,38,0.0456304412838547,1
84,125,38,0.042734369735192,1
84,126,38,0.0537691451398601,1
84,127,38,0.0541365598044994,1
84,128,38,0.0465256181476665,1
85,125,38,0.0428746042161978,1
85,126,38,0.0524484366188374,1
85,127,38,0.0566687445829924,1
85,128,38,0.0527342312146459,1
86,125,38,0.0442397858344759,1
86,126,38,0.0523239411428903,1
86,127,38,0.0572602467789485,1
86,128,38,0.0548414087892054,1
87,125,38,0.0478467375805355,1
87,126,38,0.0540117777716069,1
87,127,38,0.0512282122644296,1
87,128,38,0.0456863090747416,1
88,125,38,0.0484306541275403,1
88,126,38,0.0517847058524314,1
88,127,38,0.0422230737469114,1
60,135,39,0.0443175319778087,1
61,134,39,0.0495643220642273,1
61,135,39,0.0537733840199584,1
62,133,39,0.045745150569779,1
62,134,39,0.04941815098839,1
62,135,39,0.0489479056342243,1
63,129,39,0.052327779924612,1
63,130,39,0.0460051982943785,1
63,131,39,0.0428399605628437,1
63,132,39,0.0454307381265724,1
63,133,39,0.0532165389941933,1
63,134,39,0.0485319817447871,1
64,128,39,0.0597230307093022,1
64,129,39,0.0690218089948517,1
64,130,39,0.0599496972531278,1
64,131,39,0.0520870342433171,1
64,132,39,0.0514590041469224,1
64,133,39,0.056051679344811,1
64,134,39,0.0459959581845724,1
65,128,39,0.0584281880076545,1
65,129,39,0.0666310914329032,1
65,130,39,0.0606838939944325,1
65,131,39,0.0550393277239973,1
65,132,39,0.0504173318031841,1
65,133,39,0.0487092091054259,1
66,128,39,0.0494971596043031,1
66,129,39,0.0536535491494255,1
66,130,39,0.0521189285720156,1
66,131,39,0.0502221324560063,1
66,132,39,0.0463298619068023,1
66,133,39,0.041555063549896,1
67,128,39,0.0435525033311975,1
67,129,39,0.0441672869272851,1
67,130,39,0.0435209604402622,1
67,131,39,0.0418119564447284,1
68,127,39,0.0577431709262654,1
68,128,39,0.0486088006330984,1
68,129,39,0.0434473261187594,1
69,126,39,0.0595279178698814,1
69,127,39,0.067506501274216,1
69,128,39,0.0583482602468222,1
69,129,39,0.0468463024032634,1
70,126,39,0.0560238725076358,1
70,127,39,0.0684264842373783,1
70,128,39,0.0628238363819965,1
70,129,39,0.0499786996275062,1
71,124,39,0.0441593903910817,1
71,125,39,0.0429160819823633,1
71,126,39,0.0467963874274124,1
71,127,39,0.0536284294594554,1
71,128,39,0.0502531725206033,1
71,129,39,0.0427320178055456,1
72,123,39,0.0520991453293121,1
72,124,39,0.0519624360394084,1
72,125,39,0.0458314204305543,1
72,126,39,0.0412495992528152,1
73,122,39,0.0500568269456438,1
73,123,39,0.0541979424649019,1
73,124,39,0.0535294970257335,1
73,125,39,0.0464228847793667,1
74,123,39,0.0506543468374537,1
74,124,39,0.0485871682870867,1
74,125,39,0.043296791807923,1
75,123,39,0.0497803265269895,1
75,124,39,0.0470858477894284,1
75,125,39,0.0410455301571664,1
76,122,39,0.0466778177328272,1
76,123,39,0.0466352775432697,1
76,124,39,0.0457006531422169,1
79,126,39,0.0415824162213464,1
80,126,39,0.0451691278556102,1
81,126,39,0.0446805861108163,1
81,127,39,0.0411374068019492,1
82,126,39,0.0432387153658625,1
82,127,39,0.0414066811195176,1
83,126,39,0.0455177865571617,1
83,127,39,0.0447430095676714,1
84,126,39,0.0473808230209599,1
84,127,39,0.0488209176535255,1
84,128,39,0.0422399454629147,1
85,124,39,0.0411065559730708,1
85,125,39,0.0425709268449747,1
85,126,39,0.0471727394247078,1
85,127,39,0.0512123867516138,1
85,128,39,0.0483555924280452,1
86,125,39,0.0420968508191895,1
86,126,39,0.0470502498473787,1
86,127,39,0.0507611352568679,1
86,128,39,0.0507484780906561,1
86,129,39,0.0419563378913405,1
87,125,39,0.0439359057106971,1
87,126,39,0.0495765520983884,1
87,127,39,0.0467367727692958,1
87,128,39,0.0438403281559306,1
88,125,39,0.0449566648041547,1
88,126,39,0.0485111658157331,1
61,134,40,0.0456181517756106,1
61,135,40,0.0490562241595923,1
62,133,40,0.0441073370516097,1
62,134,40,0.051120780443572,1
62,135,40,0.0508701836914365,1
63,129,40,0.0478408334261129,1
63,130,40,0.0438679917146331,1
63,132,40,0.0428773616509556,1
63,133,40,0.0536103114910762,1
63,134,40,0.054247970982184,1
63,135,40,0.0444411164189387,1
64,128,40,0.0562550915221793,1
64,129,40,0.0663843334624894,1
64,130,40,0.0635281392864857,1
64,131,40,0.0551725496699426,1
64,132,40,0.0513864890195271,1
64,133,40,0.0596898874248604,1
64,134,40,0.0550151920597644,1
65,128,40,0.0559939840775552,1
65,129,40,0.0667004111800203,1
65,130,40,0.0677525563691033,1
65,131,40,0.0606458954621231,1
65,132,40,0.0506179486986508,1
65,133,40,0.0494843888966602,1
65,134,40,0.0423289186910996,1
66,129,40,0.0528881177010702,1
66,130,40,0.0548711025768325,1
66,131,40,0.0522061392046494,1
66,132,40,0.0448578945724774,1
67,128,40,0.0440897083927317,1
67,129,40,0.0443727590706195,1
67,130,40,0.0448946928096569,1
67,131,40,0.0429578192718002,1
68,127,40,0.0568071245539552,1
68,128,40,0.0497615813773713,1
68,129,40,0.0454765818311045,1
68,130,40,0.0414834567539504,1
69,126,40,0.0583476276588484,1
69,127,40,0.0662542149823304,1
69,128,40,0.0603748720658407,1
69,129,40,0.0491644723974076,1
70,126,40,0.0556291376119551,1
70,127,40,0.0698778789457161,1
70,128,40,0.0659103033939502,1
70,129,40,0.0508712812586048,1
71,126,40,0.0459955418659914,1
71,127,40,0.0542750911640371,1
71,128,40,0.0513835747894596,1
71,129,40,0.0427303336076494,1
72,123,40,0.0488447667608131,1
72,124,40,0.0476836326112444,1
72,125,40,0.0422405726441537,1
73,122,40,0.0457580834794666,1
73,123,40,0.0505530895077596,1
73,124,40,0.050761221764625,1
73,125,40,0.0444005577976924,1
74,123,40,0.049071454931578,1
74,124,40,0.0491990700935157,1
74,125,40,0.0437166247666345,1
75,122,40,0.0494845510987047,1
75,123,40,0.0494865245569138,1
75,124,40,0.0472018438782396,1
76,122,40,0.0455067838518046,1
76,123,40,0.0453443709445704,1
76,124,40,0.0426401141270887,1
79,126,40,0.0432824153000387,1
80,126,40,0.0486651279964449,1
80,127,40,0.0436802779918124,1
81,126,40,0.0462049987728875,1
81,127,40,0.0430389527344972,1
82,127,40,0.0421360739769355,1
83,126,40,0.0445165728100756,1
83,127,40,0.044215993497904,1
84,126,40,0.0443706017834266,1
84,127,40,0.0444616755280888,1
85,124,40,0.0437238265374137,1
85,125,40,0.0436355507780205,1
85,126,40,0.0445578613405225,1
85,127,40,0.0462876623415383,1
85,128,40,0.045000735099666,1
86,124,40,0.0410276798221608,1
86,125,40,0.0415829974453394,1
86,126,40,0.0444813722630351,1
86,127,40,0.0474531272856971,1
86,128,40,0.0490609712727635,1
86,129,40,0.0439853881477625,1
87,126,40,0.043903611283622,1
87,127,40,0.043725221474997,1
87,128,40,0.043499165892206,1
88,126,40,0.0414998229402481,1
56,155,41,0.047932461361094,1
56,156,41,0.0448744554012286,1
62,134,41,0.0450405800319162,1
62,135,41,0.0446507084942053,1
63,129,41,0.0435774932595318,1
63,130,41,0.043138755652525,1
63,133,41,0.048709982268505,1
63,134,41,0.0518464561708016,1
63,135,41,0.041166630203647,1
64,128,41,0.0508894857347411,1
64,129,41,0.0615626451978636,1
64,130,41,0.0665654644856677,1
64,131,41,0.0571792809250309,1
64,132,41,0.0519266867087838,1
64,133,41,0.0578372589255892,1
64,134,41,0.0574483687102481,1
65,128,41,0.0532931902737252,1
65,129,41,0.0665413937022526,1
65,130,41,0.0751500131015998,1
65,131,41,0.0649358475774843,1
65,132,41,0.0521515582166495,1
65,133,41,0.0477315957558256,1
65,134,41,0.0438187444705323,1
66,129,41,0.0558108309355546,1
66,130,41,0.0600776746662985,1
66,131,41,0.0541799001908102,1
66,132,41,0.044601015194482,1
67,128,41,0.0536130202652207,1
67,129,41,0.0495294864717872,1
67,130,41,0.0467956953653556,1
67,131,41,0.0429894459671252,1
68,128,41,0.0591535717712039,1
68,129,41,0.0502706903414176,1
68,130,41,0.0421809877230786,1
69,127,41,0.063840886455368,1
69,128,41,0.0616267095987364,1
69,129,41,0.0506939998306178,1
70,126,41,0.0534402534608077,1
70,127,41,0.0624274902793396,1
70,128,41,0.0598764143693883,1
70,129,41,0.0483006545955473,1
71,126,41,0.0457502274937743,1
71,127,41,0.0502656891117098,1
71,128,41,0.0475186785386452,1
71,129,41,0.0416598271471204,1
72,124,41,0.0455275349000407,1
73,123,41,0.0487834165408195,1
73,124,41,0.0498503653698375,1
73,125,41,0.0449767697475799,1
73,129,41,0.0428162574373963,1
74,122,41,0.0441063016618919,1
74,123,41,0.0497052972679034,1
74,124,41,0.0522657808964401,1
74,125,41,0.0467689482482049,1
75,122,41,0.0448174657128667,1
75,123,41,0.0480561782672271,1
75,124,41,0.0480482033333688,1
75,125,41,0.0423297405147921,1
76,122,41,0.0425195385338856,1
76,123,41,0.0433100923755783,1
76,124,41,0.0410888002559245,1
79,126,41,0.0422015441288613,1
80,127,41,0.0454573284484133,1
81,127,41,0.0432069372819626,1
83,127,41,0.0417318529650144,1
85,125,41,0.0413530814538874,1
85,127,41,0.041023159791852,1
85,128,41,0.0428311692120277,1
85,129,41,0.0426438772145229,1
86,126,41,0.0415437878044305,1
86,127,41,0.0435650118122017,1
86,128,41,0.0455370561600573,1
86,129,41,0.0436410467239642,1
87,127,41,0.0415758848856848,1
87,128,41,0.0417484516409094,1
56,155,42,0.0514709314039335,1
56,156,42,0.0483566954019483,1
63,130,42,0.0423823453412156,1
63,133,42,0.0452664680059279,1
63,134,42,0.0473728967477149,1
64,129,42,0.0576935479140947,1
64,130,42,0.0663810623879238,1
64,131,42,0.0568096278721765,1
64,132,42,0.0521274928399692,1
64,133,42,0.0543667353192227,1
64,134,42,0.0545767328996007,1
65,128,42,0.0518778368596923,1
65,129,42,0.0645853559928292,1
65,130,42,0.0767035194037332,1
65,131,42,0.065579070598721,1
65,132,42,0.0538514897111567,1
65,133,42,0.046348590836216,1
65,134,42,0.0433258421941066,1
66,129,42,0.0580615627262989,1
66,130,42,0.062282973664357,1
66,131,42,0.0551725064160641,1
66,132,42,0.0458945873134471,1
67,129,42,0.0573245923300319,1
67,130,42,0.0468876963650392,1
67,131,42,0.0424156724546412,1
68,128,42,0.0866974740253971,1
68,129,42,0.059920354903264,1
68,130,42,0.0412764869450711,1
69,128,42,0.0729220166307703,1
69,129,42,0.0543515423943807,1
70,127,42,0.0561504009158749,1
70,128,42,0.0533934365440082,1
70,129,42,0.0449936874208292,1
71,127,42,0.0472021304351851,1
71,128,42,0.0430598308410016,1
72,124,42,0.0454844432235316,1
72,127,42,0.0425897476888804,1
73,123,42,0.0488008802942855,1
73,124,42,0.0507110526722376,1
73,125,42,0.0467685481498283,1
73,126,42,0.0423644841927403,1
73,127,42,0.0418933169902879,1
73,128,42,0.0430504934099688,1
73,129,42,0.0426804510722074,1
74,123,42,0.0504966864501256,1
74,124,42,0.0549052515139506,1
74,125,42,0.0490477896532743,1
74,126,42,0.0421503261299189,1
74,127,42,0.0419564054755258,1
74,128,42,0.0445607431301811,1
74,129,42,0.0428983397820541,1
75,122,42,0.0417004452424497,1
75,123,42,0.0470957907747609,1
75,124,42,0.049642265553381,1
75,125,42,0.0441902168896534,1
76,123,42,0.0416285194491497,1
76,124,42,0.0413623675209394,1
79,127,42,0.0414021664959436,1
84,129,42,0.0413656926628532,1
85,129,42,0.044363383792443,1
56,155,43,0.0487921484175525,1
56,156,43,0.0462057503090273,1
64,129,43,0.0538817944598183,1
64,130,43,0.0602150922384635,1
64,131,43,0.053202822107957,1
64,132,43,0.0464299513817754,1
64,133,43,0.0450447648446662,1
64,134,43,0.0440744289601326,1
65,129,43,0.059506009780394,1
65,130,43,0.068770828364544,1
65,131,43,0.0605966563281246,1
65,132,43,0.0488401872564212,1
66,129,43,0.0571280142654752,1
66,130,43,0.0589693372822394,1
66,131,43,0.0527844814080556,1
66,132,43,0.0431960021607908,1
67,130,43,0.0451242411431412,1
68,129,43,0.0666732044904101,1
69,129,43,0.0560421959319381,1
70,128,43,0.0505552630151569,1
70,129,43,0.0429813953389794,1
72,127,43,0.0444804828551574,1
73,124,43,0.0499234806447977,1
73,127,43,0.0470925413271345,1
73,128,43,0.0450460867913295,1
73,129,43,0.0413794392861311,1
74,123,43,0.0473549788285241,1
74,124,43,0.0517866468702315,1
74,125,43,0.0490693949656119,1
74,127,43,0.0483274611867809,1
74,128,43,0.0474540356171468,1
74,129,43,0.0423827238126529,1
75,123,43,0.0451853940173138,1
75,124,43,0.0484051721863374,1
75,125,43,0.0454954729625628,1
84,129,43,0.0418796866118086,1
85,129,43,0.0434393538882685,1
64,130,44,0.0518562748012333,1
64,131,44,0.0473853592714732,1
65,129,44,0.0536001089824724,1
65,130,44,0.0587436763910901,1
65,131,44,0.0533074099862998,1
65,132,44,0.0421772624827882,1
66,130,44,0.0524120547002389,1
66,131,44,0.0474142096084685,1
73,124,44,0.0481130138636466,1
73,128,44,0.0456356479694856,1
74,123,44,0.0462475281489754,1
74,124,44,0.0475917992203402,1
74,125,44,0.04994778391781,1
74,128,44,0.0469102694829094,1
75,123,44,0.043748802948911,1
75,124,44,0.0450702008286232,1
75,125,44,0.0459139596443043,1
84,129,44,0.0412439465115617,1
85,128,44,0.0413090327853153,1
85,129,44,0.0420384229393658,1
65,130,45,0.0479340725680701,1
65,131,45,0.0431822528341455,1
73,128,45,0.0439080907634197,1
73,129,45,0.0416705865494106,1
74,124,45,0.0443967703799516,1
74,128,45,0.0441160716317102,1
75,124,45,0.0410595173801437,1
60,151,50,0.0470530883831588,1
60,151,51,0.0506442849039552,1
60,152,51,0.0424103954814576,1
61,151,51,0.0410619774444865,1
60,151,52,0.0473065398912788,1
61,151,52,0.0412548221586506,1
