x,y,z,signal,cytoplasm.p
81,385,4,0.041166630203647,1
81,385,5,0.0440169878094134,1
89,362,27,0.0462208405059077,1
89,363,27,0.0450190774475402,1
90,362,27,0.0537172242653913,1
90,363,27,0.0508002259496108,1
89,362,28,0.0543204969230488,1
89,363,28,0.0511047656950375,1
90,361,28,0.0438407363644094,1
90,362,28,0.064907986672961,1
90,363,28,0.0599409059023118,1
91,362,28,0.0459041031667289,1
91,363,28,0.043446531328741,1
77,395,29,0.0439530288398696,1
78,395,29,0.0447606328198146,1
89,362,29,0.0508435122685734,1
89,363,29,0.0462284640020028,1
90,361,29,0.0421542027587843,1
90,362,29,0.0606478094462491,1
90,363,29,0.0542670675695654,1
91,362,29,0.0437162381850949,1
91,363,29,0.0410227515833731,1
77,395,30,0.0449020594858481,1
77,396,30,0.0412391750680838,1
78,395,30,0.0492277528217316,1
78,396,30,0.0446100876955086,1
90,362,30,0.0477307847456027,1
90,363,30,0.0430504501560903,1
77,395,31,0.0415950382437818,1
77,396,31,0.0431736966762941,1
78,395,31,0.0480465326523097,1
78,396,31,0.0485281051159217,1
77,396,32,0.0446551041696133,1
77,397,32,0.0430278310809741,1
78,395,32,0.043878491593652,1
78,396,32,0.049106863637909,1
78,397,32,0.0435483428487541,1
90,364,32,0.0411238575244923,1
90,365,32,0.0418193609680633,1
77,396,33,0.0432511941098252,1
77,397,33,0.0463420595005544,1
78,396,33,0.0451093293685098,1
78,397,33,0.0457322663207048,1
77,396,34,0.0412529892755468,1
77,397,34,0.0473972108341969,1
77,398,34,0.0441918551303036,1
78,396,34,0.0414833242889473,1
78,397,34,0.0464451497133522,1
78,398,34,0.0413108088977035,1
77,397,35,0.0450111538776626,1
77,398,35,0.043683278729637,1
78,397,35,0.0437276328787264,1
68,398,36,0.0412254338515408,1
74,390,36,0.0438671563741035,1
77,391,36,0.0419912383645985,1
78,391,36,0.0411762352680534,1
73,390,37,0.0437258783932776,1
74,389,37,0.0426561261722558,1
74,390,37,0.0515326222482207,1
74,391,37,0.0435479184200708,1
75,390,37,0.046802053685503,1
75,391,37,0.0437014696889363,1
76,390,37,0.0418013835747895,1
76,391,37,0.0427615710180674,1
77,391,37,0.0422976299167008,1
77,392,37,0.0421165962147493,1
73,389,38,0.0434917505554014,1
73,390,38,0.0426617626933048,1
74,389,38,0.045316001806974,1
74,390,38,0.0497652471435787,1
75,389,38,0.0416628224782102,1
75,390,38,0.0503487798124114,1
75,391,38,0.0450486739139405,1
76,390,38,0.0480722903369884,1
76,391,38,0.0467093498102928,1
77,392,38,0.0409974453610518,1
77,393,38,0.0411999816473793,1
74,390,39,0.0426654608999212,1
75,390,39,0.0482899222269311,1
75,391,39,0.0440388850854312,1
76,390,39,0.0455238421001592,1
76,391,39,0.0445863142825086,1
80,358,39,0.0523743643518142,1
80,359,39,0.0522191478086244,1
81,358,39,0.0595157689367427,1
81,359,39,0.0585008653370943,1
82,358,39,0.0416984258269947,1
75,390,40,0.0434301678458106,1
75,391,40,0.0432714152980491,1
76,391,40,0.0425690669281969,1
80,357,40,0.0439286255422631,1
80,358,40,0.0650503784411596,1
80,359,40,0.0637623428186494,1
81,357,40,0.0517680206687794,1
81,358,40,0.0764703701848593,1
81,359,40,0.0723163379761182,1
82,357,40,0.0416509573986495,1
82,358,40,0.0537792016666238,1
82,359,40,0.0476353937231875,1
80,357,41,0.0450979752253895,1
80,358,41,0.0635358546970728,1
80,359,41,0.0610748117353309,1
81,357,41,0.0536144908970915,1
81,358,41,0.0755328802143524,1
81,359,41,0.0693051705599915,1
82,357,41,0.0442805120645016,1
82,358,41,0.0561298877639708,1
82,359,41,0.0482532807850614,1
57,389,42,0.0417528959769308,1
57,390,42,0.0442456197013458,1
58,389,42,0.0481877781927267,1
58,390,42,0.0512761267483975,1
59,389,42,0.0421693983869937,1
59,390,42,0.0460096101899909,1
80,358,42,0.051803288800005,1
80,359,42,0.0482449652269094,1
81,357,42,0.0477727518212694,1
81,358,42,0.0643310069667292,1
81,359,42,0.0571544315718018,1
82,358,42,0.0519919297778472,1
82,359,42,0.0444884415688113,1
57,389,43,0.044328304896936,1
57,390,43,0.0455219389295028,1
58,389,43,0.05168396756928,1
58,390,43,0.0526467178048622,1
59,389,43,0.0444243582443666,1
59,390,43,0.0459457566517761,1
63,395,43,0.0412146690425157,1
81,358,43,0.045066648603847,1
57,389,44,0.0444974600024897,1
57,390,44,0.0427964552711209,1
58,389,44,0.0505125984706986,1
58,390,44,0.0483302456552128,1
59,389,44,0.0424601239249573,1
59,390,44,0.0414280701624624,1
69,401,44,0.0417982341517573,1
69,402,44,0.0422569199068796,1
58,389,45,0.0423327142189427,1
69,401,45,0.0420577790500185,1
69,402,45,0.0414489861161105,1
69,403,45,0.041427724131434,1
54,383,46,0.0439580489931492,1
55,383,46,0.0467046135105912,1
62,399,46,0.0410582008402152,1
62,400,46,0.0410682762905508,1
71,372,46,0.0464535463725265,1
54,382,47,0.0412875626413483,1
54,383,47,0.0414382618575966,1
55,382,47,0.0417027539182175,1
55,383,47,0.0436492000800716,1
62,400,47,0.0485554577873721,1
62,401,47,0.0462650784101985,1
63,400,47,0.0423659764515504,1
63,401,47,0.0411586336428494,1
53,382,48,0.041428278321753,1
54,382,48,0.0452833802724423,1
55,385,48,0.0416002584462497,1
60,379,48,0.04325426783857,1
60,380,48,0.0410165473551681,1
61,401,48,0.0411577090911954,1
62,400,48,0.052063082408068,1
62,401,48,0.054530429622609,1
63,400,48,0.0459220373061242,1
63,401,48,0.0481856587526775,1
64,379,48,0.0419984806858889,1
53,382,49,0.0452602043036398,1
54,382,49,0.0463372907604438,1
54,385,49,0.041140031771704,1
55,385,49,0.0425088872662917,1
59,379,49,0.0419567325829823,1
60,378,49,0.0429811790695866,1
60,379,49,0.0464219440075082,1
60,380,49,0.0432595772521624,1
61,379,49,0.0418371383121489,1
61,380,49,0.0418117239551312,1
61,401,49,0.0426993286868287,1
62,374,49,0.0415465344257187,1
62,400,49,0.0463314677070436,1
62,401,49,0.0527185462769354,1
62,402,49,0.0412650084470499,1
63,379,49,0.0421201132957492,1
63,401,49,0.0452446356107279,1
64,378,49,0.0468657233947339,1
64,379,49,0.0526511297004747,1
65,379,49,0.041569372473595,1
53,382,50,0.0461583710918066,1
54,382,50,0.0455750384721623,1
54,385,50,0.0420098456424788,1
59,379,50,0.0426141374696498,1
60,378,50,0.0424979359249154,1
60,379,50,0.0463266124591759,1
60,380,50,0.0435635465870657,1
61,379,50,0.0447584052450691,1
61,380,50,0.0439577975799801,1
62,374,50,0.0428797460210108,1
62,401,50,0.0456004879729563,1
63,379,50,0.0450072664353276,1
64,378,50,0.0458547883384429,1
64,379,50,0.0527146750548048,1
51,385,51,0.043642457881752,1
52,385,51,0.0466692156177298,1
53,382,51,0.0446156512256376,1
53,385,51,0.0436022344780645,1
54,382,51,0.0431492663450135,1
64,379,51,0.0415076681124708,1
51,385,52,0.0470833931318204,1
52,385,52,0.0495546331954313,1
53,382,52,0.0432598908427819,1
53,383,52,0.0411553490514468,1
53,385,52,0.0449147599059384,1
54,382,52,0.0410853075052313,1
58,379,52,0.0422687849864403,1
51,385,53,0.0416787047617416,1
52,385,53,0.0459751422555185,1
53,384,53,0.0422388370822767,1
53,385,53,0.0444041992335932,1
54,384,53,0.0415542444295709,1
57,379,53,0.0424378833212785,1
58,379,53,0.0424048643917376,1
62,370,53,0.041722953479502,1
62,371,53,0.0426989204783498,1
52,385,54,0.0419525585837019,1
53,384,54,0.0447170896809481,1
53,385,54,0.0448930005016585,1
54,383,54,0.0410546107682953,1
54,384,54,0.0471959613507563,1
54,385,54,0.0422696906145226,1
58,378,54,0.0444871520625569,1
58,379,54,0.0426384866999081,1
60,374,54,0.0446044214374181,1
62,370,54,0.0427314419882874,1
62,371,54,0.0464415920818412,1
63,371,54,0.0431477605693664,1
53,384,55,0.0452379745134306,1
53,385,55,0.0456607838796601,1
54,384,55,0.0491148656054414,1
54,385,55,0.0459959744047769,1
60,374,55,0.0449049493856089,1
53,384,56,0.0461649835284905,1
53,385,56,0.0456884231080559,1
54,384,56,0.0506218091073117,1
54,385,56,0.0499549640616499,1
55,384,56,0.0439646749466701,1
53,384,57,0.0439664159152819,1
54,384,57,0.0478985827607169,1
54,385,57,0.0469190175798469,1
55,384,57,0.0411734399861518,1
54,384,58,0.0416643796178381,1
