x,y,z,signal,cytoplasm.p
667,769,15,0.0410608582503789,1
667,770,15,0.041268922923059,1
667,784,15,0.0582231538098405,1
668,776,15,0.0585882165448335,1
668,777,15,0.0585693740739885,1
668,784,15,0.0410605122193505,1
668,785,15,0.0594512990307584,1
669,760,15,0.0618048885447034,1
669,776,15,0.045512423076221,1
669,777,15,0.0463921583053892,1
670,759,15,0.0871065800222273,1
670,760,15,0.0868006183055431,1
670,761,15,0.0558781718177278,1
671,759,15,0.084487828012544,1
671,760,15,0.0812267937534825,1
675,763,15,0.0990812270640902,1
676,776,15,0.0447550557728486,1
676,801,15,0.0419327401972221,1
677,775,15,0.050170492731748,1
677,776,15,0.0740505860165228,1
677,777,15,0.0545255040871887,1
678,776,15,0.0565065317249465,1
678,777,15,0.0420771946347543,1
681,778,15,0.0427269706185919,1
684,779,15,0.0509501168590037,1
684,780,15,0.0458813948804882,1
685,779,15,0.0495702316253847,1
685,780,15,0.0451856886843615,1
666,769,16,0.0524483122639366,1
666,770,16,0.0556325979222394,1
667,769,16,0.0542764644746812,1
667,770,16,0.0553733341741887,1
667,784,16,0.0536309003372678,1
667,785,16,0.0798888377483865,1
667,786,16,0.0527850004545983,1
668,760,16,0.0554428053098807,1
668,776,16,0.0444009470825994,1
668,777,16,0.0441099728348341,1
668,785,16,0.0517649550501369,1
669,758,16,0.0485147342607138,1
669,759,16,0.0619180839448783,1
669,760,16,0.061179718611028,1
669,761,16,0.0486159321163249,1
670,758,16,0.0715620714351646,1
670,759,16,0.0899250189689884,1
670,760,16,0.0827668751330597,1
670,761,16,0.0587596478857461,1
670,762,16,0.0414360505030556,1
671,758,16,0.0756543641390052,1
671,759,16,0.0929968769834607,1
671,760,16,0.0833174483464345,1
671,761,16,0.0580656718447615,1
672,758,16,0.054216779529012,1
672,759,16,0.063049010667012,1
672,760,16,0.058064968969235,1
672,761,16,0.0473510373188409,1
674,763,16,0.0714874260542506,1
674,792,16,0.0417500114839048,1
675,762,16,0.0748141034807521,1
675,763,16,0.108650390751213,1
675,764,16,0.0694037353357457,1
676,763,16,0.0782963272612674,1
676,800,16,0.0411927176991497,1
676,801,16,0.0437509521260017,1
677,776,16,0.0464196515519448,1
681,774,16,0.0413740406614141,1
681,775,16,0.041537897166845,1
681,799,16,0.0531753288614013,1
682,774,16,0.043601009852628,1
682,775,16,0.0430052147092254,1
684,779,16,0.0422900172340754,1
685,779,16,0.0425521195179061,1
685,780,16,0.0413933454080861,1
687,788,16,0.0578142316419942,1
687,789,16,0.0885809371333423,1
665,770,17,0.0460171363648593,1
666,769,17,0.0620140102340407,1
666,770,17,0.068347124183702,1
666,771,17,0.0429973857572072,1
666,785,17,0.0441134034080769,1
667,769,17,0.064235642977988,1
667,770,17,0.0672447612416182,1
667,784,17,0.0461554190145953,1
667,785,17,0.0608924317564094,1
667,786,17,0.0414999148547401,1
668,759,17,0.0449239567618659,1
668,760,17,0.045679718264997,1
668,769,17,0.0412963512887969,1
668,770,17,0.041397027394498,1
668,785,17,0.0416901940732324,1
669,758,17,0.0529968038844059,1
669,759,17,0.0642516793534618,1
669,760,17,0.058860461863185,1
669,761,17,0.0490783268915332,1
670,757,17,0.0563206265549229,1
670,758,17,0.0797180552156522,1
670,759,17,0.0913492502415945,1
670,760,17,0.0781260475548712,1
670,761,17,0.0605358738152871,1
670,762,17,0.0459399119714365,1
671,757,17,0.0700984304724613,1
671,758,17,0.0900221239263414,1
671,759,17,0.0965287291828815,1
671,760,17,0.0819599037410885,1
671,761,17,0.0650562014945599,1
671,762,17,0.0513793899767095,1
672,757,17,0.0666961236393087,1
672,758,17,0.0702357453166647,1
672,759,17,0.0676234813887644,1
672,760,17,0.0606416295483508,1
672,761,17,0.0561500494781117,1
672,762,17,0.0518994421720298,1
673,757,17,0.0535884790958763,1
673,758,17,0.0472799711963772,1
673,759,17,0.042561840827111,1
673,760,17,0.0432376853828794,1
673,761,17,0.0462650081226459,1
674,763,17,0.0695071769863068,1
674,792,17,0.0439645505917693,1
675,762,17,0.0768377524090896,1
675,763,17,0.104127592194128,1
675,764,17,0.0679716751111214,1
675,802,17,0.0575127467017404,1
675,803,17,0.0450756697408928,1
676,762,17,0.0563795275240433,1
676,763,17,0.0786377463448959,1
676,764,17,0.0532375982263142,1
676,800,17,0.0415368671838619,1
676,801,17,0.0432757947532526,1
676,802,17,0.0410336704843405,1
677,763,17,0.0415078735683939,1
680,799,17,0.0454261207750368,1
681,767,17,0.0548884581956022,1
681,774,17,0.0409851288191336,1
681,800,17,0.0537842028963316,1
681,801,17,0.0494620158279783,1
682,774,17,0.0434558255058952,1
682,775,17,0.0429800977226227,1
687,788,17,0.0447746497798334,1
687,789,17,0.0628766655879149,1
687,790,17,0.0465837297335033,1
688,788,17,0.0540287657324088,1
688,789,17,0.0762060078858741,1
665,770,18,0.0459881184190846,1
666,769,18,0.0617790767926765,1
666,770,18,0.070094878247685,1
666,771,18,0.0425585886761173,1
666,777,18,0.0478625144327379,1
667,769,18,0.0628746380623577,1
667,770,18,0.0677088591382945,1
667,777,18,0.0490060009998567,1
667,785,18,0.0445789746399915,1
667,791,18,0.0489993128688853,1
667,792,18,0.0475926805181157,1
668,759,18,0.0438023296236212,1
668,760,18,0.0459648316122183,1
668,761,18,0.0427563427054972,1
669,758,18,0.0554938557000437,1
669,759,18,0.0649457635291428,1
669,760,18,0.0607945103820987,1
669,761,18,0.0536972409734995,1
669,762,18,0.0437560479735688,1
670,757,18,0.0612315097238612,1
670,758,18,0.0834388727970043,1
670,759,18,0.0903265393168673,1
670,760,18,0.0771175779696577,1
670,761,18,0.0657505019396337,1
670,762,18,0.0554576576104291,1
670,763,18,0.0412160396497924,1
671,756,18,0.0563225621659881,1
671,757,18,0.0841298372866946,1
671,758,18,0.0979991555977829,1
671,759,18,0.0961606386763898,1
671,760,18,0.0818116510723458,1
671,761,18,0.0731584801780883,1
671,762,18,0.0668557088242324,1
671,763,18,0.0525676172744572,1
672,756,18,0.0769512722133537,1
672,757,18,0.0944568900271003,1
672,758,18,0.0847930435998231,1
672,759,18,0.0720025635276202,1
672,760,18,0.0661107094267589,1
672,761,18,0.0673375299976461,1
672,762,18,0.0679630081152062,1
672,763,18,0.0580862336572789,1
673,756,18,0.0804533765577992,1
673,757,18,0.087300589887745,1
673,758,18,0.0658940615625533,1
673,759,18,0.0512662053900042,1
673,760,18,0.0520159464939141,1
673,761,18,0.0565370581497358,1
673,762,18,0.0605306563161865,1
674,757,18,0.0638946185860013,1
674,758,18,0.0487336908006872,1
674,759,18,0.0413775901828229,1
674,760,18,0.0442523997468091,1
674,761,18,0.0501949203596612,1
675,763,18,0.091678888050052,1
675,764,18,0.0618205140083309,1
675,798,18,0.0418514202021738,1
675,799,18,0.0473999358285458,1
675,800,18,0.0556055588414085,1
675,801,18,0.0573170607484288,1
675,802,18,0.0515457389868921,1
675,803,18,0.044962844702053,1
676,762,18,0.057042279671447,1
676,763,18,0.0730489883912645,1
676,764,18,0.0528931351509824,1
676,802,18,0.0413399971556249,1
677,763,18,0.0434305544273502,1
680,767,18,0.0458165302828622,1
681,766,18,0.0516027313786214,1
681,767,18,0.0602535395297629,1
681,768,18,0.0505065915883144,1
682,767,18,0.063197522859026,1
685,779,18,0.0447076765556279,1
685,780,18,0.0428469568776997,1
686,778,18,0.0417990397552453,1
686,779,18,0.0520025486050321,1
686,780,18,0.0492460492123598,1
687,779,18,0.0473129360585699,1
687,780,18,0.0412126874742045,1
687,787,18,0.0415276324807907,1
687,788,18,0.0449261167524261,1
687,789,18,0.0476874389525572,1
688,786,18,0.0451254062944947,1
688,787,18,0.053422778893872,1
688,788,18,0.0564424240701952,1
688,789,18,0.0577704154630194,1
689,787,18,0.0487089009215412,1
665,770,19,0.0448261300054145,1
665,777,19,0.0413906501507787,1
666,769,19,0.0586238253003528,1
666,770,19,0.0665346623174027,1
666,776,19,0.0459575974010301,1
666,777,19,0.0561553588917041,1
666,778,19,0.0414757683770375,1
667,760,19,0.0418312557846656,1
667,761,19,0.0412602991810224,1
667,769,19,0.055930919922624,1
667,770,19,0.0610615814552283,1
667,776,19,0.0443323193975392,1
667,777,19,0.0561828575449946,1
667,778,19,0.0418857232312343,1
668,759,19,0.0428053358330615,1
668,760,19,0.0473822179585432,1
668,761,19,0.0472338463416345,1
669,757,19,0.0423359150059556,1
669,758,19,0.0558617515640819,1
669,759,19,0.0611640012329086,1
669,760,19,0.059831922348561,1
669,761,19,0.0574493743629244,1
669,762,19,0.047042912908229,1
670,757,19,0.0655971290930172,1
670,758,19,0.0819676624055541,1
670,759,19,0.0807396685732111,1
670,760,19,0.0707218702509945,1
670,761,19,0.0691591616861988,1
670,762,19,0.0622849687495053,1
670,763,19,0.0437583188021928,1
671,756,19,0.0708031551022664,1
671,757,19,0.0979290951279956,1
671,758,19,0.101273420136947,1
671,759,19,0.0881990918934705,1
671,760,19,0.0770347467922275,1
671,761,19,0.0824904017480795,1
671,762,19,0.0814914534228827,1
671,763,19,0.0597461012467757,1
672,755,19,0.0575723505463873,1
672,756,19,0.101951175973474,1
672,757,19,0.120749030442685,1
672,758,19,0.0993545483226708,1
672,759,19,0.0756293201433226,1
672,760,19,0.0698535053851511,1
672,761,19,0.0814784934795211,1
672,762,19,0.0847471944885562,1
672,763,19,0.0658233198441788,1
673,755,19,0.0641510546117415,1
673,756,19,0.109744173205139,1
673,757,19,0.119797715451246,1
673,758,19,0.0892047337563736,1
673,759,19,0.0648992980501065,1
673,760,19,0.0606649271686868,1
673,761,19,0.068959177378706,1
673,762,19,0.0727997487295687,1
673,763,19,0.0607617077219506,1
673,797,19,0.0413948295567939,1
674,756,19,0.082363197497988,1
674,757,19,0.0874961298592164,1
674,758,19,0.0686129192674143,1
674,759,19,0.0556594153269427,1
674,760,19,0.0523081102233397,1
674,761,19,0.0575508966226247,1
674,762,19,0.0668174832090606,1
674,763,19,0.0650306222321302,1
674,764,19,0.0412959484870529,1
674,798,19,0.0444493670962728,1
674,801,19,0.0587599776965701,1
675,758,19,0.048787049866618,1
675,759,19,0.0447377569247946,1
675,762,19,0.0693666775752948,1
675,763,19,0.077865394275972,1
675,764,19,0.0532945798045738,1
675,800,19,0.0460512744885077,1
675,801,19,0.0472684602579471,1
675,802,19,0.0469121564333613,1
676,762,19,0.0536509106628337,1
676,763,19,0.0631560261692886,1
676,764,19,0.0472649512870494,1
677,763,19,0.0431383014868002,1
680,767,19,0.0525398590978954,1
681,766,19,0.0643577865242887,1
681,767,19,0.0791777007310857,1
681,768,19,0.0572667997415494,1
682,766,19,0.0661312658325416,1
682,767,19,0.0827166357531197,1
682,768,19,0.0603309801925784,1
683,767,19,0.0560346805705394,1
684,779,19,0.0410238140067651,1
685,778,19,0.043517256826911,1
685,779,19,0.0518242453041643,1
685,780,19,0.0459182850321597,1
686,778,19,0.0503667517989504,1
686,779,19,0.0609166106745209,1
686,780,19,0.0537160293769962,1
687,778,19,0.0513675221937814,1
687,779,19,0.0556939211085588,1
687,780,19,0.0453259447923066,1
687,786,19,0.0415258942155464,1
687,787,19,0.0539840790691281,1
687,788,19,0.0467124694962835,1
688,786,19,0.0577406946417182,1
688,787,19,0.0755745012589906,1
688,788,19,0.0626576766075326,1
688,789,19,0.0465960841225652,1
689,787,19,0.0616346034315724,1
689,788,19,0.0509312527612195,1
662,783,20,0.0440731881144916,1
662,784,20,0.0470004538196938,1
663,783,20,0.0434613917393916,1
663,784,20,0.0440220485132042,1
666,769,20,0.0520104965052164,1
666,770,20,0.0582346863752099,1
666,776,20,0.0454815289934641,1
666,777,20,0.0540461646050571,1
667,760,20,0.0411066289639909,1
667,761,20,0.044263421375738,1
667,769,20,0.0465637788820205,1
667,770,20,0.0512250060706819,1
667,776,20,0.0426305604266632,1
667,777,20,0.0531435264471948,1
668,758,20,0.0437220747553323,1
668,759,20,0.0472640051084561,1
668,760,20,0.0489025431290911,1
668,761,20,0.049929482120447,1
668,762,20,0.0410528211390701,1
669,757,20,0.047070876540714,1
669,758,20,0.0598083543914841,1
669,759,20,0.063773388777885,1
669,760,20,0.065085776334021,1
669,761,20,0.063952973474905,1
669,762,20,0.050195882758459,1
670,756,20,0.0587377668299328,1
670,757,20,0.0793669634834321,1
670,758,20,0.08375091709036,1
670,759,20,0.0790805362996497,1
670,760,20,0.0808608172803051,1
670,761,20,0.0850307723230888,1
670,762,20,0.0712136344097407,1
670,763,20,0.0441526130489858,1
671,755,20,0.0560208879900156,1
671,756,20,0.102447849447436,1
671,757,20,0.122940639588182,1
671,758,20,0.106774956644475,1
671,759,20,0.0883270476797019,1
671,760,20,0.093304476940795,1
671,761,20,0.107767352007071,1
671,762,20,0.097245586525621,1
671,763,20,0.060596434651997,1
672,755,20,0.0752473397350804,1
672,756,20,0.133705102582196,1
672,757,20,0.15047287951537,1
672,758,20,0.118108878576588,1
672,759,20,0.0895779065935953,1
672,760,20,0.0910471975941847,1
672,761,20,0.106388861711035,1
672,762,20,0.100721381698436,1
672,763,20,0.0668611912533391,1
672,807,20,0.0435953949585182,1
673,755,20,0.078650511645804,1
673,756,20,0.131229304641133,1
673,757,20,0.146410745578351,1
673,758,20,0.119528676326642,1
673,759,20,0.090721214738465,1
673,760,20,0.079449594611674,1
673,761,20,0.0833500942112729,1
673,762,20,0.0814841110769982,1
673,763,20,0.0608675715897107,1
674,756,20,0.0981590543733261,1
674,757,20,0.112419706743894,1
674,758,20,0.101824982782794,1
674,759,20,0.083073372116491,1
674,760,20,0.0658654220882159,1
674,761,20,0.0631946572895718,1
674,762,20,0.0677491068722887,1
674,763,20,0.0603118890119318,1
674,800,20,0.0471722960724527,1
674,801,20,0.0479723144034464,1
675,757,20,0.073772155393538,1
675,758,20,0.0710559848358822,1
675,759,20,0.0606083727224778,1
675,760,20,0.049254986545016,1
675,762,20,0.0636383285421012,1
675,763,20,0.0659392077982937,1
675,764,20,0.0465243043111054,1
675,801,20,0.0414719512222551,1
675,802,20,0.0456632277237984,1
676,762,20,0.0520085771143556,1
676,763,20,0.0563147494341744,1
676,764,20,0.0422710314847577,1
677,762,20,0.0418999861976874,1
677,763,20,0.0448902998376163,1
680,766,20,0.0497966170189998,1
680,767,20,0.0598381833474817,1
681,766,20,0.0839546536718174,1
681,767,20,0.10715550426799,1
681,768,20,0.0657649865822143,1
682,766,20,0.0880814683774787,1
682,767,20,0.11259118674542,1
682,768,20,0.0689674388695097,1
683,767,20,0.0698311377232041,1
684,779,20,0.0420366306067732,1
685,777,20,0.0411553923053253,1
685,778,20,0.0626109407917553,1
685,779,20,0.0719050963190344,1
685,780,20,0.0520855365777722,1
686,777,20,0.0474986357726704,1
686,778,20,0.0805510816627172,1
686,779,20,0.0928162271596813,1
686,780,20,0.0648948807477592,1
687,778,20,0.074408793011765,1
687,779,20,0.0797132972890113,1
687,780,20,0.0542103563280468,1
687,787,20,0.0574575655661755,1
687,788,20,0.0438664399817399,1
688,786,20,0.062100728853806,1
688,787,20,0.0892396828902449,1
688,788,20,0.0659811802806952,1
688,789,20,0.0427457049547404,1
689,786,20,0.0506497565195922,1
689,787,20,0.0716240326161927,1
689,788,20,0.0548929511922369,1
690,787,20,0.0440975535649544,1
660,778,21,0.0475971789214853,1
660,779,21,0.0545940128240829,1
660,780,21,0.0445848950146185,1
661,778,21,0.0490852312918973,1
661,779,21,0.0560002775168848,1
661,780,21,0.0454655791257474,1
661,783,21,0.045479647449747,1
661,784,21,0.048648437406058,1
662,779,21,0.0425402841753869,1
662,782,21,0.0469085879883806,1
662,783,21,0.0623188797902914,1
662,784,21,0.0603914815552053,1
662,785,21,0.0469296147800925,1
663,782,21,0.0526476693901904,1
663,783,21,0.0694838685525012,1
663,784,21,0.0627292185226603,1
663,785,21,0.0418081879505594,1
664,782,21,0.0460676028276618,1
664,783,21,0.0575388612309171,1
664,784,21,0.0506643492968693,1
666,769,21,0.0442806229025654,1
666,770,21,0.0488509412519766,1
666,776,21,0.0413470286142573,1
666,777,21,0.0466389054623334,1
667,759,21,0.0414677231556265,1
667,761,21,0.0432726020763419,1
667,770,21,0.0414830566555738,1
667,777,21,0.0472841668225969,1
668,758,21,0.0505065861815796,1
668,759,21,0.0531400715436453,1
668,760,21,0.0502576709239729,1
668,761,21,0.0485198274049135,1
668,762,21,0.0413980492673788,1
669,757,21,0.0493303726486002,1
669,758,21,0.0650925077188709,1
669,759,21,0.0725144137062198,1
669,760,21,0.074928553243405,1
669,761,21,0.069005469842228,1
669,762,21,0.0509820003742326,1
670,756,21,0.0673380977048021,1
670,757,21,0.0829923035346118,1
670,758,21,0.0845973306128374,1
670,759,21,0.0888590595724423,1
670,760,21,0.10197343009399,1
670,761,21,0.101063163033298,1
670,762,21,0.073507760654144,1
670,800,21,0.0411733832154362,1
671,755,21,0.0651559773789136,1
671,756,21,0.120590202200636,1
671,757,21,0.134413709247601,1
671,758,21,0.109616812159738,1
671,759,21,0.0966483477840216,1
671,760,21,0.114219446563164,1
671,761,21,0.124379317656225,1
671,762,21,0.0968532305932607,1
671,763,21,0.0527923806476265,1
672,755,21,0.0830336218021002,1
672,756,21,0.151210790683495,1
672,757,21,0.170492591172904,1
672,758,21,0.13597423349153,1
672,759,21,0.101632870681198,1
672,760,21,0.101890058243078,1
672,761,21,0.112562585118226,1
672,762,21,0.0971879615459178,1
672,763,21,0.0592603710040878,1
672,807,21,0.0409914817325462,1
673,755,21,0.0874699396357522,1
673,756,21,0.151422194014926,1
673,757,21,0.185115051424104,1
673,758,21,0.166980116711075,1
673,759,21,0.118767494571855,1
673,760,21,0.0869182580417395,1
673,761,21,0.083548786309144,1
673,762,21,0.0803312978923164,1
673,763,21,0.0590115314407685,1
673,800,21,0.0421464359842165,1
673,807,21,0.0418830577109684,1
674,755,21,0.0770185319945047,1
674,756,21,0.124258466319546,1
674,757,21,0.162306351304368,1
674,758,21,0.161753772192376,1
674,759,21,0.118657943310948,1
674,760,21,0.0754916430478863,1
674,761,21,0.064058480498167,1
674,762,21,0.067943246499442,1
674,763,21,0.0582811356340417,1
674,764,21,0.0420198670254662,1
674,801,21,0.0423642354829386,1
675,756,21,0.0883472959015998,1
675,757,21,0.112268458744061,1
675,758,21,0.112879819877008,1
675,759,21,0.0854792231291984,1
675,760,21,0.057459793140921,1
675,761,21,0.0513713826024423,1
675,762,21,0.059442967252402,1
675,763,21,0.0563875727454543,1
675,764,21,0.0412859757646788,1
675,802,21,0.043875812556549,1
676,758,21,0.0614727744516987,1
676,761,21,0.0415648524432862,1
676,762,21,0.0499859230252247,1
676,763,21,0.0500891754400671,1
677,762,21,0.0439623419405956,1
677,763,21,0.0450273389383439,1
680,766,21,0.0484283832989162,1
680,767,21,0.0590767853233015,1
681,766,21,0.0939043757959254,1
681,767,21,0.120524348170538,1
681,768,21,0.0667160420503826,1
682,766,21,0.102107517117506,1
682,767,21,0.130371050369401,1
682,768,21,0.0719059235494617,1
683,767,21,0.0788157684955531,1
683,768,21,0.0478524795329135,1
685,777,21,0.0501296664771282,1
685,778,21,0.0839123567853268,1
685,779,21,0.0912166879172972,1
685,780,21,0.0550827546180652,1
686,777,21,0.0689749163837647,1
686,778,21,0.128212443933241,1
686,779,21,0.138789920410268,1
686,780,21,0.0796879505161788,1
687,778,21,0.110703144133083,1
687,779,21,0.115512423941299,1
687,780,21,0.0663905458007967,1
687,787,21,0.0525000168690126,1
688,786,21,0.0598202059542078,1
688,787,21,0.0885104008708909,1
688,788,21,0.0654329373700275,1
688,789,21,0.0416703378396089,1
689,786,21,0.0517262374220965,1
689,787,21,0.0766973989799178,1
689,788,21,0.059390781447927,1
689,789,21,0.0423047316628858,1
690,787,21,0.0504815205589578,1
690,788,21,0.0456675693318582,1
659,778,22,0.0430121839904073,1
659,779,22,0.0494313272011445,1
660,778,22,0.0629087491523321,1
660,779,22,0.077742212636586,1
660,780,22,0.0555940695299177,1
661,778,22,0.0632070441190426,1
661,779,22,0.0783380348136627,1
661,780,22,0.0556423462651184,1
661,783,22,0.0455958706214207,1
661,784,22,0.046764579606471,1
662,778,22,0.0439867614584066,1
662,779,22,0.0509975285166333,1
662,782,22,0.0560397899349436,1
662,783,22,0.0917348585689004,1
662,784,22,0.0798654211798845,1
662,785,22,0.0475035450878863,1
663,782,22,0.0726725552929468,1
663,783,22,0.119371935084233,1
663,784,22,0.098568171183626,1
663,785,22,0.0468838954304613,1
664,782,22,0.0538800264575324,1
664,783,22,0.08451620796361,1
664,784,22,0.0682967604488611,1
667,758,22,0.0444041640898169,1
667,759,22,0.0436075411882896,1
668,758,22,0.0582022027124161,1
668,759,22,0.0611504032948382,1
668,760,22,0.0527717755812305,1
668,761,22,0.0460971668536532,1
669,757,22,0.0478183143755909,1
669,758,22,0.0704641528291021,1
669,759,22,0.0840664811680831,1
669,760,22,0.0849340674641125,1
669,761,22,0.0712945732299842,1
669,762,22,0.0488639498559516,1
670,757,22,0.071457834994585,1
670,758,22,0.0829064013318042,1
670,759,22,0.102586218604929,1
670,760,22,0.122729960759216,1
670,761,22,0.112045322798073,1
670,762,22,0.0720536355447225,1
671,756,22,0.107318755219121,1
671,757,22,0.123827463046698,1
671,758,22,0.108903858479538,1
671,759,22,0.109146847955783,1
671,760,22,0.13372920580602,1
671,761,22,0.134403230995522,1
671,762,22,0.0917921375175751,1
671,763,22,0.0442792468885539,1
672,755,22,0.0734869771654989,1
672,756,22,0.148604582298592,1
672,757,22,0.188185536127932,1
672,758,22,0.16389279543502,1
672,759,22,0.120780075914017,1
672,760,22,0.112545370074562,1
672,761,22,0.114974605215362,1
672,762,22,0.0901620610369322,1
672,763,22,0.0512209834599764,1
673,755,22,0.0841402885051001,1
673,756,22,0.172526929215979,1
673,757,22,0.250128723542576,1
673,758,22,0.243098973438399,1
673,759,22,0.160532790895093,1
673,760,22,0.0989179544860198,1
673,761,22,0.0856823811900301,1
673,762,22,0.0776260164985864,1
673,763,22,0.0551663265181657,1
674,755,22,0.081620668978327,1
674,756,22,0.15943744048807,1
674,757,22,0.24501948890006,1
674,758,22,0.254954255995658,1
674,759,22,0.170886104146516,1
674,760,22,0.0918815973518937,1
674,761,22,0.0676134086417962,1
674,762,22,0.0661881609030441,1
674,763,22,0.0534402102069291,1
674,806,22,0.0460535939777452,1
675,756,22,0.115219952027988,1
675,757,22,0.168115174178611,1
675,758,22,0.175916638357003,1
675,759,22,0.124198202853251,1
675,760,22,0.0716801220832071,1
675,761,22,0.0531884131596638,1
675,762,22,0.0530553209753542,1
675,763,22,0.0456326958922743,1
675,805,22,0.0445344826191642,1
676,757,22,0.0872606233039614,1
676,758,22,0.0879321235483025,1
676,759,22,0.0679082649251617,1
676,761,22,0.0435887392679558,1
676,762,22,0.0470942768890115,1
676,763,22,0.043980335554074,1
677,762,22,0.0444029151340736,1
677,763,22,0.043883395502133,1
680,766,22,0.0440398637044334,1
680,767,22,0.0519399872764391,1
681,765,22,0.0451886461683076,1
681,766,22,0.0899564699454318,1
681,767,22,0.111997808412481,1
681,768,22,0.0605819554161512,1
682,766,22,0.10432072076187,1
682,767,22,0.128677693464434,1
682,768,22,0.0690098709243709,1
683,767,22,0.0780299915040732,1
683,768,22,0.0459885888050139,1
685,777,22,0.0579546121048401,1
685,778,22,0.0945013225738445,1
685,779,22,0.0965348171662879,1
685,780,22,0.0492809659058223,1
686,776,22,0.0492601878239121,1
686,777,22,0.0930894943509137,1
686,778,22,0.168435642164815,1
686,779,22,0.172912072564091,1
686,780,22,0.085801021172168,1
687,777,22,0.0827729198625876,1
687,778,22,0.141583515410535,1
687,779,22,0.142928516391101,1
687,780,22,0.0716177229566587,1
687,787,22,0.0448692757492718,1
688,778,22,0.0725526555415961,1
688,779,22,0.0710499184794151,1
688,780,22,0.0442220084903903,1
688,786,22,0.0529434231915359,1
688,787,22,0.0776265301383942,1
688,788,22,0.0617803041214804,1
689,786,22,0.0529512305166148,1
689,787,22,0.0786351889593264,1
689,788,22,0.064627198713595,1
689,789,22,0.0452079049577336,1
690,787,22,0.0565124034389602,1
690,788,22,0.0508322121928012,1
659,778,23,0.0455080814681612,1
659,779,23,0.0542210941033977,1
660,778,23,0.0715040571705545,1
660,779,23,0.0931920384834948,1
660,780,23,0.0617911284045885,1
661,778,23,0.0718162474457503,1
661,779,23,0.0944221896030306,1
661,780,23,0.0627868380956286,1
661,783,23,0.0428649640080151,1
661,784,23,0.0441074587031432,1
662,778,23,0.0468527634513723,1
662,779,23,0.0577907447859396,1
662,780,23,0.04152032798205,1
662,782,23,0.0536440495163481,1
662,783,23,0.104034672049525,1
662,784,23,0.0860872591202317,1
662,785,23,0.0467527118235429,1
663,782,23,0.0797154491694693,1
663,783,23,0.152368437489105,1
663,784,23,0.123044827368148,1
663,785,23,0.0533529401002123,1
664,782,23,0.0503356198198614,1
664,783,23,0.0963522209179736,1
664,784,23,0.0749345709392588,1
667,758,23,0.0476021909646627,1
667,759,23,0.0468835223657588,1
668,757,23,0.0422755298881273,1
668,758,23,0.0616530241771014,1
668,759,23,0.0656813930551746,1
668,760,23,0.0571940467178222,1
668,761,23,0.0478297171793246,1
669,757,23,0.0478331720828741,1
669,758,23,0.0720450442430948,1
669,759,23,0.0894285617644191,1
669,760,23,0.0909628417175354,1
669,761,23,0.0740845186842482,1
669,762,23,0.0486337473075542,1
670,757,23,0.0584208456617701,1
670,758,23,0.0780070345080308,1
670,759,23,0.107215108112637,1
670,760,23,0.127471526620556,1
670,761,23,0.111811200366931,1
670,762,23,0.0684430775065385,1
671,756,23,0.0776255677395964,1
671,757,23,0.0972193314213389,1
671,758,23,0.0990424283350276,1
671,759,23,0.112591024543375,1
671,760,23,0.135518489000149,1
671,761,23,0.129535677399425,1
671,762,23,0.0838706384194618,1
671,763,23,0.0414780473157638,1
672,755,23,0.0603167983271476,1
672,756,23,0.126719612009249,1
672,757,23,0.182691255458531,1
672,758,23,0.173778988425003,1
672,759,23,0.130867561641319,1
672,760,23,0.114762239485134,1
672,761,23,0.110333626248599,1
672,762,23,0.08185683515523,1
672,763,23,0.0473433435351931,1
673,755,23,0.0774713838827571,1
673,756,23,0.181538950506922,1
673,757,23,0.295298597527591,1
673,758,23,0.295159125396195,1
673,759,23,0.188360606201378,1
673,760,23,0.107768811825472,1
673,761,23,0.0874341146108401,1
673,762,23,0.0740483097811639,1
673,763,23,0.052035778397231,1
674,755,23,0.0825090333562665,1
674,756,23,0.188855538706728,1
674,757,23,0.316390659342228,1
674,758,23,0.328899334988919,2
674,759,23,0.20938940921863,1
674,760,23,0.104718494242519,1
674,761,23,0.0718184750204958,1
674,762,23,0.0639890472096188,1
674,763,23,0.0492883515055853,1
674,802,23,0.0545399454758908,1
674,806,23,0.042958960092847,1
675,755,23,0.0722273539344636,1
675,756,23,0.138393639188429,1
675,757,23,0.219076655994205,1
675,758,23,0.230183192286761,1
675,759,23,0.154665640165621,1
675,760,23,0.0814320496274241,1
675,761,23,0.0545264124186384,1
675,762,23,0.0483779222428486,1
675,803,23,0.0420005244316505,1
675,804,23,0.045168057322116,1
676,756,23,0.0797648883526561,1
676,757,23,0.109299252996867,1
676,758,23,0.113858968739297,1
676,759,23,0.0844249152461877,1
676,760,23,0.053741754621266,1
676,761,23,0.0438145272173733,1
676,762,23,0.0435618299487606,1
677,762,23,0.0439117511228923,1
677,763,23,0.0418968205544507,1
680,767,23,0.0432677576419439,1
681,765,23,0.0455735840604959,1
681,766,23,0.0768347084173864,1
681,767,23,0.0886398651361368,1
681,768,23,0.0509511279184149,1
682,765,23,0.0533284097443376,1
682,766,23,0.0955624375359926,1
682,767,23,0.109837850292617,1
682,768,23,0.0626252361986173,1
683,767,23,0.0717500419778891,1
683,768,23,0.0452742726276394,1
685,775,23,0.0427396061578644,1
685,776,23,0.061203940783018,1
685,777,23,0.0835740898280978,1
685,778,23,0.104647406493117,1
685,779,23,0.0941381089421598,1
685,780,23,0.0441821743716098,1
686,775,23,0.052233843313863,1
686,776,23,0.0839412449694658,1
686,777,23,0.135974471387862,1
686,778,23,0.193735960331695,1
686,779,23,0.179945758771216,1
686,780,23,0.082091892951495,1
687,776,23,0.0755560913269312,1
687,777,23,0.1188705144971,1
687,778,23,0.166799218177494,1
687,779,23,0.155188309220594,1
687,780,23,0.0718882381198681,1
688,778,23,0.0852530107510975,1
688,779,23,0.0799060203516419,1
688,780,23,0.0475536655196603,1
688,787,23,0.0611841413201101,1
689,787,23,0.0727173987515373,1
689,788,23,0.0647701095283364,1
659,779,24,0.0479650044979708,1
660,776,24,0.0439113537278831,1
660,777,24,0.0460051928876436,1
660,778,24,0.0656158688359006,1
660,779,24,0.0838467244313564,1
660,780,24,0.0553579628270977,1
661,776,24,0.0417739498023168,1
661,777,24,0.0473843265851227,1
661,778,24,0.0685244002049542,1
661,779,24,0.0871929472042293,1
661,780,24,0.0577376073961364,1
662,778,24,0.0459955310525217,1
662,779,24,0.0539228315770961,1
662,782,24,0.0420013543654453,1
662,783,24,0.0909228643202822,1
662,784,24,0.0749014222480823,1
663,782,24,0.0702036995993912,1
663,783,24,0.145653380978346,1
663,784,24,0.119060323329663,1
663,785,24,0.050531873480329,1
664,783,24,0.0846491649795491,1
664,784,24,0.0659478910144133,1
667,758,24,0.0486475074476691,1
667,759,24,0.0521515636233843,1
667,760,24,0.0497047511876866,1
667,761,24,0.0455530709085918,1
668,757,24,0.0439008862892731,1
668,758,24,0.063357070196806,1
668,759,24,0.0755500898512819,1
668,760,24,0.076522534362395,1
668,761,24,0.0652563047502188,1
668,762,24,0.0463570145290643,1
669,757,24,0.0478856660712338,1
669,758,24,0.0735551344646299,1
669,759,24,0.0989859495831061,1
669,760,24,0.109049851133126,1
669,761,24,0.0920930763776122,1
669,762,24,0.0576880222311094,1
670,757,24,0.0524529458356766,1
670,758,24,0.078723302516675,1
670,759,24,0.113636611363123,1
670,760,24,0.134952176781716,1
670,761,24,0.11870392218385,1
670,762,24,0.0722532792279217,1
670,803,24,0.0446339476162658,1
670,804,24,0.0457432906530012,1
671,757,24,0.0763093197747995,1
671,758,24,0.0959257052350256,1
671,759,24,0.122338815935456,1
671,760,24,0.14460954594068,1
671,761,24,0.133154740231479,1
671,762,24,0.0840142521097296,1
671,763,24,0.0412114925858094,1
671,802,24,0.0446041159569008,1
671,805,24,0.0534862161135058,1
672,756,24,0.095208253151456,1
672,757,24,0.155549414225699,1
672,758,24,0.168328956473362,1
672,759,24,0.150127854139617,1
672,760,24,0.142385193609118,1
672,761,24,0.127506270298505,1
672,762,24,0.0848166926579223,1
672,763,24,0.0451760701031181,1
672,802,24,0.0616311593414926,1
672,806,24,0.0420573167741915,1
673,755,24,0.0682620383978521,1
673,756,24,0.16190316027543,1
673,757,24,0.281714889983327,1
673,758,24,0.294504845602253,2
673,759,24,0.210257622695898,1
673,760,24,0.142775440914899,1
673,761,24,0.1112579940737,1
673,762,24,0.0775355510115914,1
673,763,24,0.0469240350297591,1
673,802,24,0.066018838188711,1
673,806,24,0.0437142268797422,1
674,755,24,0.0791328302388211,1
674,756,24,0.185569519926067,1
674,757,24,0.324846727718651,2
674,758,24,0.343992862417977,2
674,759,24,0.233202464398381,2
674,760,24,0.132152937150298,1
674,761,24,0.089263905062235,1
674,762,24,0.0649925696324727,1
674,763,24,0.0437775289310055,1
674,802,24,0.047169354808711,1
674,803,24,0.0764789831134263,1
674,805,24,0.0597360879738906,1
675,755,24,0.0724719870580935,1
675,756,24,0.141649218052058,1
675,757,24,0.235741899608267,1
675,758,24,0.252570123836719,2
675,759,24,0.17403387271785,1
675,760,24,0.0936815101866777,1
675,761,24,0.059757158019481,1
675,762,24,0.0468303795692208,1
676,756,24,0.0841339355916875,1
676,757,24,0.123346642119226,1
676,758,24,0.132287564847296,1
676,759,24,0.0964905143811793,1
676,760,24,0.0577401864086452,1
676,761,24,0.0442431434167986,1
676,762,24,0.0419537399552599,1
677,757,24,0.0616035201130968,1
677,758,24,0.0644252842017717,1
677,762,24,0.0431668111995019,1
681,765,24,0.0413009713436999,1
681,766,24,0.0564580657540271,1
681,767,24,0.0597876682240658,1
682,765,24,0.0495084164261967,1
682,766,24,0.0736321425886599,1
682,767,24,0.0784659851931593,1
682,768,24,0.0504098164417854,1
683,766,24,0.0555680036613543,1
683,767,24,0.0585364092117958,1
683,768,24,0.0421724315652272,1
684,777,24,0.0444433683239909,1
684,798,24,0.0428741608639426,1
685,775,24,0.0487907480732344,1
685,776,24,0.0818499469750703,1
685,777,24,0.10517694210131,1
685,778,24,0.101689868479662,1
685,779,24,0.0769629669807677,1
686,775,24,0.0635633533503633,1
686,776,24,0.117354184903583,1
686,777,24,0.166914089665463,1
686,778,24,0.182964403701598,1
686,779,24,0.145170948843897,1
686,780,24,0.0635506313033337,1
687,775,24,0.0544100919257379,1
687,776,24,0.0999014179226944,1
687,777,24,0.145085998226418,1
687,778,24,0.164773065930935,1
687,779,24,0.134408594476462,1
687,780,24,0.0610874851217471,1
688,777,24,0.0756211181266019,1
688,778,24,0.0855400164555056,1
688,779,24,0.0748729774161984,1
688,780,24,0.0452065694942333,1
659,775,25,0.0429631394988623,1
659,776,25,0.0437989341941547,1
660,775,25,0.0576567929307937,1
660,776,25,0.0596783494527563,1
660,777,25,0.0495415543039037,1
660,778,25,0.0515989682911872,1
660,779,25,0.0591908187673735,1
660,780,25,0.043191555121402,1
661,775,25,0.048856731864968,1
661,776,25,0.054856942338341,1
661,777,25,0.0523946125737122,1
661,778,25,0.0574801549042502,1
661,779,25,0.0637465118990987,1
661,780,25,0.0460164010489239,1
662,777,25,0.0421865323296357,1
662,778,25,0.0443229765597716,1
662,779,25,0.0442676142985904,1
662,783,25,0.0652326610988544,1
662,784,25,0.0581991370937736,1
663,782,25,0.0529928029006397,1
663,783,25,0.104179313019409,1
663,784,25,0.0897925053053045,1
663,785,25,0.0437107287223142,1
664,783,25,0.0617539895431153,1
664,784,25,0.0514645244231728,1
665,763,25,0.0416830815135778,1
665,764,25,0.0426777747384719,1
666,761,25,0.0417001586855043,1
667,758,25,0.0479676808317063,1
667,759,25,0.0624440673282953,1
667,760,25,0.0713320797494251,1
667,761,25,0.0644400662147674,1
667,762,25,0.0470427236725104,1
668,757,25,0.0442893007119502,1
668,758,25,0.0649359611189156,1
668,759,25,0.0926854382444047,1
668,760,25,0.109320241941435,1
668,761,25,0.0978930430202211,1
668,762,25,0.0651917267095382,1
669,757,25,0.0491050415682749,1
669,758,25,0.0751012335400609,1
669,759,25,0.110889708924754,1
669,760,25,0.133038333230822,1
669,761,25,0.120757519016351,1
669,762,25,0.0786745986494236,1
669,763,25,0.0428442670271272,1
670,757,25,0.0546206842469461,1
670,758,25,0.0808709873485,1
670,759,25,0.11672385694489,1
670,760,25,0.138919195439796,1
670,761,25,0.125547118309825,1
670,762,25,0.0804579939093348,1
670,763,25,0.0416506438080299,1
670,803,25,0.0413811045604554,1
670,804,25,0.0414816103540096,1
671,756,25,0.0494575282380783,1
671,757,25,0.0724406928769599,1
671,758,25,0.09917573678873,1
671,759,25,0.132516075087695,1
671,760,25,0.154031851896644,1
671,761,25,0.136308780615203,1
671,762,25,0.0855939107881834,1
671,763,25,0.042053756439313,1
671,803,25,0.0548850141055223,1
671,804,25,0.0575951669673244,1
671,805,25,0.0437029862780531,1
672,755,25,0.0458359134271891,1
672,756,25,0.0777932684334838,1
672,757,25,0.126795436058354,1
672,758,25,0.155578870116994,1
672,759,25,0.171543552287062,1
672,760,25,0.18028147374961,1
672,761,25,0.150597688581936,1
672,762,25,0.0901635803294163,1
672,763,25,0.0420692440312027,1
672,802,25,0.0457570724200554,1
672,803,25,0.0735533718690788,1
672,805,25,0.0571183740572925,1
673,755,25,0.0638995981887698,1
673,756,25,0.130352959434696,1
673,757,25,0.223239041608241,1
673,758,25,0.249700704787348,1
673,759,25,0.219352983397345,1
673,760,25,0.187708921640149,1
673,761,25,0.143749583140745,1
673,762,25,0.0842844482755847,1
673,802,25,0.0496703048801534,1
673,803,25,0.0815510788944689,1
673,805,25,0.0622359512916343,1
674,755,25,0.076461016533622,1
674,756,25,0.159840534195781,1
674,757,25,0.273481535827577,1
674,758,25,0.299228320528888,2
674,759,25,0.230580717057608,1
674,760,25,0.159056773916389,1
674,761,25,0.108880393250423,1
674,762,25,0.0661121205845468,1
674,803,25,0.0601588243492,1
674,804,25,0.0653291010278246,1
674,805,25,0.048010604899436,1
675,755,25,0.0717833150239665,1
675,756,25,0.132181809114232,1
675,757,25,0.21675671259104,1
675,758,25,0.235253779588789,1
675,759,25,0.170519570779652,1
675,760,25,0.099901071891666,1
675,761,25,0.0637706854104754,1
675,762,25,0.0450611499545358,1
676,755,25,0.0553020463755975,1
676,756,25,0.0873336358509599,1
676,757,25,0.128592331935108,1
676,758,25,0.136892145675257,1
676,759,25,0.0982801327928675,1
676,760,25,0.0584560975727913,1
676,761,25,0.0434980223677917,1
677,756,25,0.05414237204443,1
677,757,25,0.069572484936188,1
677,758,25,0.0710820074505671,1
677,759,25,0.0552250923189157,1
677,760,25,0.0410611718409984,1
682,766,25,0.0476933268867753,1
682,767,25,0.0477181221726562,1
683,766,25,0.042389001031778,1
683,767,25,0.0431307753119318,1
684,777,25,0.0419793868018748,1
685,775,25,0.0517573585877159,1
685,776,25,0.090499971149663,1
685,777,25,0.106491773501584,1
685,778,25,0.0824570584144495,1
685,779,25,0.0501983536362714,1
686,775,25,0.0695709332032949,1
686,776,25,0.134826589145335,1
686,777,25,0.169654266125716,1
686,778,25,0.143017251722953,1
686,779,25,0.0890660618217305,1
687,775,25,0.0578958679310294,1
687,776,25,0.11337500109216,1
687,777,25,0.149611489337443,1
687,778,25,0.135716905354545,1
687,779,25,0.0913094999272037,1
687,780,25,0.0452515616380313,1
688,777,25,0.0755970203095126,1
688,778,25,0.0747535696777162,1
688,779,25,0.0597367475955385,1
688,780,25,0.0409910491937607,1
659,775,26,0.0459825332620163,1
659,776,26,0.044623607235924,1
660,774,26,0.0420855939972959,1
660,775,26,0.066393346489433,1
660,776,26,0.0660428008374297,1
660,777,26,0.047224800874282,1
661,775,26,0.0548282596101251,1
661,776,26,0.0592828035468526,1
661,777,26,0.0500227050421998,1
661,778,26,0.0423985033682228,1
662,783,26,0.0435249154667825,1
662,784,26,0.0436804780410007,1
663,783,26,0.0614022706296562,1
663,784,26,0.0570932057067091,1
664,764,26,0.0430697089455163,1
664,783,26,0.0415800669950674,1
665,762,26,0.0418876074783188,1
665,763,26,0.055009552835348,1
665,764,26,0.0602743122049383,1
665,765,26,0.0438026107738318,1
666,759,26,0.0439468840857475,1
666,760,26,0.0567360043641433,1
666,761,26,0.053925794467777,1
666,762,26,0.045920280117308,1
666,763,26,0.0510959310903429,1
666,764,26,0.0543720339193455,1
667,758,26,0.0507166486427755,1
667,759,26,0.0877546582913317,1
667,760,26,0.112545359261092,1
667,761,26,0.0968106255228853,1
667,762,26,0.0614177663316481,1
667,763,26,0.042663433374364,1
668,757,26,0.0432866298498303,1
668,758,26,0.0708851860829435,1
668,759,26,0.128340983646833,1
668,760,26,0.164057938743338,1
668,761,26,0.14405090047222,1
668,762,26,0.0902273041059955,1
668,763,26,0.0480775997505808,1
669,757,26,0.0494581175721736,1
669,758,26,0.0770291346014852,1
669,759,26,0.131469428547923,1
669,760,26,0.167142253874834,1
669,761,26,0.155766235105419,1
669,762,26,0.105739296589856,1
669,763,26,0.0561270005675774,1
670,756,26,0.0461224595591374,1
670,757,26,0.0575322379807636,1
670,758,26,0.0815725274114967,1
670,759,26,0.122820296484576,1
670,760,26,0.14867941150849,1
670,761,26,0.137162860887654,1
670,762,26,0.0952301612409434,1
670,763,26,0.0515592990778187,1
671,755,26,0.0427742200741769,1
671,756,26,0.0563921522498462,1
671,757,26,0.0756698922814059,1
671,758,26,0.110054043991098,1
671,759,26,0.156304226846869,1
671,760,26,0.178584786295995,1
671,761,26,0.148017475778044,1
671,762,26,0.0906928888547472,1
671,763,26,0.0444518406774526,1
671,803,26,0.0435421305104468,1
671,804,26,0.0436071140562389,1
672,755,26,0.0495589910236956,1
672,756,26,0.0723577643783029,1
672,757,26,0.107446137891462,1
672,758,26,0.155324764393961,1
672,759,26,0.209155600378108,1
672,760,26,0.232034890827643,1
672,761,26,0.179554527439698,1
672,762,26,0.0955094299078251,1
672,803,26,0.0470849286445091,1
672,804,26,0.0500022513643787,1
673,755,26,0.0599805967426196,1
673,756,26,0.101154958577058,1
673,757,26,0.158541836492207,1
673,758,26,0.203539149128733,1
673,759,26,0.233050448642205,1
673,760,26,0.239527392551526,1
673,761,26,0.180644427858024,1
673,762,26,0.0921860289626241,1
673,803,26,0.049460647924069,1
673,804,26,0.0536747381431819,1
674,755,26,0.0701742058609525,1
674,756,26,0.126501006907039,1
674,757,26,0.199126064034599,1
674,758,26,0.231099006657377,1
674,759,26,0.212819052503028,1
674,760,26,0.180763105687305,1
674,761,26,0.127971519829697,1
674,762,26,0.0670478209258285,1
674,803,26,0.0430325024998579,1
674,804,26,0.0464782713708547,1
675,755,26,0.0680656171286051,1
675,756,26,0.116838944702252,1
675,757,26,0.178038370861696,1
675,758,26,0.193843792250929,1
675,759,26,0.150550498600434,1
675,760,26,0.101213329686166,1
675,761,26,0.0669529597634255,1
675,762,26,0.0418154924493002,1
676,755,26,0.056037027093451,1
676,756,26,0.0893543975829041,1
676,757,26,0.125576606641529,1
676,758,26,0.127760743679505,1
676,759,26,0.0901159902495377,1
676,760,26,0.0553452515935378,1
676,761,26,0.0413356366239933,1
677,756,26,0.05706790759449,1
677,757,26,0.0730345524092973,1
677,758,26,0.070772515136046,1
677,759,26,0.0524920851890329,1
685,775,26,0.0495529949547811,1
685,776,26,0.0819608553264167,1
685,777,26,0.0892841478773981,1
685,778,26,0.0586801688839037,1
686,775,26,0.0673226614768933,1
686,776,26,0.125481923901375,1
686,777,26,0.145107268321197,1
686,778,26,0.0986400375028429,1
686,779,26,0.0471765944266339,1
687,775,26,0.0564393962986964,1
687,776,26,0.106511702726128,1
687,777,26,0.130631536039521,1
687,778,26,0.0977534843810677,1
687,779,26,0.0554012383325907,1
688,777,26,0.0687228760334325,1
688,778,26,0.060396634173488,1
688,779,26,0.0468994668267406,1
659,775,27,0.0414531709288606,1
660,775,27,0.0584918090562722,1
660,776,27,0.0591258622552555,1
660,777,27,0.041307459425483,1
661,775,27,0.0486371265168162,1
661,776,27,0.0526457824397385,1
661,777,27,0.0421822583057611,1
664,763,27,0.0430203454566169,1
664,764,27,0.0463242226823858,1
665,762,27,0.0434851921860657,1
665,763,27,0.0613934954990447,1
665,764,27,0.0672905184383931,1
665,765,27,0.0465998255830601,1
666,759,27,0.0486668040842388,1
666,760,27,0.0651127289070947,1
666,761,27,0.0608773469662638,1
666,762,27,0.051532881771492,1
666,763,27,0.0570433339847367,1
666,764,27,0.059095492625776,1
667,758,27,0.0534210595521995,1
667,759,27,0.102613598310054,1
667,760,27,0.138370422669116,1
667,761,27,0.116922759905419,1
667,762,27,0.0725506604564478,1
667,763,27,0.0472438650212545,1
668,755,27,0.0456556745152559,1
668,756,27,0.0489236510218253,1
668,757,27,0.0481351220023224,1
668,758,27,0.0777025704568916,1
668,759,27,0.153376825973297,1
668,760,27,0.202422636761627,1
668,761,27,0.170471158876081,1
668,762,27,0.104809813993616,1
668,763,27,0.05250308789439,1
669,755,27,0.0527261913999697,1
669,756,27,0.0596906822148789,1
669,757,27,0.0581983314902856,1
669,758,27,0.0805345911215186,1
669,759,27,0.144864603249041,1
669,760,27,0.188699284070453,1
669,761,27,0.170315477353697,1
669,762,27,0.119657010584311,1
669,763,27,0.0629695478853741,1
670,755,27,0.0516172214279368,1
670,756,27,0.0614661998621585,1
670,757,27,0.0633915273178088,1
670,758,27,0.080353141100986,1
670,759,27,0.123473538185432,1
670,760,27,0.15108143995968,1
670,761,27,0.137369225142234,1
670,762,27,0.103897481560223,1
670,763,27,0.0579490215410371,1
671,755,27,0.050068813676738,1
671,756,27,0.0614159550754836,1
671,757,27,0.0756035786788483,1
671,758,27,0.114086311124975,1
671,759,27,0.169879121413378,1
671,760,27,0.188416057673684,1
671,761,27,0.146485066555175,1
671,762,27,0.0902197995580665,1
671,763,27,0.0453240902822636,1
672,755,27,0.0519970012951076,1
672,756,27,0.0664830279998792,1
672,757,27,0.0928766095741422,1
672,758,27,0.154012171381902,1
672,759,27,0.231172062458255,1
672,760,27,0.253510960576079,1
672,761,27,0.183656487385396,1
672,762,27,0.0906276620058882,1
673,754,27,0.0417742093255881,1
673,755,27,0.0574808739999811,1
673,756,27,0.0790098053947449,1
673,757,27,0.112288301460848,1
673,758,27,0.168436820833006,1
673,759,27,0.233765867793482,1
673,760,27,0.257075750604019,1
673,761,27,0.19018838534742,1
673,762,27,0.0902484444391386,1
674,755,27,0.0633185472112192,1
674,756,27,0.0948509436741938,1
674,757,27,0.132276935206642,1
674,758,27,0.163426810587892,1
674,759,27,0.17964928587414,1
674,760,27,0.177599776533162,1
674,761,27,0.13047216712399,1
674,762,27,0.0640362263776512,1
675,755,27,0.0631920944972675,1
675,756,27,0.0971357216740946,1
675,757,27,0.131027136012773,1
675,758,27,0.139287102117303,1
675,759,27,0.117030883788334,1
675,760,27,0.0931035302345044,1
675,761,27,0.0656548081400685,1
676,756,27,0.0843344821996016,1
676,757,27,0.107777192264442,1
676,758,27,0.102688092302393,1
676,759,27,0.0728841100129528,1
676,760,27,0.0496905206616425,1
677,757,27,0.0694437505801426,1
677,758,27,0.0641596567268389,1
677,759,27,0.0476417844837438,1
685,775,27,0.0457381164077792,1
685,776,27,0.0656971212467636,1
685,777,27,0.0683655287090266,1
685,778,27,0.0434001631709315,1
686,775,27,0.0608450795728628,1
686,776,27,0.0994483335448448,1
686,777,27,0.109113975008082,1
686,778,27,0.06828722296864,1
687,775,27,0.0533874729155026,1
687,776,27,0.0879998807490568,1
687,777,27,0.10162921572846,1
687,778,27,0.069680057332151,1
688,778,27,0.0493863864213272,1
659,793,28,0.0413522325965208,1
659,794,28,0.0419050333846411,1
660,775,28,0.0431290181231156,1
660,776,28,0.0450050172336428,1
661,776,28,0.0411598393447141,1
661,784,28,0.0490211506708201,1
662,785,28,0.0424428575173122,1
663,759,28,0.0432279911073486,1
664,759,28,0.043330227056045,1
664,764,28,0.04245577961353,1
665,763,28,0.0570380137576746,1
665,764,28,0.060078734386323,1
666,759,28,0.0503837667934265,1
666,760,28,0.062881628970479,1
666,761,28,0.0563374577204151,1
666,762,28,0.0493193483163039,1
666,763,28,0.0537660633010132,1
666,764,28,0.0528078655361487,1
667,758,28,0.0517729029503211,1
667,759,28,0.0973228055123089,1
667,760,28,0.1323041959636,1
667,761,28,0.109702790056833,1
667,762,28,0.0702945705914977,1
667,763,28,0.0467261593488457,1
668,755,28,0.0530752339796933,1
668,756,28,0.0587770089112506,1
668,757,28,0.0512037521961076,1
668,758,28,0.0735353890690701,1
668,759,28,0.144868701554034,1
668,760,28,0.196315145855971,1
668,761,28,0.160514310675481,1
668,762,28,0.0989349424468217,1
668,763,28,0.0500691921481753,1
669,755,28,0.0660430441404966,1
669,756,28,0.0768956423187989,1
669,757,28,0.0648006683935345,1
669,758,28,0.0754309578562755,1
669,759,28,0.133994892755036,1
669,760,28,0.179254334709066,1
669,761,28,0.157048150304114,1
669,762,28,0.11137761267484,1
669,763,28,0.0588860681592888,1
670,755,28,0.0614649995670287,1
670,756,28,0.0725075579664691,1
670,757,28,0.0653808380733096,1
670,758,28,0.074538970966007,1
670,759,28,0.114362725035873,1
670,760,28,0.141794832234209,1
670,761,28,0.126913237996595,1
670,762,28,0.0994404397120087,1
670,763,28,0.0560226776192408,1
671,755,28,0.0551881913537746,1
671,756,28,0.0638247797923416,1
671,757,28,0.0720601344399752,1
671,758,28,0.110998470802378,1
671,759,28,0.169138182473753,1
671,760,28,0.180836258809409,1
671,761,28,0.133135805846142,1
671,762,28,0.0812802285137007,1
671,763,28,0.041288003290236,1
672,754,28,0.0414027287963648,1
672,755,28,0.0562447700654094,1
672,756,28,0.0655691276133885,1
672,757,28,0.0876352018922361,1
672,758,28,0.156501388838786,1
672,759,28,0.241399247399815,1
672,760,28,0.250883373961701,1
672,761,28,0.167712491382746,1
672,762,28,0.0767490603311154,1
673,754,28,0.043969043588404,1
673,755,28,0.0593400554618532,1
673,756,28,0.071163205794082,1
673,757,28,0.0941109455064281,1
673,758,28,0.156331941769553,1
673,759,28,0.232621478301649,1
673,760,28,0.249204777442791,1
673,761,28,0.172728935642295,1
673,762,28,0.075844659577702,1
674,755,28,0.0579229340455344,1
674,756,28,0.0745852255823854,1
674,757,28,0.0934616831623983,1
674,758,28,0.12419673222138,1
674,759,28,0.156927082698042,1
674,760,28,0.164961187862235,1
674,761,28,0.11821169304591,1
674,762,28,0.0540125725616253,1
675,756,28,0.0772933509186302,1
675,757,28,0.0913012492498696,1
675,758,28,0.094823964067446,1
675,759,28,0.0894002196604968,1
675,760,28,0.0827203393664708,1
675,761,28,0.0592433938567554,1
676,757,28,0.0815432175020418,1
676,758,28,0.0740813124905004,1
676,759,28,0.0569744035225267,1
676,760,28,0.0451494392307661,1
677,758,28,0.0528772177236747,1
677,759,28,0.0425842111924255,1
685,776,28,0.0463850808895108,1
685,777,28,0.0462775084935479,1
686,775,28,0.049426915305532,1
686,776,28,0.0666869267833812,1
686,777,28,0.0693725276623692,1
686,778,28,0.0459180579492973,1
687,775,28,0.0461031142619543,1
687,776,28,0.0628599371503843,1
687,777,28,0.0679075782698397,1
687,778,28,0.0487355669376695,1
659,793,29,0.0410387122645594,1
662,785,29,0.0422772654500043,1
662,786,29,0.043342773384193,1
663,758,29,0.0429167848578898,1
663,759,29,0.0478239698202118,1
664,758,29,0.0456726516625883,1
664,759,29,0.0485320412188701,1
665,758,29,0.0455375481729259,1
665,759,29,0.0476794315782899,1
665,763,29,0.0456114528311696,1
665,764,29,0.0444640517880418,1
666,758,29,0.050558820646668,1
666,759,29,0.0605773002174719,1
666,760,29,0.0598194327911287,1
666,761,29,0.0486248370085721,1
666,762,29,0.0441197049575087,1
666,763,29,0.0458941818083357,1
666,764,29,0.0412040042580848,1
667,755,29,0.042999305148068,1
667,756,29,0.0435691749980125,1
667,757,29,0.0424175756252975,1
667,758,29,0.0574070936966382,1
667,759,29,0.087945716079638,1
667,760,29,0.105315938440042,1
667,761,29,0.085807271357619,1
667,762,29,0.0601768071492087,1
667,763,29,0.0438596680463789,1
668,755,29,0.056060021936637,1
668,756,29,0.0634566135915624,1
668,757,29,0.0551539450954297,1
668,758,29,0.0674842741873742,1
668,759,29,0.115088157460035,1
668,760,29,0.149751361567216,1
668,761,29,0.123583111073278,1
668,762,29,0.0792246852566646,1
668,763,29,0.0442257066970067,1
669,754,29,0.0413285429879105,1
669,755,29,0.0689113331822908,1
669,756,29,0.0825382243175554,1
669,757,29,0.0695856395220031,1
669,758,29,0.0707855021130817,1
669,759,29,0.109342128403983,1
669,760,29,0.141563175274145,1
669,761,29,0.124540146390157,1
669,762,29,0.0873190863275615,1
669,763,29,0.0479976611762788,1
670,755,29,0.0622982476902213,1
670,756,29,0.0743223663556799,1
670,757,29,0.067510269768385,1
670,758,29,0.0727052498183986,1
670,759,29,0.100823309463248,1
670,760,29,0.119594184325711,1
670,761,29,0.10717524966355,1
670,762,29,0.08095068802647,1
670,763,29,0.0462375689434384,1
671,755,29,0.0562138813893872,1
671,756,29,0.0637288967570578,1
671,757,29,0.0702600539964118,1
671,758,29,0.103764908422456,1
671,759,29,0.14964924997342,1
671,760,29,0.152548157354496,1
671,761,29,0.110858566132196,1
671,762,29,0.0656521588400071,1
672,754,29,0.0434512297812989,1
672,755,29,0.0593539453636038,1
672,756,29,0.0659061402081394,1
672,757,29,0.08400391983949,1
672,758,29,0.146285806750148,1
672,759,29,0.216974560750375,1
672,760,29,0.212589655558119,1
672,761,29,0.135314352320315,1
672,762,29,0.0598919425117891,1
673,754,29,0.0446087170882319,1
673,755,29,0.0590555584824013,1
673,756,29,0.0673881316288191,1
673,757,29,0.0877455100960176,1
673,758,29,0.146479703074235,1
673,759,29,0.210838327642421,1
673,760,29,0.210390303968362,1
673,761,29,0.135795421957589,1
673,762,29,0.0575145579579048,1
674,755,29,0.0524996221773708,1
674,756,29,0.0630691020936002,1
674,757,29,0.078108859544881,1
674,758,29,0.108233693698697,1
674,759,29,0.139048957075456,1
674,760,29,0.139780758633236,1
674,761,29,0.0946883955985891,1
674,762,29,0.043082682405715,1
675,757,29,0.0676147549187662,1
675,758,29,0.0721483669454898,1
675,759,29,0.0744457480442543,1
675,760,29,0.0715029541966513,1
675,761,29,0.0508863876756897,1
676,757,29,0.0588315574588416,1
676,758,29,0.0536905798762022,1
676,759,29,0.0472312078550428,1
676,760,29,0.0422104571312107,1
677,758,29,0.0425899747717428,1
686,776,29,0.0432921555328155,1
686,777,29,0.0432240198606239,1
687,777,29,0.04404879022362,1
660,770,30,0.0422402779771061,1
663,758,30,0.0418157141254278,1
663,759,30,0.0446748279382338,1
664,758,30,0.0542131462032135,1
664,759,30,0.0569023533743259,1
664,760,30,0.0429669647637469,1
665,757,30,0.0459729417144471,1
665,758,30,0.0751859300410038,1
665,759,30,0.0803956488501346,1
665,760,30,0.0552053361098863,1
666,757,30,0.0554518345570288,1
666,758,30,0.0939499437569817,1
666,759,30,0.104545424660957,1
666,760,30,0.0735712951950045,1
666,761,30,0.0411041580861785,1
667,755,30,0.0448273438173814,1
667,756,30,0.0467294953042292,1
667,757,30,0.0569116691784194,1
667,758,30,0.0853530191250484,1
667,759,30,0.102940359735587,1
667,760,30,0.0872983298725905,1
667,761,30,0.059212991786867,1
667,762,30,0.0437476486110271,1
668,755,30,0.0551054683110407,1
668,756,30,0.061454613229441,1
668,757,30,0.058145534724776,1
668,758,30,0.0681959140310132,1
668,759,30,0.0903978054885193,1
668,760,30,0.0977568906240038,1
668,761,30,0.079102628218121,1
668,762,30,0.0541259301638448,1
669,755,30,0.0625688331409833,1
669,756,30,0.0747850098406899,1
669,757,30,0.0671006230980729,1
669,758,30,0.0654527043925265,1
669,759,30,0.0818818304902992,1
669,760,30,0.0952155522434619,1
669,761,30,0.0845101578273473,1
669,762,30,0.0592585651546581,1
670,755,30,0.0590382136771013,1
670,756,30,0.0714578566215243,1
670,757,30,0.0711817887416556,1
670,758,30,0.0774187330990876,1
670,759,30,0.0901311561407056,1
670,760,30,0.0943959128718093,1
670,761,30,0.0805823109630329,1
670,762,30,0.0562829362064982,1
671,755,30,0.0585293804565308,1
671,756,30,0.0678546084888159,1
671,757,30,0.0758341218515394,1
671,758,30,0.102988479675478,1
671,759,30,0.129109096835659,1
671,760,30,0.121505367763075,1
671,761,30,0.0847790239364369,1
671,762,30,0.04675010577736,1
672,754,30,0.0448537394967688,1
672,755,30,0.0626549299862444,1
672,756,30,0.0692480862537703,1
672,757,30,0.0818552996425413,1
672,758,30,0.128936470606351,1
672,759,30,0.174486513743444,1
672,760,30,0.160522734368329,1
672,761,30,0.0971611657681539,1
672,762,30,0.0413793771086806,1
673,754,30,0.04343572056247,1
673,755,30,0.0577007604983435,1
673,756,30,0.0650608783201785,1
673,757,30,0.0811093756934137,1
673,758,30,0.12852710508625,1
673,759,30,0.172043058890069,1
673,760,30,0.15779442028427,1
673,761,30,0.0937078517987169,1
674,755,30,0.048921655936677,1
674,756,30,0.0568491943575834,1
674,757,30,0.0701976602765982,1
674,758,30,0.0974231545105534,1
674,759,30,0.118849103827216,1
674,760,30,0.107563474850508,1
674,761,30,0.0664700410228435,1
675,757,30,0.0549623250067022,1
675,758,30,0.0627152583333571,1
675,759,30,0.0665754723518181,1
675,760,30,0.0596029255020283,1
676,758,30,0.0426926919198381,1
676,759,30,0.0425820593119675,1
662,793,31,0.0421124843929193,1
664,758,31,0.0549856388472426,1
664,759,31,0.0584854399226551,1
664,760,31,0.043548329331917,1
665,757,31,0.054966098907606,1
665,758,31,0.0936287945221904,1
665,759,31,0.100964544190195,1
665,760,31,0.0650607918124214,1
666,757,31,0.0705294499655137,1
666,758,31,0.122276822314018,1
666,759,31,0.130506143045594,1
666,760,31,0.080941296528089,1
667,755,31,0.0422078889321716,1
667,756,31,0.048906014252845,1
667,757,31,0.0701851274652873,1
667,758,31,0.10689920341062,1
667,759,31,0.111764345602988,1
667,760,31,0.0742076786966949,1
667,761,31,0.0423239228681266,1
668,755,31,0.0492139764614123,1
668,756,31,0.0549504680372437,1
668,757,31,0.0583411666107394,1
668,758,31,0.0689265855812158,1
668,759,31,0.0709074293899897,1
668,760,31,0.059077936957818,1
668,761,31,0.046174748091574,1
669,755,31,0.0524421485862427,1
669,756,31,0.060583993755178,1
669,757,31,0.0600048297280793,1
669,758,31,0.0607499048198402,1
669,759,31,0.060737620718331,1
669,760,31,0.0581517957236966,1
669,761,31,0.0507304952906475,1
670,755,31,0.0533210187378397,1
670,756,31,0.064406225461534,1
670,757,31,0.072764631986918,1
670,758,31,0.0831773003731858,1
670,759,31,0.0822397671488004,1
670,760,31,0.0710855218281996,1
670,761,31,0.0538952247891092,1
671,755,31,0.0575362984386128,1
671,756,31,0.0687659677099416,1
671,757,31,0.0831458439900077,1
671,758,31,0.106373322755165,1
671,759,31,0.112028615987481,1
671,760,31,0.0917060947396623,1
671,761,31,0.0586089946267437,1
672,754,31,0.0422274423886453,1
672,755,31,0.0591727278326684,1
672,756,31,0.0683648042065608,1
672,757,31,0.0822622483521786,1
672,758,31,0.114043305956223,1
672,759,31,0.130319015953501,1
672,760,31,0.108064960318459,1
672,761,31,0.0624675271506758,1
673,755,31,0.0534470713534147,1
673,756,31,0.0619252262415745,1
673,757,31,0.0758978942887319,1
673,758,31,0.107575293972823,1
673,759,31,0.125252191738907,1
673,760,31,0.103436881820974,1
673,761,31,0.0584588117536705,1
674,755,31,0.0456024722446349,1
674,756,31,0.0530841172450013,1
674,757,31,0.0642108585055768,1
674,758,31,0.0848000291012095,1
674,759,31,0.092639134967413,1
674,760,31,0.0746352540996675,1
674,761,31,0.0436755416921108,1
675,757,31,0.0474940508615437,1
675,758,31,0.0562368437921644,1
675,759,31,0.0573614284143552,1
675,760,31,0.0475419761589812,1
661,786,32,0.0449175660013096,1
664,758,32,0.0496069163211331,1
664,759,32,0.0527163781762729,1
665,757,32,0.0564512640816246,1
665,758,32,0.094736310082557,1
665,759,32,0.100670709779711,1
665,760,32,0.0628299243654029,1
666,757,32,0.0752287513807719,1
666,758,32,0.127658459070196,1
666,759,32,0.130885566068267,1
666,760,32,0.0774422361753467,1
667,756,32,0.0472931474091316,1
667,757,32,0.07470216784979,1
667,758,32,0.112491983974957,1
667,759,32,0.108869450019148,1
667,760,32,0.0660111984724114,1
668,756,32,0.0458719114676153,1
668,757,32,0.0538526954130213,1
668,758,32,0.0651192980899001,1
668,759,32,0.0588825808153304,1
668,760,32,0.0421289019431978,1
669,755,32,0.0416104204043425,1
669,756,32,0.0460395580941545,1
669,757,32,0.049539359169567,1
669,758,32,0.0538194385871484,1
669,759,32,0.0488989638706408,1
670,755,32,0.0453313920776369,1
670,756,32,0.053229050178565,1
670,757,32,0.0661228962070414,1
670,758,32,0.0815072140548807,1
670,759,32,0.0768031060523682,1
670,760,32,0.0547812480508721,1
671,755,32,0.0518385353042915,1
671,756,32,0.0627216274669742,1
671,757,32,0.0824532953270153,1
671,758,32,0.106329971555384,1
671,759,32,0.102292027349946,1
671,760,32,0.0700840323376377,1
672,755,32,0.0526909503024181,1
672,756,32,0.0632449453301253,1
672,757,32,0.0797053331686226,1
672,758,32,0.101513652178434,1
672,759,32,0.099754862968685,1
672,760,32,0.070161867692095,1
673,755,32,0.0492131221973109,1
673,756,32,0.0582284740369026,1
673,757,32,0.0703533904595958,1
673,758,32,0.087810093543433,1
673,759,32,0.0870134868621102,1
673,760,32,0.0624201425267203,1
674,756,32,0.0495042748673252,1
674,757,32,0.0575466523357916,1
674,758,32,0.0697198671206248,1
674,759,32,0.0674857718529192,1
674,760,32,0.0484677983957482,1
675,758,32,0.0478157137361429,1
675,759,32,0.0465281593130315,1
661,786,33,0.0410797277548979,1
664,758,33,0.0457728060183793,1
664,759,33,0.048511587541049,1
665,757,33,0.0525026012882562,1
665,758,33,0.0809776351928089,1
665,759,33,0.083472016081446,1
665,760,33,0.0553524641777866,1
666,757,33,0.0698913795625597,1
666,758,33,0.109010695559565,1
666,759,33,0.107000677009707,1
666,760,33,0.0658522404687267,1
667,756,33,0.0431635482350385,1
667,757,33,0.0698115707498934,1
667,758,33,0.0983031762966669,1
667,759,33,0.0906511110147991,1
667,760,33,0.0567212169444128,1
668,756,33,0.0410185505504186,1
668,757,33,0.0519219071552037,1
668,758,33,0.0607829670032597,1
668,759,33,0.0530371759733009,1
669,756,33,0.0412149312691544,1
669,757,33,0.046860219338688,1
669,758,33,0.0518110096173269,1
669,759,33,0.0471042469080181,1
670,756,33,0.0465038290063451,1
670,757,33,0.0582867370113144,1
670,758,33,0.07239194575583,1
670,759,33,0.0685168361829421,1
670,760,33,0.0466631006006493,1
671,755,33,0.044745699418244,1
671,756,33,0.0549593675227561,1
671,757,33,0.072950137058565,1
671,758,33,0.0923468685100259,1
671,759,33,0.0862573333707047,1
671,760,33,0.0550172303987912,1
672,755,33,0.0466870145887547,1
672,756,33,0.0580115990898346,1
672,757,33,0.072709126447264,1
672,758,33,0.0851043201368345,1
672,759,33,0.0762181351920736,1
672,760,33,0.0486702643945231,1
673,755,33,0.0458026511945813,1
673,756,33,0.0559769690830792,1
673,757,33,0.0658696880019883,1
673,758,33,0.0720620862712449,1
673,759,33,0.0628039882584751,1
673,760,33,0.0417134132959135,1
674,756,33,0.0472023467045778,1
674,757,33,0.0528358886427166,1
674,758,33,0.0567727647541791,1
674,759,33,0.0499097042844783,1
664,759,34,0.0443939426576411,1
664,760,34,0.0480585518238128,1
664,761,34,0.0447589891724296,1
665,757,34,0.0454357069158713,1
665,758,34,0.0618741109705937,1
665,759,34,0.0656893193284195,1
665,760,34,0.06307119990671,1
665,761,34,0.0563228325027291,1
666,757,34,0.0590636577711605,1
666,758,34,0.082762052325601,1
666,759,34,0.0797053439820922,1
666,760,34,0.0639364829337064,1
666,761,34,0.0529429960594852,1
667,757,34,0.0587504023692052,1
667,758,34,0.0760009953149994,1
667,759,34,0.0666115731202059,1
667,760,34,0.0470814142668766,1
668,757,34,0.0478619629457864,1
668,758,34,0.0522387904762226,1
668,759,34,0.0434257424333611,1
669,757,34,0.0450123893165688,1
669,758,34,0.0468629497397717,1
669,759,34,0.0421375067616626,1
670,756,34,0.0423413893249601,1
670,757,34,0.0532216483585975,1
670,758,34,0.0621405494557494,1
670,759,34,0.0576334953104577,1
671,756,34,0.05057042349959,1
671,757,34,0.0698391180637972,1
671,758,34,0.0825182193987244,1
671,759,34,0.0704979232947829,1
671,760,34,0.0428245946224875,1
672,756,34,0.0587820479881021,1
672,757,34,0.0797246946860102,1
672,758,34,0.0859164765874974,1
672,759,34,0.0650800073479689,1
673,756,34,0.0572271954089987,1
673,757,34,0.0732266591041585,1
673,758,34,0.0735322856032839,1
673,759,34,0.0531434507529073,1
674,756,34,0.0454275968136425,1
674,757,34,0.0530931843392931,1
674,758,34,0.0522230622846335,1
661,787,35,0.0566741026571982,1
661,789,35,0.0451254549551081,1
664,759,35,0.0490533856238122,1
664,760,35,0.0671148698443215,1
664,761,35,0.0687729315843887,1
664,762,35,0.0431116165471,1
665,758,35,0.0486419114771312,1
665,759,35,0.0658427083952405,1
665,760,35,0.0921985185200564,1
665,761,35,0.0970619413707517,1
665,762,35,0.0593641586856773,1
666,757,35,0.0479098395826105,1
666,758,35,0.060159121719615,1
666,759,35,0.0682645471228082,1
666,760,35,0.0813001631449791,1
666,761,35,0.0831671735588694,1
666,762,35,0.0525747866048275,1
667,757,35,0.0494631350220859,1
667,758,35,0.0568292759465095,1
667,759,35,0.0523791601255989,1
667,760,35,0.0481344786008789,1
667,761,35,0.045949736008603,1
668,757,35,0.0473078699480443,1
668,758,35,0.046502574643867,1
669,756,35,0.0435084952131365,1
669,757,35,0.0502606932887369,1
669,758,35,0.0471164499085051,1
670,756,35,0.0455295840525372,1
670,757,35,0.0571512956656067,1
670,758,35,0.0587559929330083,1
670,759,35,0.0489846011434422,1
671,756,35,0.0547894500675928,1
671,757,35,0.0797141894002564,1
671,758,35,0.0850730475826402,1
671,759,35,0.0609923644360728,1
672,756,35,0.0671000716111213,1
672,757,35,0.101272111707121,1
672,758,35,0.103673653552177,1
672,759,35,0.0649153560525196,1
673,756,35,0.0623351486553624,1
673,757,35,0.0896055782624,1
673,758,35,0.0881170879464676,1
673,759,35,0.0536258180065377,1
674,756,35,0.0451581332603554,1
674,757,35,0.0563511151325684,1
674,758,35,0.0543692007903003,1
658,788,36,0.0419745207405375,1
659,789,36,0.0413973977558331,1
660,787,36,0.0523433188804824,1
660,789,36,0.042845229425925,1
661,787,36,0.0508196739747555,1
661,788,36,0.0540900240379105,1
663,760,36,0.0414563392754647,1
664,759,36,0.0543879189062444,1
664,760,36,0.0803517569768722,1
664,761,36,0.0821443707196503,1
664,762,36,0.0473329626043403,1
665,758,36,0.0437360403513703,1
665,759,36,0.0742668229688822,1
665,760,36,0.117088454700689,1
665,761,36,0.121480529223315,1
665,762,36,0.0667247523001764,1
666,758,36,0.0478356754010954,1
666,759,36,0.0665397392413979,1
666,760,36,0.0947901936017652,1
666,761,36,0.096856690903545,1
666,762,36,0.0538853737182686,1
667,757,36,0.0436405655245653,1
667,758,36,0.045552286932043,1
667,759,36,0.0458316853605604,1
667,760,36,0.049333249031524,1
667,761,36,0.0474550628967624,1
668,756,36,0.0412791470586022,1
668,757,36,0.046579015060741,1
668,758,36,0.0423931155569754,1
669,756,36,0.0451253765574532,1
669,757,36,0.0525875789394097,1
669,758,36,0.0456976524043923,1
670,756,36,0.0461970941265818,1
670,757,36,0.0600769393503631,1
670,758,36,0.0563184963014041,1
671,756,36,0.0554090186239955,1
671,757,36,0.0888278735260051,1
671,758,36,0.0901374874271789,1
671,759,36,0.0539932164509725,1
672,756,36,0.0690158075192023,1
672,757,36,0.119055576216492,1
672,758,36,0.121462178765339,1
672,759,36,0.0661421928436112,1
673,756,36,0.0597702747581524,1
673,757,36,0.0990168652928024,1
673,758,36,0.0990674831441798,1
673,759,36,0.0532305532508447,1
674,757,36,0.0537811264642195,1
674,758,36,0.0524768760439864,1
659,788,37,0.0415993501148001,1
660,787,37,0.0419283904790601,1
660,788,37,0.0435291624569829,1
661,788,37,0.0414513569693288,1
663,760,37,0.0446944381654231,1
663,761,37,0.0444249610952989,1
664,759,37,0.057053374291296,1
664,760,37,0.0838802948478489,1
664,761,37,0.08297411527868,1
664,762,37,0.0499071198652348,1
665,758,37,0.0445688478256751,1
665,759,37,0.0783834459794092,1
665,760,37,0.121268163493086,1
665,761,37,0.118211444336108,1
665,762,37,0.0652440152419747,1
666,758,37,0.0440486199114732,1
666,759,37,0.0650173973587625,1
666,760,37,0.0941350703571914,1
666,761,37,0.0899967284928956,1
666,762,37,0.0497817647184514,1
667,757,37,0.0421979162097976,1
667,758,37,0.0441454491253503,1
667,759,37,0.0464234795201968,1
667,760,37,0.0514288021262223,1
667,761,37,0.0459864098908817,1
668,756,37,0.0414099711176551,1
668,757,37,0.0478375299111384,1
668,758,37,0.0450770944155177,1
669,756,37,0.045381915311155,1
669,757,37,0.0545456387676555,1
669,758,37,0.0490053089377998,1
670,756,37,0.0478696351024948,1
670,757,37,0.0626111570611481,1
670,758,37,0.0579059190510584,1
671,756,37,0.0564648566129601,1
671,757,37,0.08962426934467,1
671,758,37,0.0893723749761779,1
671,759,37,0.051236814379527,1
672,756,37,0.0686685599754387,1
672,757,37,0.119120056935945,1
672,758,37,0.122130418748584,1
672,759,37,0.0646869377266125,1
673,756,37,0.0570356347943542,1
673,757,37,0.0955773817510329,1
673,758,37,0.0974036253843864,1
673,759,37,0.0514129171393234,1
674,757,37,0.0498885963917442,1
674,758,37,0.049562716263986,1
659,769,38,0.0444954189600954,1
660,769,38,0.0444800232826977,1
663,760,38,0.0440737531182802,1
663,761,38,0.0433865490126567,1
664,759,38,0.054182057478003,1
664,760,38,0.074720648069402,1
664,761,38,0.0711475154496366,1
664,762,38,0.0454868762542003,1
665,758,38,0.0438721224600349,1
665,759,38,0.0735185687170476,1
665,760,38,0.106343910117748,1
665,761,38,0.0970984043903725,1
665,762,38,0.0545138742005926,1
666,758,38,0.043283453393124,1
666,759,38,0.0653581946678868,1
666,760,38,0.090594594415734,1
666,761,38,0.0787599277383403,1
666,762,38,0.0420984295857567,1
667,758,38,0.0449315261906127,1
667,759,38,0.0533668624423718,1
667,760,38,0.0614035520258084,1
667,761,38,0.0491388769147735,1
668,757,38,0.0464186134588596,1
668,758,38,0.0469567349619457,1
668,759,38,0.0428323343633812,1
669,756,38,0.043330959668613,1
669,757,38,0.0513902575136961,1
669,758,38,0.0486873064226733,1
670,756,38,0.0451914522636788,1
670,757,38,0.0573359626933567,1
670,758,38,0.0531908083431887,1
671,756,38,0.0503156797818482,1
671,757,38,0.0759176559044961,1
671,758,38,0.0747158468888826,1
671,759,38,0.0427300605675411,1
672,756,38,0.0583203074278069,1
672,757,38,0.0972475437636255,1
672,758,38,0.0997621079933427,1
672,759,38,0.0531638017027668,1
673,756,38,0.0485575664139516,1
673,757,38,0.0776802244218838,1
673,758,38,0.0800023467391809,1
673,759,38,0.0431557165796528,1
674,757,38,0.0420410857562642,1
674,758,38,0.0418052493901852,1
659,768,39,0.0422084674527973,1
659,769,39,0.0587896120101141,1
659,770,39,0.0488092607332553,1
660,768,39,0.0414036073907729,1
660,769,39,0.0588160779770542,1
660,770,39,0.0486858303840676,1
664,759,39,0.0470553916521918,1
664,760,39,0.0566025661488053,1
664,761,39,0.0528677937848848,1
665,758,39,0.0423888280162638,1
665,759,39,0.0609355991272059,1
665,760,39,0.0776646097717259,1
665,761,39,0.067675829395284,1
666,758,39,0.0451116623745843,1
666,759,39,0.0667786520395891,1
666,760,39,0.0845951030380919,1
666,761,39,0.0667761216876937,1
667,758,39,0.0481322942800119,1
667,759,39,0.0664534099065396,1
667,760,39,0.077730042076508,1
667,761,39,0.0565884221305182,1
668,757,39,0.043833645431694,1
668,758,39,0.0469969340353265,1
668,759,39,0.0509944791181953,1
668,760,39,0.0510399984186382,1
669,757,39,0.0449731526419858,1
669,758,39,0.0438032866156842,1
670,757,39,0.0470994781679076,1
670,758,39,0.0437975176296321,1
671,756,39,0.041740344242048,1
671,757,39,0.0550789374632829,1
671,758,39,0.0527790692665016,1
672,756,39,0.0447195416351887,1
672,757,39,0.0648588016063106,1
672,758,39,0.0646889814723741,1
673,757,39,0.0530984450922722,1
673,758,39,0.0532854748631382,1
659,768,40,0.0434519083265187,1
659,769,40,0.0613789189419721,1
659,770,40,0.0510126024933093,1
660,768,40,0.0414833242889473,1
660,769,40,0.0595455924860054,1
660,770,40,0.0493423755998989,1
665,759,40,0.048551543311363,1
665,760,40,0.0547055645768728,1
665,761,40,0.0455800072614611,1
666,758,40,0.0447151162227391,1
666,759,40,0.0649363287768833,1
666,760,40,0.0776204854088664,1
666,761,40,0.0551974530905199,1
667,758,40,0.0492376309262463,1
667,759,40,0.0745227183211405,1
667,760,40,0.0880439997051816,1
667,761,40,0.058366059217847,1
668,758,40,0.0435113932229996,1
668,759,40,0.054113873145198,1
668,760,40,0.058325838517527,1
659,769,41,0.0489507225430651,1
659,770,41,0.042746032062197,1
660,769,41,0.0455806885100484,1
665,759,41,0.0418136838965032,1
665,760,41,0.0424422249293383,1
666,758,41,0.0455609377077538,1
666,759,41,0.059056315425276,1
666,760,41,0.064658779451674,1
666,761,41,0.0434593642138344,1
667,758,41,0.0509892399921555,1
667,759,41,0.0712482753597274,1
667,760,41,0.0796481785748487,1
667,761,41,0.050451069828456,1
668,758,41,0.0417487003507111,1
668,759,41,0.050922293801624,1
668,760,41,0.0542689220796084,1
666,758,42,0.0455859600764971,1
666,759,42,0.0516824428700609,1
666,760,42,0.0499983206681652,1
667,758,42,0.0508231342850398,1
667,759,42,0.0607995224252761,1
667,760,42,0.0599916967692034,1
668,758,42,0.0413194921138231,1
668,759,42,0.0454479585769716,1
668,760,42,0.0439412205310244,1
666,758,43,0.0415084845294285,1
666,759,43,0.0426128722937021,1
667,758,43,0.0459587598490163,1
667,759,43,0.0469196015072074,1
667,760,43,0.0421650027115856,1
662,784,45,0.0431348573967203,1
663,784,45,0.0461023573190796,1
662,783,46,0.0462754052737032,1
662,784,46,0.0562365247948101,1
662,785,46,0.0460173580409869,1
663,783,46,0.0471257603058637,1
663,784,46,0.0645103862078261,1
663,785,46,0.0537463124987186,1
662,783,47,0.0493631807154832,1
662,784,47,0.059979747885253,1
662,785,47,0.0500367409257904,1
663,783,47,0.0516919965704865,1
663,784,47,0.0690698424269855,1
663,785,47,0.0579436634668312,1
664,784,47,0.043931423527532,1
667,760,47,0.0425232070034604,1
662,783,48,0.0465120904971488,1
662,784,48,0.0532654699443072,1
662,785,48,0.0470207669224096,1
663,783,48,0.0478121561046318,1
663,784,48,0.0591952306629859,1
663,785,48,0.0519053030725739,1
666,760,48,0.0456728300848373,1
666,761,48,0.0449887348517348,1
667,760,48,0.0508315579778881,1
667,761,48,0.0510849283849858,1
668,760,48,0.0435357181229512,1
668,761,48,0.0425494702178447,1
662,784,49,0.041246674209278,1
663,784,49,0.0436169678304469,1
666,760,49,0.0484313407828623,1
666,761,49,0.0502075288652596,1
667,760,49,0.0572300123178395,1
667,761,49,0.0609297706670708,1
667,762,49,0.0434457500555596,1
668,760,49,0.047893495023252,1
668,761,49,0.0498014019793148,1
666,760,50,0.0458644826139738,1
666,761,50,0.0480205478847686,1
667,760,50,0.0559220636909901,1
667,761,50,0.0599425117025531,1
667,762,50,0.04301449807291,1
668,760,50,0.0470081962639549,1
668,761,50,0.0496575828331239,1
667,760,51,0.0463449196632737,1
667,761,51,0.0487272135323738,1
668,760,51,0.0410847262812383,1
668,761,51,0.0429669161031335,1
682,782,51,0.0426909969084723,1
681,782,52,0.0418669834883509,1
682,782,52,0.0482933717237458,1
682,783,52,0.0414540062693902,1
683,782,52,0.0417148460806406,1
681,782,53,0.0433730700227524,1
682,781,53,0.0450513151038997,1
682,782,53,0.0506365586798985,1
682,783,53,0.0421306564286466,1
683,782,53,0.0415910778105267,1
679,776,54,0.0497190844416923,1
679,777,54,0.0448741364038743,1
680,776,54,0.0442276477148068,1
682,781,54,0.0434973330091023,1
682,782,54,0.0451616827817642,1
677,776,55,0.0420046713972569,1
678,774,55,0.0414086518743592,1
678,775,55,0.0680915964894114,1
678,776,55,0.0867637065269324,1
678,777,55,0.0715712412574179,1
679,774,55,0.0484301080473235,1
679,775,55,0.0856978714852872,1
679,776,55,0.112756708525175,1
679,777,55,0.0933765054620565,1
679,778,55,0.0505445684936845,1
680,775,55,0.0668917501185372,1
680,776,55,0.0860528344396378,1
680,777,55,0.0729331436910282,1
680,778,55,0.0428654100636377,1
677,775,56,0.0531576542452773,1
677,776,56,0.0633795514001843,1
677,777,56,0.0511070905910097,1
678,774,56,0.0613993563995887,1
678,775,56,0.111497166395162,1
678,776,56,0.141075422912635,1
678,777,56,0.109592200702841,1
678,778,56,0.0553786652147205,1
679,774,56,0.074283816336419,1
679,775,56,0.142351379889559,1
679,776,56,0.183651837593451,1
679,777,56,0.14230380062315,1
679,778,56,0.0692906156298582,1
680,774,56,0.0595169692318725,1
680,775,56,0.10701614027129,1
680,776,56,0.135750145960213,1
680,777,56,0.105893096568523,1
680,778,56,0.0547955434577341,1
674,766,57,0.042112865567724,1
674,767,57,0.0431117273851638,1
675,767,57,0.0417638040644286,1
677,775,57,0.0574153335605027,1
677,776,57,0.0685116186838416,1
677,777,57,0.0551576919626594,1
678,774,57,0.0675103238357332,1
678,775,57,0.125054640462083,1
678,776,57,0.156296830433637,1
678,777,57,0.118884528753751,1
678,778,57,0.0588323630623296,1
679,774,57,0.0832965729432975,1
679,775,57,0.160975883626997,1
679,776,57,0.203288341513939,1
679,777,57,0.15272867741664,1
679,778,57,0.0726157683571407,1
680,775,57,0.122770197679741,1
680,776,57,0.152327724775917,1
680,777,57,0.114858976784519,1
680,778,57,0.0587091003219213,1
665,775,58,0.0450432374420798,1
665,776,58,0.0417921380582486,1
666,774,58,0.0455080219940782,1
666,775,58,0.0541363056879629,1
666,776,58,0.0494043800348055,1
667,775,58,0.0443171075491254,1
670,769,58,0.0423485045879822,1
670,770,58,0.0410031656864905,1
671,770,58,0.048542838468304,1
673,766,58,0.0430003648680925,1
674,765,58,0.0479457457085448,1
674,766,58,0.0542158009100097,1
674,767,58,0.0507505488700919,1
675,766,58,0.0473719127219778,1
675,767,58,0.0470278875921664,1
675,768,58,0.0411804092673338,1
677,775,58,0.0545740295321911,1
677,776,58,0.0645698332571633,1
677,777,58,0.0520157518514606,1
678,774,58,0.0642122642566298,1
678,775,58,0.114224442386137,1
678,776,58,0.140113391772784,1
678,777,58,0.105317225242929,1
678,778,58,0.0537935349206296,1
679,774,58,0.0808282633299587,1
679,775,58,0.149340979580969,1
679,776,58,0.18348141731195,1
679,777,58,0.135216014627424,1
679,778,58,0.0662750957922021,1
680,775,58,0.11495524910471,1
680,776,58,0.138135013435087,1
680,777,58,0.102494736651788,1
667,775,59,0.0505768304803508,1
673,765,59,0.0463955212944467,1
673,766,59,0.0487916239642751,1
673,767,59,0.0434323846070865,1
674,764,59,0.0421190076184786,1
674,765,59,0.0536530355096176,1
674,766,59,0.0605450382308056,1
674,767,59,0.0525836806836051,1
675,765,59,0.0446406168236653,1
675,766,59,0.0505792851379587,1
675,767,59,0.047441767735842,1
678,776,59,0.0994131248877021,1
679,775,59,0.109324415940715,1
679,776,59,0.129976477675765,1
679,777,59,0.0983020408823549,1
680,776,59,0.100821200836668,1
673,766,60,0.0524328868494974,1
674,765,60,0.0543751265716621,1
674,766,60,0.0610688156664164,1
674,767,60,0.0508010639935078,1
675,766,60,0.0491233433656379,1
679,776,60,0.0819096751746181,1
674,766,61,0.0518817891828451,1
