x,y,z,signal,cytoplasm.p
772,727,41,0.0607739756032554,1
773,727,41,0.0587496292061261,1
771,727,42,0.062580208911043,1
772,726,42,0.0583958989873142,1
772,727,42,0.0617350875981874,1
772,728,42,0.0584572113601641,1
773,726,42,0.059708502812843,1
773,727,42,0.0598562256215734,1
773,728,42,0.0568420953147658,1
774,727,42,0.0584246411896132,1
770,727,43,0.0614944662717934,1
771,726,43,0.0605294884614656,1
771,727,43,0.0630974550109921,1
771,728,43,0.0578723053806873,1
772,726,43,0.0607299593750922,1
772,727,43,0.0640704672292612,1
772,728,43,0.0586514645287486,1
773,726,43,0.0597023229149446,1
773,727,43,0.0622794917271334,1
773,728,43,0.0579308224716356,1
773,729,43,0.0504574119283989,1
774,726,43,0.0588557742240968,1
774,727,43,0.0599576451533121,1
774,728,43,0.0564863862310101,1
775,727,43,0.058547676847159,1
782,723,43,0.108790684706302,1
782,724,43,0.109340008963934,1
769,730,44,0.0580825570776019,1
769,731,44,0.0595979026453813,1
770,725,44,0.062852827294097,1
770,726,44,0.0666809631548756,1
770,727,44,0.0614899840886282,1
770,730,44,0.0548611541847652,1
770,731,44,0.0565840751157236,1
771,725,44,0.06744671900732,1
771,726,44,0.0721639545619736,1
771,727,44,0.0661171650681331,1
771,728,44,0.0556776576502227,1
772,725,44,0.0630312873902746,1
772,726,44,0.0675882078508039,1
772,727,44,0.0662635956672417,1
772,728,44,0.0585806741497607,1
773,726,44,0.0601581755410217,1
773,727,44,0.0632351104794891,1
773,728,44,0.0582733499359021,1
774,726,44,0.0578952407497904,1
774,727,44,0.0608241609158472,1
774,728,44,0.0560881910250451,1
775,725,44,0.0574818147718397,1
775,726,44,0.0584879432408764,1
775,727,44,0.0588500701188625,1
775,728,44,0.0537039128842664,1
776,725,44,0.0605397450374176,1
776,726,44,0.0597772007854558,1
776,727,44,0.056528407374025,1
777,725,44,0.0628181214632925,1
777,726,44,0.061199874918434,1
781,723,44,0.140092781299653,1
781,724,44,0.153429044218181,1
782,722,44,0.0921273442628964,1
782,723,44,0.16398462341919,1
782,724,44,0.174041842244973,1
782,725,44,0.107650015048024,1
783,723,44,0.113045374097173,1
783,724,44,0.113424429461878,1
765,730,45,0.0511335024906016,1
765,731,45,0.0456808861197179,1
765,745,45,0.117463941620413,1
766,728,45,0.0602862502754191,1
766,729,45,0.0600394814915356,1
766,730,45,0.0587522568792482,1
766,731,45,0.0532821605346941,1
766,732,45,0.0471090913424161,1
766,733,45,0.0415510139055164,1
767,727,45,0.0651080412680065,1
767,729,45,0.0604495877343073,1
767,730,45,0.0597477232672215,1
767,731,45,0.055523333218278,1
767,732,45,0.0485464015065499,1
767,733,45,0.0411524645584207,1
768,726,45,0.061673283212469,1
768,727,45,0.0599499189292554,1
768,728,45,0.0570008857096711,1
768,729,45,0.0570577321195603,1
768,730,45,0.0592428369630691,1
768,731,45,0.0580905536383995,1
768,732,45,0.0490814573909935,1
769,725,45,0.0591808054944883,1
769,726,45,0.061283371124247,1
769,727,45,0.0573814603668604,1
769,728,45,0.052190210963872,1
769,729,45,0.0537748276181551,1
769,730,45,0.0611913430908893,1
769,731,45,0.0636314403619415,1
769,732,45,0.0517677827724473,1
770,724,45,0.0612500115704125,1
770,725,45,0.0729240603765319,1
770,726,45,0.0751373991892666,1
770,727,45,0.0632658153265274,1
770,728,45,0.0513228193102961,1
770,729,45,0.0510757639694673,1
770,730,45,0.0580489325937612,1
770,731,45,0.0604076044384362,1
770,732,45,0.0493393316081956,1
771,724,45,0.066287093336766,1
771,725,45,0.0826589891464773,1
771,726,45,0.0846425255091911,1
771,727,45,0.069338951839142,1
771,728,45,0.0553203589864301,1
771,729,45,0.0509053328744962,1
771,730,45,0.0504706476152363,1
771,731,45,0.0490678161990447,1
771,732,45,0.0421843831525451,1
772,725,45,0.0719602558276599,1
772,726,45,0.0740075051534834,1
772,727,45,0.0673513442051092,1
772,728,45,0.0593127676712207,1
772,729,45,0.052746937041471,1
772,730,45,0.0466499784552431,1
772,731,45,0.0424964625896772,1
773,725,45,0.0579820675042521,1
773,726,45,0.0609305222032107,1
773,727,45,0.0627673197829313,1
773,728,45,0.058049986907051,1
773,729,45,0.0502485713892722,1
773,730,45,0.0439784567137243,1
774,724,45,0.0547725756482221,1
774,725,45,0.0539184629353622,1
774,726,45,0.0575249442954925,1
774,727,45,0.0607439520048043,1
774,728,45,0.0550381328356023,1
774,729,45,0.047333687106806,1
774,730,45,0.0420652187171298,1
775,724,45,0.0564558003321379,1
775,725,45,0.0561430693834601,1
775,726,45,0.0583670648705234,1
775,727,45,0.0584373037625597,1
775,728,45,0.0518468670826479,1
775,729,45,0.0453492613362144,1
776,723,45,0.0624667810212708,1
776,724,45,0.0602908027461368,1
776,725,45,0.0596671196645368,1
776,726,45,0.0585847454210795,1
776,727,45,0.0549448504397665,1
776,728,45,0.0483012439296426,1
776,729,45,0.0434752627175703,1
777,723,45,0.0642102853916859,1
777,724,45,0.0631442340806479,1
777,725,45,0.0619002038728312,1
777,726,45,0.0578344312032788,1
777,727,45,0.0521351920303518,1
777,728,45,0.0456830109665019,1
777,729,45,0.0414138666700924,1
778,723,45,0.0632278438278921,1
778,724,45,0.0622829898845615,1
778,725,45,0.0610320714965851,1
778,726,45,0.0565837669318389,1
778,727,45,0.0505156100219929,1
778,728,45,0.0438167304618121,1
779,723,45,0.0658312353039541,1
779,724,45,0.0650253722926208,1
779,725,45,0.0592157600350945,1
779,726,45,0.0539974174839271,1
779,727,45,0.0490239513594564,1
779,728,45,0.0434374669378166,1
780,723,45,0.104910065670634,1
780,724,45,0.11300479114562,1
780,725,45,0.0748351951532818,1
780,726,45,0.0511355354228936,1
780,727,45,0.045747124027988,1
780,728,45,0.0436534849174158,1
780,729,45,0.0413775280053725,1
781,722,45,0.0945370178371209,1
781,723,45,0.176106382308748,1
781,724,45,0.20061114270086,1
781,725,45,0.114109754727151,1
781,726,45,0.0525875789394097,1
781,727,45,0.0428660318381419,1
781,728,45,0.0431535538857252,1
782,722,45,0.102901269042844,1
782,723,45,0.193206230081048,1
782,724,45,0.219300019023056,1
782,725,45,0.125220886744304,1
783,723,45,0.114995161621145,1
783,724,45,0.124889864811733,1
763,744,46,0.0413622512761408,1
763,745,46,0.0522391040668421,1
764,727,46,0.0446223285431393,1
764,728,46,0.044206139723696,1
764,729,46,0.0416459237285328,1
764,744,46,0.0601147378334842,1
764,745,46,0.0898040757178176,1
765,727,46,0.0500229645654711,1
765,728,46,0.0494083215444887,1
765,729,46,0.0476512138292685,1
765,730,46,0.0459090395156188,1
765,731,46,0.0410928499003041,1
765,744,46,0.0696381172901584,1
765,745,46,0.107054960627292,1
765,746,46,0.0933642321740169,1
766,726,46,0.0678162585187432,1
766,727,46,0.0590216312214108,1
766,728,46,0.0550285466947678,1
766,729,46,0.0535471986755316,1
766,730,46,0.0530848363407323,1
766,731,46,0.0471831041353563,1
766,732,46,0.0415571532529036,1
766,744,46,0.0474432870283262,1
766,745,46,0.0699031067703825,1
766,746,46,0.0663642041887575,1
767,725,46,0.0643753475989815,1
767,726,46,0.0710089678698944,1
767,727,46,0.062075814619759,1
767,728,46,0.05570764340153,1
767,729,46,0.0536446712908523,1
767,730,46,0.054573104980537,1
767,731,46,0.0501032545775363,1
767,732,46,0.043061569106246,1
767,745,46,0.0427475486513138,1
767,746,46,0.0469811788100633,1
768,725,46,0.0562835255405935,1
768,726,46,0.0600718029522848,1
768,727,46,0.0548497135338877,1
768,728,46,0.050945710370126,1
768,729,46,0.0515257881354092,1
768,730,46,0.0569305062425295,1
768,731,46,0.0555240631274786,1
768,732,46,0.0451365928288357,1
769,725,46,0.0595541189068153,1
769,726,46,0.0595005760119007,1
769,727,46,0.052150855341123,1
769,728,46,0.0468483894029036,1
769,729,46,0.050689955592973,1
769,730,46,0.0617928315260565,1
769,731,46,0.0629718511544071,1
769,732,46,0.0489190444837593,1
770,724,46,0.0652020049124295,1
770,725,46,0.078048001337756,1
770,726,46,0.0759091024500121,1
770,727,46,0.0586661546272523,1
770,728,46,0.046622436548074,1
770,729,46,0.048443251819669,1
770,730,46,0.0570574293424104,1
770,731,46,0.0579033021914059,1
770,732,46,0.04616439960113,1
771,724,46,0.0711788907317925,1
771,725,46,0.0893535703524767,1
771,726,46,0.086346771578084,1
771,727,46,0.0648554494307227,1
771,728,46,0.0506343202916834,1
771,729,46,0.0480269602722641,1
771,730,46,0.0479477516071627,1
771,731,46,0.0461370847768234,1
772,724,46,0.0637175155802633,1
772,725,46,0.0745362675985974,1
772,726,46,0.07317472741622,1
772,727,46,0.0620084953645251,1
772,728,46,0.054535095634758,1
772,729,46,0.0498056570796175,1
772,730,46,0.043614540206513,1
773,723,46,0.0573918088573043,1
773,724,46,0.0557103629891441,1
773,725,46,0.0581899510513158,1
773,726,46,0.0593855585420917,1
773,727,46,0.0576804528023626,1
773,728,46,0.0528374295621401,1
773,729,46,0.0469650342998932,1
773,730,46,0.0411121465368739,1
774,723,46,0.0568773904796656,1
774,724,46,0.0529134482536982,1
774,725,46,0.0535713397464994,1
774,726,46,0.0568946812176174,1
774,727,46,0.0571407633461789,1
774,728,46,0.0502544701369599,1
774,729,46,0.0441855698010763,1
775,723,46,0.055947637546685,1
775,724,46,0.0533510423362908,1
775,725,46,0.0554685413676202,1
775,726,46,0.0579483835463284,1
775,727,46,0.0558023964292366,1
775,728,46,0.0476038886793959,1
775,729,46,0.0420210808374332,1
776,722,46,0.0604125516007958,1
776,723,46,0.0574086075823876,1
776,724,46,0.0567801179135332,1
776,725,46,0.0582312909457435,1
776,726,46,0.0568270862189077,1
776,727,46,0.0522180610549258,1
776,728,46,0.0450459056657131,1
777,722,46,0.0589352424124695,1
777,723,46,0.0593374764493445,1
777,724,46,0.0599316387588317,1
777,725,46,0.0589737653980564,1
777,726,46,0.0536178592928839,1
777,727,46,0.0484054479298131,1
777,728,46,0.0431272420107275,1
778,722,46,0.0567711859876119,1
778,723,46,0.0597221548182615,1
778,724,46,0.0606491665366888,1
778,725,46,0.0577917720655552,1
778,726,46,0.0514375394096901,1
778,727,46,0.0465880659348283,1
778,728,46,0.0414389809533276,1
779,722,46,0.0591707814081335,1
779,723,46,0.0688423486527325,1
779,724,46,0.0683723087544899,1
779,725,46,0.0573041278387412,1
779,726,46,0.0487990474111818,1
779,727,46,0.0457839168584327,1
779,728,46,0.0413841891026697,1
780,722,46,0.0787047195691014,1
780,723,46,0.114677861981545,1
780,724,46,0.120821480689263,1
780,725,46,0.073377999018483,1
780,726,46,0.0474845187880575,1
780,727,46,0.0435015151184849,1
780,728,46,0.0420275337754399,1
781,721,46,0.0579591375418838,1
781,722,46,0.101571634002635,1
781,723,46,0.180447330746924,1
781,724,46,0.204070285130433,1
781,725,46,0.111034166065654,1
781,726,46,0.0507329121011117,1
781,727,46,0.0416914754693846,1
781,728,46,0.042071358064517,1
782,722,46,0.0996519944320147,1
782,723,46,0.180130647475094,1
782,724,46,0.209829690448428,1
782,725,46,0.118707263545969,1
782,726,46,0.0555059830062432,1
782,727,46,0.0441063962797512,1
782,728,46,0.043171623193491,1
782,731,46,0.0421174234451766,1
782,732,46,0.0416740522664297,1
783,723,46,0.101249619690273,1
783,724,46,0.114758476397699,1
763,727,47,0.0411700986240336,1
763,745,47,0.0477977039024601,1
763,746,47,0.0516810263055383,1
764,726,47,0.0472738994331752,1
764,727,47,0.0441971672472635,1
764,728,47,0.041364008464957,1
764,744,47,0.0514748837270864,1
764,745,47,0.0703033078749655,1
764,746,47,0.0677105460395581,1
764,747,47,0.0577142881488612,1
765,725,47,0.0614749101119523,1
765,726,47,0.0565965538596863,1
765,727,47,0.0493426729703139,1
765,728,47,0.045480842338142,1
765,729,47,0.0423658250629755,1
765,744,47,0.0553997460737806,1
765,745,47,0.077790808369141,1
765,746,47,0.0727861561982332,1
765,747,47,0.0555256581142503,1
766,725,47,0.0691231582390377,1
766,726,47,0.0700531977289638,1
766,727,47,0.0581252865028781,1
766,728,47,0.0507192979428369,1
766,729,47,0.0478492841526353,1
766,730,47,0.0466914967719198,1
766,731,47,0.0421956318643365,1
766,744,47,0.0425288516346116,1
766,745,47,0.0569087873887608,1
766,746,47,0.0569929594364262,1
766,747,47,0.0509368757654314,1
767,724,47,0.055055488454372,1
767,725,47,0.0668902200125834,1
767,726,47,0.0715411798118231,1
767,727,47,0.0604635479236105,1
767,728,47,0.0517331742628696,1
767,729,47,0.0488098500673506,1
767,730,47,0.0495358880458131,1
767,731,47,0.0456386162669013,1
767,746,47,0.0438705328799981,1
767,747,47,0.0457293520906373,1
768,724,47,0.0529361889803478,1
768,725,47,0.0578661417029934,1
768,726,47,0.060185858023296,1
768,727,47,0.0531059063863227,1
768,728,47,0.048012670272137,1
768,729,47,0.0483883356141104,1
768,730,47,0.0535388398635011,1
768,731,47,0.0512037251624335,1
768,747,47,0.041996534261354,1
768,748,47,0.0451372254168095,1
769,724,47,0.0582116536848801,1
769,725,47,0.0611061005097297,1
769,726,47,0.0584899978001077,1
769,727,47,0.0495913395181189,1
769,728,47,0.0449804219969503,1
769,729,47,0.0488080658448603,1
769,730,47,0.0574492175676147,1
769,731,47,0.0557673770078126,1
769,732,47,0.04260844958462,1
769,747,47,0.0421363253901046,1
769,748,47,0.0472760459068984,1
770,723,47,0.0599745249794176,1
770,724,47,0.0689461038939131,1
770,725,47,0.0765908052029571,1
770,726,47,0.070426473294147,1
770,727,47,0.0536858489832354,1
770,728,47,0.0449378223333097,1
770,729,47,0.0473957834562046,1
770,730,47,0.0525306243948242,1
770,731,47,0.0501447837076827,1
770,747,47,0.0452628157565575,1
771,723,47,0.0624512799125441,1
771,724,47,0.0740745973258549,1
771,725,47,0.0850839475600357,1
771,726,47,0.0779870349959346,1
771,727,47,0.0578692830159234,1
771,728,47,0.0466436687957091,1
771,729,47,0.0457397492416946,1
771,730,47,0.0448778210936536,1
771,731,47,0.0416746010500139,1
771,746,47,0.0410839828552006,1
771,747,47,0.0456244938755536,1
772,723,47,0.0606676089091571,1
772,724,47,0.0659600075071432,1
772,725,47,0.0726631259474221,1
772,726,47,0.0683340939527877,1
772,727,47,0.0555570928704891,1
772,728,47,0.0481753048554987,1
772,729,47,0.0454595992770374,1
773,722,47,0.060340712315253,1
773,723,47,0.0582119348350907,1
773,724,47,0.0575222138944088,1
773,725,47,0.0597914204980304,1
773,726,47,0.0585968781340138,1
773,727,47,0.0525698286289982,1
773,728,47,0.046726299923951,1
773,729,47,0.042907763720844,1
774,722,47,0.0600485377723578,1
774,723,47,0.0559355426808944,1
774,724,47,0.0532676056045608,1
774,725,47,0.0546310976182079,1
774,726,47,0.0561071740709954,1
774,727,47,0.0523781923200662,1
774,728,47,0.0454945375974391,1
774,729,47,0.041127769297134,1
775,722,47,0.0581678699463141,1
775,723,47,0.054059027227192,1
775,724,47,0.0525324680913975,1
775,725,47,0.0547711753039039,1
775,726,47,0.0562116538146417,1
775,727,47,0.0518545770865001,1
775,728,47,0.0440403259802605,1
776,722,47,0.0574139440296542,1
776,723,47,0.0542897326019275,1
776,724,47,0.0543561327122422,1
776,725,47,0.0552818900681915,1
776,726,47,0.0536719320478108,1
776,727,47,0.0486302869972699,1
776,728,47,0.0421376230064612,1
777,721,47,0.0587040179911913,1
777,722,47,0.0563288988591963,1
777,723,47,0.0556938778546803,1
777,724,47,0.0566694312383144,1
777,725,47,0.0549206228610416,1
777,726,47,0.0498409143973736,1
777,727,47,0.0449961934424179,1
778,722,47,0.0539484703136088,1
778,723,47,0.0568318441455486,1
778,724,47,0.0587313436289675,1
778,725,47,0.0542012946404898,1
778,726,47,0.0475052428026195,1
778,727,47,0.0431733452385309,1
779,722,47,0.0568445013117604,1
779,723,47,0.0684998428154053,1
779,724,47,0.0699005385713434,1
779,725,47,0.0567879414588166,1
779,726,47,0.0463301214300736,1
779,727,47,0.0430337082017226,1
780,721,47,0.0550435720108304,1
780,722,47,0.075762087923543,1
780,723,47,0.107613833178614,1
780,724,47,0.110076038588342,1
780,725,47,0.0710764222934989,1
780,726,47,0.0478830546183161,1
780,727,47,0.0436294573878792,1
781,721,47,0.0604165904317057,1
781,722,47,0.0952441430571859,1
781,723,47,0.151015153390797,1
781,724,47,0.160756359379867,1
781,725,47,0.0954588553103262,1
781,726,47,0.0519396844992892,1
781,727,47,0.0447336964669453,1
781,728,47,0.0419483710675844,1
782,721,47,0.0580927271457968,1
782,722,47,0.0886773824690473,1
782,723,47,0.140912107080686,1
782,724,47,0.155759757837105,1
782,725,47,0.0977413408546638,1
782,726,47,0.0557951838449878,1
782,727,47,0.0473636079772955,1
782,728,47,0.0437660261026776,1
782,731,47,0.041962366400664,1
782,732,47,0.0409933849032026,1
783,722,47,0.0649140800631022,1
783,723,47,0.0852115032478905,1
783,725,47,0.0669820588102225,1
783,728,47,0.0447714165524115,1
783,731,47,0.0412430895440929,1
762,726,48,0.0411389774584142,1
762,746,48,0.0420634615283135,1
762,747,48,0.0519937031868679,1
763,725,48,0.046260158281513,1
763,726,48,0.0445054511565525,1
763,727,48,0.0413318546129872,1
763,745,48,0.0426404006840341,1
763,746,48,0.0485029097316642,1
763,747,48,0.059139303398016,1
764,725,48,0.0543908980171297,1
764,726,48,0.0504695284211288,1
764,727,48,0.0450153792409238,1
764,744,48,0.0411275205873323,1
764,745,48,0.0518240236280367,1
764,746,48,0.0545440924414972,1
764,747,48,0.0545022389072617,1
764,748,48,0.0567476883180876,1
765,724,48,0.0591885100916057,1
765,725,48,0.0637216409189304,1
765,726,48,0.0586634188194338,1
765,727,48,0.0491306748980528,1
765,728,48,0.0415661608731124,1
765,744,48,0.041372832256182,1
765,745,48,0.0526998227542565,1
765,746,48,0.0538743547927071,1
765,747,48,0.0500423693367372,1
765,748,48,0.0477099796300184,1
766,724,48,0.0595219218009669,1
766,725,48,0.0699099300697244,1
766,726,48,0.0681327309279159,1
766,727,48,0.0555567846866045,1
766,728,48,0.0458344427953182,1
766,729,48,0.0417725683815705,1
766,745,48,0.0445674582948266,1
766,746,48,0.0472207458231676,1
766,747,48,0.0468428691266532,1
766,748,48,0.0459053899696159,1
767,723,48,0.0481648320101539,1
767,724,48,0.054165610190683,1
767,725,48,0.0650715187743027,1
767,726,48,0.0665233406146912,1
767,727,48,0.0560413741082456,1
767,728,48,0.0465927535739166,1
767,729,48,0.0437163355063217,1
767,730,48,0.043722739783715,1
767,747,48,0.0429250112049172,1
767,748,48,0.0442336762241302,1
768,723,48,0.0501054334916685,1
768,724,48,0.0518103932495575,1
768,725,48,0.057156399623276,1
768,726,48,0.057496818460963,1
768,727,48,0.049779445229214,1
768,728,48,0.0438457402974846,1
768,729,48,0.0445497242046196,1
768,730,48,0.0479345970213476,1
768,731,48,0.0448447967573778,1
768,748,48,0.04325254579353,1
768,749,48,0.0454080785009451,1
769,723,48,0.0543149171727154,1
769,724,48,0.0568448689697281,1
769,725,48,0.0587123930234262,1
769,726,48,0.0545553384499211,1
769,727,48,0.0459403877641006,1
769,728,48,0.0421620398209047,1
769,729,48,0.0455640844274186,1
769,730,48,0.049311627498982,1
769,731,48,0.0456692400129173,1
769,748,48,0.045279952402567,1
769,749,48,0.0476795991870693,1
770,722,48,0.0577190298552976,1
770,723,48,0.0603228754970844,1
770,724,48,0.0666520857842062,1
770,725,48,0.0681789206634764,1
770,726,48,0.0606059937591574,1
770,727,48,0.047747794333344,1
770,728,48,0.0424615783366237,1
770,729,48,0.0450948420225617,1
770,730,48,0.0457461508157206,1
770,731,48,0.0411758811269227,1
770,747,48,0.041925400554705,1
770,748,48,0.0478786373159688,1
771,722,48,0.0577080649970843,1
771,723,48,0.0633569404351703,1
771,724,48,0.0703952764342402,1
771,725,48,0.0728985459949201,1
771,726,48,0.0648841754128172,1
771,727,48,0.0499809596426607,1
771,728,48,0.0421131845650784,1
771,729,48,0.0425348801439351,1
771,730,48,0.0411921040347477,1
771,747,48,0.0417709896150033,1
771,748,48,0.0456133289681519,1
772,722,48,0.059601617072202,1
772,723,48,0.0614719039673928,1
772,724,48,0.0642061600530189,1
772,725,48,0.0663898861791487,1
772,726,48,0.0611986367761604,1
772,727,48,0.0493194240105913,1
772,728,48,0.0418230105140663,1
773,721,48,0.0598960354100472,1
773,722,48,0.0599264428866704,1
773,723,48,0.0580853577662382,1
773,724,48,0.0574437675789169,1
773,725,48,0.0599380349261228,1
773,726,48,0.057598497515973,1
773,727,48,0.0486751845232086,1
773,728,48,0.0413390509770316,1
774,721,48,0.0605008814275372,1
774,722,48,0.0593557782467075,1
774,723,48,0.0553276851121102,1
774,724,48,0.0533304751170385,1
774,725,48,0.0554489203269613,1
774,726,48,0.0552112240441044,1
774,727,48,0.0481572571746722,1
775,721,48,0.059963597968348,1
775,722,48,0.0577395862610802,1
775,723,48,0.0539051515542373,1
775,724,48,0.0524894142620322,1
775,725,48,0.0534165233016862,1
775,726,48,0.0528912103533868,1
775,727,48,0.04669133997661,1
776,721,48,0.0589326579932259,1
776,722,48,0.0563316671074237,1
776,723,48,0.0535404024098639,1
776,724,48,0.0531901325013363,1
776,725,48,0.0516773983864746,1
776,726,48,0.0486667500168906,1
776,727,48,0.0432063830916436,1
777,721,48,0.0567742191658455,1
777,722,48,0.0544546920812616,1
777,723,48,0.0536625405494298,1
777,724,48,0.0542248409706274,1
777,725,48,0.050857369729915,1
777,726,48,0.045419805708768,1
778,721,48,0.0517583372067182,1
778,722,48,0.0509527283119214,1
778,723,48,0.0538232557419308,1
778,724,48,0.0563346624385135,1
778,725,48,0.0505383129014987,1
778,726,48,0.0429688273838921,1
779,722,48,0.052217574448792,1
779,723,48,0.0630227880031388,1
779,724,48,0.0671050349936854,1
779,725,48,0.0545348307047519,1
779,726,48,0.0428565970858824,1
780,721,48,0.0531564863905564,1
780,722,48,0.0677718097517945,1
780,723,48,0.0907363319690195,1
780,724,48,0.0927390297999326,1
780,725,48,0.065316887213868,1
780,726,48,0.046034637965469,1
780,727,48,0.0413743028880528,1
781,721,48,0.0598099926321343,1
781,722,48,0.0844411787045238,1
781,723,48,0.114784699061573,1
781,724,48,0.11371953986178,1
781,725,48,0.0759601420267055,1
781,726,48,0.0503754025746612,1
781,727,48,0.0449920329599745,1
781,728,48,0.0411936909114172,1
782,721,48,0.056800074171751,1
782,722,48,0.0788845583826579,1
782,723,48,0.104464377706017,1
782,724,48,0.105443894226273,1
782,725,48,0.0750948535929743,1
782,726,48,0.0531469813507442,1
782,727,48,0.0479489140551489,1
782,728,48,0.0440863562171438,1
782,731,48,0.0420263902510256,1
783,722,48,0.0608211385510833,1
783,723,48,0.0730239552090516,1
783,725,48,0.0613681649464167,1
783,727,48,0.0481292935421873,1
783,728,48,0.044961993141319,1
783,731,48,0.0422057235348765,1
783,732,48,0.041331905976968,1
762,726,49,0.0410263470620279,1
762,747,49,0.0456828541711921,1
762,748,49,0.0493593960011097,1
763,724,49,0.0442975811263258,1
763,725,49,0.0454389617702325,1
763,726,49,0.0457937517090689,1
763,727,49,0.0410951342457653,1
763,746,49,0.0427401873818574,1
763,747,49,0.0502438837501839,1
763,748,49,0.0550713464075967,1
764,724,49,0.0506088653841546,1
764,725,49,0.0545162639773827,1
764,726,49,0.0541123322257745,1
764,727,49,0.0458816003364114,1
764,746,49,0.0433409945684375,1
764,747,49,0.0476054512257587,1
764,748,49,0.0503192103796851,1
765,723,49,0.0489405849152791,1
765,724,49,0.0563302559496359,1
765,725,49,0.0624352867909489,1
765,726,49,0.059992578066979,1
765,727,49,0.0490345918135806,1
765,747,49,0.0433730294722413,1
765,748,49,0.044940893358687,1
765,749,49,0.0462223327647178,1
766,723,49,0.0500201746903044,1
766,724,49,0.0577711994395681,1
766,725,49,0.0650425873362852,1
766,726,49,0.0628250691175352,1
766,727,49,0.0517209334152389,1
766,748,49,0.0425189302762184,1
766,749,49,0.0442048691410134,1
767,723,49,0.0493172937570725,1
767,724,49,0.0538290355414525,1
767,725,49,0.0609706618025085,1
767,726,49,0.059802228560934,1
767,727,49,0.0510950389790977,1
767,728,49,0.0415615327081072,1
767,748,49,0.0409900300242473,1
767,749,49,0.0427971121894015,1
768,722,49,0.0570957684990134,1
768,723,49,0.0506800342345798,1
768,724,49,0.0521715252883368,1
768,725,49,0.0565233953308476,1
768,726,49,0.054269381652068,1
768,727,49,0.0464234795201968,1
768,749,49,0.0421863133568756,1
769,722,49,0.0579525737658133,1
769,723,49,0.0537480264336563,1
769,724,49,0.0549091065158767,1
769,725,49,0.0556928289481254,1
769,726,49,0.050195882758459,1
769,727,49,0.0422480663786131,1
769,749,49,0.043832331595133,1
770,722,49,0.0575705230700184,1
770,723,49,0.0589873741495963,1
770,724,49,0.0612766072989882,1
770,725,49,0.0587770791988032,1
770,726,49,0.0509676184596135,1
770,727,49,0.0414723999812451,1
770,748,49,0.0417917190363001,1
770,749,49,0.0441746509001089,1
771,722,49,0.0570866094902297,1
771,723,49,0.0613099235989442,1
771,724,49,0.0631357887608603,1
771,725,49,0.0599763740827258,1
771,726,49,0.0522060040362789,1
771,727,49,0.0416547042658792,1
771,748,49,0.0411271015653838,1
772,721,49,0.0573540860684707,1
772,722,49,0.0589666393215646,1
772,723,49,0.0604374766483123,1
772,724,49,0.0601106611554305,1
772,725,49,0.0584215160968877,1
772,726,49,0.0525636919849784,1
772,727,49,0.0420699117629528,1
773,721,49,0.05889216154943,1
773,722,49,0.0592639448558032,1
773,723,49,0.0575647378637619,1
773,724,49,0.0561762991756589,1
773,725,49,0.0571716574289358,1
773,726,49,0.0534910118872904,1
773,727,49,0.0432836804759864,1
774,721,49,0.0583827281812947,1
774,722,49,0.0577437224132169,1
774,723,49,0.0544890302540984,1
774,724,49,0.0528780990214502,1
774,725,49,0.05457720328553,1
774,726,49,0.0522901706772095,1
774,727,49,0.0435187274587819,1
775,721,49,0.057378270393317,1
775,722,49,0.0561605169167217,1
775,723,49,0.0532343812190967,1
775,724,49,0.0516310410421347,1
775,725,49,0.0513029008992222,1
775,726,49,0.0484867922551681,1
775,727,49,0.0416616438100196,1
776,721,49,0.056694772604412,1
776,722,49,0.0547161563703837,1
776,723,49,0.0523013085509371,1
776,724,49,0.050731046777599,1
776,725,49,0.0477628683100199,1
776,726,49,0.0434852786938228,1
777,721,49,0.0551395902144847,1
777,722,49,0.0530899835522801,1
777,723,49,0.0519342939846745,1
777,724,49,0.0508303901231671,1
777,725,49,0.0464457120137734,1
778,721,49,0.0505217088188689,1
778,722,49,0.0496395675927063,1
778,723,49,0.0512981105321724,1
778,724,49,0.0523037686152798,1
778,725,49,0.0463994736175996,1
779,721,49,0.0482948639825559,1
779,722,49,0.0497926214419684,1
779,723,49,0.0569210768970048,1
779,724,49,0.0608167699093494,1
779,725,49,0.0514242442487697,1
780,722,49,0.0596351388280811,1
780,723,49,0.0721896581793041,1
780,724,49,0.0741483668157282,1
780,725,49,0.0583863398801539,1
780,726,49,0.0440279499642593,1
781,721,49,0.0565548084601472,1
781,722,49,0.071722024278056,1
781,723,49,0.0836795535974813,1
781,724,49,0.0793383077888903,1
781,725,49,0.0606558438541905,1
781,726,49,0.0481388959032262,1
781,727,49,0.0441665786450238,1
782,722,49,0.0690138935350763,1
782,723,49,0.0776792836500253,1
782,724,49,0.0732933295512142,1
782,725,49,0.059250136055075,1
782,726,49,0.0498734413140459,1
782,727,49,0.0469512146856953,1
782,728,49,0.043969524787803,1
782,731,49,0.0412115763901991,1
783,725,49,0.05657685712474,1
783,726,49,0.049260220264321,1
783,727,49,0.0466129044745878,1
783,728,49,0.044594929914443,1
783,731,49,0.0422815692109204,1
783,732,49,0.0416579537135055,1
784,732,49,0.0413787147836653,1
763,724,50,0.0420971725199113,1
763,725,50,0.044742933873384,1
763,726,50,0.0459205126069052,1
763,747,50,0.0422856296687696,1
763,748,50,0.0440995756837768,1
763,749,50,0.0421982406138867,1
764,723,50,0.0439110536541006,1
764,724,50,0.0490635989458857,1
764,725,50,0.0541105912571627,1
764,726,50,0.0552073041613605,1
764,727,50,0.04530917039753,1
764,747,50,0.0416791724443035,1
764,748,50,0.0438605223104803,1
764,749,50,0.0426972984579041,1
765,723,50,0.0489737498266601,1
765,724,50,0.0546869005282769,1
765,725,50,0.0587498076283751,1
765,726,50,0.0572551211943399,1
765,727,50,0.0460871265470939,1
765,748,50,0.0413640895659793,1
765,749,50,0.0428145570192956,1
766,722,50,0.0487623410884942,1
766,723,50,0.0527889798114252,1
766,724,50,0.0571248675458104,1
766,725,50,0.058091434936175,1
766,726,50,0.0541644585561665,1
766,727,50,0.0447611383495202,1
766,749,50,0.0421118274746387,1
767,722,50,0.0535071185503168,1
767,723,50,0.0536911583968279,1
767,724,50,0.0558719865130946,1
767,725,50,0.0563070069899133,1
767,726,50,0.0515024905150732,1
767,727,50,0.0435881039766145,1
768,722,50,0.0592278278672109,1
768,723,50,0.0549739765202376,1
768,724,50,0.0551836064426479,1
768,725,50,0.0547815129808782,1
768,726,50,0.0492235355685727,1
769,722,50,0.0587929101183539,1
769,723,50,0.0545942993810283,1
769,724,50,0.0537739571338492,1
769,725,50,0.0516773389123916,1
769,726,50,0.0451578440000426,1
770,721,50,0.0589950841534485,1
770,722,50,0.0574630912491608,1
770,723,50,0.0567641031649988,1
770,724,50,0.0556433356975903,1
770,725,50,0.050925705451295,1
770,726,50,0.0434813209639352,1
771,721,50,0.0561283252176081,1
771,722,50,0.0566556494712603,1
771,723,50,0.0582366706468886,1
771,724,50,0.056040914535786,1
771,725,50,0.0504605748682682,1
771,726,50,0.0432662897134405,1
772,720,50,0.0571129997628822,1
772,721,50,0.0567857841716238,1
772,722,50,0.057817437835742,1
772,723,50,0.0577111035820526,1
772,724,50,0.0543527480962454,1
772,725,50,0.0505753165946014,1
772,726,50,0.0448262570636828,1
773,721,50,0.057707086378082,1
773,722,50,0.0578545658837455,1
773,723,50,0.0555039068200726,1
773,724,50,0.0522113458902803,1
773,725,50,0.0513116814365686,1
773,726,50,0.0472951587144844,1
774,720,50,0.0541893133161304,1
774,721,50,0.0566208192855549,1
774,722,50,0.0560778317211315,1
774,723,50,0.0530296173580237,1
774,724,50,0.0501971317142022,1
774,725,50,0.0502423212038212,1
774,726,50,0.0467384975177032,1
775,720,50,0.0515635703983258,1
775,721,50,0.0545273964443755,1
775,722,50,0.0542089776106679,1
775,723,50,0.0520331507241089,1
775,724,50,0.0488481838172188,1
775,725,50,0.0464098491417176,1
775,726,50,0.0420282069139249,1
776,720,50,0.0520294741444318,1
776,721,50,0.053902648236016,1
776,722,50,0.0529511818560014,1
776,723,50,0.0508697133055072,1
776,724,50,0.0471430780774897,1
776,725,50,0.0425913588958565,1
777,720,50,0.0516821941602593,1
777,721,50,0.0522337622128407,1
777,722,50,0.0510410905790717,1
777,723,50,0.0497312441883007,1
777,724,50,0.0465389349355262,1
777,725,50,0.0411854564542875,1
778,721,50,0.048323838674452,1
778,722,50,0.0476926510449229,1
778,723,50,0.0484430301435415,1
778,724,50,0.0473520159378431,1
778,725,50,0.0415824432550205,1
779,721,50,0.0466767688262723,1
779,722,50,0.0470413990224796,1
779,723,50,0.0513182452126391,1
779,724,50,0.0536683419758908,1
779,725,50,0.0470776025188291,1
780,721,50,0.0489248891640989,1
780,722,50,0.0521809167867178,1
780,723,50,0.0587387616691395,1
780,724,50,0.0609975386812948,1
780,725,50,0.0526131311681653,1
780,726,50,0.0416650770866298,1
781,722,50,0.0602738039718653,1
781,723,50,0.0659503294518168,1
781,724,50,0.0644319236721297,1
781,725,50,0.0548789423423204,1
781,726,50,0.0459723307534125,1
781,727,50,0.0414195113012436,1
782,723,50,0.0645442485879988,1
782,724,50,0.0624846394663786,1
782,725,50,0.0553600119795942,1
782,726,50,0.0479609386333868,1
782,727,50,0.0441432702112182,1
782,728,50,0.0411497287506022,1
783,724,50,0.0579838300998031,1
783,725,50,0.0552332294548186,1
783,726,50,0.0483039743307263,1
783,727,50,0.0438828115747725,1
783,728,50,0.0421037984734322,1
783,731,50,0.0413217737559168,1
783,732,50,0.0415115988086844,1
784,726,50,0.044871541171161,1
784,727,50,0.0420884893037916,1
784,732,50,0.0424861627598466,1
784,733,50,0.0418385765036108,1
763,724,51,0.0421750430181449,1
763,725,51,0.0442408969184812,1
763,726,51,0.0441120328008002,1
764,722,51,0.0427168789480518,1
764,723,51,0.0462225274071713,1
764,724,51,0.0483747917433882,1
764,725,51,0.0516968301914148,1
764,726,51,0.0520025918589107,1
764,727,51,0.042690288626211,1
765,722,51,0.0481704279806918,1
765,723,51,0.0518318471733201,1
765,724,51,0.0530144514668558,1
765,725,51,0.0541939468878705,1
765,726,51,0.0523668111432718,1
765,727,51,0.0427505196520969,1
766,722,51,0.05187955079463,1
766,723,51,0.0553612555286026,1
766,724,51,0.0558658012084615,1
766,725,51,0.0526355583041954,1
766,726,51,0.0477530388661186,1
767,721,51,0.052785724957064,1
767,722,51,0.060142885294953,1
767,723,51,0.0648117089460353,1
767,724,51,0.0623113373952186,1
767,725,51,0.053609122009416,1
767,726,51,0.0457178573724117,1
768,721,51,0.058765600700782,1
768,722,51,0.068480054165967,1
768,723,51,0.0716699844554211,1
768,724,51,0.0651518466335117,1
768,725,51,0.0526666470294058,1
768,726,51,0.0441555137622163,1
769,721,51,0.0598327820193973,1
769,722,51,0.0665642804107423,1
769,723,51,0.0668720858239998,1
769,724,51,0.0594221783570222,1
769,725,51,0.0482893058591617,1
770,720,51,0.0560072954586801,1
770,721,51,0.0580532904220255,1
770,722,51,0.0600724409469935,1
770,723,51,0.0585903792387611,1
770,724,51,0.0534313539752953,1
770,725,51,0.0456419792559589,1
771,720,51,0.0574818850593923,1
771,721,51,0.0574252927660397,1
771,722,51,0.0578206224025505,1
771,723,51,0.0565930070416449,1
771,724,51,0.0521395606720857,1
771,725,51,0.0454889848807798,1
772,720,51,0.0569885907946923,1
772,721,51,0.0567175295512661,1
772,722,51,0.0569330960685079,1
772,723,51,0.0550117966302979,1
772,724,51,0.0503173991235207,1
772,725,51,0.0454443198444383,1
773,720,51,0.0548582345479628,1
773,721,51,0.0562123188430245,1
773,722,51,0.0560498518684421,1
773,723,51,0.0528671125362976,1
773,724,51,0.0485597237011444,1
773,725,51,0.0458080146755219,1
774,720,51,0.0526847163371716,1
774,721,51,0.0546276102742495,1
774,722,51,0.0542062472095842,1
774,723,51,0.0506966491306792,1
774,724,51,0.0469175685749153,1
774,725,51,0.0450115431625696,1
775,720,51,0.0492260767339377,1
775,721,51,0.0513258687087342,1
775,722,51,0.0519510224222051,1
775,723,51,0.0495812775846204,1
775,724,51,0.0452509317534249,1
775,725,51,0.041372429454438,1
776,720,51,0.0491645426849603,1
776,721,51,0.0504279127832253,1
776,722,51,0.0510549750740874,1
776,723,51,0.0487214823934655,1
776,724,51,0.0431801090637897,1
777,720,51,0.048695838250218,1
777,721,51,0.0490294446020327,1
777,722,51,0.0488293467531087,1
777,723,51,0.0468876693313651,1
777,724,51,0.0419644642137738,1
778,720,51,0.0472221569809554,1
778,721,51,0.0469004184120688,1
778,722,51,0.0459343268143683,1
778,723,51,0.0449115726357625,1
778,724,51,0.0418533855502806,1
779,721,51,0.0458553992994775,1
779,722,51,0.0452793468482672,1
779,723,51,0.0459828522593707,1
779,724,51,0.045583510825624,1
780,721,51,0.0470700060564081,1
780,722,51,0.0483000598547171,1
780,723,51,0.0504034959687818,1
780,724,51,0.0508944923711837,1
780,725,51,0.0450140681077302,1
781,722,51,0.0525577932372907,1
781,723,51,0.055991659181583,1
781,724,51,0.0563199615265401,1
781,725,51,0.0496961166321803,1
781,726,51,0.0415729057747994,1
782,723,51,0.0575725722225149,1
782,724,51,0.0582137244643159,1
782,725,51,0.0528076871138997,1
782,726,51,0.0446265782367072,1
783,724,51,0.0544737454147645,1
783,725,51,0.0528754929752673,1
783,726,51,0.0462472307785603,1
783,727,51,0.0413859652150579,1
784,726,51,0.044092646953106,1
784,727,51,0.0412907390980546,1
784,732,51,0.0418130540118967,1
784,733,51,0.0415047160352595,1
785,727,51,0.0410051715851084,1
785,734,51,0.0418654047217837,1
785,735,51,0.0418721577335729,1
785,736,51,0.0415113311753108,1
785,737,51,0.0413287376303639,1
752,746,52,0.0413442630693973,1
763,723,52,0.04156227072741,1
763,724,52,0.042276227356919,1
763,725,52,0.0419622528592328,1
764,722,52,0.0479093313495374,1
764,723,52,0.0500931223564851,1
764,724,52,0.0471112972902224,1
764,725,52,0.0463848916537921,1
764,726,52,0.0454671200451709,1
765,721,52,0.047140915383562,1
765,722,52,0.0559166028888227,1
765,723,52,0.0580167192677084,1
765,724,52,0.0515253393764192,1
765,725,52,0.0471240734046002,1
765,726,52,0.0451301858480749,1
766,721,52,0.0527949542534004,1
766,722,52,0.0697906358726734,1
766,723,52,0.0754227720597592,1
766,724,52,0.0625987431980032,1
766,725,52,0.046956426778061,1
767,721,52,0.0565042987434662,1
767,722,52,0.0849199721064388,1
767,723,52,0.0978475940073308,1
767,724,52,0.0774943733192083,1
767,725,52,0.0496386376343173,1
768,721,52,0.0595032523456362,1
768,722,52,0.0901227432613269,1
768,723,52,0.103364009849081,1
768,724,52,0.0798301260149847,1
768,725,52,0.0491825038580297,1
769,721,52,0.0598724836731747,1
769,722,52,0.0770546543898318,1
769,723,52,0.0814631924199827,1
769,724,52,0.0634001564665803,1
769,725,52,0.0433177131683059,1
770,720,52,0.057528069388218,1
770,721,52,0.0662669208091555,1
770,722,52,0.0710278752215572,1
770,723,52,0.0652556235016316,1
770,724,52,0.0523127492018145,1
771,720,52,0.0644554105281844,1
771,721,52,0.07214955642715,1
771,722,52,0.0710700423464122,1
771,723,52,0.0610084819125689,1
771,724,52,0.0503459574968358,1
772,719,52,0.0548948435494237,1
772,720,52,0.0628221657009373,1
772,721,52,0.0675782702722062,1
772,722,52,0.0653931059546144,1
772,723,52,0.0568088222686884,1
772,724,52,0.04854699624738,1
773,720,52,0.0559155918294115,1
773,721,52,0.0584707498241514,1
773,722,52,0.0571068414919232,1
773,723,52,0.0514707259480104,1
773,724,52,0.0456392596683448,1
774,720,52,0.0511125676133816,1
774,721,52,0.0531163197575845,1
774,722,52,0.0529761231237224,1
774,723,52,0.0487353614817464,1
774,724,52,0.0434153236553645,1
775,719,52,0.045415469507443,1
775,720,52,0.0468870367433913,1
775,721,52,0.0488188901279683,1
775,722,52,0.0504649867638806,1
775,723,52,0.0473255121237594,1
776,719,52,0.0444162535488726,1
776,720,52,0.0451601445657081,1
776,721,52,0.0472221569809554,1
776,722,52,0.0497091252361554,1
776,723,52,0.0467128695946601,1
777,720,52,0.0442748755434525,1
777,721,52,0.0457878799950552,1
777,722,52,0.0470811601503401,1
777,723,52,0.0443304675908636,1
778,720,52,0.0437759393509686,1
778,721,52,0.0446802103427463,1
778,722,52,0.0441080480372385,1
778,723,52,0.0417051058478638,1
779,720,52,0.0426058002845586,1
779,721,52,0.0442403562449993,1
779,722,52,0.0435580776747961,1
779,723,52,0.0414755629211144,1
780,721,52,0.0449558700141362,1
780,722,52,0.0456160107086222,1
780,723,52,0.0446224556014075,1
780,724,52,0.0438692244501718,1
781,722,52,0.0470506066918768,1
781,723,52,0.0490121322371416,1
781,724,52,0.0515745893238874,1
781,725,52,0.0470753803508184,1
782,723,52,0.0524343466678985,1
782,724,52,0.0565591176277981,1
782,725,52,0.0523266228833606,1
782,726,52,0.0437505763579317,1
783,724,52,0.0531719226184652,1
783,725,52,0.0514711909272048,1
783,726,52,0.0454770684372382,1
784,725,52,0.0462201484438509,1
784,726,52,0.0437001504456404,1
784,730,52,0.0412364608872045,1
784,734,52,0.0410063394398294,1
785,727,52,0.0417933897173593,1
785,734,52,0.0442612073178296,1
785,735,52,0.044195401948345,1
785,736,52,0.0434271535911489,1
785,737,52,0.04277255750322,1
785,738,52,0.0414579856262171,1
763,723,53,0.042490112379632,1
763,724,53,0.0414898745481808,1
764,721,53,0.0431992894555608,1
764,722,53,0.0542884187653665,1
764,723,53,0.0559909130521779,1
764,724,53,0.0466515410016058,1
765,721,53,0.0561218749829688,1
765,722,53,0.0804811239208914,1
765,723,53,0.0832791362235056,1
765,724,53,0.0583844853701109,1
765,725,53,0.0410084048125303,1
766,721,53,0.0685408150518653,1
766,722,53,0.112594203703449,1
766,723,53,0.121731434159335,1
766,724,53,0.0785258377476079,1
766,725,53,0.0429479357605507,1
767,721,53,0.0688611911235775,1
767,722,53,0.12130723255889,1
767,723,53,0.138975079450887,1
767,724,53,0.0907627168349372,1
767,725,53,0.0458461051223233,1
768,721,53,0.0606511183679585,1
768,722,53,0.0993788894428269,1
768,723,53,0.116229183962811,1
768,724,53,0.0802904770444313,1
768,725,53,0.0447316716447555,1
769,720,53,0.0505746948200972,1
769,721,53,0.0663088608511481,1
769,722,53,0.0838601817943214,1
769,723,53,0.0848255272626169,1
769,724,53,0.0596131226038973,1
770,720,53,0.0677131250520668,1
770,721,53,0.0936633435576851,1
770,722,53,0.0986942346126706,1
770,723,53,0.0792506051433879,1
770,724,53,0.0518004664844294,1
771,719,53,0.0565119709001746,1
771,720,53,0.0835732247505268,1
771,721,53,0.115103166555893,1
771,722,53,0.112222901596475,1
771,723,53,0.0809762456619604,1
771,724,53,0.0514481149829965,1
772,719,53,0.0569257861630323,1
772,720,53,0.0791439086384657,1
772,721,53,0.101105627528568,1
772,722,53,0.0940990615032955,1
772,723,53,0.068667803032564,1
772,724,53,0.0476653362206162,1
773,720,53,0.062371703589475,1
773,721,53,0.0712359534110744,1
773,722,53,0.0665247625859487,1
773,723,53,0.0536092517710517,1
773,724,53,0.0426545609225256,1
774,719,53,0.0466796235822568,1
774,720,53,0.0502230299739863,1
774,721,53,0.0527865575942262,1
774,722,53,0.0518985338405802,1
774,723,53,0.0462490474414596,1
775,719,53,0.0436552258860276,1
775,720,53,0.0446397652629312,1
775,721,53,0.045962896001153,1
775,722,53,0.0473629537623824,1
775,723,53,0.0432869731774913,1
776,719,53,0.0414027936771826,1
776,720,53,0.0418900432123548,1
776,721,53,0.0439156520820644,1
776,722,53,0.0462978594434074,1
776,723,53,0.0423824967297905,1
777,721,53,0.0427692675050825,1
777,722,53,0.0440169472589022,1
778,721,53,0.042563457440822,1
778,722,53,0.0421632157857279,1
779,721,53,0.0431016276045215,1
779,722,53,0.0426199010489671,1
780,721,53,0.0447237697018173,1
780,722,53,0.0451147577302683,1
780,723,53,0.042409949425835,1
781,721,53,0.0440431158554272,1
781,722,53,0.0454520244415557,1
781,723,53,0.0465636058665062,1
781,724,53,0.049324187343967,1
781,725,53,0.0464660629636329,1
782,722,53,0.0452554653005708,1
782,723,53,0.0503957210841117,1
782,724,53,0.0563848207174313,1
782,725,53,0.0538748035516971,1
782,726,53,0.0446711865023331,1
783,723,53,0.0492150740285806,1
783,724,53,0.0544184074838899,1
783,725,53,0.0527376536777865,1
783,726,53,0.0458955443055101,1
784,725,53,0.0467017155007281,1
784,726,53,0.0438021430912699,1
785,734,53,0.0429299583672768,1
785,735,53,0.0439548671297081,1
785,736,53,0.0436693374639057,1
785,737,53,0.0431227949713387,1
785,738,53,0.0423036016553086,1
763,722,54,0.0452566845192725,1
763,723,54,0.0497592618881339,1
763,724,54,0.0431193887284026,1
764,721,54,0.0477405330884818,1
764,722,54,0.0754027022601103,1
764,723,54,0.0802873681719103,1
764,724,54,0.055092362385839,1
765,721,54,0.0651902939248111,1
765,722,54,0.114224799230635,1
765,723,54,0.121238945498123,1
765,724,54,0.0712839544027993,1
766,721,54,0.0771811557643968,1
766,722,54,0.141547203779489,1
766,723,54,0.1540678391236,1
766,724,54,0.0868041705303194,1
767,721,54,0.0698095918849495,1
767,722,54,0.127122283991644,1
767,723,54,0.144917719011905,1
767,724,54,0.086412025460617,1
768,721,54,0.0546034529830773,1
768,722,54,0.0863348659480121,1
768,723,54,0.100038489463831,1
768,724,54,0.0665793111335397,1
769,720,54,0.0508664584511461,1
769,721,54,0.070856579049015,1
769,722,54,0.0854142287699367,1
769,723,54,0.0772556065028573,1
769,724,54,0.051091411060034,1
770,719,54,0.0515507888772132,1
770,720,54,0.0822036880073518,1
770,721,54,0.130418316045191,1
770,722,54,0.1381920653009,1
770,723,54,0.0961271601743893,1
770,724,54,0.0507056513441532,1
771,719,54,0.061553480782345,1
771,720,54,0.112178339288095,1
771,721,54,0.175728646187339,1
771,722,54,0.172029542053021,1
771,723,54,0.106808813617913,1
771,724,54,0.0510648693988066,1
772,719,54,0.0615868295227099,1
772,720,54,0.108068799100181,1
772,721,54,0.157095859332158,1
772,722,54,0.143252585262694,1
772,723,54,0.0871283637568139,1
772,724,54,0.045386878693719,1
773,719,54,0.0516967166499836,1
773,720,54,0.0759075399036494,1
773,721,54,0.098044161258418,1
773,722,54,0.087288505835424,1
773,723,54,0.0585901900030425,1
774,719,54,0.0437747120221647,1
774,720,54,0.050192952308187,1
774,721,54,0.0567680987420301,1
774,722,54,0.0538116420755391,1
774,723,54,0.0436815134307186,1
775,721,54,0.0428775265563675,1
775,722,54,0.0433762437760913,1
776,722,54,0.0410549595026911,1
779,721,54,0.0418066632513404,1
779,722,54,0.0423107304351678,1
780,721,54,0.0442985246015518,1
780,722,54,0.0450703170734218,1
781,721,54,0.0434112442739434,1
781,722,54,0.0443987195078539,1
781,723,54,0.0440219971492234,1
781,724,54,0.0452283883725962,1
781,725,54,0.0447023617353006,1
782,722,54,0.0427068575650644,1
782,723,54,0.0481662215410025,1
782,724,54,0.0540837684457246,1
782,725,54,0.054742433101605,1
782,726,54,0.0456684398161641,1
783,723,54,0.0488712111008138,1
783,724,54,0.0549794211022005,1
783,725,54,0.0551750421746943,1
783,726,54,0.0471713120467156,1
784,724,54,0.0467884611541675,1
784,725,54,0.0476722352142455,1
784,726,54,0.0439461460664447,1
763,722,55,0.0580070682460561,1
763,723,55,0.0664117131676139,1
763,724,55,0.04994225282809,1
764,721,55,0.0555965836616086,1
764,722,55,0.101755052074642,1
764,723,55,0.114502435063601,1
764,724,55,0.0714348023042552,1
765,721,55,0.0724216773906008,1
765,722,55,0.137346722311916,1
765,723,55,0.150819613419326,1
765,724,55,0.0848358000587734,1
766,721,55,0.0773324956787213,1
766,722,55,0.138446700883945,1
766,723,55,0.149899949453518,1
766,724,55,0.0828275278842616,1
767,720,55,0.0461831014968697,1
767,721,55,0.0647731805537137,1
767,722,55,0.105052922418027,1
767,723,55,0.115576807339526,1
767,724,55,0.0705119051110254,1
768,720,55,0.0429797706151662,1
768,721,55,0.0502569247945679,1
768,722,55,0.0670900258978272,1
768,723,55,0.0726517015167492,1
768,724,55,0.0526291783571087,1
769,720,55,0.0541949579472817,1
769,721,55,0.0720965379855129,1
769,722,55,0.0827668643195901,1
769,723,55,0.0668051937008166,1
769,724,55,0.0461853993591678,1
770,720,55,0.0941348108339201,1
770,721,55,0.148910971147327,1
770,722,55,0.158964437699146,1
770,723,55,0.101833092885022,1
770,724,55,0.0504895603736339,1
771,719,55,0.0658708071960959,1
771,720,55,0.133583310473659,1
771,721,55,0.21263479098039,1
771,722,55,0.211103409037137,1
771,723,55,0.122404129292072,1
771,724,55,0.0523109433523849,1
771,752,55,0.0411132846545533,1
772,719,55,0.0663755745520823,1
772,720,55,0.132041644920779,1
772,721,55,0.199977170602899,1
772,722,55,0.184793264194604,1
772,723,55,0.10456355884954,1
772,724,55,0.0464719617113207,1
772,752,55,0.0438896537976862,1
772,753,55,0.0497275784220933,1
773,719,55,0.0551333129953596,1
773,720,55,0.0908126318107882,1
773,721,55,0.126029539630804,1
773,722,55,0.112298877034154,1
773,723,55,0.068737425556831,1
773,752,55,0.0422720479509037,1
773,753,55,0.0490360354117774,1
774,719,55,0.0445163213969065,1
774,720,55,0.0538604973313655,1
774,721,55,0.0652621115834146,1
774,722,55,0.059913445096165,1
774,723,55,0.0444289837060044,1
775,721,55,0.0431090780851024,1
775,722,55,0.041557037008105,1
779,721,55,0.0421943558749191,1
779,722,55,0.042897369273154,1
780,721,55,0.0446158810118674,1
780,722,55,0.0461395340276965,1
780,750,55,0.0477037078176282,1
781,721,55,0.043284442825596,1
781,722,55,0.0451431917486825,1
781,723,55,0.0435314576159137,1
781,724,55,0.0431912009802713,1
781,725,55,0.0424164212874136,1
782,722,55,0.0422664249466918,1
782,723,55,0.046568666570297,1
782,724,55,0.0523662272159113,1
782,725,55,0.0534731804758567,1
782,726,55,0.045867407657511,1
783,723,55,0.0473295293277301,1
783,724,55,0.0555138119582614,1
783,725,55,0.0565216165150921,1
783,726,55,0.0488234912592995,1
784,724,55,0.0484316543734818,1
784,725,55,0.0490438481435911,1
784,726,55,0.0445807777860537,1
747,735,56,0.0454016877403888,1
749,755,56,0.0665980292494838,1
751,759,56,0.0849353758939387,1
763,722,56,0.0658173454022035,1
763,723,56,0.080417616413705,1
763,724,56,0.0558939486699303,1
764,721,56,0.0581272869947612,1
764,722,56,0.115170577725619,1
764,723,56,0.138740437973203,1
764,724,56,0.0844409299947222,1
765,721,56,0.0695853637785273,1
765,722,56,0.133334503350748,1
765,723,56,0.153821302829314,1
765,724,56,0.0878588190376237,1
766,721,56,0.0675150817623741,1
766,722,56,0.109523481103289,1
766,723,56,0.119498950098606,1
766,724,56,0.0697349086568918,1
767,720,56,0.0473773843376149,1
767,721,56,0.0565179940027632,1
767,722,56,0.0764077061283047,1
767,723,56,0.0813929156808026,1
767,724,56,0.0555039608874208,1
768,720,56,0.0441578602851278,1
768,721,56,0.0482242412123474,1
768,722,56,0.0564984108092481,1
768,723,56,0.0579877445758122,1
768,724,56,0.0459275792093139,1
769,720,56,0.0539360131965853,1
769,721,56,0.0691418979819211,1
769,722,56,0.0774879987788565,1
769,723,56,0.0622991506149361,1
769,724,56,0.0436587186367208,1
770,720,56,0.0920134351737253,1
770,721,56,0.141453559132421,1
770,722,56,0.149228757393061,1
770,723,56,0.095162317532432,1
770,724,56,0.0465938565478197,1
771,719,56,0.0648014739970226,1
771,720,56,0.135405185465278,1
771,721,56,0.215861508693554,1
771,722,56,0.213378498168242,1
771,723,56,0.121867251337994,1
771,724,56,0.0485981169250956,1
771,753,56,0.0438154869128037,1
772,719,56,0.0663237455921054,1
772,720,56,0.139574729596216,1
772,721,56,0.218353429517848,1
772,722,56,0.204302601712144,1
772,723,56,0.113015734376894,1
772,724,56,0.0445460097777988,1
772,752,56,0.0449819358826996,1
772,753,56,0.0525823938807181,1
772,754,56,0.047605981085771,1
773,718,56,0.0422559412878773,1
773,719,56,0.0572329968354597,1
773,720,56,0.102381660199779,1
773,721,56,0.15106112145023,1
773,722,56,0.136740389442351,1
773,723,56,0.0785795266243626,1
773,752,56,0.0412418973590652,1
773,753,56,0.0493710907685237,1
773,754,56,0.0481473844768924,1
773,755,56,0.0416169057827581,1
774,719,56,0.0450793409138351,1
774,720,56,0.0607199028483285,1
774,721,56,0.0796873665888183,1
774,722,56,0.0717769945509629,1
774,723,56,0.0465835621247239,1
774,753,56,0.0412027688191786,1
774,754,56,0.0442738780008784,1
774,755,56,0.0436567343650421,1
775,720,56,0.0418637610743987,1
775,721,56,0.047599190226838,1
775,722,56,0.0435714296064321,1
777,747,56,0.0411044878970025,1
779,721,56,0.0424243854078023,1
779,722,56,0.0422217950541266,1
779,751,56,0.0417675320080864,1
779,752,56,0.0421187156547984,1
780,721,56,0.0441487066830789,1
780,722,56,0.0457986339906106,1
780,750,56,0.0484095624550106,1
780,751,56,0.0654366626103179,1
781,721,56,0.0423985682490406,1
781,722,56,0.0455587371666824,1
781,723,56,0.0436146077906983,1
781,750,56,0.0643589327520704,1
782,722,56,0.0422374340345912,1
782,723,56,0.0454923046159588,1
782,724,56,0.0500344646904316,1
782,725,56,0.0516711860481673,1
782,726,56,0.0452462251907647,1
782,749,56,0.0417330586668791,1
783,723,56,0.0451400315121807,1
783,724,56,0.0546588341678304,1
783,725,56,0.0574718555663027,1
783,726,56,0.0504078537970461,1
784,724,56,0.0496844759321146,1
784,725,56,0.0512670001800226,1
784,726,56,0.04637538661398,1
746,736,57,0.0503419240726606,1
747,735,57,0.0774381216501493,1
747,736,57,0.0596350415068544,1
748,735,57,0.0534003625713116,1
748,736,57,0.0431442515984687,1
748,754,57,0.0411217299743409,1
748,755,57,0.0417827573733373,1
748,757,57,0.0425715648396834,1
748,758,57,0.0456028831564812,1
748,759,57,0.0450086208223998,1
749,753,57,0.0514321543018102,1
749,754,57,0.0579384189340566,1
749,755,57,0.055747236920611,1
749,756,57,0.0541208640533192,1
749,757,57,0.0656268120671747,1
749,758,57,0.0750453711559089,1
749,759,57,0.0615646402830119,1
750,752,57,0.0478577402858926,1
750,753,57,0.0625610798832526,1
750,754,57,0.0694176793048444,1
750,755,57,0.0641566289553401,1
750,756,57,0.0660573125136844,1
750,759,57,0.0806382598549421,1
750,760,57,0.0538678504907196,1
751,752,57,0.0496061485647887,1
751,753,57,0.0594379065486113,1
751,754,57,0.0637467389819611,1
751,755,57,0.0588686044058228,1
751,756,57,0.059805456381621,1
751,757,57,0.0780931151330874,1
751,758,57,0.0904037150496766,1
751,759,57,0.0712797425563752,1
751,760,57,0.0509874071090518,1
752,752,57,0.0467708784525354,1
752,753,57,0.0490483465469607,1
752,754,57,0.0489815841854131,1
752,755,57,0.0456395786656992,1
752,756,57,0.046109402294549,1
752,757,57,0.0551142164079782,1
752,758,57,0.0616739860879955,1
752,759,57,0.0541871289952634,1
752,760,57,0.0441360765505412,1
762,723,57,0.0447123128307354,1
763,721,57,0.0420363116094189,1
763,722,57,0.0663740931067418,1
763,723,57,0.0837555398486305,1
763,724,57,0.0592176794259553,1
764,721,57,0.0558847355937983,1
764,722,57,0.104176988123437,1
764,723,57,0.131981835620209,1
764,724,57,0.0853588692121228,1
765,721,57,0.059244156206365,1
765,722,57,0.102530075070567,1
765,723,57,0.124253816527601,1
765,724,57,0.0774831597511933,1
766,721,57,0.0549765176856026,1
766,722,57,0.0756662859892815,1
766,723,57,0.0841595581079958,1
766,724,57,0.056231772274904,1
767,720,57,0.046349218017455,1
767,721,57,0.048402252549535,1
767,722,57,0.0551953120235315,1
767,723,57,0.0571428773794932,1
767,724,57,0.0442060396991018,1
768,720,57,0.0439070229332929,1
768,721,57,0.0458183145053525,1
768,722,57,0.0499941412621499,1
768,723,57,0.0495065943565627,1
769,720,57,0.051140698854646,1
769,721,57,0.0618842972589931,1
769,722,57,0.0674693624127429,1
769,723,57,0.0569916510065999,1
770,720,57,0.0788540535848079,1
770,721,57,0.112679986958091,1
770,722,57,0.116079255206275,1
770,723,57,0.0791977651239998,1
770,724,57,0.0420857534959731,1
771,719,57,0.0596181616807488,1
771,720,57,0.115400580224828,1
771,721,57,0.178692920992379,1
771,722,57,0.176757785719767,1
771,723,57,0.106128203025401,1
771,724,57,0.0449998429884209,1
771,753,57,0.0439727904556338,1
772,719,57,0.0631585781481233,1
772,720,57,0.125254246298138,1
772,721,57,0.1957323214694,1
772,722,57,0.188509053512574,1
772,723,57,0.1089265235119,1
772,724,57,0.043771605853011,1
772,752,57,0.0445958003987489,1
772,753,57,0.0533681276183195,1
772,754,57,0.0477958872395608,1
773,718,57,0.0431392206317194,1
773,719,57,0.058452188503517,1
773,720,57,0.100645838799542,1
773,721,57,0.149378978113278,1
773,722,57,0.139444265085028,1
773,723,57,0.0813003091268193,1
773,753,57,0.047865920675674,1
773,754,57,0.0469619362408417,1
773,755,57,0.0411991787472587,1
774,719,57,0.048006387646277,1
774,720,57,0.0665490388252869,1
774,721,57,0.0880841933718276,1
774,722,57,0.0790445274457538,1
774,723,57,0.0493436353691117,1
774,754,57,0.0431095538777664,1
774,755,57,0.0425067894531819,1
775,720,57,0.0447574969136195,1
775,721,57,0.0516410164678762,1
775,722,57,0.0451696712324596,1
777,746,57,0.0410106621243174,1
777,747,57,0.0428812599067602,1
779,721,57,0.0411152986632735,1
779,751,57,0.0442549246919697,1
779,752,57,0.0448100990366756,1
779,753,57,0.0424354070367313,1
779,754,57,0.0420993189936345,1
779,755,57,0.0416011829979038,1
780,721,57,0.0423267289634978,1
780,722,57,0.0439515933517751,1
780,750,57,0.0516222496913187,1
780,753,57,0.0576114574593347,1
780,754,57,0.0460438726685403,1
781,721,57,0.0411578334460962,1
781,722,57,0.0450198073567408,1
781,723,57,0.0441654134936703,1
781,749,57,0.0411203215199205,1
781,754,57,0.0630343800425912,1
781,755,57,0.0552426858340174,1
782,722,57,0.0428699490175184,1
782,723,57,0.0449803165656213,1
782,724,57,0.0466522871310109,1
782,725,57,0.0482963778683053,1
782,726,57,0.0420167932967215,1
782,749,57,0.0424377427461732,1
783,723,57,0.0422183185236379,1
783,724,57,0.0490533694036077,1
783,725,57,0.0531477220734145,1
783,726,57,0.0471612663334215,1
783,750,57,0.0556991602345987,1
784,724,57,0.0459642260579185,1
784,725,57,0.0487385082014112,1
784,726,57,0.0442766192154317,1
786,731,57,0.0414736029797424,1
746,735,58,0.0816662910067314,1
746,736,58,0.0595047662313856,1
747,734,58,0.0669889145499732,1
747,735,58,0.104232417968803,1
747,736,58,0.0751950295757045,1
748,734,58,0.0441534294659435,1
748,735,58,0.065803693396785,1
748,736,58,0.0484866570867976,1
749,754,58,0.0428820195530023,1
749,755,58,0.0421361415611207,1
749,756,58,0.0410678545652349,1
749,757,58,0.0474927316182478,1
749,758,58,0.0549129507043332,1
749,759,58,0.047664536023863,1
750,753,58,0.0426437366394176,1
750,754,58,0.0490798083368737,1
750,755,58,0.0481189017978648,1
750,756,58,0.0500758153983289,1
750,757,58,0.0652476431610384,1
750,758,58,0.0780120465512082,1
750,759,58,0.0638680066372212,1
750,760,58,0.0450072826555321,1
751,753,58,0.0418455809285691,1
751,754,58,0.0462031604830489,1
751,755,58,0.0457115747465517,1
751,756,58,0.0469939765513804,1
751,757,58,0.0573040899915975,1
751,758,58,0.0673107504400866,1
751,759,58,0.0564528698818659,1
751,760,58,0.0424117769022039,1
752,757,58,0.0431662164586717,1
752,758,58,0.0477126451502843,1
752,759,58,0.0432208244803457,1
762,723,58,0.0445411680467682,1
763,722,58,0.0570646743670682,1
763,723,58,0.0720827454049891,1
763,724,58,0.0544957886726224,1
764,721,58,0.0476617083015525,1
764,722,58,0.0787053791907493,1
764,723,58,0.101909814452107,1
764,724,58,0.0725767587654201,1
765,721,58,0.0475799044037379,1
765,722,58,0.0706407151613582,1
765,723,58,0.0876894206290031,1
765,724,58,0.0619960004003579,1
766,721,58,0.0465465097710079,1
766,722,58,0.0560709759813808,1
766,723,58,0.0625905574014869,1
766,724,58,0.0475699343847313,1
767,720,58,0.0461958992381867,1
767,721,58,0.0456735221468942,1
767,722,58,0.0480242028375063,1
767,723,58,0.0483634321935331,1
768,720,58,0.0441676897290292,1
768,721,58,0.0452098648991056,1
768,722,58,0.0485356042571159,1
768,723,58,0.0466380566049667,1
769,720,58,0.0470659293783544,1
769,721,58,0.0539020534951859,1
769,722,58,0.0589865901730475,1
769,723,58,0.0528518817643119,1
770,720,58,0.061760639826943,1
770,721,58,0.0807755855126151,1
770,722,58,0.0837403685507278,1
770,723,58,0.0633147895305198,1
771,719,58,0.0507661635202498,1
771,720,58,0.0856351912085281,1
771,721,58,0.12575064943536,1
771,722,58,0.12656228683948,1
771,723,58,0.0813344039965892,1
771,753,58,0.0433136013464759,1
772,719,58,0.0560017319285512,1
772,720,58,0.099110034147207,1
772,721,58,0.150282594890143,1
772,722,58,0.149060921530803,1
772,723,58,0.0900563269308077,1
772,752,58,0.0425138966061017,1
772,753,58,0.0501590142337268,1
772,754,58,0.045434668822786,1
773,718,58,0.0426284490967163,1
773,719,58,0.0562516636523039,1
773,720,58,0.0879957662238594,1
773,721,58,0.125452500450489,1
773,722,58,0.118923608633024,1
773,723,58,0.0710381588311833,1
773,753,58,0.0431861619034198,1
773,754,58,0.0433411811007887,1
774,719,58,0.0493186130003684,1
774,720,58,0.0673616602551442,1
774,721,58,0.0855995824530088,1
774,722,58,0.0753502082717506,1
774,723,58,0.0469538910194308,1
775,720,58,0.0463445303783668,1
775,721,58,0.0519568671025447,1
775,722,58,0.0432481122709783,1
779,751,58,0.0447072467202098,1
779,752,58,0.0447497085121124,1
779,753,58,0.0427014373134082,1
779,754,58,0.0428307285631399,1
780,750,58,0.0519021022855609,1
780,751,58,0.0772425600517386,1
780,753,58,0.056421554073793,1
780,754,58,0.0458394872789046,1
780,755,58,0.0436003556377149,1
781,722,58,0.0423174347863436,1
781,723,58,0.0427850876111635,1
781,750,58,0.0712912372746008,1
781,756,58,0.0515716318399413,1
782,722,58,0.0410501529154369,1
782,723,58,0.0425333392245116,1
782,724,58,0.0434597210583324,1
782,725,58,0.0445676583440149,1
782,750,58,0.0686037926990394,1
783,724,58,0.0431346708643691,1
783,725,58,0.0479980342409814,1
783,726,58,0.043574887213349,1
783,750,58,0.0534152851594126,1
784,725,58,0.0445148102145245,1
784,726,58,0.0419016487686443,1
784,750,58,0.0480410718501423,1
784,751,58,0.0659318762658788,1
785,750,58,0.0490559267891772,1
786,731,58,0.0436617220779129,1
786,732,58,0.0411358577724235,1
746,735,59,0.0759386881029429,1
746,736,59,0.0561918759786731,1
747,734,59,0.0648502643720311,1
747,735,59,0.099145502327621,1
747,736,59,0.0732926266756877,1
747,739,59,0.0412922935343151,1
748,734,59,0.0424933564205235,1
748,735,59,0.0630343476021823,1
748,736,59,0.0477648525816986,1
748,738,59,0.0464812937356186,1
748,739,59,0.0499625064567227,1
762,723,59,0.0424885849770456,1
763,722,59,0.0464167373218773,1
763,723,59,0.0542881430218907,1
763,724,59,0.0462574441006338,1
764,722,59,0.0530218695070278,1
764,723,59,0.0646844235949215,1
764,724,59,0.0536335496373292,1
765,722,59,0.0482277664034495,1
765,723,59,0.0569213256068065,1
765,724,59,0.0473088161266377,1
766,721,59,0.0410709796579604,1
766,722,59,0.0456737816701655,1
766,723,59,0.0493193861634476,1
766,724,59,0.0416764150095457,1
767,721,59,0.0430539456101509,1
767,722,59,0.0446555502252359,1
767,723,59,0.0444247664528454,1
768,720,59,0.0428333292025879,1
768,721,59,0.044294526321153,1
768,722,59,0.0470421559653543,1
768,723,59,0.0451386230577603,1
769,720,59,0.0434070891982349,1
769,721,59,0.0476652713397984,1
769,722,59,0.0519119155092578,1
769,723,59,0.0484726482368811,1
770,720,59,0.0495444955676453,1
770,721,59,0.0582422233635479,1
770,722,59,0.0609876065094319,1
770,723,59,0.0511741557297072,1
771,719,59,0.0436543797320284,1
771,720,59,0.0604644454415905,1
771,721,59,0.0796446263500725,1
771,722,59,0.0818232539252678,1
771,723,59,0.0585394099496205,1
772,719,59,0.0481361600954077,1
772,720,59,0.0709838806203333,1
772,721,59,0.0982877995428411,1
772,722,59,0.0998257668891041,1
772,723,59,0.0660311168834854,1
773,719,59,0.0498430013970138,1
773,720,59,0.0679176564235427,1
773,721,59,0.087823848276813,1
773,722,59,0.0846536363492446,1
773,723,59,0.0554143712914665,1
774,719,59,0.0464953890932923,1
774,720,59,0.0596521051619438,1
774,721,59,0.0693694674504615,1
774,722,59,0.0616337437607362,1
774,723,59,0.0418937116819297,1
775,720,59,0.0449974559149982,1
775,721,59,0.0475338444298131,1
779,751,59,0.0420233327424854,1
779,752,59,0.0415237504451905,1
780,750,59,0.0479631229542537,1
780,751,59,0.0693740577683231,1
780,752,59,0.0671576371167414,1
780,753,59,0.0544553030422961,1
780,754,59,0.0468212421873763,1
780,755,59,0.0422207461475717,1
781,750,59,0.0639402189874665,1
781,751,59,0.104022085170866,1
781,756,59,0.0509546098556384,1
782,750,59,0.0593279011219797,1
782,757,59,0.0445265914896956,1
783,725,59,0.0422471364202242,1
783,750,59,0.0485948080033863,1
783,751,59,0.07989994858844,1
783,756,59,0.05743201333742,1
784,750,59,0.0485409298909129,1
784,751,59,0.0661727571155442,1
784,752,59,0.0722144859055939,1
784,753,59,0.0621031564777398,1
784,754,59,0.0469585840652538,1
785,750,59,0.0527504622325732,1
785,751,59,0.0645722068137489,1
785,752,59,0.0586742268823374,1
786,731,59,0.042699918020924,1
786,732,59,0.0410758511260325,1
786,750,59,0.0466665987580773,1
746,735,60,0.0567728782956103,1
746,736,60,0.0453529838731374,1
747,734,60,0.0511308640040098,1
747,735,60,0.0705415934919176,1
747,736,60,0.0569556799998477,1
747,738,60,0.0450558729813523,1
747,739,60,0.0487176868656224,1
748,735,60,0.0489527446618875,1
748,736,60,0.0413501888507592,1
748,738,60,0.0545983544321428,1
748,739,60,0.0609168918247315,1
748,740,60,0.0423074025898865,1
749,739,60,0.0437346616339914,1
763,723,60,0.0417106099039098,1
764,722,60,0.0413481180713234,1
764,723,60,0.0443782955670744,1
764,724,60,0.0410182018160227,1
765,723,60,0.0435569152268099,1
766,723,60,0.0425890204830472,1
767,722,60,0.0415914995358426,1
767,723,60,0.0414713943285687,1
768,721,60,0.0427591704278077,1
768,722,60,0.0439045060982346,1
768,723,60,0.0430876106445027,1
769,721,60,0.0444487128813597,1
769,722,60,0.0464828562819814,1
769,723,60,0.0450243490139889,1
770,720,60,0.0449854421502299,1
770,721,60,0.0490166468607157,1
770,722,60,0.0497967035267569,1
770,723,60,0.0452322731115638,1
771,720,60,0.0493996545485735,1
771,721,60,0.0566350498115991,1
771,722,60,0.0565593663375998,1
771,723,60,0.0458550154213053,1
772,719,60,0.0443868165811494,1
772,720,60,0.0545684660020622,1
772,721,60,0.0646251279341593,1
772,722,60,0.063781704336037,1
772,723,60,0.0479031027910257,1
773,719,60,0.0448103882969884,1
773,720,60,0.0536469637464157,1
773,721,60,0.0600549069059748,1
773,722,60,0.05664070525622,1
773,723,60,0.0422580796514983,1
774,719,60,0.0422280263160057,1
774,720,60,0.0498972417607201,1
774,721,60,0.0520807516174572,1
774,722,60,0.0463123116455791,1
780,751,60,0.0522778271016173,1
780,752,60,0.0543906168669192,1
780,753,60,0.0522017759696503,1
780,754,60,0.0482013599105925,1
780,755,60,0.041311254953326,1
781,750,60,0.0477189764367576,1
781,751,60,0.0707043686503847,1
781,752,60,0.0778410044952026,1
781,753,60,0.0711445471522209,1
781,754,60,0.0623573324883256,1
781,755,60,0.0569525549071222,1
781,756,60,0.0464567633797439,1
782,726,60,0.0411828017474913,1
782,750,60,0.0442171370223182,1
782,751,60,0.0702719650332185,1
782,756,60,0.0595746158385149,1
782,757,60,0.0418233727652992,1
783,751,60,0.0602899647022399,1
783,752,60,0.0748475765760178,1
783,753,60,0.0690912639103392,1
783,754,60,0.0585490393443335,1
783,755,60,0.0592140731338309,1
783,756,60,0.0526961461745794,1
784,750,60,0.0427159516930303,1
784,751,60,0.0565682279759685,1
784,752,60,0.0609526790024998,1
784,753,60,0.0530628471502225,1
784,754,60,0.0435915372532247,1
784,755,60,0.0416169922905152,1
785,750,60,0.0487119016593658,1
785,751,60,0.0584580385905914,1
785,752,60,0.0530724386977918,1
785,753,60,0.043924110918689,1
786,750,60,0.0461912332260378,1
786,751,60,0.053157486636498,1
786,752,60,0.0472781707536824,1
747,735,61,0.0436421091473562,1
747,738,61,0.0436779639093098,1
747,739,61,0.04678883421887,1
748,738,61,0.0504507616445713,1
748,739,61,0.0555268259689712,1
768,722,61,0.0410737560162901,1
768,723,61,0.0412760652197552,1
769,721,61,0.0416461913619063,1
769,722,61,0.041851877071266,1
769,723,61,0.0412698312545087,1
770,721,61,0.0445556121388377,1
770,722,61,0.0439831686831192,1
770,723,61,0.0413525380770381,1
771,720,61,0.0439304692388364,1
771,721,61,0.0456513004667872,1
771,722,61,0.0444266696235018,1
772,720,61,0.0447205418811302,1
772,721,61,0.0462086645390949,1
772,722,61,0.0442483176620206,1
773,720,61,0.0431576332671463,1
773,721,61,0.0432285344841979,1
780,753,61,0.043701402104751,1
780,754,61,0.0422968351266824,1
781,726,61,0.0508780504905985,1
781,727,61,0.0521724444332561,1
781,751,61,0.0412640000910062,1
781,752,61,0.0488853172719571,1
781,753,61,0.0546108061424314,1
781,754,61,0.0519717680637064,1
781,755,61,0.0465254667590916,1
782,726,61,0.0511106644427252,1
782,727,61,0.0542185096841541,1
782,751,61,0.041855737479927,1
782,752,61,0.0501097048121757,1
782,753,61,0.0533481172927536,1
782,754,61,0.0518686832576434,1
782,755,61,0.051754363256626,1
782,756,61,0.0461926281636211,1
783,727,61,0.0426893857014962,1
783,751,61,0.0430300397321478,1
783,752,61,0.0505960622361027,1
783,753,61,0.048622420198108,1
783,754,61,0.0448485814717513,1
783,755,61,0.0456556474815819,1
783,756,61,0.0432420729481852,1
784,751,61,0.044048684792291,1
784,752,61,0.0481917953966973,1
784,753,61,0.0440042171017704,1
785,751,61,0.0463518348771075,1
785,752,61,0.0460501120405216,1
785,753,61,0.0418811356167402,1
786,750,61,0.0421515372385184,1
786,751,61,0.0462971944150246,1
786,752,61,0.0441627101262607,1
787,751,61,0.0422293455593016,1
748,738,62,0.0423567039013355,1
748,739,62,0.0416059895851581,1
780,726,62,0.0411600853511484,1
780,727,62,0.0421553598000356,1
781,726,62,0.0623640800933799,1
781,727,62,0.0697567897127051,1
781,728,62,0.0441045093292993,1
782,726,62,0.058394920368312,1
782,727,62,0.0666359034268923,1
782,728,62,0.0445478778046788,1
783,727,62,0.0434896175985153,1
787,750,62,0.04125326772239,1
788,748,62,0.0412921448491075,1
788,749,62,0.0491918142553884,1
758,728,63,0.0412425002099976,1
759,727,63,0.0424539305102219,1
759,728,63,0.0431277826842094,1
760,727,63,0.0446025912576818,1
760,728,63,0.0442984029500183,1
780,726,63,0.0435078734386323,1
780,727,63,0.0461314671793462,1
781,725,63,0.0418084312536263,1
781,726,63,0.0624433049786858,1
781,727,63,0.0722299653873813,1
781,728,63,0.0495752598887666,1
782,726,63,0.0582837633071639,1
782,727,63,0.0673491544775074,1
782,728,63,0.0483598637485524,1
783,727,63,0.0431814364171878,1
758,728,64,0.0427488678946097,1
759,727,64,0.0410892273879753,1
759,728,64,0.0455668580823808,1
760,727,64,0.0441072910943638,1
760,728,64,0.0481992891311567,1
761,728,64,0.0434269075847147,1
780,726,64,0.0421776760980019,1
780,727,64,0.0437525308925689,1
781,726,64,0.0537246909661766,1
781,727,64,0.0612760179648929,1
781,728,64,0.0475754816946558,1
782,727,64,0.0587764844579731,1
782,728,64,0.0474351715193626,1
758,728,65,0.0419914492272565,1
759,728,65,0.0450879916895458,1
759,729,65,0.0419408584095532,1
760,728,65,0.0460374170271661,1
761,728,65,0.0446051432365164,1
780,726,65,0.0423095977242231,1
780,727,65,0.0413028772177237,1
781,727,65,0.0480938686156518,1
781,728,65,0.043044475714115,1
782,728,65,0.0438750826473484,1
759,728,66,0.0434845433778874,1
759,729,66,0.0421101216498033,1
760,728,66,0.04308619407998,1
760,729,66,0.0419623123333158,1
761,728,66,0.0440026113015291,1
761,729,66,0.0415694292443106,1
762,728,66,0.0410961128647675,1
772,735,68,0.0411700661836247,1
