x,y,z,signal,cytoplasm.p
76,43,1,0.0428795811155988,1
76,44,1,0.0425779934473834,1
76,45,1,0.0458769505444668,1
76,46,1,0.0484741134620171,1
76,47,1,0.0462480417887832,1
77,42,1,0.0434881172296029,1
77,43,1,0.0445970033972461,1
77,44,1,0.0449102533924666,1
77,45,1,0.0495692854467914,1
77,46,1,0.0511995998237664,1
77,47,1,0.0470540561886914,1
78,43,1,0.0430145278099515,1
78,44,1,0.044022891963836,1
78,45,1,0.0476126043359245,1
78,46,1,0.0473955888137511,1
81,50,1,0.0438615739204027,1
76,42,2,0.0428672645736807,1
76,43,2,0.0437503222413952,1
76,44,2,0.0458079768283782,1
76,45,2,0.049156237940278,1
76,46,2,0.0488994504767745,1
76,47,2,0.0445992742258702,1
77,42,2,0.0432356605606896,1
77,43,2,0.0452824719409927,1
77,44,2,0.0473105030279013,1
77,45,2,0.0517294598360488,1
77,46,2,0.0502593253848276,1
77,47,2,0.0443111222936805,1
78,43,2,0.0424982441088001,1
78,44,2,0.0439347486694458,1
78,45,2,0.0471994973553281,1
78,46,2,0.0450218132553587,1
82,50,2,0.0422468525666462,1
76,43,3,0.0422481069291243,1
76,44,3,0.0469802110045307,1
76,45,3,0.0493884788277022,1
76,46,3,0.04442537741388,1
77,43,3,0.0438685513116868,1
77,44,3,0.0483846698479029,1
77,45,3,0.05025730867274,1
77,46,3,0.0447651474433887,1
78,44,3,0.0422344792540125,1
78,45,3,0.0432106652256204,1
76,44,4,0.0441989244360797,1
76,45,4,0.0458405902528077,1
77,44,4,0.0453023389880859,1
77,45,4,0.0446775826696242,1
76,44,5,0.0433571039348313,1
76,45,5,0.0442413429741038,1
77,44,5,0.0433852351760956,1
77,45,5,0.0414988524313481,1
76,44,6,0.0432049340867121,1
76,45,6,0.043915722369617,1
77,44,6,0.0410685168902503,1
75,45,7,0.0412042016039057,1
76,44,7,0.0445136126227621,1
76,45,7,0.0450646859591076,1
75,43,8,0.0414130502531347,1
75,44,8,0.0435921887647704,1
76,44,8,0.0449011808914399,1
76,45,8,0.0439097154872329,1
75,43,9,0.0457035673722845,1
75,44,9,0.0464636461531687,1
76,43,9,0.0414078841180149,1
76,44,9,0.0448446696991096,1
76,45,9,0.0415492675301698,1
75,42,10,0.0411444355572142,1
75,43,10,0.0499698217689331,1
75,44,10,0.0505241472562724,1
75,45,10,0.0418166170501426,1
76,43,10,0.0468482488277983,1
76,44,10,0.0483818042784487,1
76,45,10,0.0433210842674657,1
75,42,11,0.0431532213715338,1
75,43,11,0.0481939689040946,1
75,44,11,0.0493857808670275,1
75,45,11,0.0428175523503855,1
76,42,11,0.0441447381397216,1
76,43,11,0.0490976721887163,1
76,44,11,0.050345741227443,1
76,45,11,0.0458614440290054,1
76,46,11,0.0429418883276554,1
77,43,11,0.0410260983522262,1
77,44,11,0.0436414522290757,1
77,45,11,0.0430155010222189,1
77,46,11,0.0423894416806658,1
78,40,11,0.0415500920572297,1
75,41,12,0.0436046783222028,1
75,42,12,0.0456734194189326,1
75,43,12,0.0452523807583564,1
75,44,12,0.0454094247779151,1
75,45,12,0.0425339772192203,1
76,40,12,0.042211389792967,1
76,41,12,0.0454038612477862,1
76,42,12,0.0478048894530348,1
76,43,12,0.0483416484589465,1
76,44,12,0.0487976200331896,1
76,45,12,0.0472216865950261,1
76,46,12,0.0456342854723112,1
76,47,12,0.0418727876181793,1
77,39,12,0.0440845260374075,1
77,40,12,0.049190630180463,1
77,41,12,0.0462453708617825,1
77,42,12,0.0429645749869568,1
77,43,12,0.0429083854953482,1
77,44,12,0.0452562357602825,1
77,45,12,0.0456549446060554,1
77,46,12,0.0451572492592124,1
77,47,12,0.0429346297861606,1
78,39,12,0.0491396122307089,1
78,40,12,0.053545095455687,1
78,41,12,0.0470224430102035,1
78,44,12,0.0417732928840363,1
78,45,12,0.042958511333857,1
79,39,12,0.0446706242019119,1
79,40,12,0.0465732460746889,1
75,40,13,0.0427032783066141,1
75,41,13,0.0474348687422127,1
75,42,13,0.0474542140393958,1
75,43,13,0.0440812306325352,1
75,44,13,0.0427879721041896,1
75,45,13,0.0425524006681167,1
75,46,13,0.0412081539270586,1
76,39,13,0.0421625534607125,1
76,40,13,0.0497530225161525,1
76,41,13,0.0521823387579753,1
76,42,13,0.0518702944646195,1
76,43,13,0.0484886846123548,1
76,44,13,0.0465599563205033,1
76,45,13,0.0470310180916268,1
76,46,13,0.0465821455602013,1
76,47,13,0.0439691787567745,1
77,39,13,0.0522897867990374,1
77,40,13,0.0599368886983411,1
77,41,13,0.0565611775937642,1
77,42,13,0.0526565905026421,1
77,43,13,0.0484571255012151,1
77,44,13,0.0466542605892199,1
77,45,13,0.0475026583833759,1
77,46,13,0.0478660936911882,1
77,47,13,0.0472647782715352,1
77,48,13,0.0475935185620127,1
77,49,13,0.0453459551178724,1
78,38,13,0.0411277206365206,1
78,39,13,0.0564110596015089,1
78,40,13,0.0628641814372174,1
78,41,13,0.0568382078724308,1
78,42,13,0.0502300533225164,1
78,43,13,0.045546188135167,1
78,44,13,0.0451809550880273,1
78,45,13,0.0466476048986575,1
78,46,13,0.0453034933259698,1
78,47,13,0.043493423939828,1
78,48,13,0.0453912905893315,1
78,49,13,0.0448233914942286,1
79,39,13,0.0487447854205363,1
79,40,13,0.0518600703290764,1
79,41,13,0.0468663776096471,1
79,42,13,0.0423040368974616,1
79,44,13,0.0416520441523481,1
79,45,13,0.0446050540253919,1
79,46,13,0.043715367700789,1
79,48,13,0.0410640752575963,1
80,46,13,0.0410316456621507,1
75,40,14,0.0475313248913873,1
75,41,14,0.0500872884896152,1
75,42,14,0.0475360828180282,1
75,43,14,0.0423873060204122,1
75,45,14,0.0411216488733186,1
75,46,14,0.0415842139606737,1
76,39,14,0.0504796173883014,1
76,40,14,0.0609139559677246,1
76,41,14,0.05952392229285,1
76,42,14,0.0554902602213889,1
76,43,14,0.0493010357054712,1
76,44,14,0.0450682841411298,1
76,45,14,0.0457707082052694,1
76,46,14,0.0472367281312932,1
76,47,14,0.0448320584901438,1
76,48,14,0.0449319343990916,1
76,49,14,0.0453716154813244,1
77,39,14,0.0603871507606151,1
77,40,14,0.0711933213070249,1
77,41,14,0.0657810716183015,1
77,42,14,0.0613620877764799,1
77,43,14,0.0542024408682714,1
77,44,14,0.0477874527332429,1
77,45,14,0.0489212828719745,1
77,46,14,0.0534599177553452,1
77,47,14,0.0526966706278569,1
77,48,14,0.0556357338284345,1
77,49,14,0.0558534954800129,1
77,50,14,0.0471886190048719,1
78,38,14,0.0420816633010824,1
78,39,14,0.0614064067817929,1
78,40,14,0.069890892956426,1
78,41,14,0.0639292108753746,1
78,42,14,0.0590277408317565,1
78,43,14,0.0522676408132179,1
78,44,14,0.0470022272287145,1
78,45,14,0.0499824194610619,1
78,46,14,0.0550590298656785,1
78,47,14,0.05344855820549,1
78,48,14,0.0534977703058144,1
78,49,14,0.0523207565760818,1
78,50,14,0.0448731091242586,1
79,39,14,0.0504683984135515,1
79,40,14,0.0548280811878761,1
79,41,14,0.0505609400867171,1
79,42,14,0.0471029817320704,1
79,43,14,0.043285518765825,1
79,44,14,0.0437520145493936,1
79,45,14,0.0495576501534604,1
79,46,14,0.0543504826743562,1
79,47,14,0.0521673512890564,1
79,48,14,0.0472331921267214,1
79,49,14,0.043034205621326,1
80,45,14,0.0439420234311451,1
80,46,14,0.0480596980515944,1
80,47,14,0.0486410355860905,1
80,48,14,0.0442273179039828,1
81,47,14,0.0438736255323147,1
81,48,14,0.0427699163132609,1
83,48,14,0.0410052851265397,1
75,40,15,0.0488642310061622,1
75,41,15,0.0488090931244759,1
75,42,15,0.0460388930657718,1
75,43,15,0.041122938379573,1
76,39,15,0.0523578900308201,1
76,40,15,0.0659289674425461,1
76,41,15,0.0621218475600098,1
76,42,15,0.0565720613509553,1
76,43,15,0.0499611493662831,1
76,44,15,0.0451435485931806,1
76,45,15,0.0442951589091268,1
76,46,15,0.0453570172973125,1
76,47,15,0.0440663242646386,1
76,48,15,0.0456105823468637,1
76,49,15,0.0496469531924693,1
76,50,15,0.0439602252039139,1
77,39,15,0.0594707416491683,1
77,40,15,0.0744046730798327,1
77,41,15,0.0691635627683417,1
77,42,15,0.0646861645635333,1
77,43,15,0.057380184377443,1
77,44,15,0.050133948611105,1
77,45,15,0.0509988207262551,1
77,46,15,0.0573990106280835,1
77,47,15,0.0575553788057898,1
77,48,15,0.0597568984962097,1
77,49,15,0.0637974000872171,1
77,50,15,0.0537617541333623,1
78,38,15,0.0412624186210715,1
78,39,15,0.0588460853553008,1
78,40,15,0.0703296548937395,1
78,41,15,0.0657765353677882,1
78,42,15,0.0620206064505201,1
78,43,15,0.0554706716211389,1
78,44,15,0.0490472814202013,1
78,45,15,0.05392944401378,1
78,46,15,0.065819783839607,1
78,47,15,0.0667426539991628,1
78,48,15,0.0617052856758639,1
78,49,15,0.0598498781148956,1
78,50,15,0.051392355326806,1
79,39,15,0.0486844949205673,1
79,40,15,0.0542200289766383,1
79,41,15,0.0517229014667131,1
79,42,15,0.0501207453646765,1
79,43,15,0.0472072181726499,1
79,44,15,0.0459674863190145,1
79,45,15,0.0524337248933943,1
79,46,15,0.0634182798416943,1
79,47,15,0.0647579389682583,1
79,48,15,0.0551183471533801,1
79,49,15,0.0479968934199345,1
79,50,15,0.043726778614625,1
80,44,15,0.0420105647382098,1
80,45,15,0.0464406621234523,1
80,46,15,0.0527200060953366,1
80,47,15,0.0550047192144196,1
80,48,15,0.0483128954431779,1
80,49,15,0.0417211773671139,1
81,46,15,0.0424262318077431,1
81,47,15,0.0457223233353723,1
81,48,15,0.0448735254428397,1
81,49,15,0.0416830869203126,1
82,48,15,0.0435943000947173,1
82,49,15,0.0440365250456826,1
83,48,15,0.0418370328808199,1
83,49,15,0.0436452829006951,1
75,40,16,0.044677304222781,1
75,41,16,0.0451694549630668,1
75,42,16,0.044016985106046,1
76,39,16,0.0482615584960696,1
76,40,16,0.0622044084006991,1
76,41,16,0.0595283287817277,1
76,42,16,0.0534294994652523,1
76,43,16,0.0471860291788935,1
76,44,16,0.0430243491437505,1
76,45,16,0.0411360902620208,1
76,46,16,0.0410262362239641,1
76,47,16,0.0409933443526914,1
76,48,16,0.0427911215272218,1
76,49,16,0.0484347416190636,1
76,50,16,0.0437497383140348,1
77,39,16,0.0543571491783882,1
77,40,16,0.0715187797094672,1
77,41,16,0.0676275202196743,1
77,42,16,0.0605852156772472,1
77,43,16,0.0540085337307154,1
77,44,16,0.0499827114247421,1
77,45,16,0.0505731917478174,1
77,46,16,0.0551758369647127,1
77,47,16,0.0568162457155952,1
77,48,16,0.057946869660579,1
77,49,16,0.0645520937602214,1
77,50,16,0.0564940637944534,1
77,51,16,0.0424443930300008,1
78,39,16,0.0534835722201792,1
78,40,16,0.0664373897512703,1
78,41,16,0.0628552711382353,1
78,42,16,0.0577810775440828,1
78,43,16,0.0536256558044932,1
78,44,16,0.0508470482731451,1
78,45,16,0.0555668520268378,1
78,46,16,0.0675856504652344,1
78,47,16,0.0720311543413442,1
78,48,16,0.0646038578393805,1
78,49,16,0.0634126622442171,1
78,50,16,0.0562563080375136,1
78,51,16,0.0438021971586181,1
79,35,16,0.0417207015744498,1
79,36,16,0.0448365866305549,1
79,39,16,0.045282658473344,1
79,40,16,0.0507006987750588,1
79,41,16,0.0491132976523438,1
79,42,16,0.0489828061074823,1
79,43,16,0.0489303337460618,1
79,44,16,0.0480037653798897,1
79,45,16,0.0520681701455329,1
79,46,16,0.0647141552296924,1
79,47,16,0.070924676874063,1
79,48,16,0.060371395535352,1
79,49,16,0.0520841470469236,1
79,50,16,0.0472377013435606,1
80,35,16,0.0455031343058016,1
80,36,16,0.0459645180215987,1
80,37,16,0.0416162326442731,1
80,42,16,0.0419067500229462,1
80,43,16,0.0439990590767529,1
80,44,16,0.043990070380116,1
80,45,16,0.045134370660825,1
80,46,16,0.0522909979076369,1
80,47,16,0.0573046522920187,1
80,48,16,0.0508102500359656,1
80,49,16,0.0433950700267318,1
81,46,16,0.0425616732183317,1
81,47,16,0.0453311082240589,1
81,48,16,0.0450924657626087,1
81,49,16,0.0432448384930453,1
82,48,16,0.0441457519025002,1
82,49,16,0.0472608637955261,1
83,49,16,0.0441352736504206,1
75,41,17,0.0435906992093278,1
75,42,17,0.0445846571182865,1
75,43,17,0.0412175724591136,1
76,39,17,0.0422886736604728,1
76,40,17,0.0534696390645501,1
76,41,17,0.0545792632514961,1
76,42,17,0.0498913105726234,1
76,43,17,0.0448843632427848,1
76,44,17,0.041768651202194,1
76,49,17,0.0434626055513585,1
77,39,17,0.048159895661264,1
77,40,17,0.0631484405203372,1
77,41,17,0.0624616175895184,1
77,42,17,0.0538971604001745,1
77,43,17,0.0494316516052336,1
77,44,17,0.0497432309193949,1
77,45,17,0.049216468966164,1
77,46,17,0.0494355660812427,1
77,47,17,0.0514095325233266,1
77,48,17,0.05236866024658,1
77,49,17,0.0569932730270457,1
77,50,17,0.0517112283262384,1
77,51,17,0.0415444474260785,1
78,35,17,0.0413347120723392,1
78,36,17,0.0467330150885965,1
78,37,17,0.0426833490820705,1
78,39,17,0.0475908908888906,1
78,40,17,0.0584533887986469,1
78,41,17,0.0570868744202358,1
78,42,17,0.0508732547168138,1
78,43,17,0.0510332183731749,1
78,44,17,0.0546921775014605,1
78,45,17,0.0567060889003887,1
78,46,17,0.0611093229236819,1
78,47,17,0.0659399431142291,1
78,48,17,0.0607484504081739,1
78,49,17,0.0594711904081583,1
78,50,17,0.0535741242149313,1
78,51,17,0.0439089477308886,1
79,35,17,0.0529645148640656,1
79,36,17,0.0590906211577039,1
79,37,17,0.0506001767613001,1
79,38,17,0.0420089670480707,1
79,39,17,0.0424725026443259,1
79,40,17,0.0469709979283987,1
79,41,17,0.0466425874487452,1
79,42,17,0.0460013108520434,1
79,43,17,0.049213776412224,1
79,44,17,0.0524463766528713,1
79,45,17,0.0537551579168828,1
79,46,17,0.0606099460823102,1
79,47,17,0.0681208847719271,1
79,48,17,0.0607091110056293,1
79,49,17,0.0534987975854301,1
79,50,17,0.0477319255666496,1
80,34,17,0.0442251984639337,1
80,35,17,0.0599419439953971,1
80,36,17,0.0637434733141303,1
80,37,17,0.0530302283190583,1
80,38,17,0.0431976728418499,1
80,42,17,0.0418355108849683,1
80,43,17,0.0455755088580915,1
80,44,17,0.046852174117277,1
80,45,17,0.0465785176411376,1
80,46,17,0.0511950527597834,1
80,47,17,0.05723657609391,1
80,48,17,0.0524005275416044,1
80,49,17,0.0469099612990247,1
80,50,17,0.0423175185907333,1
81,35,17,0.0498262891796876,1
81,36,17,0.0516759547882779,1
81,37,17,0.0449167171439429,1
81,44,17,0.0424192408996218,1
81,45,17,0.0418253462235082,1
81,46,17,0.0435048889210121,1
81,47,17,0.0458539124474022,1
81,48,17,0.0456527332515143,1
81,49,17,0.0456744412918134,1
81,50,17,0.0416339586243779,1
82,48,17,0.0434306301216377,1
82,49,17,0.0478532256623185,1
82,50,17,0.04307012256073,1
83,49,17,0.0424548793921827,1
75,41,18,0.0422611074229971,1
75,42,18,0.0448136269311451,1
75,43,18,0.0417718438791047,1
76,40,18,0.0466908425570067,1
76,41,18,0.0489536638068067,1
76,42,18,0.0467744090503723,1
76,43,18,0.0433556251928582,1
77,36,18,0.0416073872261089,1
77,39,18,0.0456864280229076,1
77,40,18,0.0550198580719134,1
77,41,18,0.0543849722357679,1
77,42,18,0.0475918370674839,1
77,43,18,0.0457574454847579,1
77,44,18,0.0482103513105968,1
77,45,18,0.045606986868209,1
77,46,18,0.0444666524274898,1
77,47,18,0.047633404044774,1
77,48,18,0.0499132943563983,1
77,49,18,0.0505967164510158,1
77,50,18,0.0457093363583366,1
78,35,18,0.0462471010169246,1
78,36,18,0.0536276022290281,1
78,37,18,0.0483018494839423,1
78,38,18,0.0414908666840201,1
78,39,18,0.045474592152691,1
78,40,18,0.0515790174397043,1
78,41,18,0.0499025890214563,1
78,42,18,0.0450918304712674,1
78,43,18,0.048766266377973,1
78,44,18,0.0562703114806953,1
78,45,18,0.0549052136668069,1
78,46,18,0.055008503928793,1
78,47,18,0.0606798173163789,1
78,48,18,0.0601930381671359,1
78,49,18,0.0562336646320907,1
78,50,18,0.0490093639889142,1
78,51,18,0.0410097835299092,1
79,34,18,0.0435180137697857,1
79,35,18,0.0629765658271694,1
79,36,18,0.0735245323455532,1
79,37,18,0.0613300799063502,1
79,38,18,0.0445800586903227,1
79,39,18,0.0412658978549277,1
79,40,18,0.04352513714291,1
79,41,18,0.0425033507698369,1
79,42,18,0.041894433481028,1
79,43,18,0.0472787709012473,1
79,44,18,0.0545513266526853,1
79,45,18,0.0537583641106306,1
79,46,18,0.0567312626577069,1
79,47,18,0.0640092305506989,1
79,48,18,0.0614105537473993,1
79,49,18,0.0545615724151677,1
79,50,18,0.0477264972048911,1
80,34,18,0.0475430304722709,1
80,35,18,0.0710389103673232,1
80,36,18,0.0801038960325553,1
80,37,18,0.0647713692975492,1
80,38,18,0.0456172596643655,1
80,43,18,0.0440825174354222,1
80,44,18,0.0479256813156307,1
80,45,18,0.0474519432107717,1
80,46,18,0.0503328299446947,1
80,47,18,0.0557977141968832,1
80,48,18,0.0537391702020224,1
80,49,18,0.050214303503988,1
80,50,18,0.0466687181981265,1
81,35,18,0.0562190286009351,1
81,36,18,0.0600772583477174,1
81,37,18,0.0507779826425646,1
81,38,18,0.0412203623342803,1
81,43,18,0.0418114292880835,1
81,44,18,0.0429136354348576,1
81,45,18,0.0424206736843489,1
81,46,18,0.0437358484122842,1
81,47,18,0.0458775831324407,1
81,48,18,0.0462854672072017,1
81,49,18,0.0474878277097668,1
81,50,18,0.0456631033688975,1
82,48,18,0.0424088221216252,1
82,49,18,0.0461463897674473,1
82,50,18,0.0435583344947,1
75,36,19,0.0435172838605851,1
75,42,19,0.0416623385754439,1
76,35,19,0.0425083736264839,1
76,36,19,0.0543450489058629,1
76,37,19,0.0482854184168267,1
76,40,19,0.0428690623130081,1
76,41,19,0.0438481760315207,1
76,42,19,0.043459718354965,1
76,43,19,0.0420971562997068,1
77,35,19,0.0438172630251918,1
77,36,19,0.0536064510824153,1
77,37,19,0.0476480617028689,1
77,38,19,0.0412319841107742,1
77,39,19,0.0437064492917048,1
77,40,19,0.0490403553928979,1
77,41,19,0.0468480812190189,1
77,42,19,0.0432559817735076,1
77,43,19,0.0434755925283942,1
77,44,19,0.0451820148080518,1
77,45,19,0.0417672238242017,1
77,46,19,0.0409877970427669,1
77,47,19,0.0452483338173442,1
77,48,19,0.0486430955520566,1
77,49,19,0.0462762703512743,1
78,34,19,0.0426142672312855,1
78,35,19,0.0518963657399177,1
78,36,19,0.0601808892339972,1
78,37,19,0.0526407649898263,1
78,38,19,0.0453493127001952,1
78,39,19,0.0452136901639902,1
78,40,19,0.0476789720058303,1
78,41,19,0.0446851872421474,1
78,42,19,0.0419622690794372,1
78,43,19,0.046056529834752,1
78,44,19,0.0525118035509185,1
78,45,19,0.0509708084331568,1
78,46,19,0.0507676287453858,1
78,47,19,0.0560686564921433,1
78,48,19,0.0580509060519702,1
78,49,19,0.0520339779545362,1
78,50,19,0.04396183641089,1
79,34,19,0.0485855246397017,1
79,35,19,0.069743007945651,1
79,36,19,0.0831988137710314,1
79,37,19,0.06913370677867,1
79,38,19,0.0490963205050115,1
79,39,19,0.0423285645499689,1
79,40,19,0.0427363134563595,1
79,41,19,0.0410011354575659,1
79,43,19,0.0452975269940968,1
79,44,19,0.0527293489331042,1
79,45,19,0.0537893717348188,1
79,46,19,0.0556648869425797,1
79,47,19,0.0596895792409757,1
79,48,19,0.0582707276695148,1
79,49,19,0.0522512097461023,1
79,50,19,0.0463439031971277,1
80,34,19,0.0495964651027275,1
80,35,19,0.0743144508959046,1
80,36,19,0.0871560137986793,1
80,37,19,0.0712240153405936,1
80,38,19,0.0484672469087967,1
80,43,19,0.0441610664788756,1
80,44,19,0.0488487082704963,1
80,45,19,0.0509380706538265,1
80,46,19,0.0534572792687534,1
80,47,19,0.0555440950799838,1
80,48,19,0.0531912408819743,1
80,49,19,0.0515303135724529,1
80,50,19,0.0503750132897542,1
80,51,19,0.0444679662640509,1
81,34,19,0.0413138042287933,1
81,35,19,0.0560969985960656,1
81,36,19,0.0616564304200376,1
81,37,19,0.0532443187976944,1
81,38,19,0.0419684273503963,1
81,43,19,0.0419589925981368,1
81,44,19,0.0434575286273633,1
81,45,19,0.0441816445115975,1
81,46,19,0.045927368346656,1
81,47,19,0.0469800596159557,1
81,48,19,0.0465681367102847,1
81,49,19,0.048899466696979,1
81,50,19,0.0497058000942416,1
81,51,19,0.044163940158432,1
82,48,19,0.0422771410951034,1
82,49,19,0.0457114990522643,1
82,50,19,0.0457366079287647,1
75,36,20,0.050717978699541,1
75,37,20,0.0438861934874019,1
76,35,20,0.0509196877554412,1
76,36,20,0.072716749943359,1
76,37,20,0.061451742253252,1
76,48,20,0.0416768799887402,1
77,35,20,0.0510275521150844,1
77,36,20,0.0664689380489404,1
77,37,20,0.0566874518854668,1
77,38,20,0.0436871877989113,1
77,39,20,0.0416853658590389,1
77,40,20,0.0449855016243129,1
77,41,20,0.0425036697671912,1
77,43,20,0.0417731577156658,1
77,44,20,0.0418061928654111,1
77,47,20,0.0459905730766925,1
77,48,20,0.0499422798617641,1
77,49,20,0.0448360027031944,1
78,33,20,0.0456187248895015,1
78,34,20,0.0518814593720212,1
78,35,20,0.0573282580962394,1
78,36,20,0.0635534265852352,1
78,37,20,0.0555231439825593,1
78,38,20,0.0477568181737572,1
78,39,20,0.0450877267595397,1
78,40,20,0.0460515177915746,1
78,41,20,0.0431697497598761,1
78,42,20,0.0415471913439992,1
78,43,20,0.0440446648849529,1
78,44,20,0.0480288904765946,1
78,45,20,0.0482029548973642,1
78,46,20,0.0513925067153809,1
78,47,20,0.0581675887961036,1
78,48,20,0.0607417460569981,1
78,49,20,0.0515109196146564,1
78,50,20,0.0412415729549761,1
79,33,20,0.0430705118456369,1
79,34,20,0.0549233100082468,1
79,35,20,0.0725980775208123,1
79,36,20,0.0838289092401271,1
79,37,20,0.0705241892125346,1
79,38,20,0.0512765484737134,1
79,39,20,0.0426946113106989,1
79,40,20,0.042601169416186,1
79,41,20,0.0419445782431088,1
79,42,20,0.0418362705312104,1
79,43,20,0.045325915055265,1
79,44,20,0.0517035453560603,1
79,45,20,0.0565324678318743,1
79,46,20,0.0623569702370927,1
79,47,20,0.0664093071706193,1
79,48,20,0.0642748093650184,1
79,49,20,0.0546082487568619,1
79,50,20,0.0457353103124081,1
80,34,20,0.0504974055458566,1
80,35,20,0.0720528840085826,1
80,36,20,0.0840788679975539,1
80,37,20,0.0694474758204331,1
80,38,20,0.0484202948236267,1
80,41,20,0.0417412174297213,1
80,42,20,0.0441462547288384,1
80,43,20,0.0475373966545893,1
80,44,20,0.0515570606896035,1
80,45,20,0.0574939637049784,1
80,46,20,0.0642550910031327,1
80,47,20,0.0657047285226543,1
80,48,20,0.0608936428650089,1
80,49,20,0.0554565708567304,1
80,50,20,0.0521393335892233,1
80,51,20,0.0447028159010254,1
81,34,20,0.0412744918599228,1
81,35,20,0.0534585876985796,1
81,36,20,0.0585046013908544,1
81,37,20,0.0507048727743392,1
81,42,20,0.0427134456714416,1
81,43,20,0.0447434637333962,1
81,44,20,0.0449316099950024,1
81,45,20,0.0474585772743949,1
81,46,20,0.0523120030724095,1
81,47,20,0.053456900797316,1
81,48,20,0.0511900785637498,1
81,49,20,0.0517171378873958,1
81,50,20,0.0527635735645097,1
81,51,20,0.0463075753458775,1
82,47,20,0.0426218609903391,1
82,48,20,0.0436594972065348,1
82,49,20,0.046826156909327,1
82,50,20,0.0487884069570576,1
82,51,20,0.0434645763062001,1
83,50,20,0.0414484670695679,1
63,37,21,0.0416303604423557,1
75,36,21,0.0542021921584698,1
75,37,21,0.0472810633568107,1
75,48,21,0.0414535088497868,1
76,35,21,0.0574866267658288,1
76,36,21,0.08518041452268,1
76,37,21,0.0733443042470897,1
76,38,21,0.0456391893807922,1
76,47,21,0.0432127468185258,1
76,48,21,0.0480638612374052,1
76,49,21,0.0450414153724457,1
77,34,21,0.046824302399284,1
77,35,21,0.0575033876437683,1
77,36,21,0.0783135152712576,1
77,37,21,0.0685963476251934,1
77,38,21,0.0483276396090299,1
77,40,21,0.0434261317182681,1
77,41,21,0.043744288325337,1
77,42,21,0.0421000921567136,1
77,43,21,0.0413975383309384,1
77,46,21,0.0414784122703641,1
77,47,21,0.0488679183993089,1
77,48,21,0.0535679929776463,1
77,49,21,0.0477656527784518,1
78,33,21,0.0499530014169106,1
78,34,21,0.0591636661451114,1
78,35,21,0.061437955079463,1
78,36,21,0.0664383683702726,1
78,37,21,0.0599751359404522,1
78,38,21,0.049597887073985,1
78,39,21,0.0438145461409452,1
78,40,21,0.044754642157635,1
78,41,21,0.0449335023521892,1
78,42,21,0.0440990836709082,1
78,43,21,0.0442325624367574,1
78,44,21,0.0460901705387971,1
78,45,21,0.046994376649757,1
78,46,21,0.0527808588957267,1
78,47,21,0.0608184459971433,1
78,48,21,0.0646060151265734,1
78,49,21,0.0546147314319101,1
78,50,21,0.0432456008426548,1
79,33,21,0.0453129470018012,1
79,34,21,0.0575069020214008,1
79,35,21,0.0686455056581696,1
79,36,21,0.0750758164796758,1
79,37,21,0.065734941356824,1
79,38,21,0.0508122559345835,1
79,39,21,0.0426606489059321,1
79,40,21,0.0423483883431835,1
79,41,21,0.0449779835595468,1
79,42,21,0.0470027895291357,1
79,43,21,0.0480237378583119,1
79,44,21,0.0517807048686652,1
79,45,21,0.0570811649082667,1
79,46,21,0.0672846845715232,1
79,47,21,0.0737242355028354,1
79,48,21,0.074313780460787,1
79,49,21,0.0609958680002356,1
79,50,21,0.0480622716573684,1
80,34,21,0.0490107318928235,1
80,35,21,0.0637900415211282,1
80,36,21,0.0719596124262165,1
80,37,21,0.0617671765693394,1
80,38,21,0.0466499297946297,1
80,41,21,0.0456201468607589,1
80,42,21,0.0510619065081256,1
80,43,21,0.0517916535066741,1
80,44,21,0.0537813427336123,1
80,45,21,0.0610403654277977,1
80,46,21,0.0726704250394281,1
80,47,21,0.0752227444983878,1
80,48,21,0.0715403147342521,1
80,49,21,0.0601108287642099,1
80,50,21,0.0519972662251138,1
80,51,21,0.0420471115622202,1
81,35,21,0.0482995408081745,1
81,36,21,0.0530429611795575,1
81,37,21,0.0474204219467758,1
81,41,21,0.0417852525814564,1
81,42,21,0.0479010049779159,1
81,43,21,0.0475272428065988,1
81,44,21,0.046340875425629,1
81,45,21,0.0503116571711427,1
81,46,21,0.0585566952808375,1
81,47,21,0.0593340864266128,1
81,48,21,0.057035521252923,1
81,49,21,0.0536737433039752,1
81,50,21,0.0528576561570988,1
81,51,21,0.0449763182852225,1
82,46,21,0.04323250843429,1
82,47,21,0.0440090966799447,1
82,48,21,0.0446524575729193,1
82,49,21,0.0466544281979993,1
82,50,21,0.0493158069049973,1
82,51,21,0.0436505598738786,1
83,50,21,0.041920721025719,1
63,37,22,0.0444252800926533,1
75,36,22,0.047905816971905,1
75,37,22,0.043661927533836,1
75,47,22,0.0432281046487798,1
75,48,22,0.0492749211762944,1
75,49,22,0.0463987923690123,1
76,34,22,0.0437304308639954,1
76,35,22,0.0587967489000755,1
76,36,22,0.0807865395573588,1
76,37,22,0.0732936593620382,1
76,38,22,0.0466822080015004,1
76,41,22,0.0412326356223199,1
76,47,22,0.0472935150670993,1
76,48,22,0.0548922969773238,1
76,49,22,0.0508000475273618,1
76,50,22,0.0420111540723051,1
77,34,22,0.0531930196977298,1
77,35,22,0.0632514550388476,1
77,36,22,0.0833684014153707,1
77,37,22,0.0776438641302246,1
77,38,22,0.0531500361559171,1
77,40,22,0.0430288529538549,1
77,41,22,0.0467439042525224,1
77,42,22,0.0433841646426014,1
77,46,22,0.0418807355183636,1
77,47,22,0.0501944337535275,1
77,48,22,0.0555131469298786,1
77,49,22,0.0498834762138704,1
77,50,22,0.0417405902484823,1
78,33,22,0.0475584072260968,1
78,34,22,0.0614567272627553,1
78,35,22,0.0640854330712408,1
78,36,22,0.0688827531820365,1
78,37,22,0.0644408015307029,1
78,38,22,0.0504463064950803,1
78,39,22,0.0414873577131225,1
78,40,22,0.0436626087824232,1
78,41,22,0.0476463261409919,1
78,42,22,0.0469502306599582,1
78,43,22,0.0449942064673718,1
78,44,22,0.0447972526347451,1
78,45,22,0.0451203807344803,1
78,46,22,0.0525671577019976,1
78,47,22,0.0643167926608895,1
78,48,22,0.0690151857446981,1
78,49,22,0.057906378623518,1
78,50,22,0.0450964559329053,1
79,33,22,0.0433231604536363,1
79,34,22,0.0562184230466354,1
79,35,22,0.0626288208638024,1
79,36,22,0.0647485204362033,1
79,37,22,0.0580116207167739,1
79,38,22,0.0473009979880891,1
79,40,22,0.0413474692631451,1
79,41,22,0.0485924668872095,1
79,42,22,0.055065025934593,1
79,43,22,0.0532716985028189,1
79,44,22,0.0517219606948545,1
79,45,22,0.0541050547607079,1
79,46,22,0.0668662087032513,1
79,47,22,0.0805509464943467,1
79,48,22,0.0844220010161201,1
79,49,22,0.0670063296428259,1
79,50,22,0.0491509501536248,1
80,34,22,0.0466948976081211,1
80,35,22,0.0558197358278018,1
80,36,22,0.060203175794922,1
80,37,22,0.0537206791689407,1
80,38,22,0.0439727417950204,1
80,41,22,0.0512190748825852,1
80,42,22,0.0635302316928608,1
80,43,22,0.0598633679182695,1
80,44,22,0.0551754476798057,1
80,45,22,0.0594026113837115,1
80,46,22,0.0726278794431357,1
80,47,22,0.0802494074867446,1
80,48,22,0.0791974947872588,1
80,49,22,0.0633349890918044,1
80,50,22,0.0504748053943123,1
81,35,22,0.0434742868019354,1
81,36,22,0.048178857080275,1
81,37,22,0.0450034627973823,1
81,41,22,0.0453771411643096,1
81,42,22,0.0561667238482941,1
81,43,22,0.0518648444759217,1
81,44,22,0.0468904429863274,1
81,45,22,0.0499202474173758,1
81,46,22,0.0583821658808735,1
81,47,22,0.0597089029112196,1
81,48,22,0.058249965807809,1
81,49,22,0.0531057387775433,1
81,50,22,0.0514473418199173,1
81,51,22,0.0441243358258813,1
82,46,22,0.0426425823015337,1
82,47,22,0.0422433679260552,1
82,48,22,0.0428609657276163,1
82,49,22,0.0451761457974056,1
82,50,22,0.0497229989177015,1
82,51,22,0.0459014322397282,1
83,50,22,0.0434121607154953,1
83,51,22,0.0421036038309787,1
74,49,23,0.0410062502287049,1
74,50,23,0.0414870251989311,1
74,51,23,0.0425061649753103,1
75,22,23,0.0644049224384426,1
75,23,23,0.0899709275543383,1
75,24,23,0.0739443058301816,1
75,47,23,0.0484586123532904,1
75,48,23,0.0562787081398696,1
75,49,23,0.0524548003457196,1
75,50,23,0.043747654017762,1
76,23,23,0.0770548219986112,1
76,24,23,0.0578805344310822,1
76,36,23,0.0579890908527822,1
76,37,23,0.0591734955890127,1
76,38,23,0.0419815603092722,1
76,41,23,0.0410154389745301,1
76,46,23,0.0409963234635768,1
76,47,23,0.0509769991445248,1
76,48,23,0.0596160963080479,1
76,49,23,0.0555089350834545,1
76,50,23,0.0453072888538129,1
77,34,23,0.048377997937136,1
77,35,23,0.05802459688034,1
77,36,23,0.0694644151206217,1
77,37,23,0.0724934301683865,1
77,38,23,0.0524747295702632,1
77,40,23,0.0429214941239173,1
77,41,23,0.0485228551764122,1
77,42,23,0.0451108216273199,1
77,43,23,0.0416588106809744,1
77,44,23,0.041029991201296,1
77,45,23,0.0410131492223342,1
77,46,23,0.0441998760214079,1
77,47,23,0.0518013694091442,1
77,48,23,0.0571009373375006,1
77,49,23,0.0524277288244798,1
77,50,23,0.0451156444347786,1
78,34,23,0.0512740938161054,1
78,35,23,0.0573222458071204,1
78,36,23,0.061059916180904,1
78,37,23,0.0627275802820101,1
78,38,23,0.0495106602211467,1
78,39,23,0.0421672789469445,1
78,40,23,0.0437956333825476,1
78,41,23,0.0491016947994218,1
78,42,23,0.0494517862857003,1
78,43,23,0.0479861664580532,1
78,44,23,0.0470829714065045,1
78,45,23,0.0462783627576493,1
78,46,23,0.0536441360241052,1
78,47,23,0.0683883667569029,1
78,48,23,0.0741934481706507,1
78,49,23,0.0625520181956956,1
78,50,23,0.048149428222654,1
79,34,23,0.0493275449262898,1
79,35,23,0.0551010510086934,1
79,36,23,0.0561456483959688,1
79,37,23,0.0526154560641375,1
79,38,23,0.0453615535478259,1
79,40,23,0.0423258476657223,1
79,41,23,0.0499125428202584,1
79,42,23,0.0624408016604645,1
79,43,23,0.0614325753783179,1
79,44,23,0.0555846293709234,1
79,45,23,0.0522167958789781,1
79,46,23,0.0642698946430677,1
79,47,23,0.0850006405899414,1
79,48,23,0.0922630749337978,1
79,49,23,0.0727740288920337,1
79,50,23,0.050706164983961,1
80,34,23,0.0439052468209048,1
80,35,23,0.0489911054454297,1
80,36,23,0.0511442456726873,1
80,37,23,0.047660708055611,1
80,40,23,0.0413470448344618,1
80,41,23,0.0551796054588817,1
80,42,23,0.0766906459681286,1
80,43,23,0.072734635422141,1
80,44,23,0.0608071891752497,1
80,45,23,0.0563528236607712,1
80,46,23,0.0678389559915143,1
80,47,23,0.0826845197482936,1
80,48,23,0.0856681236303119,1
80,49,23,0.0684795513396289,1
80,50,23,0.0509679536771723,1
81,36,23,0.0437317176668823,1
81,41,23,0.0474130796008913,1
81,42,23,0.0635705497144076,1
81,43,23,0.0587540681354127,1
81,44,23,0.0505473475553816,1
81,45,23,0.0491426508156773,1
81,46,23,0.0557007930685141,1
81,47,23,0.0597085839138653,1
81,48,23,0.0596531648819684,1
81,49,23,0.0539195496890608,1
81,50,23,0.0505225306425615,1
81,51,23,0.0442302321340503,1
82,42,23,0.0411837262991454,1
82,46,23,0.0429925332127069,1
82,47,23,0.0428595221294196,1
82,48,23,0.0428343186350598,1
82,49,23,0.0448708058552256,1
82,50,23,0.0498375460015812,1
82,51,23,0.048490236345248,1
82,52,23,0.0411790143297504,1
83,50,23,0.0440739829045101,1
83,51,23,0.0455992930845612,1
73,23,24,0.0564930473283074,1
73,24,24,0.0563131814810768,1
74,22,24,0.0495756005130602,1
74,23,24,0.0797575622269761,1
74,24,24,0.0769464710328343,1
74,25,24,0.0462319080920827,1
74,49,24,0.0415926484669917,1
74,50,24,0.0434760656176909,1
74,51,24,0.0447177438958613,1
75,21,24,0.0417404821137859,1
75,22,24,0.060340112167688,1
75,23,24,0.0890578814319491,1
75,24,24,0.0803845326033463,1
75,25,24,0.0477809430245205,1
75,47,24,0.0476332039955857,1
75,48,24,0.055140779696145,1
75,49,24,0.0521526341568785,1
75,50,24,0.04552351769607,1
75,51,24,0.0421514182903524,1
76,19,24,0.0416416983652716,1
76,20,24,0.0441147361682098,1
76,21,24,0.0498634118209563,1
76,22,24,0.0625059636285056,1
76,23,24,0.072285151929681,1
76,24,24,0.058559701425397,1
76,37,24,0.0423913583681592,1
76,46,24,0.042169657910265,1
76,47,24,0.0505501320238135,1
76,48,24,0.057377345841663,1
76,49,24,0.0536776253395754,1
76,50,24,0.0456535550752068,1
77,21,24,0.0520714141864244,1
77,22,24,0.0593312424840979,1
77,23,24,0.0555501992835947,1
77,24,24,0.0416534066495226,1
77,35,24,0.0471695007905511,1
77,36,24,0.0519687348854728,1
77,37,24,0.0591735983169743,1
77,38,24,0.048171887799093,1
77,41,24,0.0473874462711134,1
77,42,24,0.045556563659285,1
77,43,24,0.0413551251996491,1
77,44,24,0.041212341443176,1
77,45,24,0.0428137757461143,1
77,46,24,0.0458613521145134,1
77,47,24,0.0509232399802174,1
77,48,24,0.054876082179601,1
77,49,24,0.0513048743574312,1
77,50,24,0.0455231175976934,1
78,22,24,0.0563602525144128,1
78,23,24,0.055910704141135,1
78,24,24,0.0460219537655832,1
78,35,24,0.0479559698440879,1
78,36,24,0.0526279294013655,1
78,37,24,0.057685973078613,1
78,38,24,0.0471720635828554,1
78,40,24,0.0423093868615652,1
78,41,24,0.0477532281018373,1
78,42,24,0.0502380661035185,1
78,43,24,0.04984012501409,1
78,44,24,0.0489724684305079,1
78,45,24,0.0472836585895239,1
78,46,24,0.0523926823693817,1
78,47,24,0.0653827196170267,1
78,48,24,0.0715569674774952,1
78,49,24,0.0611215908049867,1
78,50,24,0.0473686200204729,1
79,24,24,0.0601012318099058,1
79,25,24,0.0473240523053582,1
79,35,24,0.0480220239233742,1
79,36,24,0.0508863876756897,1
79,37,24,0.0499251134787131,1
79,38,24,0.0439555402681931,1
79,40,24,0.0416766069486318,1
79,41,24,0.048729511394672,1
79,42,24,0.0682466183901477,1
79,43,24,0.072054397894332,1
79,44,24,0.059543781229841,1
79,45,24,0.0491775675091398,1
79,46,24,0.0586415485770901,1
79,47,24,0.0805534606260376,1
79,48,24,0.0899624714210811,1
79,49,24,0.0716322941069964,1
79,50,24,0.0497441446575794,1
80,35,24,0.0439096208693735,1
80,36,24,0.0446076844018815,1
80,40,24,0.0423619295105382,1
80,41,24,0.0564741724170536,1
80,42,24,0.0904522621216183,1
80,43,24,0.0936900744546313,1
80,44,24,0.0693372811580828,1
80,45,24,0.0505606535297717,1
80,46,24,0.0595301832917707,1
80,47,24,0.077628033210674,1
80,48,24,0.0839029328465369,1
80,49,24,0.0680628488803777,1
80,50,24,0.0505794797804122,1
81,41,24,0.0473552221315909,1
81,42,24,0.0705169766282858,1
81,43,24,0.0714675779307293,1
81,44,24,0.0557137043512623,1
81,45,24,0.0456481807807965,1
81,46,24,0.0501953583051815,1
81,47,24,0.0560655097724785,1
81,48,24,0.0575304483515385,1
81,49,24,0.0522908897729405,1
81,50,24,0.0494674333762671,1
81,51,24,0.0458018131506843,1
82,42,24,0.0436249535777748,1
82,43,24,0.0433633081630363,1
82,47,24,0.0413304434551994,1
82,49,24,0.04207231505658,1
82,50,24,0.0481214645901691,1
82,51,24,0.0506715564743833,1
82,52,24,0.0452356928713369,1
83,50,24,0.0422283642369319,1
83,51,24,0.0472797441135148,1
83,52,24,0.0438449401007314,1
69,16,25,0.0450334890992008,1
69,17,25,0.0434962841025473,1
70,16,25,0.0441773299372118,1
70,17,25,0.0433143366624113,1
74,23,25,0.055167483559417,1
74,24,25,0.0568643548420165,1
74,50,25,0.0427566508893819,1
74,51,25,0.0429494766799742,1
75,22,25,0.0491885810279665,1
75,23,25,0.0703500761311516,1
75,24,25,0.0694660317343326,1
75,25,25,0.0440503581767175,1
75,47,25,0.0435008014294888,1
75,48,25,0.0482163257525721,1
75,49,25,0.0473351901790858,1
75,50,25,0.0451326080652739,1
75,51,25,0.0416171788228665,1
76,19,25,0.042540714010805,1
76,20,25,0.0440583925846589,1
76,21,25,0.0452085997231579,1
76,22,25,0.0488187928067416,1
76,23,25,0.056594829111279,1
76,24,25,0.051308767206501,1
76,46,25,0.0446151997632802,1
76,47,25,0.0491367899151333,1
76,48,25,0.051567901192916,1
76,49,25,0.0492435513008734,1
76,50,25,0.045219107712279,1
77,19,25,0.0421226896048905,1
77,20,25,0.0442682333697271,1
77,21,25,0.0472782951085832,1
77,22,25,0.0500663157652515,1
77,23,25,0.0479691839039861,1
77,37,25,0.0421185210123449,1
77,41,25,0.0421243062186015,1
77,42,25,0.0428538910151054,1
77,45,25,0.0450493876029367,1
77,46,25,0.0490317640912702,1
77,47,25,0.0510699084756581,1
77,48,25,0.0516460717649321,1
77,49,25,0.0497167649524549,1
77,50,25,0.0461532184735239,1
78,21,25,0.0443885926935375,1
78,22,25,0.0500197151178448,1
78,23,25,0.0498571346018312,1
78,24,25,0.0426087739887092,1
78,36,25,0.0430712201278983,1
78,37,25,0.0475735839307343,1
78,38,25,0.0417871152016016,1
78,41,25,0.0446537362657041,1
78,42,25,0.0494360635008461,1
78,43,25,0.0503562627334012,1
78,44,25,0.0503284018288778,1
78,45,25,0.0497034589780648,1
78,46,25,0.0517522870704555,1
78,47,25,0.0586996655696618,1
78,48,25,0.0624385362385752,1
78,49,25,0.0568271294727863,1
78,50,25,0.0482676681064153,1
79,22,25,0.0589110689010928,1
79,23,25,0.0636568628290615,1
79,24,25,0.0549287870306186,1
79,25,25,0.0428780726365843,1
79,35,25,0.0411155176360337,1
79,36,25,0.0454531544491329,1
79,37,25,0.0462195104491422,1
79,38,25,0.0411751809547636,1
79,40,25,0.0410056095306288,1
79,41,25,0.049178486654059,1
79,42,25,0.0699837211865369,1
79,43,25,0.0792592288854245,1
79,44,25,0.0618838647202075,1
79,45,25,0.0492867727390181,1
79,46,25,0.0522834338856248,1
79,47,25,0.0669688285301199,1
79,48,25,0.0746855962075691,1
79,49,25,0.0640470993213726,1
79,50,25,0.0499274059342764,1
79,51,25,0.0416129480528704,1
80,24,25,0.0610489296957514,1
80,25,25,0.0489986208068284,1
80,35,25,0.0412879654430923,1
80,36,25,0.0422129280090231,1
80,37,25,0.0414787042340443,1
80,40,25,0.0431775678984247,1
80,41,25,0.0582735770187645,1
80,42,25,0.0955932234840532,1
80,43,25,0.109087200857257,1
80,44,25,0.0765677779193621,1
80,45,25,0.0496582100143629,1
80,46,25,0.0511766482344589,1
80,47,25,0.0646987622556621,1
80,48,25,0.071285041156498,1
80,49,25,0.062032571554675,1
80,50,25,0.0510486383808793,1
80,51,25,0.0470436157837555,1
80,52,25,0.0458205691137721,1
81,41,25,0.0495213385224146,1
81,42,25,0.07444916510066,1
81,43,25,0.0847856363731208,1
81,44,25,0.0616448059401763,1
81,46,25,0.0455426142834515,1
81,47,25,0.0516218009323287,1
81,48,25,0.054241542374484,1
81,49,25,0.0508643281976273,1
81,50,25,0.0492120192234078,1
81,51,25,0.0512314833389953,1
81,52,25,0.0518428606921468,1
81,53,25,0.0442813879555423,1
82,42,25,0.0510955958727841,1
82,43,25,0.0544850887444152,1
82,48,25,0.0423722428572059,1
82,49,25,0.0424083301087567,1
82,50,25,0.0464564660093288,1
82,51,25,0.0519311851121534,1
82,52,25,0.0521721632830455,1
82,53,25,0.0446421144892102,1
83,51,25,0.0455649062511111,1
83,52,25,0.0454774685356149,1
69,16,26,0.0449867613935258,1
69,17,26,0.0437263839229832,1
70,16,26,0.0471292909037007,1
70,17,26,0.0456535821088809,1
74,50,26,0.0422749756978083,1
74,51,26,0.0421103784697072,1
75,23,26,0.0484076160304756,1
75,24,26,0.0495212141675138,1
75,48,26,0.0413060455643277,1
75,49,26,0.0436259321967771,1
75,50,26,0.0447139267410789,1
75,51,26,0.0417561562380268,1
76,19,26,0.0433536625481189,1
76,20,26,0.0447148621062026,1
76,21,26,0.0426859713484578,1
76,23,26,0.0428817356994243,1
76,46,26,0.0442175371206948,1
76,47,26,0.0459230375520658,1
76,48,26,0.046359236697075,1
76,49,26,0.0467246941237097,1
76,50,26,0.045799428780629,1
76,51,26,0.0412025741767251,1
77,19,26,0.0448229265150341,1
77,20,26,0.0445909640744531,1
77,21,26,0.0423266911163541,1
77,22,26,0.041499063294006,1
77,45,26,0.0461266984392357,1
77,46,26,0.0508793427002203,1
77,47,26,0.0509626442635798,1
77,48,26,0.0499373381061393,1
77,49,26,0.0502472142988326,1
77,50,26,0.0494289806782329,1
77,51,26,0.0443167074507488,1
78,19,26,0.0414078138304623,1
78,22,26,0.0422935207982382,1
78,23,26,0.0418021783648079,1
78,41,26,0.0410744129345706,1
78,42,26,0.0463703421303937,1
78,43,26,0.0478416876902143,1
78,44,26,0.0482371903422394,1
78,45,26,0.0506338390922845,1
78,46,26,0.0527961707687347,1
78,47,26,0.054973695370027,1
78,48,26,0.0573372494962437,1
78,49,26,0.0576789335098784,1
78,50,26,0.0552913464473903,1
78,51,26,0.0484346010439583,1
79,22,26,0.0475936807640573,1
79,23,26,0.0505828806166135,1
79,24,26,0.0466717297494208,1
79,37,26,0.0414817103786038,1
79,41,26,0.0479793053115676,1
79,42,26,0.064018378746013,1
79,43,26,0.0742871901389462,1
79,44,26,0.0590258701015091,1
79,45,26,0.0502614015709982,1
79,46,26,0.0495983033925661,1
79,47,26,0.0559191927148011,1
79,48,26,0.0627797336460762,1
79,49,26,0.0622247323168845,1
79,50,26,0.0576752028628531,1
79,51,26,0.0512642265250604,1
79,52,26,0.0458606546457218,1
80,22,26,0.0508676803732152,1
80,23,26,0.0580524253444544,1
80,24,26,0.0562524692557919,1
80,25,26,0.0452922986815266,1
80,40,26,0.0443016767279514,1
80,41,26,0.0579679721465784,1
80,42,26,0.0874500050044738,1
80,43,26,0.103813850186039,1
80,44,26,0.0752982982107514,1
80,45,26,0.0509867096402601,1
80,46,26,0.0466058973462621,1
80,47,26,0.0526951134882289,1
80,48,26,0.0596664654496236,1
80,49,26,0.059309080278074,1
80,50,26,0.0576997710658716,1
80,51,26,0.0598355070137462,1
80,52,26,0.066629063907346,1
80,53,26,0.0584990973348085,1
81,24,26,0.0517261509143394,1
81,25,26,0.0448765424008688,1
81,40,26,0.0426517304968478,1
81,41,26,0.0522838664244103,1
81,42,26,0.0763412843910507,1
81,43,26,0.092277424408008,1
81,44,26,0.0665623934602904,1
81,47,26,0.0473960375727411,1
81,48,26,0.0506276537876513,1
81,49,26,0.0503524023247403,1
81,50,26,0.0528710648594504,1
81,51,26,0.0637790171888318,1
81,52,26,0.081262337628184,1
81,53,26,0.0738322890981973,1
81,54,26,0.0497626573176003,1
82,42,26,0.0670209440470422,1
82,43,26,0.0778710064667144,1
82,48,26,0.0442933152125535,1
82,49,26,0.0431381825386341,1
82,50,26,0.0463007466398008,1
82,51,26,0.0561370516876063,1
82,52,26,0.0695144436379038,1
82,53,26,0.0642132590958365,1
83,43,26,0.0655832445980015,1
83,51,26,0.0427870286289636,1
83,52,26,0.0473896576256545,1
63,24,27,0.0453725616599178,1
64,23,27,0.0433993170169322,1
64,24,27,0.0463045313541743,1
65,23,27,0.0472609503032832,1
65,24,27,0.0460923170125204,1
70,16,27,0.0414191733803174,1
70,17,27,0.041287257160831,1
75,50,27,0.0425386756717782,1
75,51,27,0.0411049636896666,1
76,46,27,0.0412015523038443,1
76,47,27,0.0432018008838844,1
76,48,27,0.0437967444665529,1
76,49,27,0.0448454023116776,1
76,50,27,0.0457236587988727,1
76,51,27,0.0439872967251537,1
77,18,27,0.0419242110730448,1
77,19,27,0.0464556604058408,1
77,20,27,0.0427376543265946,1
77,45,27,0.0420338596551783,1
77,46,27,0.0478384490560576,1
77,47,27,0.0489385952368656,1
77,48,27,0.0482547189765233,1
77,49,27,0.049716224278973,1
77,50,27,0.0516525868803893,1
77,51,27,0.049890905067512,1
78,19,27,0.0430573221160455,1
78,43,27,0.0418704924592486,1
78,44,27,0.0432247146260482,1
78,45,27,0.0474873248834286,1
78,46,27,0.0519752662211344,1
78,47,27,0.0532881349766693,1
78,48,27,0.0543034657083683,1
78,49,27,0.0583823983704707,1
78,50,27,0.0607777927580377,1
78,51,27,0.0565754567804218,1
78,52,27,0.0452333220181187,1
79,41,27,0.0425349936853663,1
79,42,27,0.0511642505915184,1
79,43,27,0.0580641471455425,1
79,44,27,0.0519151865838234,1
79,45,27,0.0496479209980019,1
79,46,27,0.0502655485366045,1
79,47,27,0.0520194987186904,1
79,48,27,0.0567704020110631,1
79,49,27,0.0641813972075469,1
79,50,27,0.067083424274613,1
79,51,27,0.0634056226754825,1
79,52,27,0.0544185696859345,1
79,53,27,0.0445720648328925,1
80,23,27,0.0458370975021145,1
80,24,27,0.0466335203544534,1
80,40,27,0.0423542952009735,1
80,41,27,0.0526872412823322,1
80,42,27,0.0683992613275636,1
80,43,27,0.0798531316716404,1
80,44,27,0.0666120759465441,1
80,45,27,0.0539169814900217,1
80,46,27,0.0488625495116334,1
80,47,27,0.048888669447545,1
80,48,27,0.0538758686784565,1
80,49,27,0.0610392462336901,1
80,50,27,0.06520722241153,1
80,51,27,0.0711893743906069,1
80,52,27,0.0787190636365768,1
80,53,27,0.0717877052926397,1
81,23,27,0.0463847510786869,1
81,24,27,0.0494811016018901,1
81,25,27,0.0419013162544529,1
81,40,27,0.0427571969695987,1
81,41,27,0.0526887065074682,1
81,42,27,0.0737442187947272,1
81,43,27,0.0916494429722266,1
81,44,27,0.0704317935212092,1
81,46,27,0.0469353405122661,1
81,47,27,0.047340207628998,1
81,48,27,0.0493862620664264,1
81,49,27,0.052562837720877,1
81,50,27,0.0571109992709991,1
81,51,27,0.0747758075780276,1
81,52,27,0.101537312050003,1
81,53,27,0.0991186957363873,1
81,54,27,0.0611948736887262,1
82,24,27,0.0452537108151219,1
82,42,27,0.0878374137744744,1
82,43,27,0.113056944509686,1
82,44,27,0.0823464852806619,1
82,49,27,0.0449771725493239,1
82,50,27,0.046689485466567,1
82,51,27,0.0598806154023428,1
82,52,27,0.081940509783292,1
82,53,27,0.082806641667655,1
82,54,27,0.0559730383868656,1
83,42,27,0.0810548758064361,1
83,43,27,0.104880966623837,1
83,44,27,0.0776497304375035,1
83,52,27,0.0516370803649278,1
83,53,27,0.0539129264389073,1
84,43,27,0.0685893567170721,1
61,24,28,0.0455751520135935,1
61,25,28,0.0493859484758069,1
62,24,28,0.0561531637573675,1
62,25,28,0.0562335943445381,1
63,23,28,0.0429289202741915,1
63,24,28,0.0565455845705456,1
63,25,28,0.0494803392522806,1
64,23,28,0.056252945048456,1
64,24,28,0.0608374236363588,1
64,25,28,0.0438968339415261,1
65,23,28,0.0634271847339415,1
65,24,28,0.062093521676292,1
66,23,28,0.0453168885114844,1
75,50,28,0.0431809389975844,1
75,51,28,0.0438178793929612,1
76,47,28,0.0424785203401796,1
76,48,28,0.0449478383095623,1
76,49,28,0.0469234024417853,1
76,50,28,0.0493380664322479,1
76,51,28,0.0504016738991477,1
76,52,28,0.0427694324104945,1
77,18,28,0.041459978007998,1
77,19,28,0.0482948369488818,1
77,20,28,0.0417701488677389,1
77,46,28,0.0450529046839366,1
77,47,28,0.0489966960092328,1
77,48,28,0.0503480823436197,1
77,49,28,0.0531521447824966,1
77,50,28,0.0562913598993465,1
77,51,28,0.0559513411600362,1
77,52,28,0.0454635516001902,1
78,19,28,0.0467247211573838,1
78,45,28,0.0422365608469179,1
78,46,28,0.0506521030425038,1
78,47,28,0.0550087850790036,1
78,48,28,0.0563710984244602,1
78,49,28,0.0621707028158361,1
78,50,28,0.0666006461091363,1
78,51,28,0.0628953296365108,1
78,52,28,0.0498279544540119,1
79,43,28,0.0416540906014772,1
79,44,28,0.0429429885981911,1
79,45,28,0.0464165913400372,1
79,46,28,0.0514177020996384,1
79,47,28,0.0549359888013978,1
79,48,28,0.0588478533575866,1
79,49,28,0.0693740469548534,1
79,50,28,0.075548862522478,1
79,51,28,0.0719055775184333,1
79,52,28,0.0600968145075585,1
79,53,28,0.0475294866015488,1
80,41,28,0.0420837962579686,1
80,42,28,0.0491364979514531,1
80,43,28,0.0557522705907277,1
80,44,28,0.0546800447885262,1
80,45,28,0.0524285506481723,1
80,46,28,0.0510185336814059,1
80,47,28,0.0510092070638428,1
80,48,28,0.0547010553600336,1
80,49,28,0.0650043346874393,1
80,50,28,0.0719664951996413,1
80,51,28,0.0766865044092571,1
80,52,28,0.0801742322458184,1
80,53,28,0.0732590832928693,1
80,54,28,0.0465777336645888,1
81,24,28,0.0417336939582204,1
81,41,28,0.0482119679243078,1
81,42,28,0.0671043807787722,1
81,43,28,0.0854353150357316,1
81,46,28,0.0485478775451555,1
81,47,28,0.0476701103674616,1
81,48,28,0.0487810916448473,1
81,49,28,0.054295880059417,1
81,50,28,0.0606614776718721,1
81,51,28,0.0773998581878338,1
81,52,28,0.102173046743515,1
81,53,28,0.103558252204196,1
81,54,28,0.0640483050232373,1
82,41,28,0.0535745134998383,1
82,42,28,0.0981510524057937,1
82,43,28,0.137473380481791,1
82,44,28,0.100864087057254,1
82,50,28,0.0474944563666552,1
82,51,28,0.0605734614357502,1
82,52,28,0.0828672241313042,1
82,53,28,0.0880690220739249,1
82,54,28,0.059099320594028,1
83,42,28,0.0951714549142764,1
83,43,28,0.140916821753448,1
83,44,28,0.10697218351721,1
83,52,28,0.0522294692653943,1
83,53,28,0.0560058572672182,1
84,43,28,0.0888166275175812,1
60,24,29,0.044058327703841,1
60,25,29,0.0563414911445902,1
60,26,29,0.046607216589558,1
61,24,29,0.0671776798827162,1
61,25,29,0.084714213406159,1
61,26,29,0.0609070569740953,1
62,24,29,0.0702951815525322,1
62,25,29,0.0821186454753805,1
62,26,29,0.0545606640837181,1
63,23,29,0.0430878917947133,1
63,24,29,0.0610118124612175,1
63,25,29,0.054768033990974,1
64,23,29,0.0639128446890768,1
64,24,29,0.0736479789149453,1
64,25,29,0.0501326347745439,1
65,23,29,0.071348110718164,1
65,24,29,0.0761270154901655,1
65,25,29,0.0463842915062272,1
66,23,29,0.0460419424642098,1
66,24,29,0.0445857222450459,1
75,49,29,0.0417953902092424,1
75,50,29,0.0444977087122914,1
75,51,29,0.0462155743461938,1
76,47,29,0.0413431763156986,1
76,48,29,0.0467536850358103,1
76,49,29,0.052080308265202,1
76,50,29,0.055215452110733,1
76,51,29,0.055105879222887,1
76,52,29,0.0466228042060418,1
77,19,29,0.0419396067504425,1
77,46,29,0.0431161879413896,1
77,47,29,0.0489577296713908,1
77,48,29,0.054717789204299,1
77,49,29,0.0612159221073774,1
77,50,29,0.0638801393501555,1
77,51,29,0.0590934110328706,1
77,52,29,0.0475265994051554,1
78,19,29,0.0429593845215303,1
78,46,29,0.0488200201355455,1
78,47,29,0.0552873400568892,1
78,48,29,0.0597915989202794,1
78,49,29,0.0668216842420151,1
78,50,29,0.0708418565101023,1
78,51,29,0.0646168934770296,1
78,52,29,0.0528459613896848,1
79,45,29,0.0427639851251642,1
79,46,29,0.0518128262802261,1
79,47,29,0.0584735991734011,1
79,48,29,0.0619953569989144,1
79,49,29,0.0689575175111165,1
79,50,29,0.074489867000379,1
79,51,29,0.0710523839504927,1
79,52,29,0.0625170798752939,1
79,53,29,0.0500314369189328,1
80,43,29,0.0423686338617141,1
80,44,29,0.0451628127893414,1
80,45,29,0.0486572557905481,1
80,46,29,0.0532630152866993,1
80,47,29,0.0568292272858961,1
80,48,29,0.0584024735768544,1
80,49,29,0.0639080326950878,1
80,50,29,0.0699642731613922,1
80,51,29,0.0728902845041163,1
80,52,29,0.0745783644358998,1
80,53,29,0.0671735545440492,1
80,54,29,0.0464310381354741,1
81,41,29,0.043205012484367,1
81,42,29,0.0579603432437485,1
81,43,29,0.0716719957607739,1
81,46,29,0.0528516546814495,1
81,47,29,0.0513906738322772,1
81,48,29,0.0506431873367869,1
81,49,29,0.0550131807544117,1
81,50,29,0.0619780987013715,1
81,51,29,0.0737072799824424,1
81,52,29,0.088441286579697,1
81,53,29,0.0883161422955716,1
81,54,29,0.0601677292414472,1
82,41,29,0.052405474703964,1
82,42,29,0.0898109044238942,1
82,43,29,0.125994276906313,1
82,44,29,0.102128722331467,1
82,51,29,0.0632837170255138,1
82,52,29,0.0772616944862637,1
82,53,29,0.0798384091327277,1
83,42,29,0.0947413599728781,1
83,43,29,0.146026661950264,1
83,44,29,0.123832653512124,1
83,45,29,0.0768286690945934,1
84,42,29,0.0659765088618114,1
84,43,29,0.104896840797266,1
84,44,29,0.0984166204066435,1
85,43,29,0.0600685697248629,1
60,24,30,0.049876009513085,1
60,25,30,0.0716567974291971,1
60,26,30,0.0528257456081958,1
61,24,30,0.0857231966311803,1
61,25,30,0.123121527308293,1
61,26,30,0.081222052047046,1
62,24,30,0.0774241290204372,1
62,25,30,0.107303086501615,1
62,26,30,0.0670095088028996,1
63,24,30,0.0591903267545049,1
63,25,30,0.0583802681169519,1
64,23,30,0.0592935142885295,1
64,24,30,0.0740933208485338,1
64,25,30,0.0482093078107767,1
65,23,30,0.0627624266879199,1
65,24,30,0.0751573987013629,1
65,25,30,0.0460273550936676,1
66,24,30,0.0417509846961722,1
75,49,30,0.0420172961230597,1
75,50,30,0.0446814079345088,1
76,48,30,0.0461050714999589,1
76,49,30,0.0551587895298277,1
76,50,30,0.0588165159225745,1
76,51,30,0.0562205641136238,1
77,47,30,0.0476429469317299,1
77,48,30,0.0573634775668517,1
77,49,30,0.0693049002232506,1
77,50,30,0.0712964547737013,1
77,51,30,0.0605486823700738,1
77,52,30,0.0473589257449421,1
78,46,30,0.044904738522951,1
78,47,30,0.0527155130987018,1
78,48,30,0.0605013193730575,1
78,49,30,0.0707142035010208,1
78,50,30,0.0727819010979305,1
78,51,30,0.0628124011378538,1
78,52,30,0.051167462192001,1
79,46,30,0.0486159645567338,1
79,47,30,0.0569558962692405,1
79,48,30,0.0604821308711842,1
79,49,30,0.0643737093583313,1
79,50,30,0.067114377831453,1
79,51,30,0.064490948996151,1
79,52,30,0.0595865268753216,1
79,53,30,0.0489372759935697,1
80,45,30,0.0433302405728821,1
80,46,30,0.0517996284405325,1
80,47,30,0.0585471145467378,1
80,48,30,0.0581173061622849,1
80,49,30,0.057532075778719,1
80,50,30,0.0609611946098401,1
80,51,30,0.0643751799902021,1
80,52,30,0.0658833129737327,1
80,53,30,0.0583605767887404,1
80,54,30,0.043335863577094,1
81,42,30,0.0465507324309017,1
81,43,30,0.0551925654022433,1
81,46,30,0.0535656248277955,1
81,47,30,0.0530992993563736,1
81,48,30,0.0505105060643235,1
81,49,30,0.0514513319902139,1
81,50,30,0.0577869546648313,1
81,51,30,0.0659549468033524,1
81,52,30,0.0720292079168093,1
81,53,30,0.0683459509222462,1
82,38,30,0.0431258416664093,1
82,41,30,0.0478156218216509,1
82,42,30,0.0700965921826227,1
82,43,30,0.0943991569127008,1
82,44,30,0.091422565565743,1
82,47,30,0.0515428571972334,1
82,51,30,0.063775064865679,1
82,52,30,0.0697516965685055,1
83,38,30,0.0478989720456238,1
83,39,30,0.0476809616842437,1
83,42,30,0.0801041014884784,1
83,43,30,0.12055630197332,1
83,44,30,0.11911811051141,1
83,45,30,0.0824553606997163,1
84,42,30,0.0653117886629335,1
84,43,30,0.101364037012517,1
84,44,30,0.103990726108915,1
84,45,30,0.069476277496815,1
85,43,30,0.0582497927922948,1
85,44,30,0.0612413932351107,1
60,24,31,0.0514959862130857,1
60,25,31,0.0776305094952212,1
60,26,31,0.0543421995566131,1
61,24,31,0.0919653368607736,1
61,25,31,0.141835534133928,1
61,26,31,0.0921829146833682,1
61,27,31,0.0413990359964833,1
62,24,31,0.0793073163849066,1
62,25,31,0.122593419078092,1
62,26,31,0.0772654197265542,1
63,24,31,0.0539961144608356,1
63,25,31,0.0632327639565776,1
63,26,31,0.0412161775215303,1
64,23,31,0.0468684051352043,1
64,24,31,0.0603385496213253,1
64,25,31,0.0435655389688466,1
65,23,31,0.0465848651478154,1
65,24,31,0.0595230139614004,1
65,25,31,0.0413952702056817,1
76,48,31,0.0431528104596875,1
76,49,31,0.0533298965964129,1
76,50,31,0.0559259835737341,1
76,51,31,0.0516737001798583,1
77,47,31,0.0442864243290264,1
77,48,31,0.0552646317706486,1
77,49,31,0.0697923660278155,1
77,50,31,0.0706997026382357,1
77,51,31,0.0582418665190498,1
77,52,31,0.0450997243041035,1
78,47,31,0.0491028410272035,1
78,48,31,0.0573443377255917,1
78,49,31,0.0692018424508617,1
78,50,31,0.069405162713738,1
78,51,31,0.0588889066950689,1
78,52,31,0.0477603758052683,1
79,46,31,0.0450279120522348,1
79,47,31,0.0530306608578438,1
79,48,31,0.055605007354457,1
79,49,31,0.0581580188754736,1
79,50,31,0.0584511341902273,1
79,51,31,0.0565675683543206,1
79,52,31,0.0535830507341178,1
79,53,31,0.0453310568600781,1
80,46,31,0.0487828704606028,1
80,47,31,0.0558408653474753,1
80,48,31,0.0546646842549048,1
80,49,31,0.0514397886113749,1
80,50,31,0.0523545216350278,1
80,51,31,0.055354215959868,1
80,52,31,0.0566184943895827,1
80,53,31,0.0497928863719745,1
81,43,31,0.0431652162127302,1
81,44,31,0.0469477922225547,1
81,46,31,0.0506568014950617,1
81,47,31,0.0516941214172704,1
81,48,31,0.0501135327804277,1
81,49,31,0.0498711921123611,1
81,50,31,0.0535252473321657,1
81,51,31,0.0575037390815316,1
81,52,31,0.058320631831896,1
82,38,31,0.0465388970883825,1
82,39,31,0.0465527815833982,1
82,40,31,0.0451392232053252,1
82,41,31,0.0450283418876529,1
82,42,31,0.0540326639882135,1
82,43,31,0.0685637233872943,1
82,44,31,0.0789803927573283,1
82,45,31,0.0737995891660107,1
82,47,31,0.0498698836825349,1
82,48,31,0.0478257540427021,1
83,37,31,0.0428845526082651,1
83,38,31,0.057139265680634,1
83,39,31,0.0609403624605817,1
83,40,31,0.0568041616632743,1
83,41,31,0.0513731614181978,1
83,43,31,0.0925207274748723,1
83,44,31,0.105586696906318,1
83,45,31,0.0836360564158608,1
83,46,31,0.0586105679865761,1
84,38,31,0.0525590746334428,1
84,39,31,0.0565722992472874,1
84,43,31,0.0884381668937063,1
84,44,31,0.098414901064971,1
84,45,31,0.0716997593440705,1
85,44,31,0.0581768289059096,1
59,25,32,0.0415910913273638,1
60,24,32,0.0547954461365073,1
60,25,32,0.078471883940847,1
60,26,32,0.0548648577981163,1
60,38,32,0.0420459950714801,1
61,23,32,0.0420321376101384,1
61,24,32,0.0885439712873834,1
61,25,32,0.133570031532943,1
61,26,32,0.0884332954256342,1
61,27,32,0.0418113806274702,1
62,24,32,0.0761502806700926,1
62,25,32,0.116584330746146,1
62,26,32,0.076765577905988,1
63,17,32,0.0445901909113739,1
63,24,32,0.0462696362876511,1
63,25,32,0.0593134381063383,1
64,17,32,0.0415410925471232,1
64,24,32,0.0429682569733687,1
65,24,32,0.0419844285820937,1
76,49,32,0.0474041584884396,1
76,50,32,0.049249812299794,1
76,51,32,0.0460496092141834,1
77,48,32,0.0496584208770208,1
77,49,32,0.0615096970437791,1
77,50,32,0.0626329732361436,1
77,51,32,0.053431272874273,1
77,52,32,0.0426161920288811,1
78,47,32,0.0452421376992414,1
78,48,32,0.0520408282875521,1
78,49,32,0.0617324166711867,1
78,50,32,0.0625082993379475,1
78,51,32,0.0543501042029188,1
78,52,32,0.0445534170045011,1
79,46,32,0.0415146373936528,1
79,47,32,0.0486742059042063,1
79,48,32,0.0504271612470854,1
79,49,32,0.0526183486672658,1
79,50,32,0.0529982420758678,1
79,51,32,0.051283647516531,1
79,52,32,0.047879588901297,1
80,46,32,0.0449404689300037,1
80,47,32,0.0511106049686422,1
80,48,32,0.051136422127404,1
80,49,32,0.0491212401457933,1
80,50,32,0.0490057360698505,1
80,51,32,0.050460580275003,1
80,52,32,0.0500918355535982,1
81,47,32,0.0488496220086807,1
81,48,32,0.0510804570152903,1
81,49,32,0.0533471711141602,1
81,50,32,0.0539622899278067,1
82,38,32,0.0489139459328248,1
82,39,32,0.0551268627607203,1
82,40,32,0.0479252758105193,1
82,42,32,0.0424393945036604,1
82,43,32,0.052712966526602,1
82,44,32,0.0666958046419543,1
82,45,32,0.0660350583931686,1
82,48,32,0.0503228491122185,1
82,49,32,0.0578493159442361,1
83,37,32,0.0434065268978137,1
83,38,32,0.0692625654896162,1
83,39,32,0.0819033006342662,1
83,40,32,0.0672922918474138,1
83,41,32,0.0496365344144727,1
83,42,32,0.0524308268835312,1
83,43,32,0.072281232046937,1
83,44,32,0.0909690162086989,1
83,45,32,0.0800574251467842,1
83,46,32,0.0558769769293328,1
84,37,32,0.0421531754791686,1
84,38,32,0.0607600262274218,1
84,39,32,0.0711926562786422,1
84,40,32,0.0597318490937923,1
84,41,32,0.0472158365079517,1
84,43,32,0.0707106783099187,1
84,44,32,0.0840244113644548,1
84,45,32,0.0696338135292423,1
84,46,32,0.0502733234212745,1
85,39,32,0.0448634797295456,1
85,44,32,0.0524067344731768,1
85,45,32,0.0461978997300698,1
57,27,33,0.0442543948319574,1
57,28,33,0.0472735534021468,1
57,29,33,0.0413785390647837,1
58,28,33,0.0416857172968021,1
59,38,33,0.0417477190283414,1
60,24,33,0.053031401580514,1
60,25,33,0.0666840341802529,1
60,26,33,0.0483643459317175,1
60,38,33,0.0477152457897323,1
61,23,33,0.0423628297318856,1
61,24,33,0.0724063438906535,1
61,25,33,0.0959551935667295,1
61,26,33,0.0667266716910372,1
62,24,33,0.0612323261408189,1
62,25,33,0.0825723462209995,1
62,26,33,0.0595616504884185,1
63,16,33,0.0445362506214501,1
63,17,33,0.0416255133045903,1
63,25,33,0.0448536367688072,1
64,15,33,0.059957526205146,1
64,16,33,0.0471923172114882,1
65,14,33,0.0520411418781716,1
65,15,33,0.0514389073135994,1
77,49,33,0.0457099310991667,1
77,50,33,0.0469924951060399,1
77,51,33,0.043657888702926,1
78,48,33,0.0435831622209898,1
78,49,33,0.048116982407004,1
78,50,33,0.0493493178474067,1
78,51,33,0.0459382629173167,1
79,47,33,0.0428583110208201,1
79,48,33,0.0443393670763761,1
79,49,33,0.045648943130406,1
79,50,33,0.0460771457146177,1
79,51,33,0.0449095397034704,1
80,47,33,0.0447224315349495,1
80,48,33,0.0466145048680943,1
80,49,33,0.0470586519132877,1
80,50,33,0.0463920015100794,1
81,47,33,0.0445601213556769,1
81,48,33,0.0497740222741903,1
81,49,33,0.0544387205866056,1
81,50,33,0.0534916552887339,1
82,38,33,0.0462951344490585,1
82,39,33,0.0561765262585213,1
82,40,33,0.0440925036746333,1
82,44,33,0.0495648086703611,1
82,48,33,0.0510204963261453,1
82,49,33,0.0605897735546998,1
82,50,33,0.0627316839937379,1
83,37,33,0.0438814707045373,1
83,38,33,0.072885331935022,1
83,39,33,0.0904723805818806,1
83,40,33,0.068540404140019,1
83,41,33,0.0469193095435271,1
83,42,33,0.0430574032170678,1
83,44,33,0.0687792899045361,1
83,45,33,0.0667114409190515,1
83,49,33,0.0564385258143905,1
84,37,33,0.0427022131798547,1
84,38,33,0.0609671690518153,1
84,39,33,0.0753206118053503,1
84,40,33,0.0595189535035512,1
84,41,33,0.0466954761287467,1
84,43,33,0.0538757983909038,1
84,44,33,0.066246807755628,1
84,45,33,0.0640840651673315,1
84,46,33,0.050552689409383,1
85,39,33,0.0475890147519083,1
85,44,33,0.0483583066089245,1
85,45,33,0.0488325313199172,1
56,28,34,0.0457104771793834,1
57,27,34,0.0445290948079169,1
57,28,34,0.0523398856038722,1
57,29,34,0.0471643427655336,1
58,28,34,0.0454767926937625,1
58,29,34,0.0412997088711196,1
59,38,34,0.0420060906651469,1
60,24,34,0.0483315594917738,1
60,25,34,0.0555388343270047,1
60,26,34,0.0419500985193592,1
60,37,34,0.0426999423512307,1
60,38,34,0.0505535707071585,1
60,39,34,0.0439444078012003,1
61,24,34,0.0601759096312287,1
61,25,34,0.0691015096728216,1
61,26,34,0.05111007510863,1
62,24,34,0.0478008019615115,1
62,25,34,0.0550684483977336,1
62,26,34,0.0441541999256552,1
64,14,34,0.048886874411585,1
64,15,34,0.0484921016687606,1
64,16,34,0.0424539737641004,1
65,14,34,0.0450123893165688,1
65,15,34,0.0456694022149619,1
79,50,34,0.0411137361169107,1
81,48,34,0.0475038262380969,1
81,49,34,0.051925097128747,1
82,39,34,0.0497179219937062,1
82,49,34,0.0582365787323966,1
83,37,34,0.0421291182125906,1
83,38,34,0.0683806405328463,1
83,39,34,0.0856670585035525,1
83,40,34,0.0649009038503478,1
83,41,34,0.0440495660900665,1
83,43,34,0.041906320187528,1
83,45,34,0.0528997962482797,1
84,37,34,0.042168027779717,1
84,38,34,0.0577468096587987,1
84,39,34,0.0722076193523735,1
84,40,34,0.0578531709461622,1
84,41,34,0.046070376482624,1
84,44,34,0.0541611604479268,1
84,45,34,0.0577106602297975,1
84,46,34,0.0489861150291916,1
85,38,34,0.0430504393426206,1
85,39,34,0.047773092445563,1
85,45,34,0.0491303342737592,1
56,28,35,0.0457220313716921,1
57,27,35,0.042747735183665,1
57,28,35,0.0543913629963242,1
57,29,35,0.05205868673266,1
58,28,35,0.0463036608698684,1
58,29,35,0.0449935684726632,1
60,24,35,0.0415043916311704,1
60,25,35,0.0463552789671874,1
60,38,35,0.046222386832066,1
60,39,35,0.0420329161799524,1
61,24,35,0.0510068821678706,1
61,25,35,0.0557918803300133,1
61,26,35,0.0429170362710589,1
62,25,35,0.0425086926238382,1
83,38,35,0.0525307920036036,1
83,39,35,0.0644297771984065,1
83,40,35,0.052231631959322,1
83,45,35,0.0429423884506262,1
84,38,35,0.0490156033608956,1
84,39,35,0.0593962476568293,1
84,40,35,0.0506711401558022,1
84,41,35,0.0434291946335432,1
84,44,35,0.0463702664361062,1
84,45,35,0.0496537386446674,1
84,46,35,0.044774738990958,1
85,39,35,0.043891948956617,1
85,45,35,0.045824013203852,1
56,25,36,0.0415754469401644,1
56,28,36,0.0438958877629328,1
56,29,36,0.0434895229806559,1
57,28,36,0.0515855325551615,1
57,29,36,0.0522154982626215,1
58,28,36,0.0436364077454893,1
58,29,36,0.0451874350597081,1
61,24,36,0.0433816018502971,1
61,25,36,0.0489493762660951,1
83,39,36,0.041629154740491,1
84,39,36,0.0453004439275318,1
84,40,36,0.0418801786246772,1
84,45,36,0.0412918420719577,1
57,28,37,0.0439662942637485,1
57,29,37,0.0441067423107796,1
76,49,37,0.0418023324567502,1
56,18,42,0.0487405411337032,1
57,17,42,0.0492127923864869,1
57,18,42,0.0515311948702284,1
56,17,43,0.051781818656038,1
56,18,43,0.0530855121825847,1
57,17,43,0.0550234697707726,1
57,18,43,0.0591084579758725,1
56,17,44,0.0443315975984409,1
56,18,44,0.0467222286526322,1
57,17,44,0.0505929371433772,1
57,18,44,0.0556409621410047,1
57,18,45,0.0436410656475361,1
64,37,45,0.0517268916370096,1
64,37,46,0.0599394514906454,1
65,37,46,0.0410528049188657,1
56,23,47,0.0421392477302744,1
57,23,47,0.0521329806758107,1
57,24,47,0.0429719065193716,1
64,37,47,0.0498249537161873,1
56,23,48,0.0590044053642768,1
57,22,48,0.0472221840146295,1
57,23,48,0.0766983019046326,1
57,24,48,0.0612680322175649,1
58,23,48,0.0489986478405025,1
56,23,49,0.0690760980191713,1
57,22,49,0.0525643732335657,1
57,23,49,0.0925105736268818,1
57,24,49,0.0776327208497622,1
58,23,49,0.055400930148706,1
58,24,49,0.045941333942694,1
57,22,50,0.0463984625581884,1
57,23,50,0.0816914377303756,1
57,24,50,0.0737811143531335,1
58,23,50,0.0484451333633861,1
58,24,50,0.043961149755568,1
63,20,59,0.043908785528844,1
63,20,60,0.0419026598280555,1
63,21,60,0.0417934464880749,1
77,3,60,0.043634907376577,1
78,3,60,0.0468666912002666,1
79,3,60,0.0410809442702322,1
77,3,61,0.0426580455631166,1
78,3,61,0.0479556778804077,1
