x,y,z,signal,cytoplasm.p
546,202,12,0.0537885823515352,1
546,203,12,0.0511457325247626,1
545,202,13,0.0603939470262829,1
545,203,13,0.0691593401084478,1
546,201,13,0.0507828378904322,1
546,202,13,0.0812156883201638,1
546,203,13,0.0876719839092111,1
546,204,13,0.063943225132026,1
547,202,13,0.0941614660365788,1
547,203,13,0.0892083076080891,1
544,203,14,0.0480784486079475,1
545,202,14,0.0703968335738682,1
545,203,14,0.0856503895401049,1
545,204,14,0.0590683454102488,1
546,201,14,0.0588863276825601,1
546,202,14,0.111663163967581,1
546,203,14,0.130758042820821,1
546,204,14,0.0797047924951406,1
547,202,14,0.11806575445967,1
547,203,14,0.124977756692954,1
547,204,14,0.0725482436459836,1
548,203,14,0.0908082199151757,1
544,203,15,0.0440592279251884,1
545,202,15,0.0716766077055747,1
545,203,15,0.0917507435557993,1
545,204,15,0.0571806272020009,1
546,201,15,0.0584148387793859,1
546,202,15,0.123409446750885,1
546,203,15,0.153130862792901,1
546,204,15,0.0861515289770276,1
547,202,15,0.11708902781458,1
547,203,15,0.135988864115951,1
547,204,15,0.0740852756271228,1
548,203,15,0.0834982225251147,1
544,203,16,0.0432702393332259,1
545,202,16,0.070307271011588,1
545,203,16,0.0932086263459201,1
545,204,16,0.0563046009929187,1
546,201,16,0.0550985098433284,1
546,202,16,0.11928799011943,1
546,203,16,0.153378026268426,1
546,204,16,0.0857258134908328,1
547,202,16,0.100448384843945,1
547,203,16,0.123300392909582,1
547,204,16,0.0670969627386003,1
548,203,16,0.0681635060625069,1
522,203,17,0.0465440767403393,1
522,204,17,0.0415482780976979,1
538,208,17,0.0445453339359464,1
538,209,17,0.0523334786231114,1
538,210,17,0.0578134584789151,1
539,207,17,0.0435357830037691,1
539,208,17,0.0633270357848853,1
539,209,17,0.0857187522951589,1
540,207,17,0.0454701640368741,1
540,208,17,0.0619732542669735,1
544,203,17,0.0494654220709144,1
544,204,17,0.0421753566087644,1
545,202,17,0.0693997505721839,1
545,203,17,0.0957890446057353,1
545,204,17,0.0647068885780954,1
546,202,17,0.10123774650061,1
546,203,17,0.134938162525065,1
546,204,17,0.0848158113601468,1
547,203,17,0.0977829402723628,1
547,204,17,0.0606987084478372,1
522,203,18,0.0414304139820066,1
538,209,18,0.0434675067564721,1
538,210,18,0.0446018694585834,1
539,208,18,0.0566589529862348,1
539,209,18,0.0680181351834228,1
539,210,18,0.0695111293094596,1
539,211,18,0.053616269712847,1
539,212,18,0.0434505350158746,1
540,207,18,0.042044067570517,1
540,208,18,0.056292571007946,1
540,209,18,0.0654002428445758,1
540,210,18,0.0674181119733916,1
540,211,18,0.0541330616470714,1
540,212,18,0.0461118893925659,1
541,208,18,0.0463847727056261,1
541,209,18,0.0502966534820194,1
541,210,18,0.0521418315007098,1
541,211,18,0.0470977750464395,1
544,203,18,0.0494726454686329,1
544,204,18,0.0437699649089934,1
545,202,18,0.0614606903993778,1
545,203,18,0.0869077257223117,1
545,204,18,0.067679116690054,1
546,202,18,0.0743297898025867,1
546,203,18,0.101206160355796,1
546,204,18,0.0747146520004876,1
547,203,18,0.0683116722234925,1
547,204,18,0.0506243016120634,1
521,204,19,0.0410155389991243,1
539,208,19,0.047184277396812,1
539,209,19,0.0532808845452767,1
539,210,19,0.0521387766955369,1
539,211,19,0.0436119125333909,1
540,208,19,0.0486395973946286,1
540,209,19,0.0538184653748809,1
540,210,19,0.0541317315903058,1
540,211,19,0.047137833544715,1
540,212,19,0.0427246024687411,1
540,213,19,0.0427204500963999,1
541,208,19,0.0420816497842453,1
541,209,19,0.0452684549809739,1
541,210,19,0.0475320007332398,1
541,211,19,0.0446640442056369,1
541,212,19,0.0430129111962405,1
542,211,19,0.040999518843855,1
544,203,19,0.0488627495608217,1
544,204,19,0.0461818092872479,1
545,202,19,0.0547954191028332,1
545,203,19,0.0753990905612511,1
545,204,19,0.0669412271488678,1
545,205,19,0.0441682952833289,1
546,202,19,0.0559951789659503,1
546,203,19,0.0736498874923365,1
546,204,19,0.0638620646356548,1
546,205,19,0.0411908334520652,1
547,203,19,0.0512993000138326,1
547,204,19,0.0444492941053528,1
520,204,20,0.0412690040240813,1
521,204,20,0.0428126322217,1
535,217,20,0.0421740022216922,1
536,217,20,0.0453657329538411,1
544,203,20,0.0435462044851331,1
544,204,20,0.0439917437645425,1
545,203,20,0.0603158791822283,1
545,204,20,0.059046686030563,1
545,205,20,0.0447695593390011,1
546,203,20,0.0567781444553242,1
546,204,20,0.054413946927664,1
547,204,20,0.041070798532344,1
520,204,21,0.0410145225329783,1
521,204,21,0.0423761221894387,1
534,218,21,0.0446228232593753,1
535,217,21,0.0429504904427528,1
535,218,21,0.0501076232192703,1
536,217,21,0.0460695925060752,1
536,218,21,0.0527845733225475,1
537,217,21,0.0464505942953152,1
545,203,21,0.0473548220332143,1
545,204,21,0.0486904369221336,1
545,205,21,0.0421804903034753,1
546,203,21,0.0474722238730786,1
546,204,21,0.0469522419653109,1
521,208,22,0.0415356236348535,1
528,187,22,0.044489317459852,1
528,188,22,0.0423517891793848,1
529,186,22,0.0451500745221074,1
529,187,22,0.0498293115444515,1
529,188,22,0.0439068066639001,1
530,186,22,0.0462374824356813,1
530,187,22,0.0495968057270211,1
530,188,22,0.0421633725810377,1
532,219,22,0.0463621347069381,1
533,218,22,0.042912681146162,1
533,219,22,0.0512130193395877,1
534,218,22,0.0463855080215615,1
534,219,22,0.0529150864943484,1
535,217,22,0.042362040348602,1
535,218,22,0.0509369839001278,1
535,219,22,0.0564235978195547,1
536,217,22,0.0448439289764394,1
536,218,22,0.0527018610932833,1
537,217,22,0.0446224015340594,1
537,218,22,0.0489152111087725,1
538,217,22,0.0415812672901973,1
541,215,22,0.0419521530785905,1
542,214,22,0.0440025166836698,1
521,208,23,0.0430315401010601,1
521,209,23,0.0419608768452213,1
525,193,23,0.0454617890046392,1
525,194,23,0.0423778739715201,1
526,193,23,0.0437287331492621,1
527,187,23,0.04163292323466,1
528,186,23,0.0470755804000067,1
528,187,23,0.0595925553846451,1
528,188,23,0.054156489029043,1
528,189,23,0.0416862985207952,1
529,185,23,0.0411222571309858,1
529,186,23,0.0610594944555881,1
529,187,23,0.0802863354855598,1
529,188,23,0.0683634363026515,1
529,189,23,0.0453395751707858,1
530,185,23,0.0419276957136358,1
530,186,23,0.0633899485512416,1
530,187,23,0.0814796991813857,1
530,188,23,0.0673655531042141,1
530,189,23,0.0429750856794453,1
531,186,23,0.0460453811475548,1
531,187,23,0.0550072279393757,1
531,188,23,0.0463699582522215,1
531,219,23,0.0416274759493296,1
531,220,23,0.0429724444894862,1
532,219,23,0.0480287607149589,1
532,220,23,0.0526407703965611,1
533,218,23,0.0425035643358622,1
533,219,23,0.0531356650547676,1
534,218,23,0.0452090565922501,1
534,219,23,0.0535540327883431,1
535,218,23,0.0487167677207031,1
535,219,23,0.054421873200909,1
536,217,23,0.0418464216758335,1
536,218,23,0.0511359895886184,1
536,219,23,0.0559669179630503,1
537,217,23,0.0422751243830159,1
537,218,23,0.0481070502351411,1
541,215,23,0.0415869578785945,1
541,216,23,0.0425805508329529,1
542,214,23,0.0440778324997013,1
542,215,23,0.048476778982283,1
543,213,23,0.041627927411687,1
543,214,23,0.0461546836986599,1
545,214,23,0.051597508472786,1
545,215,23,0.0443593990288812,1
546,214,23,0.0486049456311723,1
519,213,24,0.0417664858048989,1
519,214,24,0.0514026227162277,1
519,215,24,0.0475078218151282,1
520,213,24,0.0466373591361751,1
520,214,24,0.0611396709262221,1
520,215,24,0.0555511184285139,1
521,208,24,0.0426220529294252,1
521,209,24,0.0410335839765834,1
521,213,24,0.0430256170230656,1
521,214,24,0.0539998829550046,1
521,215,24,0.0499300822680119,1
523,192,24,0.0452275881758429,1
523,193,24,0.0436919322087152,1
524,191,24,0.0419235865951732,1
524,192,24,0.0450626232897741,1
524,193,24,0.0456530252151945,1
524,194,24,0.0414700047977202,1
525,192,24,0.0459498441432994,1
525,193,24,0.0504765842100678,1
525,194,24,0.0460243759827822,1
526,192,24,0.043248301506697,1
526,193,24,0.0472983811284366,1
526,194,24,0.0420583873076857,1
527,187,24,0.0430906978900845,1
527,188,24,0.0418304096306664,1
528,186,24,0.0533139575421658,1
528,187,24,0.0754319797291563,1
528,188,24,0.0699963026584612,1
528,189,24,0.0482412562068234,1
529,185,24,0.0442082132064991,1
529,186,24,0.0765297145062349,1
529,187,24,0.120617214247793,1
529,188,24,0.109152665602448,1
529,189,24,0.0629516191527136,1
530,185,24,0.0436768582320392,1
530,186,24,0.0766370165654569,1
530,187,24,0.120190774259132,1
530,188,24,0.107826469245584,1
530,189,24,0.0605727315265496,1
531,186,24,0.0487728625944524,1
531,187,24,0.0685586734969731,1
531,188,24,0.0618399349998015,1
531,219,24,0.0420232732684023,1
531,220,24,0.0439454404875508,1
532,219,24,0.0483907307976353,1
532,220,24,0.0528402248440417,1
533,219,24,0.0535160721031775,1
533,220,24,0.0613457486238562,1
534,218,24,0.0417743093501823,1
534,219,24,0.0529557018863103,1
535,218,24,0.0441382257276319,1
535,219,24,0.0512951854886352,1
536,218,24,0.0467264350923215,1
536,219,24,0.0513434081564877,1
537,218,24,0.0455033397617248,1
537,219,24,0.0479147921517048,1
538,218,24,0.0424464827330084,1
542,214,24,0.0419169498281826,1
542,215,24,0.0478973770588522,1
543,214,24,0.0463579607076577,1
544,214,24,0.0572130189503028,1
544,215,24,0.056300946040181,1
545,213,24,0.059856414857292,1
545,214,24,0.0757785784647416,1
545,215,24,0.0695035761009172,1
545,216,24,0.0480598764738435,1
546,213,24,0.0596173885176697,1
546,214,24,0.0765576619185154,1
546,215,24,0.068835665928496,1
547,214,24,0.0529052732706515,1
519,213,25,0.0439503281758274,1
519,214,25,0.0672955953623883,1
519,215,25,0.06477553248336,1
519,216,25,0.044115628279455,1
520,213,25,0.0567151451812108,1
520,214,25,0.0989471616675131,1
520,215,25,0.0955730779901168,1
520,216,25,0.0563065420107188,1
521,213,25,0.048796798209497,1
521,214,25,0.080377482221142,1
521,215,25,0.0781958863485309,1
521,216,25,0.0497466101286569,1
522,194,25,0.0420689682877269,1
523,191,25,0.0495632677509376,1
523,192,25,0.0550595813526301,1
523,193,25,0.0539619438967783,1
523,194,25,0.0468518172727789,1
524,190,25,0.0434822914728352,1
524,191,25,0.0507526791236107,1
524,192,25,0.0574918767053382,1
524,193,25,0.0569738628490447,1
524,194,25,0.0479334724205052,1
525,190,25,0.041959852268973,1
525,191,25,0.0480458622171921,1
525,192,25,0.055271855168367,1
525,193,25,0.0564009652276015,1
525,194,25,0.0475549955764258,1
526,191,25,0.0418406851301903,1
526,192,25,0.0472275312753657,1
526,193,25,0.0489192823800914,1
526,194,25,0.0419401879744356,1
527,187,25,0.0430726502092579,1
527,188,25,0.0422357687602668,1
528,186,25,0.0568011987725933,1
528,187,25,0.0796515740043152,1
528,188,25,0.0775107340987713,1
528,189,25,0.0486490591805622,1
529,185,25,0.0457387273688138,1
529,186,25,0.0862923473853939,1
529,187,25,0.141314195135721,1
529,188,25,0.137295563787057,1
529,189,25,0.0712981795221087,1
530,185,25,0.0431765541356461,1
530,186,25,0.0824997067387034,1
530,187,25,0.137263328834065,1
530,188,25,0.134321729874857,1
530,189,25,0.0682815945576932,1
531,186,25,0.0498877691613168,1
531,187,25,0.071621480637358,1
531,188,25,0.0700874169536345,1
531,220,25,0.0439568622148564,1
532,219,25,0.0453139715780494,1
532,220,25,0.0508349966612331,1
533,219,25,0.0492646375666683,1
533,220,25,0.0558560204251735,1
534,219,25,0.048702418246493,1
534,220,25,0.0539276651980245,1
535,219,25,0.0467490190236613,1
535,220,25,0.0485933752186592,1
536,219,25,0.0466287137671991,1
537,218,25,0.041547453570638,1
537,219,25,0.0455158996067098,1
538,218,25,0.041583040699218,1
538,219,25,0.0435230609567395,1
542,215,25,0.0458645853419353,1
542,216,25,0.0469448022981997,1
543,214,25,0.0466814780922998,1
543,215,25,0.0523142739010336,1
544,213,25,0.0482064152076485,1
544,214,25,0.0653494681978886,1
544,215,25,0.0710722861413622,1
544,216,25,0.0586070373887391,1
545,213,25,0.0611783615205884,1
545,214,25,0.0909432585240202,1
545,215,25,0.0953541484838175,1
545,216,25,0.0673035486693074,1
546,205,25,0.0434582260961549,1
546,206,25,0.0423487046371705,1
546,213,25,0.065716190800471,1
546,214,25,0.0936185109125643,1
546,215,25,0.0933031252570902,1
546,216,25,0.0618937211977829,1
547,204,25,0.044074207284005,1
547,205,25,0.04788832077803,1
547,206,25,0.0451433106968485,1
547,214,25,0.0633228131249915,1
547,215,25,0.0588493510231316,1
548,204,25,0.0429906732959291,1
548,205,25,0.042856653856598,1
519,213,26,0.0423182701268731,1
519,214,26,0.0770665275794948,1
519,215,26,0.0798730554894492,1
519,216,26,0.050129731357946,1
520,213,26,0.0604586872690081,1
520,214,26,0.130307726691199,1
520,215,26,0.137261220207485,1
520,216,26,0.076080647332356,1
521,213,26,0.0489104585888664,1
521,214,26,0.101822214534566,1
521,215,26,0.109430560958686,1
521,216,26,0.0647558627820877,1
522,193,26,0.0502448137085728,1
522,194,26,0.0436993069950086,1
522,214,26,0.0452909524045566,1
522,215,26,0.04927953852783,1
522,221,26,0.0428729037980971,1
523,191,26,0.06178166121192,1
523,192,26,0.0744191036550652,1
523,193,26,0.0702840490855395,1
523,194,26,0.0534863134347325,1
523,195,26,0.041948295373297,1
524,190,26,0.0515333143102775,1
524,191,26,0.0763143372247118,1
524,192,26,0.099184679528121,1
524,193,26,0.0915205788545456,1
524,194,26,0.0606641972594862,1
525,189,26,0.0421542108688865,1
525,190,26,0.0509320962118513,1
525,191,26,0.0742262075769203,1
525,192,26,0.0975692444853684,1
525,193,26,0.0900836796022581,1
525,194,26,0.0583620852677549,1
526,190,26,0.0433894199888457,1
526,191,26,0.0540008615740069,1
526,192,26,0.066518534027437,1
526,193,26,0.0633492628717271,1
526,194,26,0.0451455193480222,1
527,186,26,0.0411161448172727,1
527,187,26,0.0420432781872334,1
527,188,26,0.0412386262844996,1
528,185,26,0.0425739356929016,1
528,186,26,0.0562191745827752,1
528,187,26,0.074783960934135,1
528,188,26,0.0754480106978953,1
528,189,26,0.0475403541385354,1
529,185,26,0.046453859963146,1
529,186,26,0.0828747016455592,1
529,187,26,0.135927941028008,1
529,188,26,0.139680204179069,1
529,189,26,0.072710770094649,1
530,186,26,0.075652336613448,1
530,187,26,0.130051004108513,1
530,188,26,0.136290808628664,1
530,189,26,0.0691568097565525,1
531,186,26,0.0437548638986434,1
531,187,26,0.0636045202292767,1
531,188,26,0.0662931488797635,1
531,220,26,0.0424956677996588,1
532,220,26,0.0480525449414286,1
532,221,26,0.0448700948695969,1
533,219,26,0.0426446855213784,1
533,220,26,0.0492622045359996,1
534,219,26,0.0419977507766883,1
534,220,26,0.0473997898467057,1
535,220,26,0.0441842370409433,1
536,219,26,0.0414724594553281,1
536,220,26,0.0427051490368616,1
537,219,26,0.0422660789156633,1
538,219,26,0.0430347057442967,1
541,217,26,0.0465257803497111,1
542,215,26,0.0441806145286145,1
542,216,26,0.0480750639919506,1
543,214,26,0.0464175861792439,1
543,215,26,0.0557914910451063,1
543,216,26,0.0552925143021112,1
544,213,26,0.0472384636931701,1
544,214,26,0.0683819759963466,1
544,215,26,0.0823850623335969,1
545,212,26,0.0416889451174892,1
545,213,26,0.0620989608515201,1
545,214,26,0.0953654161191807,1
545,215,26,0.111809091740352,1
545,216,26,0.0829023354672202,1
546,205,26,0.0469522960326591,1
546,206,26,0.0450382848729854,1
546,213,26,0.0704734037523778,1
546,214,26,0.0983172446206665,1
546,215,26,0.106089880089003,1
546,216,26,0.0727066177223079,1
547,204,26,0.0488235831737914,1
547,205,26,0.0586686309117995,1
547,206,26,0.0543484929959427,1
547,207,26,0.041340308042877,1
547,214,26,0.0687501584173302,1
547,215,26,0.0650445013204111,1
548,204,26,0.0480221428715402,1
548,205,26,0.0544752593005138,1
548,206,26,0.0501311154820597,1
549,205,26,0.0465480723173707,1
549,206,26,0.0431525455296814,1
518,214,27,0.041683643813999,1
518,215,27,0.0425208280401399,1
519,213,27,0.0443366150483531,1
519,214,27,0.0776520282998016,1
519,215,27,0.0881377957408252,1
519,216,27,0.0575900576029202,1
519,217,27,0.0433228684899561,1
519,220,27,0.0423532462944186,1
520,203,27,0.041438970139858,1
520,213,27,0.0615484741459024,1
520,214,27,0.1322431863679,1
520,215,27,0.153124385524588,1
520,216,27,0.0892909928036792,1
520,217,27,0.046942936974687,1
520,218,27,0.0414602970053523,1
520,219,27,0.0423494994271889,1
520,220,27,0.0467966469506837,1
520,221,27,0.057365591600166,1
521,213,27,0.0499697839217894,1
521,214,27,0.104750264216317,1
521,215,27,0.124832650743876,1
521,216,27,0.0761045883541354,1
521,217,27,0.0453882628178327,1
521,218,27,0.0410043686849878,1
521,219,27,0.0435051160038745,1
521,220,27,0.0493566007192082,1
521,221,27,0.0585671897531216,1
522,192,27,0.055617507725359,1
522,193,27,0.0535447169842496,1
522,194,27,0.0462308321518536,1
522,214,27,0.0486105848555887,1
522,215,27,0.0576132038346813,1
522,216,27,0.0436006178643536,1
522,220,27,0.0456252940723068,1
522,221,27,0.0501078178617238,1
522,222,27,0.0447006883508741,1
523,190,27,0.053444400426414,1
523,191,27,0.0763751954318368,1
523,192,27,0.0984936555643476,1
523,193,27,0.0893658328270467,1
523,194,27,0.0624688139535628,1
523,195,27,0.0438369327264641,1
524,189,27,0.0412464336095786,1
524,190,27,0.06579023603382,1
524,191,27,0.112946949896524,1
524,192,27,0.160478701919962,1
524,193,27,0.142035875285919,1
524,194,27,0.0821910092142007,1
524,195,27,0.0427909782487491,1
525,189,27,0.045828289931094,1
525,190,27,0.0685568135801953,1
525,191,27,0.113480605436649,1
525,192,27,0.162615000168258,1
525,193,27,0.143732054506462,1
525,194,27,0.0801827802935675,1
526,189,27,0.0445719594015636,1
526,190,27,0.0543840476841138,1
526,191,27,0.0731060781042206,1
526,192,27,0.0963335568693777,1
526,193,27,0.0870968857466965,1
526,194,27,0.0530850417966554,1
527,185,27,0.0411892817191721,1
527,186,27,0.0415470372520569,1
527,187,27,0.0417833737411067,1
527,188,27,0.0422106950275428,1
527,189,27,0.0413972706975648,1
527,191,27,0.0410024411840248,1
527,192,27,0.0425831703959728,1
528,185,27,0.0443620591424123,1
528,186,27,0.0520220074436465,1
528,187,27,0.063395501267901,1
528,188,27,0.0660581721845207,1
528,189,27,0.0478271381668159,1
529,185,27,0.0460177959865072,1
529,186,27,0.0677077129105128,1
529,187,27,0.103828372675764,1
529,188,27,0.112507966283083,1
529,189,27,0.0682892829346061,1
530,186,27,0.061899490183835,1
530,187,27,0.100618113063389,1
530,188,27,0.110911638641181,1
530,189,27,0.0652619439746352,1
531,187,27,0.0519524119530536,1
531,188,27,0.0555505669415624,1
532,220,27,0.0417353889695862,1
535,184,27,0.0425898396033723,1
540,217,27,0.044464660045709,1
540,218,27,0.0558073976589444,1
541,217,27,0.0602813734006121,1
541,218,27,0.0733540688101732,1
542,216,27,0.0499460537626679,1
542,217,27,0.0624316264314763,1
543,214,27,0.0442790576528352,1
543,215,27,0.0556895092129464,1
543,216,27,0.0592419664787632,1
544,213,27,0.0455309898035902,1
544,214,27,0.0664830874739622,1
544,215,27,0.0835971008914884,1
545,212,27,0.0422519159738044,1
545,213,27,0.0601430529037323,1
545,214,27,0.0877196118362335,1
545,215,27,0.107326465222973,1
545,216,27,0.0873133119347745,1
546,205,27,0.0458990640898774,1
546,206,27,0.0437259108336865,1
546,212,27,0.0477282868341163,1
546,213,27,0.0671584913808429,1
546,214,27,0.0873302350147587,1
546,215,27,0.0974833422825608,1
546,216,27,0.0741126282985732,1
547,204,27,0.0515722914615892,1
547,205,27,0.0639678041485141,1
547,206,27,0.0585265311072811,1
547,207,27,0.0416133319310426,1
547,215,27,0.0624913546310241,1
548,203,27,0.0413556226192525,1
548,204,27,0.0553926632511674,1
548,205,27,0.0666871592729784,1
548,206,27,0.0593866615159948,1
548,207,27,0.0412720155753756,1
549,204,27,0.049622617479048,1
549,205,27,0.0563996730179797,1
549,206,27,0.050392033690965,1
550,205,27,0.0431704039747892,1
518,214,28,0.0433098031152654,1
518,215,28,0.047923221251288,1
518,216,28,0.0513190994767405,1
518,217,28,0.0516647790674066,1
518,218,28,0.0452343411876321,1
519,208,28,0.044823407714433,1
519,213,28,0.0428610306084341,1
519,214,28,0.0662798483121082,1
519,215,28,0.0843321302699552,1
519,216,28,0.0733703268617745,1
519,217,28,0.0636816473014727,1
519,218,28,0.0514044393791269,1
519,219,28,0.0433041341538075,1
519,220,28,0.04452788099595,1
520,202,28,0.0418660562333294,1
520,203,28,0.0414020367343079,1
520,213,28,0.0522206725078434,1
520,214,28,0.102245248280291,1
520,215,28,0.132686560250014,1
520,216,28,0.0972735069042274,1
520,217,28,0.0657303510389625,1
520,218,28,0.0510818195124648,1
520,219,28,0.0468318772347657,1
520,220,28,0.0537620677239818,1
520,221,28,0.0639108441971937,1
521,201,28,0.0419603550953112,1
521,202,28,0.0414675825805212,1
521,213,28,0.0437638796289544,1
521,214,28,0.0842354578513878,1
521,215,28,0.110401199620369,1
521,216,28,0.0777822332877178,1
521,217,28,0.0523098187515425,1
521,218,28,0.0445301815616155,1
521,219,28,0.0465722187950732,1
521,220,28,0.0564762053493456,1
521,221,28,0.066378034616425,1
521,222,28,0.0686110323169623,1
522,192,28,0.056354326733051,1
522,193,28,0.0534574144371239,1
522,194,28,0.0450625530022214,1
522,200,28,0.0426306334175832,1
522,201,28,0.0449996321257629,1
522,202,28,0.0421831585271085,1
522,214,28,0.0431312348843915,1
522,215,28,0.0545292671746229,1
522,216,28,0.04300956172402,1
522,220,28,0.0488054706121471,1
522,221,28,0.0541419340989097,1
522,222,28,0.0523459087064608,1
523,190,28,0.0561141055050336,1
523,191,28,0.0866748738738528,1
523,192,28,0.111597288310544,1
523,193,28,0.098579233363066,1
523,194,28,0.0633967231899701,1
523,195,28,0.0424845569596053,1
523,221,28,0.0420290125174129,1
524,189,28,0.0442268231877468,1
524,190,28,0.0791749270761234,1
524,191,28,0.144563296731036,1
524,192,28,0.201406905931551,1
524,193,28,0.17476953468429,1
524,194,28,0.0925264586137807,1
524,195,28,0.043561608272633,1
525,189,28,0.0505246122354669,1
525,190,28,0.0864053805835242,1
525,191,28,0.149812414416795,1
525,192,28,0.208669188886833,1
525,193,28,0.18214074171924,1
525,194,28,0.0936156345296405,1
526,188,28,0.0419628692270022,1
526,189,28,0.0489001641657707,1
526,190,28,0.0661855764838005,1
526,191,28,0.0919781508222952,1
526,192,28,0.116937942016792,1
526,193,28,0.103168199540869,1
526,194,28,0.0567247313220453,1
527,188,28,0.042857848744993,1
527,189,28,0.0434328360694439,1
527,190,28,0.0442254363602657,1
527,191,28,0.0447551747210146,1
527,192,28,0.0451429268186764,1
528,185,28,0.0419719282111917,1
528,186,28,0.0455105955998521,1
528,187,28,0.0511238082150707,1
528,188,28,0.0542945175622425,1
528,189,28,0.0455835811131766,1
529,185,28,0.0418824845970776,1
529,186,28,0.0510458755393867,1
529,187,28,0.0686592009174667,1
529,188,28,0.077248707509228,1
529,189,28,0.058034345223219,1
530,186,28,0.0472703634286035,1
530,187,28,0.0664130972917276,1
530,188,28,0.075223425746975,1
530,189,28,0.0544386557057878,1
531,188,28,0.0417276681522644,1
535,184,28,0.0425081357301519,1
540,217,28,0.0434035045330497,1
540,218,28,0.0607443358829765,1
540,219,28,0.0530465890986212,1
541,217,28,0.0677735507204063,1
541,218,28,0.0930216073885237,1
542,216,28,0.0473638837207713,1
542,217,28,0.0686348922377195,1
543,215,28,0.0500932250844467,1
543,216,28,0.0565639404352569,1
543,217,28,0.0570090066253696,1
544,213,28,0.0418553427882852,1
544,214,28,0.0588361153362941,1
544,215,28,0.0732611324453658,1
544,216,28,0.0708602448152225,1
545,212,28,0.0415367455323285,1
545,213,28,0.0572497198662555,1
545,214,28,0.0750803040695758,1
545,215,28,0.0881190614046766,1
546,212,28,0.0466297302333452,1
546,213,28,0.0613747611628961,1
546,214,28,0.0725542289014285,1
546,215,28,0.078362159664426,1
547,204,28,0.0491959450007902,1
547,205,28,0.0629995120097422,1
547,206,28,0.0580609733922036,1
548,204,28,0.058574115780425,1
548,205,28,0.0744586809539418,1
548,206,28,0.0663827438824526,1
548,207,28,0.0436824379823727,1
549,204,28,0.053715586024741,1
549,205,28,0.0648284319768311,1
549,206,28,0.0573499120691903,1
550,204,28,0.0430496067054585,1
550,205,28,0.045853679957805,1
550,206,28,0.0426944328884499,1
518,214,29,0.0415990013804043,1
518,215,29,0.048971868282943,1
518,216,29,0.0648861110238825,1
518,217,29,0.0689485531447862,1
518,218,29,0.0508798995939066,1
519,207,29,0.0502552216730998,1
519,208,29,0.0474106790106315,1
519,209,29,0.0421951344447331,1
519,214,29,0.0514564900152314,1
519,215,29,0.0722604755919661,1
519,216,29,0.0985110760639351,1
519,217,29,0.101859466937471,1
519,218,29,0.0693782479878079,1
519,219,29,0.0441794493772609,1
519,220,29,0.0464149476926521,1
519,221,29,0.049885222589217,1
520,206,29,0.041575265814548,1
520,207,29,0.0415310684607683,1
520,213,29,0.0427525958382675,1
520,214,29,0.065740623835119,1
520,215,29,0.0921612769306217,1
520,216,29,0.102670336585246,1
520,217,29,0.0940174522479343,1
520,218,29,0.064900898443613,1
520,219,29,0.0479358784174998,1
520,220,29,0.0562191259221619,1
520,221,29,0.0645333918644818,1
520,222,29,0.0634308396866793,1
521,201,29,0.0422863676880724,1
521,202,29,0.0428275521064336,1
521,203,29,0.041463416691343,1
521,214,29,0.0583732772088307,1
521,215,29,0.0773324416113731,1
521,216,29,0.0704566699081123,1
521,217,29,0.0584529778868006,1
521,218,29,0.0476994797509995,1
521,219,29,0.0468270003599588,1
521,220,29,0.0576283480989099,1
521,221,29,0.066919481261425,1
521,222,29,0.0654742556375159,1
521,223,29,0.0473971243264398,1
522,192,29,0.0590959684184401,1
522,193,29,0.0554581820637066,1
522,194,29,0.045587068457135,1
522,200,29,0.0436011369108962,1
522,201,29,0.0467451802419397,1
522,202,29,0.0459479463793779,1
522,203,29,0.0424846650943017,1
522,215,29,0.0445803263236963,1
522,220,29,0.0473443383743999,1
522,221,29,0.0531209479225897,1
522,222,29,0.0511403528236175,1
523,190,29,0.0590756553157243,1
523,191,29,0.0906751872049491,1
523,192,29,0.111827917990992,1
523,193,29,0.100883432354438,1
523,194,29,0.0654497685355197,1
523,195,29,0.043759930009169,1
523,201,29,0.0425465938349209,1
523,202,29,0.0427154975273055,1
524,189,29,0.048655136350499,1
524,190,29,0.0840706173202198,1
524,191,29,0.147251027863543,1
524,192,29,0.191100328495906,1
524,193,29,0.16870673584865,1
524,194,29,0.0920498441259979,1
524,195,29,0.045930206882436,1
525,188,29,0.0415564909278883,1
525,189,29,0.0544419484072927,1
525,190,29,0.0925920423071377,1
525,191,29,0.154994996823868,1
525,192,29,0.19821898694745,1
525,193,29,0.175764146808162,1
525,194,29,0.0931755587557658,1
525,195,29,0.0414123581910778,1
526,188,29,0.0427318664169707,1
526,189,29,0.0515111250705795,1
526,190,29,0.0709558521070305,1
526,191,29,0.0970623414691284,1
526,192,29,0.1115836633388,1
526,193,29,0.0984118192261241,1
526,194,29,0.0546687122723451,1
527,188,29,0.0432531324242579,1
527,189,29,0.0452989624821913,1
527,190,29,0.046966234595023,1
527,191,29,0.0482363847387513,1
527,192,29,0.0457345263358593,1
528,187,29,0.0425354721813978,1
528,188,29,0.0451020843438521,1
528,189,29,0.0422640649069432,1
529,187,29,0.0459298230042639,1
529,188,29,0.0508192468427048,1
529,189,29,0.046099864814328,1
530,187,29,0.0427606518731481,1
530,188,29,0.0467289816644214,1
530,189,29,0.0412672225049584,1
540,218,29,0.0540298038254941,1
540,219,29,0.0495810396882883,1
541,217,29,0.0622088797703946,1
541,218,29,0.0877386056956534,1
541,219,29,0.0729070616022603,1
542,192,29,0.0432075428362624,1
542,193,29,0.044989416100322,1
542,217,29,0.0618101222640084,1
542,218,29,0.0812800933453302,1
543,193,29,0.0479316179104622,1
543,216,29,0.0476248722172293,1
543,217,29,0.0516482344588598,1
544,214,29,0.0474265477773259,1
544,215,29,0.0555588824997143,1
544,216,29,0.0571777994796904,1
544,217,29,0.0501579382934978,1
545,213,29,0.0493929231637236,1
545,214,29,0.0586383369766075,1
545,215,29,0.0626671924608144,1
545,216,29,0.0595213054331975,1
546,212,29,0.04135756634042,1
546,213,29,0.0513866350013673,1
546,214,29,0.0562603522751583,1
547,204,29,0.0441903358378194,1
547,205,29,0.0552251626064683,1
547,206,29,0.0525019470733431,1
548,204,29,0.0562097236103113,1
548,205,29,0.0718444922284459,1
548,206,29,0.0660311114767506,1
548,207,29,0.0456660662595785,1
549,204,29,0.0536147071664843,1
549,205,29,0.066141300732366,1
549,206,29,0.0599980659028205,1
549,207,29,0.042772333123725,1
550,204,29,0.0439427263066716,1
550,205,29,0.047976185625577,1
550,206,29,0.0447910078560289,1
518,215,30,0.0453116574955468,1
518,216,30,0.0696359167490869,1
518,217,30,0.0791624483321607,1
518,218,30,0.0509220396850875,1
519,209,30,0.0413305299629565,1
519,215,30,0.0616790089446426,1
519,216,30,0.11515083233006,1
519,217,30,0.134130472037362,1
519,218,30,0.0814685018335752,1
519,219,30,0.0453601315765684,1
519,220,30,0.0484637757850428,1
519,221,30,0.0506763955020465,1
519,222,30,0.0482159905350133,1
520,214,30,0.0413422652808816,1
520,215,30,0.0612500764512303,1
520,216,30,0.101563242750196,1
520,217,30,0.115883131307443,1
520,218,30,0.0727517152974349,1
520,219,30,0.0476487051043123,1
520,220,30,0.0541408365317414,1
520,221,30,0.0597205273910809,1
520,222,30,0.0557662470002354,1
520,223,30,0.047190619496755,1
521,215,30,0.0492027358597232,1
521,216,30,0.058317793296116,1
521,217,30,0.060020298396397,1
521,218,30,0.046432595275102,1
521,219,30,0.0437231723225006,1
521,220,30,0.0523797710866335,1
521,221,30,0.0601066547649294,1
521,222,30,0.0569444718385675,1
521,223,30,0.0470198585909599,1
522,192,30,0.0573643210174835,1
522,193,30,0.053632030344845,1
522,194,30,0.0442444302196856,1
522,200,30,0.0415195196751945,1
522,201,30,0.0460078259675006,1
522,202,30,0.0471479657657662,1
522,203,30,0.0428513120025966,1
522,220,30,0.0411204485781888,1
522,221,30,0.0468775533305184,1
522,222,30,0.0454836322133087,1
523,190,30,0.0585978729732206,1
523,191,30,0.0823652574639542,1
523,192,30,0.0985699986599948,1
523,193,30,0.0900364409601427,1
523,194,30,0.062037415989073,1
523,195,30,0.0420896679719822,1
523,201,30,0.0415489674563873,1
523,202,30,0.0445782474341583,1
523,203,30,0.0417647907935331,1
524,188,30,0.0418647586169728,1
524,189,30,0.0515022796524153,1
524,190,30,0.0790255984671518,1
524,191,30,0.122334577055357,1
524,192,30,0.147156204548284,1
524,193,30,0.129585019261385,1
524,194,30,0.0780138524006378,1
524,195,30,0.0429457622531534,1
525,188,30,0.0415499433720222,1
525,189,30,0.0542319183865058,1
525,190,30,0.086594481133826,1
525,191,30,0.131095520394766,1
525,192,30,0.151197846960338,1
525,193,30,0.1305077434391,1
525,194,30,0.0750003546818041,1
526,189,30,0.0496906720502174,1
526,190,30,0.0675540372867465,1
526,191,30,0.0870219213684282,1
526,192,30,0.0895604049929855,1
526,193,30,0.0744729655473342,1
526,194,30,0.0441121409354966,1
527,188,30,0.0410677302103341,1
527,189,30,0.0438110750171913,1
527,190,30,0.0459352405525527,1
527,191,30,0.0464715670196789,1
527,192,30,0.0415485538411737,1
534,183,30,0.0418769021433767,1
535,183,30,0.0409933389459566,1
540,219,30,0.0415285489223426,1
541,217,30,0.0464926803191479,1
541,218,30,0.0639435441293803,1
541,219,30,0.0588410787188582,1
542,192,30,0.0448109614108792,1
542,193,30,0.0443897713617281,1
542,217,30,0.0481700170688456,1
542,218,30,0.0627283966989678,1
543,193,30,0.0479478218947154,1
543,217,30,0.0437789346820585,1
543,218,30,0.048519811184709,1
544,216,30,0.0433764681555863,1
544,217,30,0.044001073085473,1
545,214,30,0.044454806271501,1
545,215,30,0.0439687624381934,1
545,216,30,0.0438537179347103,1
546,213,30,0.0429744152443278,1
546,214,30,0.0443686148083806,1
546,215,30,0.0423532111506423,1
547,205,30,0.047041209786761,1
547,206,30,0.0468824193918557,1
548,204,30,0.05080608144342,1
548,205,30,0.0640397623822229,1
548,206,30,0.0622364595247073,1
548,207,30,0.0465358476899444,1
549,204,30,0.0499836792302747,1
549,205,30,0.0617881925475816,1
549,206,30,0.0594017300859359,1
549,207,30,0.0460787731417982,1
550,204,30,0.0426220015654444,1
550,205,30,0.0468940330582473,1
550,206,30,0.0453151448395052,1
518,215,31,0.0444625270888228,1
518,216,31,0.0673689431269457,1
518,217,31,0.0794390731057159,1
518,218,31,0.0494549438188348,1
518,220,31,0.0426091335365747,1
518,221,31,0.0449289742117781,1
519,215,31,0.0569283327351322,1
519,216,31,0.111668311179129,1
519,217,31,0.137352020912039,1
519,218,31,0.0809840367668349,1
519,219,31,0.0471741559892305,1
519,220,31,0.050077248183056,1
519,221,31,0.0507800209815914,1
519,222,31,0.0479353377440178,1
520,215,31,0.0489292361788935,1
520,216,31,0.0902880541784242,1
520,217,31,0.114193353660926,1
520,218,31,0.0692034428443681,1
520,219,31,0.0465036938379746,1
520,220,31,0.050566536057255,1
520,221,31,0.0530447237751085,1
520,222,31,0.0493736860012369,1
520,223,31,0.0438453672327821,1
521,216,31,0.0480790271285731,1
521,217,31,0.0561547371171999,1
521,218,31,0.0420623909948193,1
521,220,31,0.0454763385280376,1
521,221,31,0.0500461864915196,1
521,222,31,0.0478332585906312,1
521,223,31,0.0420698387720328,1
522,192,31,0.0554918984620391,1
522,193,31,0.0520834982387453,1
522,194,31,0.0435276161308246,1
522,201,31,0.0448062061876057,1
522,202,31,0.0463341278205746,1
522,203,31,0.0413740487715163,1
523,190,31,0.0574227245670006,1
523,191,31,0.0710934372879749,1
523,192,31,0.0812942643972914,1
523,193,31,0.0752234635941188,1
523,194,31,0.0564513938432602,1
523,202,31,0.0437070764729438,1
524,188,31,0.0464494588810031,1
524,189,31,0.0556799230721119,1
524,190,31,0.0705139272298477,1
524,191,31,0.0901131463070228,1
524,192,31,0.0992740852950914,1
524,193,31,0.0882464278568127,1
524,194,31,0.062181591979762,1
525,188,31,0.0436377567258267,1
525,189,31,0.0543048119853383,1
525,190,31,0.0738219081673444,1
525,191,31,0.0949104069437354,1
525,192,31,0.0981748852928768,1
525,193,31,0.0824441146912923,1
525,194,31,0.0548437823457911,1
526,189,31,0.0474557657722889,1
526,190,31,0.0593716956740152,1
526,191,31,0.0696750723226476,1
526,192,31,0.0658962026295417,1
526,193,31,0.0523902655589175,1
527,189,31,0.0412184077996432,1
527,190,31,0.0428926059397783,1
527,191,31,0.0425644549833961,1
534,183,31,0.0433044126006507,1
535,183,31,0.0423122064737734,1
541,218,31,0.0416324690689352,1
541,219,31,0.0420361223737002,1
542,192,31,0.0434279240508607,1
542,218,31,0.0444697964437872,1
542,219,31,0.0441393395150046,1
543,193,31,0.0444373722550764,1
547,205,31,0.0412814584377374,1
547,206,31,0.0417084688369214,1
548,204,31,0.0452787169636608,1
548,205,31,0.0538963223562775,1
548,206,31,0.0543227244977944,1
548,207,31,0.0437488570162592,1
549,204,31,0.0449007780896959,1
549,205,31,0.0534620804492728,1
549,206,31,0.0543614691595088,1
549,207,31,0.0461097591390471,1
550,205,31,0.043860592598033,1
550,206,31,0.0444832511033848,1
550,207,31,0.0418817384676725,1
517,215,32,0.0429877401422897,1
517,216,32,0.0424228715220529,1
517,217,32,0.0415533901654694,1
517,221,32,0.0436417225658166,1
518,212,32,0.0459210586871219,1
518,213,32,0.0443949104631738,1
518,215,32,0.0420767080286206,1
518,216,32,0.0564759404193394,1
518,217,32,0.0663923516502263,1
518,218,32,0.0463124684408889,1
518,220,32,0.0433170021826772,1
518,221,32,0.046707998126588,1
518,222,32,0.0484917664512018,1
519,212,32,0.0415686155307203,1
519,215,32,0.0485007902916151,1
519,216,32,0.0855618758843796,1
519,217,32,0.105938156296506,1
519,218,32,0.067857236161938,1
519,219,32,0.0455989146131239,1
519,220,32,0.0481755427518308,1
519,221,32,0.0501185664505443,1
519,222,32,0.0509823409985262,1
519,223,32,0.0516686070356586,1
520,216,32,0.0666219594577936,1
520,217,32,0.08526968512128,1
520,218,32,0.0553370603902867,1
520,219,32,0.0416011938113735,1
520,220,32,0.0450043440951578,1
520,221,32,0.0479128403204351,1
520,222,32,0.0505056075625773,1
520,223,32,0.0502968373110033,1
520,224,32,0.0443325086332579,1
521,217,32,0.0441755213844148,1
521,221,32,0.0414462719352313,1
521,222,32,0.0451996515770321,1
521,223,32,0.045103925337058,1
522,191,32,0.0489921056913713,1
522,192,32,0.0524673764109091,1
522,193,32,0.0500311233283133,1
522,194,32,0.0430226703525892,1
522,201,32,0.0416185034728972,1
522,202,32,0.0418635583218429,1
523,189,32,0.0525683904375363,1
523,190,32,0.0553870564671599,1
523,191,32,0.0601523578943562,1
523,192,32,0.0648438790182096,1
523,193,32,0.0604847098836929,1
523,194,32,0.0489596869093953,1
524,188,32,0.0494851566530045,1
524,189,32,0.0591226290278336,1
524,190,32,0.0646318593190092,1
524,191,32,0.0679858731967566,1
524,192,32,0.0679200840474765,1
524,193,32,0.0605402748974299,1
524,194,32,0.0481408207008218,1
525,187,32,0.0420668515510452,1
525,188,32,0.0449680730146232,1
525,189,32,0.0546719779401759,1
525,190,32,0.063175663430152,1
525,191,32,0.0678845239525706,1
525,192,32,0.0633517824101528,1
525,193,32,0.0521520934833966,1
526,189,32,0.0460477276704663,1
526,190,32,0.052124178511525,1
526,191,32,0.0550035351394942,1
526,192,32,0.0491281337326877,1
534,183,32,0.0424373696814707,1
535,183,32,0.0421982000633756,1
535,223,32,0.0410811821665643,1
543,192,32,0.0459068930418956,1
548,204,32,0.0437034242235734,1
548,205,32,0.0480464515512874,1
548,206,32,0.0483110950004831,1
548,207,32,0.0442775680973925,1
549,204,32,0.0432911444734044,1
549,205,32,0.0484021173811645,1
549,206,32,0.0501530992658346,1
549,207,32,0.0476451150323924,1
549,208,32,0.0416606381573432,1
550,205,32,0.041657026458484,1
550,206,32,0.0437501086753699,1
550,207,32,0.0439572460930285,1
516,221,33,0.0419932388564816,1
517,215,33,0.0443165263251323,1
517,216,33,0.0435225743506057,1
517,217,33,0.0430186666654556,1
517,221,33,0.0429694951156423,1
517,222,33,0.0464891226876368,1
518,211,33,0.0457127588214771,1
518,212,33,0.0475726918194891,1
518,213,33,0.046069808775468,1
518,214,33,0.041391180010791,1
518,216,33,0.0473552599787347,1
518,217,33,0.052729473288005,1
518,218,33,0.0448104937283174,1
518,220,33,0.0412034203307243,1
518,221,33,0.0452401290972561,1
518,222,33,0.0493512426450024,1
518,223,33,0.0535391102002421,1
519,210,33,0.0411916498690229,1
519,211,33,0.0415803670688499,1
519,212,33,0.042839427999464,1
519,215,33,0.0416729357756895,1
519,216,33,0.0584499663355063,1
519,217,33,0.0685425073598637,1
519,218,33,0.0532758562818949,1
519,219,33,0.0420657026198961,1
519,220,33,0.0426947086319257,1
519,221,33,0.0459817276585283,1
519,222,33,0.0500493710583281,1
519,223,33,0.0535272153836398,1
519,224,33,0.0502140493874515,1
520,216,33,0.0457799699420147,1
520,217,33,0.0540461429781178,1
520,218,33,0.0421163826487239,1
520,221,33,0.042728238497907,1
520,222,33,0.0480762642870805,1
520,223,33,0.0514718613623224,1
520,224,33,0.0460424669174873,1
521,222,33,0.0415198765196926,1
521,223,33,0.0447488812816851,1
522,192,33,0.0469008239171802,1
522,193,33,0.0449446753696931,1
523,190,33,0.0500504361850875,1
523,191,33,0.0485655143141358,1
523,192,33,0.0498814919421917,1
523,193,33,0.0470606902523146,1
524,188,33,0.0501849395271849,1
524,189,33,0.0577806341918277,1
524,190,33,0.0568869063329474,1
524,191,33,0.0507108580297841,1
524,192,33,0.0475072270742981,1
524,193,33,0.043018009747175,1
525,187,33,0.0431190940613549,1
525,188,33,0.046298259541784,1
525,189,33,0.0529866013758021,1
525,190,33,0.053137746647673,1
525,191,33,0.0478053273985552,1
525,192,33,0.0423933804869816,1
526,189,33,0.0436284274048962,1
526,190,33,0.0444515351969353,1
526,191,33,0.0418097964541681,1
534,224,33,0.0424783473246654,1
535,224,33,0.0426410846359888,1
548,204,33,0.0435548795911505,1
548,205,33,0.0444465204503905,1
548,206,33,0.0449785999273162,1
548,207,33,0.0482067450184724,1
548,208,33,0.0486306330282983,1
549,204,33,0.0451954424339753,1
549,205,33,0.0469779185489673,1
549,206,33,0.047471315541629,1
549,207,33,0.0490240973412965,1
549,208,33,0.0482130546780064,1
550,206,33,0.0439739880473962,1
550,207,33,0.0441831665074491,1
516,221,34,0.0414545388327699,1
517,214,34,0.0477514330658773,1
517,215,34,0.0436116476033848,1
517,216,34,0.0421464143572772,1
517,217,34,0.0415397733038273,1
517,221,34,0.0423143853879055,1
517,222,34,0.0485043262961868,1
517,223,34,0.0552497470296913,1
518,211,34,0.0449976965146976,1
518,212,34,0.0467459858454278,1
518,213,34,0.0457043405353636,1
518,214,34,0.041825021819419,1
518,216,34,0.0409868751944803,1
518,217,34,0.043905017034675,1
518,218,34,0.0430268010979911,1
518,221,34,0.0447111179423403,1
518,222,34,0.0524803796081493,1
518,223,34,0.0592121483362352,1
518,224,34,0.0595182235943506,1
519,210,34,0.0414968762697717,1
519,211,34,0.0423515918335639,1
519,212,34,0.0434308139506215,1
519,217,34,0.0456072193578062,1
519,218,34,0.0435384647442394,1
519,221,34,0.0447195605587605,1
519,222,34,0.0523166907114978,1
519,223,34,0.0579763742124874,1
519,224,34,0.0553938473260928,1
520,211,34,0.0410729612262717,1
520,212,34,0.0419105617709937,1
520,221,34,0.041094558428507,1
520,222,34,0.0488992342073818,1
520,223,34,0.0551311827418409,1
520,224,34,0.0501681462088365,1
521,208,34,0.0411541866034606,1
521,211,34,0.0418568242336256,1
521,212,34,0.042009707770741,1
521,223,34,0.0466965953228543,1
521,224,34,0.042247471637783,1
522,192,34,0.0415875445093224,1
523,190,34,0.0459463027319928,1
523,191,34,0.0423377776261008,1
523,192,34,0.0419962287808367,1
524,188,34,0.0476398975332919,1
524,189,34,0.0539749254670792,1
524,190,34,0.0513112597112527,1
524,191,34,0.0433978166480199,1
525,187,34,0.0423665901159524,1
525,188,34,0.0451539295240335,1
525,189,34,0.0506377589750284,1
525,190,34,0.0485875467585241,1
525,224,34,0.0470597657006605,1
525,225,34,0.0640542145843947,1
526,189,34,0.0416359428960565,1
526,224,34,0.0479126727116557,1
526,225,34,0.0658313704723246,1
527,225,34,0.0426489973923967,1
534,224,34,0.0414261480682342,1
535,224,34,0.0422553114032709,1
547,207,34,0.0413608806688641,1
547,208,34,0.0411951858735947,1
548,204,34,0.0471454462273405,1
548,205,34,0.0457172950719905,1
548,206,34,0.0469987452914909,1
548,207,34,0.0563136626804757,1
548,208,34,0.0587495967657172,1
548,209,34,0.0420556298729279,1
549,204,34,0.0548040428448699,1
549,205,34,0.0529017480795494,1
549,206,34,0.0492149010130664,1
549,207,34,0.053389284171667,1
549,208,34,0.0542838608879139,1
549,209,34,0.0409847719746356,1
550,207,34,0.0449650344296548,1
516,221,35,0.0415674882265105,1
516,223,35,0.0480551023269981,1
517,214,35,0.0456266457560116,1
517,215,35,0.0415222473729108,1
517,221,35,0.0416510303895695,1
517,222,35,0.0489058466440657,1
517,223,35,0.0570387382601404,1
517,224,35,0.0603395228335927,1
518,211,35,0.0436454234758004,1
518,212,35,0.0448110641388408,1
518,213,35,0.0443010225130382,1
518,214,35,0.0410772622838204,1
518,221,35,0.0434263209539868,1
518,222,35,0.0531660509044516,1
518,223,35,0.0610223664075846,1
518,224,35,0.0622093285293846,1
518,225,35,0.0505935156640028,1
519,210,35,0.0414294948370873,1
519,211,35,0.0425410032711178,1
519,212,35,0.0433134905084121,1
519,221,35,0.0433467689612244,1
519,222,35,0.0530271897340899,1
519,223,35,0.0587081865837369,1
519,224,35,0.0563896489316249,1
520,210,35,0.0415582345998675,1
520,211,35,0.0430465437901834,1
520,212,35,0.0427488300474659,1
520,222,35,0.0474079269826086,1
520,223,35,0.0528378837278649,1
520,224,35,0.0487832975926535,1
521,208,35,0.0431490662958252,1
521,209,35,0.0444198084770162,1
521,210,35,0.0446980796013238,1
521,211,35,0.0463831777188545,1
521,212,35,0.0443260583986186,1
521,223,35,0.0441543215771887,1
522,208,35,0.0418338888645225,1
522,209,35,0.0429298637494175,1
522,210,35,0.0442921095106888,1
522,211,35,0.0472408102160817,1
522,212,35,0.0443671144394682,1
523,190,35,0.0436004772892483,1
524,188,35,0.0454285483989707,1
524,189,35,0.0499167762936219,1
524,190,35,0.0470224862640821,1
524,225,35,0.0470524882355938,1
525,187,35,0.042649751631904,1
525,188,35,0.0446767797695035,1
525,189,35,0.048352997195332,1
525,190,35,0.0455518273595834,1
525,224,35,0.0546292539216345,1
525,225,35,0.0809510016170895,1
525,226,35,0.0555341088407727,1
526,186,35,0.045128912562025,1
526,224,35,0.0569977930573546,1
526,225,35,0.0847979096611604,1
526,226,35,0.05837329883577,1
527,185,35,0.051755709533596,1
527,186,35,0.0417080741452796,1
527,225,35,0.0504380558177462,1
528,184,35,0.0464168562700433,1
528,185,35,0.0409976481136075,1
533,183,35,0.0419639235402919,1
533,184,35,0.0435792477449807,1
534,183,35,0.0410066935809601,1
534,184,35,0.0419489144444338,1
534,225,35,0.0418847202819253,1
535,181,35,0.042858132598571,1
535,182,35,0.0419419073161081,1
536,181,35,0.0430700333496054,1
536,182,35,0.0422026849499081,1
536,183,35,0.0430575221652338,1
536,184,35,0.0410368469410468,1
537,183,35,0.0428119428630106,1
537,184,35,0.041620271475183,1
547,207,35,0.0452643431591439,1
547,208,35,0.0421426620833127,1
548,204,35,0.0493235547559932,1
548,205,35,0.0481145169359264,1
548,206,35,0.0529336424082479,1
548,207,35,0.0643709897707172,1
548,208,35,0.0626055394636709,1
548,209,35,0.0428953444509642,1
549,204,35,0.0626928366040619,1
549,205,35,0.0583519314197644,1
549,206,35,0.0537836135622363,1
549,207,35,0.0582445104123764,1
549,208,35,0.0566153260429786,1
549,209,35,0.0421475984322026,1
550,207,35,0.0460536101979496,1
550,208,35,0.0435625544512264,1
516,218,36,0.0409862047593627,1
516,221,36,0.0414883931028403,1
517,213,36,0.0455943675491409,1
517,214,36,0.0426575292199414,1
517,221,36,0.0410122003403734,1
517,222,36,0.0484687770147505,1
517,223,36,0.0570660044238337,1
517,224,36,0.061349852335584,1
518,211,36,0.0412455469050682,1
518,212,36,0.041820044920018,1
518,213,36,0.0416098121466753,1
518,221,36,0.041837224819906,1
518,222,36,0.0525390264607332,1
518,223,36,0.0615488850577487,1
518,224,36,0.0634252599363459,1
518,225,36,0.0524959564111634,1
519,211,36,0.0412216626540043,1
519,212,36,0.0410560786967987,1
519,221,36,0.0412146582290461,1
519,222,36,0.0525950888940736,1
519,223,36,0.0593867047698734,1
519,224,36,0.057678046805368,1
519,225,36,0.0459244216761795,1
520,203,36,0.0410456220716584,1
520,209,36,0.0426385272504193,1
520,210,36,0.0463825451308806,1
520,211,36,0.0456497271069548,1
520,212,36,0.0421768542743094,1
520,222,36,0.0455430630424415,1
520,223,36,0.0508741522347938,1
520,224,36,0.0480362922965621,1
521,202,36,0.0412551654863116,1
521,203,36,0.0422493964353787,1
521,208,36,0.0432949291877778,1
521,209,36,0.0500137623028088,1
521,210,36,0.0551817248989308,1
521,211,36,0.052586584100203,1
521,212,36,0.0446393462409828,1
521,223,36,0.0414305653705815,1
522,208,36,0.0430511124811056,1
522,209,36,0.0492004055570161,1
522,210,36,0.0553251115063362,1
522,211,36,0.0546010577995524,1
522,212,36,0.0456988418860525,1
523,190,36,0.0428884373472327,1
524,188,36,0.0435251398462774,1
524,189,36,0.0462939017135197,1
524,190,36,0.0442195889765587,1
524,225,36,0.0437898698032303,1
525,187,36,0.0425217255581199,1
525,188,36,0.0433728537533596,1
525,189,36,0.0456377079354517,1
525,190,36,0.042703924411425,1
525,224,36,0.0499311419880365,1
525,225,36,0.0761946753696931,1
525,226,36,0.0594547269006338,1
526,186,36,0.0456897099109429,1
526,224,36,0.0544670194366494,1
526,225,36,0.0839642830665304,1
526,226,36,0.0659164941053182,1
527,185,36,0.0537117796834283,1
527,186,36,0.0422994519863349,1
527,225,36,0.050339431567909,1
527,226,36,0.041844221134762,1
528,184,36,0.0475300380885004,1
528,185,36,0.0420151415392343,1
533,182,36,0.0439549968913437,1
533,183,36,0.0462496638092289,1
533,184,36,0.0475514217247103,1
533,185,36,0.041485157172051,1
534,181,36,0.0429821225448125,1
534,182,36,0.0469482572017492,1
534,183,36,0.0466402787729774,1
534,184,36,0.0447815920273413,1
534,225,36,0.0412202650130536,1
535,180,36,0.0412569551155367,1
535,181,36,0.0485196652028689,1
535,182,36,0.0489089879569956,1
535,183,36,0.045254621849939,1
535,184,36,0.0411279179823415,1
536,180,36,0.0451964156462428,1
536,181,36,0.051364602556979,1
536,182,36,0.0494896063957607,1
536,183,36,0.0477910211782235,1
536,184,36,0.0451199427889599,1
537,180,36,0.041310554781167,1
537,181,36,0.0459361542907372,1
537,182,36,0.045781186457349,1
537,183,36,0.0478936680387662,1
537,184,36,0.047030861296317,1
543,220,36,0.041009148238568,1
547,207,36,0.0444412867310855,1
548,204,36,0.04638046894471,1
548,205,36,0.0474961594881232,1
548,206,36,0.0542754858556789,1
548,207,36,0.0653320368848314,1
548,208,36,0.0583476222521135,1
549,205,36,0.0583118134474059,1
549,206,36,0.0544975783018475,1
549,207,36,0.0600453477988144,1
549,208,36,0.0549068194670482,1
549,212,36,0.056784340573427,1
550,207,36,0.0464071349608384,1
550,208,36,0.0435526601265072,1
515,219,37,0.0453083080233263,1
516,216,37,0.0415096415706798,1
516,217,37,0.0422473283593103,1
516,218,37,0.0419911707804133,1
516,219,37,0.0418171036562763,1
516,220,37,0.0414270536963164,1
516,221,37,0.04182805770102,1
516,222,37,0.0434374128704684,1
517,218,37,0.0417018509935027,1
517,219,37,0.0416768962089446,1
517,221,37,0.0413099303032953,1
517,222,37,0.046716730003321,1
517,223,37,0.0536874061228633,1
517,224,37,0.0577828347328991,1
518,222,37,0.0493569034963581,1
518,223,37,0.0575507182003757,1
518,224,37,0.0594064717923724,1
518,225,37,0.0505854866627963,1
519,222,37,0.048583421419857,1
519,223,37,0.0556631459739679,1
519,224,37,0.0544932204735833,1
519,225,37,0.044095142161225,1
520,203,37,0.0411082834248456,1
520,209,37,0.0441396882494005,1
520,210,37,0.0487541661054476,1
520,211,37,0.0461826202974708,1
520,223,37,0.0456604216284272,1
520,224,37,0.044170447163787,1
521,202,37,0.0414646061730032,1
521,203,37,0.043359055766101,1
521,208,37,0.0443701800581107,1
521,209,37,0.0539833870070712,1
521,210,37,0.0597465283788265,1
521,211,37,0.0528563963878859,1
521,212,37,0.0419907679786693,1
522,208,37,0.0440099049868002,1
522,209,37,0.0522913601588698,1
522,210,37,0.057795427018293,1
522,211,37,0.0523416157590143,1
522,212,37,0.0412992790357015,1
523,190,37,0.0425798668809983,1
524,189,37,0.043813805418275,1
524,190,37,0.0427203041145598,1
525,188,37,0.042692156653091,1
525,189,37,0.0431285180001448,1
525,225,37,0.057660642525985,1
525,226,37,0.0540156706206767,1
526,186,37,0.0447329962947863,1
526,224,37,0.044371277625279,1
526,225,37,0.0672948384195137,1
526,226,37,0.06302918417043,1
527,185,37,0.0518211202114388,1
527,186,37,0.041872422663579,1
527,225,37,0.0445523437676395,1
527,226,37,0.0436354074995478,1
528,185,37,0.0422374881019394,1
532,182,37,0.0413408054624804,1
532,183,37,0.0410490931954123,1
532,184,37,0.0411131062323043,1
533,181,37,0.0443031122160459,1
533,182,37,0.0507678017609,1
533,183,37,0.0500355081902517,1
533,184,37,0.0485765548666366,1
533,185,37,0.0425703158839402,1
534,181,37,0.04917098210613,1
534,182,37,0.0578518571096011,1
534,183,37,0.0541891511140858,1
534,184,37,0.0464361204662041,1
535,180,37,0.0443340684762532,1
535,181,37,0.0533904141792442,1
535,182,37,0.0587657250556829,1
535,183,37,0.0538857954435845,1
535,184,37,0.0446876175694486,1
536,179,37,0.0417514821157756,1
536,180,37,0.0504961782170526,1
536,181,37,0.0575098486918773,1
536,182,37,0.0576122792830272,1
536,183,37,0.0535581310933361,1
536,184,37,0.0470530451292802,1
537,180,37,0.04505527013042,1
537,181,37,0.0506620406211015,1
537,182,37,0.0509649583460824,1
537,183,37,0.0501046441083849,1
537,184,37,0.0471231326327416,1
543,220,37,0.0412111330379439,1
544,220,37,0.042125517327201,1
545,219,37,0.0531943119073516,1
546,218,37,0.0508573318827713,1
548,205,37,0.0437500978619002,1
548,206,37,0.0498909753550646,1
548,207,37,0.0578542144459823,1
548,208,37,0.0499038163502602,1
549,205,37,0.05145069940224,1
549,206,37,0.0505140312554257,1
549,207,37,0.0559961900253615,1
549,208,37,0.049971887141634,1
549,212,37,0.052967942733941,1
550,207,37,0.0448368785942351,1
550,208,37,0.0425433687176012,1
515,218,38,0.0423626783433107,1
515,219,38,0.044632087699488,1
515,220,38,0.0453882574110979,1
516,218,38,0.0411164611112596,1
516,219,38,0.0429253599393131,1
516,220,38,0.0427804810730976,1
516,221,38,0.0421889139963236,1
516,222,38,0.0425022964565471,1
517,218,38,0.0416210689685689,1
517,219,38,0.0438702382129504,1
517,220,38,0.042498263032372,1
517,221,38,0.0415609379672771,1
517,222,38,0.0442941100025719,1
517,223,38,0.050107601592331,1
517,224,38,0.0541091260320267,1
518,222,38,0.0455626137955477,1
518,223,38,0.053736850712785,1
518,224,38,0.0554677195439276,1
518,225,38,0.0486877768086025,1
519,222,38,0.0440178555903519,1
519,223,38,0.0523849561453251,1
519,224,38,0.0514537325804736,1
519,225,38,0.0424543441254356,1
520,209,38,0.0419819901446903,1
520,210,38,0.04474260406256,1
520,211,38,0.0414225336660076,1
521,208,38,0.0438208639105814,1
521,209,38,0.0523463899058597,1
521,210,38,0.0544148714793181,1
521,211,38,0.0458840387738148,1
522,208,38,0.042438705144971,1
522,209,38,0.0492523696853635,1
522,210,38,0.0507929376710745,1
522,211,38,0.0436631440491703,1
524,189,38,0.0426314228008668,1
524,190,38,0.042163797009721,1
525,188,38,0.0429612660652474,1
525,189,38,0.0414822321285138,1
525,225,38,0.0415563152090066,1
525,226,38,0.0442690146429085,1
526,225,38,0.0509466511419846,1
526,226,38,0.0531647911352387,1
527,226,38,0.0416179276556389,1
532,182,38,0.0441088752676658,1
532,183,38,0.0420186586202341,1
533,181,38,0.0488148567037932,1
533,182,38,0.056861916404613,1
533,183,38,0.0523938610375723,1
533,184,38,0.0467286734805367,1
534,180,38,0.0422071644297058,1
534,181,38,0.0559268432445703,1
534,182,38,0.0692425010967021,1
534,183,38,0.0631134210989132,1
534,184,38,0.0484266801774482,1
535,179,38,0.0412885953276987,1
535,180,38,0.0478815785797105,1
535,181,38,0.0590465562689274,1
535,182,38,0.0726289445698951,1
535,183,38,0.0686907924690153,1
535,184,38,0.051208791272959,1
536,177,38,0.0411986326670419,1
536,179,38,0.0459200854748545,1
536,180,38,0.0544891654224689,1
536,181,38,0.0626210676060717,1
536,182,38,0.0700328900329828,1
536,183,38,0.0670346717467482,1
536,184,38,0.0520557941295317,1
537,180,38,0.0476174758039966,1
537,181,38,0.0538411736611216,1
537,182,38,0.0567285863239714,1
537,183,38,0.0543686168629398,1
537,184,38,0.0460764103986822,1
545,219,38,0.0467662340673257,1
545,220,38,0.0541434966452724,1
546,218,38,0.0494096678214587,1
546,219,38,0.086238631474965,1
547,218,38,0.0553437809616669,1
548,206,38,0.0429256437928911,1
548,207,38,0.0463872760238474,1
549,205,38,0.0427665884679796,1
549,206,38,0.0444363260518889,1
549,207,38,0.0480782053048806,1
549,208,38,0.0435062703417584,1
549,212,38,0.0410204023570942,1
549,213,38,0.0621281734397483,1
515,219,39,0.0420415507354587,1
515,220,39,0.0431366335091084,1
516,219,39,0.0421899277591022,1
516,220,39,0.0428461701977835,1
516,221,39,0.0424128095885544,1
516,222,39,0.0422235549463103,1
517,219,39,0.044032369969974,1
517,220,39,0.0438970664311233,1
517,221,39,0.0423192487458754,1
517,222,39,0.0426699511931885,1
517,223,39,0.0470829714065045,1
517,224,39,0.050620992690354,1
518,222,39,0.0421946343217623,1
518,223,39,0.0491415748754483,1
518,224,39,0.0512305263469323,1
518,225,39,0.0468021347865252,1
519,223,39,0.0483459576265974,1
519,224,39,0.0489655748436134,1
519,225,39,0.0424155345829033,1
521,208,39,0.0437333315772259,1
521,209,39,0.0490275252111719,1
521,210,39,0.0471282744375547,1
522,208,39,0.042008823769598,1
522,209,39,0.0453765410167447,1
522,210,39,0.0431096268686865,1
525,188,39,0.0430809900977166,1
532,182,39,0.0455768281013874,1
532,183,39,0.0439643937964595,1
533,181,39,0.05159155565775,1
533,182,39,0.0603845555279019,1
533,183,39,0.0558321334707423,1
533,184,39,0.0455960003830563,1
534,180,39,0.0454348742787091,1
534,181,39,0.0612922435760853,1
534,182,39,0.0755726521556825,1
534,183,39,0.0706252843401841,1
534,184,39,0.050763643981824,1
535,179,39,0.0425827189336154,1
535,180,39,0.0503229572469149,1
535,181,39,0.0647087106477294,1
535,182,39,0.0821427162587956,1
535,183,39,0.0803719835718309,1
535,184,39,0.0559792399117033,1
536,178,39,0.041210070614552,1
536,179,39,0.0463025741161697,1
536,180,39,0.0537621596384737,1
536,181,39,0.0636594039944265,1
536,182,39,0.0758384039855162,1
536,183,39,0.07507643825418,1
536,184,39,0.0539970714528986,1
537,180,39,0.0465927806075907,1
537,181,39,0.052960227323354,1
537,182,39,0.0577434628899456,1
537,183,39,0.05574682060203,1
537,184,39,0.0446356993983472,1
538,181,39,0.0411444463706838,1
538,182,39,0.0420639589479169,1
545,219,39,0.0412162667326548,1
545,220,39,0.0488661990576364,1
546,218,39,0.045443400699519,1
546,219,39,0.0701946325050994,1
547,218,39,0.0539305686146224,1
549,214,39,0.0430731611456984,1
516,222,40,0.0416517386718308,1
517,219,40,0.0427341021018184,1
517,220,40,0.0436313686686378,1
517,221,40,0.0426766852814058,1
517,222,40,0.0423714372537178,1
517,223,40,0.0455463233035375,1
518,220,40,0.0411725749085808,1
518,223,40,0.0456840814999961,1
518,224,40,0.0485147450741834,1
519,223,40,0.0445303221367208,1
519,224,40,0.0475289297078624,1
519,225,40,0.044244478880299,1
520,224,40,0.0413271399402249,1
520,225,40,0.0410526075730448,1
521,209,40,0.042637251261002,1
532,182,40,0.0447950629071434,1
532,183,40,0.0445737625476258,1
533,181,40,0.0519128833147904,1
533,182,40,0.0608610672877232,1
533,183,40,0.0583794679201987,1
533,184,40,0.0452139550939963,1
534,180,40,0.0476995986991656,1
534,181,40,0.0640114419052399,1
534,182,40,0.0766032244728369,1
534,183,40,0.0737280526576178,1
534,184,40,0.0520557454689183,1
535,179,40,0.0434335903089512,1
535,180,40,0.0532145979763932,1
535,181,40,0.0703673776825731,1
535,182,40,0.0855002931747888,1
535,183,40,0.0833360312940081,1
535,184,40,0.057106846898658,1
536,179,40,0.0452667978167518,1
536,180,40,0.0531411582973439,1
536,181,40,0.0652249619084719,1
536,182,40,0.0761812937010155,1
536,183,40,0.0743072977857388,1
536,184,40,0.05292759767872,1
537,180,40,0.0455159320471187,1
537,181,40,0.0521180418675052,1
537,182,40,0.0568295625034549,1
537,183,40,0.0540681267618927,1
537,184,40,0.0439018486880709,1
538,181,40,0.041687471782251,1
538,182,40,0.0433796148752511,1
543,189,40,0.0426117287692879,1
546,219,40,0.0527000714640581,1
547,218,40,0.0473668303912478,1
516,222,41,0.0425281055052066,1
517,219,41,0.0425802859029468,1
517,220,41,0.0449675215276716,1
517,221,41,0.0441411805082106,1
517,222,41,0.0433644300605113,1
517,223,41,0.0442719829403243,1
518,220,41,0.0431922688103981,1
518,223,41,0.0417220154110109,1
518,224,41,0.0447334856042874,1
518,225,41,0.0438667779026661,1
519,224,41,0.044082298462662,1
519,225,41,0.0453223655338562,1
519,226,41,0.0426811728713058,1
520,225,41,0.0448707301609382,1
520,226,41,0.0452795387873533,1
521,226,41,0.0435936756168457,1
532,182,41,0.0429205587587936,1
532,183,41,0.0446436337816944,1
532,226,41,0.0451387528193959,1
532,227,41,0.0479681728445749,1
533,181,41,0.0505857624062721,1
533,182,41,0.0600131020323527,1
533,183,41,0.0614505635850614,1
533,184,41,0.048067694612392,1
533,226,41,0.0463119169539373,1
533,227,41,0.0481233731675602,1
534,180,41,0.0479167656099139,1
534,181,41,0.0632618305629657,1
534,182,41,0.0740265422667818,1
534,183,41,0.0741685339366038,1
534,184,41,0.055547436442102,1
534,227,41,0.0410712499947014,1
535,179,41,0.0427487110992999,1
535,180,41,0.0538450827303959,1
535,181,41,0.0712057459836395,1
535,182,41,0.0813381941176974,1
535,183,41,0.0791382802275189,1
535,184,41,0.05927869442839,1
535,185,41,0.0432679603944996,1
536,179,41,0.0426578806577046,1
536,180,41,0.0507296302130764,1
536,181,41,0.0639345148822322,1
536,182,41,0.0712335960746932,1
536,183,41,0.0691343393666438,1
536,184,41,0.0542867643045118,1
536,185,41,0.0421271880082601,1
537,180,41,0.0432291075980888,1
537,181,41,0.050235297855291,1
537,182,41,0.0551281117164636,1
537,183,41,0.0532448865048504,1
537,184,41,0.0456789829490616,1
538,181,41,0.041502218123773,1
538,182,41,0.045928233424227,1
538,183,41,0.0446684020339012,1
538,184,41,0.041789150837261,1
539,185,41,0.0420057959980993,1
540,185,41,0.041603540334285,1
543,189,41,0.043567574604506,1
516,222,42,0.0428434884573132,1
517,219,42,0.0430384228744849,1
517,220,42,0.0467778152933084,1
517,221,42,0.0450957909045225,1
517,222,42,0.0450240354233694,1
517,223,42,0.0453721237143974,1
517,224,42,0.0426802429129169,1
518,220,42,0.0442637836269709,1
518,224,42,0.0426788912292121,1
518,225,42,0.0438532448454137,1
518,226,42,0.0421657677645626,1
519,224,42,0.0417798350331675,1
519,225,42,0.0490325751014931,1
519,226,42,0.0497013503514853,1
520,225,42,0.0498310254793892,1
520,226,42,0.0541280279769547,1
520,227,42,0.0439997808758512,1
521,225,42,0.0430066015367065,1
521,226,42,0.0501914978965206,1
521,227,42,0.0431317809646082,1
531,226,42,0.0607355823793042,1
531,227,42,0.0603053360493309,1
532,182,42,0.0423377343722223,1
532,183,42,0.0446736573801454,1
532,225,42,0.0459562727509994,1
532,226,42,0.077358193889317,1
532,227,42,0.076011354618913,1
532,228,42,0.0462764055196447,1
533,181,42,0.0502567463723188,1
533,182,42,0.0600719273071857,1
533,183,42,0.0637337682251299,1
533,184,42,0.0511429913102093,1
533,226,42,0.0635015814050538,1
533,227,42,0.0634078069963495,1
533,228,42,0.0416285572962935,1
534,180,42,0.0487827623259064,1
534,181,42,0.063408569345959,1
534,182,42,0.0721232580689894,1
534,183,42,0.0744157839198862,1
534,184,42,0.0602101450761039,1
534,185,42,0.044349028911498,1
535,179,42,0.0443115494257312,1
535,180,42,0.0552089261818063,1
535,181,42,0.0714594407948264,1
535,182,42,0.0763025289158666,1
535,183,42,0.0748722150665889,1
535,184,42,0.0638914502393972,1
535,185,42,0.0489673915065127,1
536,178,42,0.041058627972266,1
536,179,42,0.0430548404247635,1
536,180,42,0.0508392571682707,1
536,181,42,0.064796137549756,1
536,182,42,0.0681571639625639,1
536,183,42,0.0661334771870826,1
536,184,42,0.0585685684705005,1
536,185,42,0.0475234202450817,1
537,180,42,0.0424444443939816,1
537,181,42,0.0508209121170291,1
537,182,42,0.0553283609539626,1
537,183,42,0.0537148074549271,1
537,184,42,0.0476694669660181,1
538,181,42,0.0418872452270859,1
538,182,42,0.0485784255968841,1
538,183,42,0.0493970971630041,1
538,184,42,0.0443317408769136,1
539,182,42,0.0412266530702425,1
539,183,42,0.0438032839123168,1
539,184,42,0.0447451344144554,1
539,185,42,0.0458247160793785,1
540,185,42,0.0472114894931571,1
540,186,42,0.0439329806671599,1
543,189,42,0.0423668090887126,1
543,190,42,0.0410540187308326,1
516,221,43,0.0410762079705306,1
516,222,43,0.0440635749399831,1
517,219,43,0.0435978874632699,1
517,220,43,0.0484544653876841,1
517,221,43,0.0470095912015382,1
517,222,43,0.0474297864114826,1
517,223,43,0.0488570616757919,1
517,224,43,0.0430792491291048,1
518,220,43,0.0447949277387729,1
518,221,43,0.0413666496549162,1
518,223,43,0.0421910902070883,1
518,224,43,0.043178111275274,1
518,225,43,0.0459949471251612,1
518,226,43,0.0445516787392567,1
519,224,43,0.0432366202561201,1
519,225,43,0.0557640032052854,1
519,226,43,0.0575562384766261,1
519,227,43,0.0458593137754866,1
520,225,43,0.0583824037772055,1
520,226,43,0.0647468173147352,1
520,227,43,0.0521010539067033,1
521,225,43,0.0483530404492106,1
521,226,43,0.0571522580644045,1
521,227,43,0.0486633924345679,1
522,226,43,0.0418329183556225,1
531,225,43,0.0496767659282624,1
531,226,43,0.0940263301065075,1
531,227,43,0.0860324132022256,1
531,228,43,0.0468532716844453,1
532,182,43,0.041259517907841,1
532,183,43,0.0427108531420958,1
532,225,43,0.066592611701195,1
532,226,43,0.125574097916573,1
532,227,43,0.114663836911424,1
532,228,43,0.0570427554641111,1
533,180,43,0.04178559320575,1
533,181,43,0.0494394589303126,1
533,182,43,0.0582632988158732,1
533,183,43,0.0611726520086193,1
533,184,43,0.0527545010634831,1
533,225,43,0.048785465693316,1
533,226,43,0.0863779251841123,1
533,227,43,0.0804887852641302,1
533,228,43,0.0452994653085295,1
534,179,43,0.0422778520807322,1
534,180,43,0.0503281909662198,1
534,181,43,0.0621341046278449,1
534,182,43,0.0693045163450784,1
534,183,43,0.071733329760563,1
534,184,43,0.063816631842969,1
534,185,43,0.0482792871795417,1
535,179,43,0.045714197012939,1
535,180,43,0.0552049954855927,1
535,181,43,0.0680472774840984,1
535,182,43,0.0714072928374951,1
535,183,43,0.0715511984914431,1
535,184,43,0.0680381617291932,1
535,185,43,0.0532114620701981,1
536,178,43,0.0421045635264091,1
536,179,43,0.0446957276716775,1
536,180,43,0.0507866604519494,1
536,181,43,0.0623805652278437,1
536,182,43,0.0642544097545455,1
536,183,43,0.0639394025705088,1
536,184,43,0.0620592970448864,1
536,185,43,0.0516430331799637,1
537,180,43,0.0423949727703858,1
537,181,43,0.0501291528373203,1
537,182,43,0.0535845429929279,1
537,183,43,0.0524206622220711,1
537,184,43,0.0482322864337584,1
537,185,43,0.0416417308056805,1
538,181,43,0.0412705611637093,1
538,182,43,0.0478436773686278,1
538,183,43,0.0498626981319601,1
538,184,43,0.0446706431254837,1
539,182,43,0.0419446025734155,1
539,183,43,0.0459967529745909,1
539,184,43,0.0458456996172118,1
539,185,43,0.0457371486022466,1
540,184,43,0.043328867262238,1
540,186,43,0.0430706010567615,1
516,222,44,0.0437285195832368,1
517,219,44,0.0427996857951754,1
517,220,44,0.0479043084928904,1
517,221,44,0.0474362582730612,1
517,222,44,0.0473057613214648,1
517,223,44,0.0480109887776082,1
517,224,44,0.0413848406142155,1
518,220,44,0.043950503894709,1
518,221,44,0.0424716943374704,1
518,224,44,0.0411460873147015,1
518,225,44,0.0451401774940208,1
518,226,44,0.0449181877758138,1
519,224,44,0.0424247179219937,1
519,225,44,0.0574455031407939,1
519,226,44,0.0605514776519753,1
519,227,44,0.0480253058114095,1
520,224,44,0.0410128275216124,1
520,225,44,0.0620366806731376,1
520,226,44,0.0690269778333388,1
520,227,44,0.0550608465285778,1
521,225,44,0.0504252851101032,1
521,226,44,0.0583161550554657,1
521,227,44,0.0489051059213954,1
530,226,44,0.0461071693130687,1
530,227,44,0.0441713527918692,1
531,225,44,0.0600261863306152,1
531,226,44,0.122321222420354,1
531,227,44,0.10775839845421,1
531,228,44,0.0530035406759906,1
532,225,44,0.0843234092066919,1
532,226,44,0.168075012952374,1
532,227,44,0.148668511531095,1
532,228,44,0.0686633046291944,1
533,180,44,0.0430662648554365,1
533,181,44,0.0477699349124286,1
533,182,44,0.0540862879841504,1
533,183,44,0.0554768136718936,1
533,184,44,0.0509071819778044,1
533,185,44,0.0419146249322104,1
533,225,44,0.0533806442094259,1
533,226,44,0.10213283144993,1
533,227,44,0.0913397884556609,1
533,228,44,0.0477374999102482,1
534,179,44,0.0455600726301827,1
534,180,44,0.0528981093470161,1
534,181,44,0.0599312224402506,1
534,182,44,0.0657736806118036,1
534,183,44,0.0679627053380563,1
534,184,44,0.0639848083295205,1
534,185,44,0.0506003119296706,1
535,178,44,0.0423189135283166,1
535,179,44,0.048951533553288,1
535,180,44,0.0575811094567944,1
535,181,44,0.0646773732127173,1
535,182,44,0.0679878034010871,1
535,183,44,0.0692070437297577,1
535,184,44,0.0678572848225514,1
535,185,44,0.0543654593298054,1
536,178,44,0.0438046220791845,1
536,179,44,0.0470575219057105,1
536,180,44,0.0535689445629745,1
536,181,44,0.0596901145077229,1
536,182,44,0.0603485142335971,1
536,183,44,0.0601684645573826,1
536,184,44,0.0594810901396123,1
536,185,44,0.05096428250423,1
537,180,44,0.0437682915245669,1
537,181,44,0.0490202531528401,1
537,182,44,0.0510821493232887,1
537,183,44,0.0490186743862729,1
537,184,44,0.045640541064497,1
538,181,44,0.0411478228765784,1
538,182,44,0.0479788403323732,1
538,183,44,0.0489868827855359,1
538,184,44,0.0433148178618103,1
539,182,44,0.0460120053735158,1
539,183,44,0.0493212352667558,1
539,184,44,0.0453003736399791,1
539,185,44,0.0423823750782571,1
540,183,44,0.0420317402151292,1
540,184,44,0.0412998224125508,1
516,221,45,0.0412358445194351,1
516,222,45,0.0427422770848651,1
517,219,45,0.0412947644121275,1
517,220,45,0.046255313847115,1
517,221,45,0.0470654806193644,1
517,222,45,0.0465205574438757,1
517,223,45,0.0459946713816855,1
518,220,45,0.0430230271970872,1
518,221,45,0.0442090945042747,1
518,222,45,0.0428708978994792,1
518,223,45,0.0422192484820268,1
518,224,45,0.0413555820687413,1
518,225,45,0.0424968221375427,1
518,226,45,0.0423032745478521,1
519,224,45,0.0426009504434258,1
519,225,45,0.0535804446879349,1
519,226,45,0.0563123920977932,1
519,227,45,0.0452070993542455,1
520,225,45,0.0587145503106191,1
520,226,45,0.0642930084344198,1
520,227,45,0.0516074298311792,1
521,225,45,0.0488211825835317,1
521,226,45,0.0543895841805687,1
521,227,45,0.0457862741948139,1
523,194,45,0.0409994809967112,1
524,193,45,0.046732609583485,1
524,194,45,0.0538759497794788,1
524,195,45,0.0484192351036021,1
525,193,45,0.0455706157630802,1
525,194,45,0.0489467107458292,1
525,195,45,0.0427488246407311,1
530,226,45,0.0489666670040469,1
530,227,45,0.0473795794719515,1
531,225,45,0.0635621314282941,1
531,226,45,0.121944924490407,1
531,227,45,0.109467478144031,1
531,228,45,0.0562159737957623,1
532,225,45,0.0900031300669215,1
532,226,45,0.16870225907222,1
532,227,45,0.150882774895483,1
532,228,45,0.0726956150169508,1
533,180,45,0.042369755759189,1
533,181,45,0.0442849185533792,1
533,182,45,0.0467603785735165,1
533,183,45,0.0478680995898062,1
533,184,45,0.0469374166984366,1
533,185,45,0.0425164161445275,1
533,225,45,0.0563317211747719,1
533,226,45,0.100028584325642,1
533,227,45,0.0902069910032798,1
533,228,45,0.0490036544769451,1
534,179,45,0.0467128317475164,1
534,180,45,0.0508766177058714,1
534,181,45,0.053250552762941,1
534,182,45,0.0562906516170852,1
534,183,45,0.0588770659458148,1
534,184,45,0.0578819293686655,1
534,185,45,0.0499597328017605,1
534,226,45,0.0422918068633005,1
534,227,45,0.0415947895339801,1
535,178,45,0.044402304173039,1
535,179,45,0.0494617508979721,1
535,180,45,0.0549883259944478,1
535,181,45,0.0561775589448718,1
535,182,45,0.0587749543520193,1
535,183,45,0.0612599924028888,1
535,184,45,0.0609245153208266,1
535,185,45,0.0519375434323008,1
536,178,45,0.0476169837911281,1
536,179,45,0.0465671634980173,1
536,180,45,0.052791856194349,1
536,181,45,0.0528247778026632,1
536,182,45,0.0526772334161818,1
536,183,45,0.0528779205992012,1
536,184,45,0.0527741599512858,1
536,185,45,0.047122521671707,1
537,180,45,0.0441534862366591,1
537,181,45,0.046188383876788,1
537,182,45,0.047819595771743,1
537,183,45,0.0459598790431239,1
537,184,45,0.0443647516963522,1
537,185,45,0.0410889489411321,1
538,181,45,0.0419852098552751,1
538,182,45,0.0482615801230088,1
538,183,45,0.0476246451343669,1
538,184,45,0.0430278770382201,1
539,182,45,0.0481492281734657,1
539,183,45,0.0499931193892691,1
539,184,45,0.0445141722198159,1
540,183,45,0.0415246425564357,1
517,220,46,0.0450727582141927,1
517,221,46,0.0463993330424943,1
517,222,46,0.0449596709487141,1
517,223,46,0.0445277079804358,1
518,220,46,0.0479919516643098,1
518,221,46,0.0541745475233391,1
518,222,46,0.0504770329690578,1
518,223,46,0.04667668772525,1
518,224,46,0.0420283393789279,1
519,216,46,0.0422176967491336,1
519,220,46,0.0466127530860128,1
519,221,46,0.0562660023130444,1
519,222,46,0.0491222079513259,1
519,223,46,0.0410827609331315,1
519,224,46,0.0415257212000321,1
519,225,46,0.0462331408276214,1
519,226,46,0.0473957780494698,1
520,221,46,0.0436443745692454,1
520,225,46,0.0492952450924798,1
520,226,46,0.0523935312267483,1
520,227,46,0.042968575970723,1
521,225,46,0.0423388670831669,1
521,226,46,0.0452341519519135,1
523,193,46,0.041157733421502,1
523,194,46,0.0540789294180615,1
523,195,46,0.0429661104996454,1
524,193,46,0.0621413172120937,1
524,194,46,0.0805628845648275,1
524,195,46,0.0607350308923526,1
525,193,46,0.0566236470078654,1
525,194,46,0.0683094500554818,1
525,195,46,0.0497630898563859,1
531,225,46,0.0499929950343682,1
531,226,46,0.0873367771638899,1
531,227,46,0.0825234368978249,1
531,228,46,0.0485746841363892,1
532,225,46,0.072027153357578,1
532,226,46,0.122852358422054,1
532,227,46,0.112706350197069,1
532,228,46,0.060916188949205,1
533,225,46,0.0500472245846049,1
533,226,46,0.0783188517185242,1
533,227,46,0.0715368111700892,1
533,228,46,0.0426778963900053,1
534,180,46,0.0479146353563951,1
534,181,46,0.0471286637224617,1
534,182,46,0.0471651916229002,1
534,183,46,0.0496084950877003,1
534,184,46,0.0499623010007996,1
535,179,46,0.0493003112030054,1
535,180,46,0.052296199186533,1
535,181,46,0.0505019309829003,1
535,182,46,0.0507961925254357,1
535,183,46,0.053363715722707,1
535,184,46,0.052639186223259,1
535,185,46,0.0468038649416674,1
536,178,46,0.0485212385627013,1
536,179,46,0.0452677466987126,1
536,180,46,0.0513967564089488,1
536,181,46,0.0485944403454186,1
536,182,46,0.0472662867505498,1
536,183,46,0.0482325838041734,1
536,184,46,0.0476559933828486,1
537,180,46,0.044294942639734,1
537,181,46,0.0442150905731892,1
537,182,46,0.0459800083168558,1
537,183,46,0.0463714613245012,1
537,184,46,0.046053810247138,1
537,185,46,0.0427583026468692,1
538,181,46,0.0433656384657434,1
538,182,46,0.0493230194892461,1
538,183,46,0.0495539086929655,1
538,184,46,0.0462369579824038,1
538,185,46,0.0422635053098894,1
539,182,46,0.0480569838707152,1
539,183,46,0.0493008464697525,1
539,184,46,0.0440037953764545,1
517,220,47,0.0438880939546909,1
517,221,47,0.044051152966736,1
517,222,47,0.0413490615465493,1
517,223,47,0.0426097715312833,1
518,220,47,0.0526976870940029,1
518,221,47,0.064947699140208,1
518,222,47,0.0554274285560549,1
518,223,47,0.050556306514977,1
518,224,47,0.043137303944226,1
519,220,47,0.0622201095586141,1
519,221,47,0.0829587277113845,1
519,222,47,0.0641088874868865,1
519,223,47,0.0483510129236534,1
519,224,47,0.0428589760492028,1
520,220,47,0.0466969305404131,1
520,221,47,0.0631559450682663,1
520,222,47,0.0465447471754568,1
523,193,47,0.0424650007997642,1
523,194,47,0.0636591066240114,1
523,195,47,0.0483198539108903,1
524,193,47,0.0669106466567304,1
524,194,47,0.0989258591323255,1
524,195,47,0.0721634247019613,1
525,193,47,0.0573143898214281,1
525,194,47,0.080462773462915,1
525,195,47,0.0567142368497612,1
526,194,47,0.0418320884218277,1
531,226,47,0.0468160733488892,1
531,227,47,0.0476355234848231,1
532,225,47,0.0439880428545587,1
532,226,47,0.064643440544992,1
532,227,47,0.061784413239943,1
532,228,47,0.043183793753569,1
533,226,47,0.0494531001222614,1
533,227,47,0.0459200584411804,1
534,180,47,0.0457555423141015,1
535,179,47,0.0486224688587213,1
535,180,47,0.0492048012324241,1
535,181,47,0.046402539236242,1
535,182,47,0.0453459821515465,1
535,183,47,0.0460388660320977,1
536,179,47,0.0447613221785041,1
536,180,47,0.0486053889834274,1
536,181,47,0.0458401523072873,1
536,182,47,0.0447792292842253,1
536,183,47,0.0459963474694794,1
536,184,47,0.0444452201306665,1
537,180,47,0.0446746089654736,1
537,181,47,0.0440000106620811,1
537,182,47,0.0459921842836686,1
537,183,47,0.0488995964586146,1
537,184,47,0.0481436970837456,1
537,185,47,0.043705381461578,1
537,188,47,0.0422820341901148,1
537,189,47,0.0412121251737833,1
538,180,47,0.0432218923104725,1
538,181,47,0.0456866280720959,1
538,182,47,0.0496485643994454,1
538,183,47,0.0521020217122359,1
538,184,47,0.0497642901515157,1
538,185,47,0.0448172764771481,1
539,181,47,0.0430663027025802,1
539,182,47,0.0463887790961272,1
539,183,47,0.0477925729111167,1
539,184,47,0.0445567610699868,1
540,190,47,0.0427657071702041,1
517,220,48,0.0430833771711392,1
517,221,48,0.0410675626015547,1
518,220,48,0.0528497785444672,1
518,221,48,0.0690384292976859,1
518,222,48,0.0549411900802939,1
518,223,48,0.048414244687364,1
518,224,48,0.0422480366415716,1
519,220,48,0.0707389176858794,1
519,221,48,0.101269094749092,1
519,222,48,0.0740831129331952,1
519,223,48,0.0519017346275932,1
519,224,48,0.0440636046770246,1
520,220,48,0.0504053666990292,1
520,221,48,0.074366923257325,1
520,222,48,0.051603461287822,1
523,194,48,0.0614136680266551,1
523,195,48,0.0481308452750804,1
524,193,48,0.0608656521988498,1
524,194,48,0.0949177601030896,1
524,195,48,0.0723822082264206,1
525,193,48,0.0518952032919316,1
525,194,48,0.0765865068487759,1
525,195,48,0.0574646646089932,1
526,194,48,0.0424499890005387,1
535,180,48,0.0468133483545403,1
535,181,48,0.0438542342778856,1
536,179,48,0.0437735630910156,1
536,180,48,0.0466652362609029,1
536,181,48,0.0447152378742726,1
536,182,48,0.0465231148294452,1
536,183,48,0.0513479227800617,1
536,184,48,0.048718654671155,1
536,189,48,0.0412785009537913,1
537,179,48,0.0418593897292973,1
537,180,48,0.0453489964062082,1
537,181,48,0.0448259380663284,1
537,182,48,0.049387408294208,1
537,183,48,0.0585130088634983,1
537,184,48,0.0563643400059362,1
537,185,48,0.0466485564839856,1
537,188,48,0.0432861540571662,1
537,189,48,0.0443040881316807,1
538,178,48,0.0552062876952145,1
538,179,48,0.041393780650239,1
538,180,48,0.0469388062292852,1
538,181,48,0.0490596195890587,1
538,182,48,0.0513264256024206,1
538,183,48,0.0571062737847671,1
538,184,48,0.0542365573649806,1
538,185,48,0.0466630357198315,1
538,188,48,0.043077554117739,1
538,189,48,0.0445543577763596,1
539,180,48,0.0457819920608371,1
539,181,48,0.0498744037128437,1
539,182,48,0.047371669418911,1
539,183,48,0.0466141263966569,1
539,184,48,0.0433754462827054,1
539,189,48,0.04469161314648,1
539,190,48,0.0417755096453121,1
540,181,48,0.0413221927778653,1
540,189,48,0.0458450562157683,1
540,190,48,0.0441541620785115,1
541,190,48,0.0413936914391145,1
517,220,49,0.0414451527411237,1
518,220,49,0.0490996186132512,1
518,221,49,0.0633593842793086,1
518,222,49,0.0509758475100083,1
518,223,49,0.0421776788013693,1
519,220,49,0.0678226222456254,1
519,221,49,0.096313422188911,1
519,222,49,0.0731888389940982,1
519,223,49,0.0497734599737691,1
519,224,49,0.0427897725468844,1
520,220,49,0.0481791814843641,1
520,221,49,0.0699763193665694,1
520,222,49,0.0513873865375071,1
523,194,49,0.0508722436574026,1
523,195,49,0.0440984294559951,1
524,193,49,0.0473659328732678,1
524,194,49,0.0707163986353574,1
524,195,49,0.059660831631942,1
525,193,49,0.0433409134674152,1
525,194,49,0.0615148766957359,1
525,195,49,0.052171638829768,1
529,189,49,0.044095234075717,1
530,188,49,0.0414649332804598,1
530,189,49,0.043871014079397,1
535,180,49,0.0443779089855348,1
535,181,49,0.0422431543600299,1
535,183,49,0.0441063449157704,1
536,179,49,0.0426749632363659,1
536,180,49,0.0449133298245787,1
536,181,49,0.0443318192745684,1
536,182,49,0.0468614791079009,1
536,183,49,0.0542095020639453,1
536,184,49,0.0514680388008052,1
536,185,49,0.0420925740919475,1
537,179,49,0.0413418678858724,1
537,180,49,0.0451594416901816,1
537,181,49,0.0455920805003124,1
537,182,49,0.0508985366088284,1
537,183,49,0.0634126838711564,1
537,184,49,0.0610176409213526,1
537,185,49,0.0478830167711724,1
537,189,49,0.0433494317781228,1
537,190,49,0.0410327972966672,1
538,179,49,0.0411005599041563,1
538,180,49,0.0474737323520931,1
538,181,49,0.049684703014977,1
538,182,49,0.0502057987101174,1
538,183,49,0.0568521031809162,1
538,184,49,0.0546073998994953,1
538,185,49,0.0457494543306951,1
538,188,49,0.0419432671099151,1
538,189,49,0.046020283084524,1
538,190,49,0.0453663547283453,1
538,191,49,0.0414079435920979,1
539,180,49,0.0496560635406397,1
539,181,49,0.0546366881820109,1
539,182,49,0.0487041916555137,1
539,183,49,0.0443307325208698,1
539,184,49,0.0416650879000995,1
539,189,49,0.0472102567576183,1
539,190,49,0.0444071891579482,1
540,181,49,0.0447547070384528,1
540,190,49,0.0449017594120656,1
541,192,49,0.0412562630534799,1
518,220,50,0.042596384455871,1
518,221,50,0.0515522865427581,1
518,222,50,0.0446153376350181,1
519,220,50,0.0550599273836585,1
519,221,50,0.0732693831226999,1
519,222,50,0.0602797405666967,1
519,223,50,0.0441607501848887,1
520,221,50,0.0541761533235805,1
520,222,50,0.0442751431768261,1
523,194,50,0.0410538376052161,1
524,194,50,0.0499433990558716,1
524,195,50,0.0458787563938965,1
525,194,50,0.0487477915650957,1
525,195,50,0.0444881820455399,1
528,190,50,0.0412005493545353,1
529,188,50,0.0415338015652194,1
529,189,50,0.0453557683415693,1
529,190,50,0.0424770767419829,1
530,188,50,0.0444810775959875,1
530,189,50,0.0455623434588068,1
535,183,50,0.0424554254723994,1
536,180,50,0.0441049148344107,1
536,181,50,0.0440945528271297,1
536,182,50,0.0470188529382835,1
536,183,50,0.0540576431030782,1
536,184,50,0.0516011688322586,1
536,185,50,0.041818606728556,1
537,180,50,0.0437506250185451,1
537,181,50,0.0448165925251934,1
537,182,50,0.0510809274012196,1
537,183,50,0.0632987585617809,1
537,184,50,0.0608976330353055,1
537,185,50,0.0458900078090552,1
537,189,50,0.0423784443820435,1
537,190,50,0.0426706675855521,1
538,180,50,0.0448802730478941,1
538,181,50,0.0474132904635492,1
538,182,50,0.0483244712624259,1
538,183,50,0.0542340918939031,1
538,184,50,0.0525571768695213,1
538,185,50,0.0429294501342038,1
538,188,50,0.0428199556440126,1
538,189,50,0.0475792123416811,1
538,190,50,0.0483686442858988,1
538,191,50,0.0425971846526242,1
539,180,50,0.0473271828048185,1
539,181,50,0.0528493135652727,1
539,182,50,0.0472763811244572,1
539,183,50,0.0412256501209335,1
539,188,50,0.0439407528484625,1
539,189,50,0.0470446917239845,1
539,190,50,0.0452467739743489,1
540,181,50,0.0425503650324573,1
541,192,50,0.0425558177245225,1
518,221,51,0.0424490374152105,1
519,220,51,0.0432667952431461,1
519,221,51,0.0511249111889739,1
519,222,51,0.0460973614961067,1
529,188,51,0.0412473311275585,1
529,189,51,0.0425958167487149,1
530,188,51,0.0413762303890159,1
530,189,51,0.0413643301656788,1
536,181,51,0.0445772174511752,1
536,182,51,0.047315444783526,1
536,183,51,0.0510635555622455,1
536,184,51,0.0477414576401359,1
537,180,51,0.0411833775647495,1
537,181,51,0.0443937101680439,1
537,182,51,0.0510440372495481,1
537,183,51,0.0590112611040276,1
537,184,51,0.0547140801842131,1
537,185,51,0.041847916638011,1
537,190,51,0.041414220811223,1
538,181,51,0.0438509226528088,1
538,182,51,0.0465831782465518,1
538,183,51,0.0508098283106497,1
538,184,51,0.0477201172578045,1
538,188,51,0.0426957845721547,1
538,189,51,0.0455043886682797,1
538,190,51,0.0460306640153769,1
538,191,51,0.041694751950685,1
539,181,51,0.0452396803382661,1
539,182,51,0.0425996636405388,1
539,188,51,0.043242183786249,1
539,189,51,0.0448618631158347,1
539,190,51,0.0432243875185916,1
540,189,51,0.0431018600941187,1
518,213,52,0.0417335074258691,1
519,221,52,0.0411420106366478,1
536,182,52,0.0487046350077688,1
536,183,52,0.0497799210218781,1
536,184,52,0.0443997224571629,1
537,181,52,0.0468094717256749,1
537,182,52,0.0550374191466062,1
537,183,52,0.0583097859218487,1
537,184,52,0.0494769600430186,1
538,181,52,0.0440073205675566,1
538,182,52,0.0502261875071207,1
538,183,52,0.0514236765416137,1
538,184,52,0.0437830194702144,1
538,188,52,0.0413987278125986,1
538,189,52,0.0420631236073873,1
538,190,52,0.0431290046062785,1
538,191,52,0.0415202928382737,1
539,188,52,0.0424211548837478,1
539,189,52,0.0439386955858638,1
539,190,52,0.0427704759103146,1
540,189,52,0.0416277895399492,1
518,212,53,0.0410755321286782,1
518,213,53,0.0455939241968858,1
519,212,53,0.0420663676482788,1
519,213,53,0.0465787393172652,1
523,198,53,0.0429475951362571,1
524,198,53,0.0426651716396083,1
535,192,53,0.0422882816721984,1
535,193,53,0.0422294672108351,1
536,183,53,0.0452274286771658,1
536,184,53,0.0410136250149983,1
536,192,53,0.0423171049755196,1
537,182,53,0.0542208075464523,1
537,183,53,0.0532680922106945,1
537,184,53,0.0447130589601404,1
538,183,53,0.0496914884671751,1
538,184,53,0.0411865864618647,1
539,189,53,0.0414486049413058,1
539,190,53,0.0414564365966914,1
540,189,53,0.042598252482751,1
540,190,53,0.0424583586260388,1
518,213,54,0.0435203035219817,1
519,212,54,0.0414343392714853,1
519,213,54,0.0476021098636404,1
519,214,54,0.0411478390967829,1
520,200,54,0.04515059356865,1
521,199,54,0.0426724355878379,1
521,200,54,0.0500345511981887,1
521,201,54,0.0509927327428487,1
521,202,54,0.0414110011006382,1
522,198,54,0.0492180855798749,1
522,199,54,0.0518333826860088,1
522,200,54,0.0482735830743075,1
522,201,54,0.0436254050401322,1
523,197,54,0.0419778296622469,1
523,198,54,0.0607369070293349,1
523,199,54,0.0646733722289511,1
523,200,54,0.0511466732966212,1
524,197,54,0.0424505891481036,1
524,198,54,0.0602653045847295,1
524,199,54,0.0662567507409606,1
524,200,54,0.0540841577306316,1
525,198,54,0.0467047162385528,1
525,199,54,0.0519562831751842,1
525,200,54,0.0483481203205251,1
525,201,54,0.0437227533005521,1
530,193,54,0.0410389096103803,1
535,193,54,0.042148201283135,1
537,183,54,0.0487125450608093,1
537,184,54,0.041452335588331,1
540,189,54,0.0419686814669328,1
519,213,55,0.0417168006152778,1
520,200,55,0.0429948716255162,1
520,201,55,0.0490054873600488,1
521,199,55,0.0459756775222656,1
521,200,55,0.0564082318791985,1
521,201,55,0.0661427767709717,1
521,202,55,0.0524064803566403,1
522,198,55,0.0527501107948099,1
522,199,55,0.061831965472678,1
522,200,55,0.0611005802334792,1
522,201,55,0.0617029337462176,1
522,202,55,0.0473647325781379,1
523,197,55,0.0444615484698205,1
523,198,55,0.0714739524710811,1
523,199,55,0.0848315017045921,1
523,200,55,0.0692255617965135,1
523,201,55,0.0518884232464683,1
524,198,55,0.0712050701417871,1
524,199,55,0.0865284703084183,1
524,200,55,0.0729302997485133,1
524,201,55,0.0529240292337394,1
525,198,55,0.0509136268057089,1
525,199,55,0.0618851244894204,1
525,200,55,0.0612363217178503,1
525,201,55,0.0529601462223317,1
525,202,55,0.0434268102634879,1
526,200,55,0.0434437901141876,1
526,201,55,0.0417237374560508,1
529,193,55,0.04256463881238,1
529,194,55,0.0415507381620406,1
530,193,55,0.0433367124344606,1
520,200,56,0.0427801296353343,1
520,201,56,0.0485775983664567,1
521,198,56,0.0435791071698754,1
521,199,56,0.0539420146722347,1
521,200,56,0.0689877898193692,1
521,201,56,0.078024525295171,1
521,202,56,0.0583294934702647,1
522,198,56,0.0536832537505222,1
522,199,56,0.0731398323496969,1
522,200,56,0.0804505812758977,1
522,201,56,0.079815673812813,1
522,202,56,0.0554873622115258,1
523,197,56,0.0412232224969997,1
523,198,56,0.069996697350103,1
523,199,56,0.0938399815842287,1
523,200,56,0.0852041068346578,1
523,201,56,0.0664325020629937,1
523,202,56,0.0442543677982833,1
524,198,56,0.069869687742465,1
524,199,56,0.0943671922964496,1
524,200,56,0.0857524416598174,1
524,201,56,0.0640286839825784,1
524,202,56,0.0443025363987876,1
525,198,56,0.0494110465388376,1
525,199,56,0.0667855726601577,1
525,200,56,0.0695317451893253,1
525,201,56,0.058950062272609,1
525,202,56,0.044314009490074,1
526,199,56,0.0443255880126893,1
526,200,56,0.048061417393267,1
526,201,56,0.0431525184960073,1
527,200,56,0.041125584976267,1
528,194,56,0.0422355741178134,1
528,200,56,0.0419650319209298,1
529,193,56,0.048317258678177,1
529,194,56,0.0492324404608199,1
529,201,56,0.0413800069932871,1
530,193,56,0.0444981926150577,1
530,194,56,0.0438020673969825,1
530,201,56,0.0473813366607677,1
530,202,56,0.0513121842629068,1
531,201,56,0.0432743403415863,1
531,202,56,0.0485567121498501,1
520,200,57,0.0444025231457992,1
520,201,57,0.0449810464748219,1
521,198,57,0.046382923602318,1
521,199,57,0.062100728853806,1
521,200,57,0.0773423575630315,1
521,201,57,0.0770775465050563,1
521,202,57,0.0553179475827008,1
522,198,57,0.0531666564587513,1
522,199,57,0.0796659288852602,1
522,200,57,0.0928061598194479,1
522,201,57,0.0857137726923904,1
522,202,57,0.0562164820288353,1
523,198,57,0.0608878522520175,1
523,199,57,0.0889974990174881,1
523,200,57,0.0913804687284406,1
523,201,57,0.0754222638266862,1
523,202,57,0.0485318303562121,1
524,198,57,0.0588266265166864,1
524,199,57,0.0841138657920386,1
524,200,57,0.0836386029879606,1
524,201,57,0.06721644617137,1
524,202,57,0.0461719798433466,1
525,198,57,0.0450680381346955,1
525,199,57,0.0639183325249183,1
525,200,57,0.0687138521930192,1
525,201,57,0.0584701388631168,1
525,202,57,0.0430239598588436,1
526,199,57,0.0478068899449179,1
526,200,57,0.0515852676251553,1
526,201,57,0.0441869863655989,1
528,194,57,0.0444301461539906,1
528,227,57,0.0415424280106235,1
528,228,57,0.047446941981064,1
528,229,57,0.0410535186078618,1
529,193,57,0.0461317375160872,1
529,194,57,0.0499758286513173,1
529,195,57,0.0417218694291708,1
529,201,57,0.0509974744492851,1
529,202,57,0.0525202002100927,1
530,194,57,0.0410950396279059,1
530,200,57,0.0420722393622925,1
530,201,57,0.0715100262057949,1
530,202,57,0.0796973906751731,1
530,203,57,0.0518706188687086,1
531,201,57,0.0665791543382299,1
531,202,57,0.0761377262318423,1
531,203,57,0.0505811180210624,1
532,202,57,0.0432885411305889,1
520,200,58,0.0423518973140812,1
521,198,58,0.0442143498505189,1
521,199,58,0.0606780276871537,1
521,200,58,0.0721229823255136,1
521,201,58,0.0654788135149685,1
522,198,58,0.0488345426252699,1
522,199,58,0.0741970220223662,1
522,200,58,0.0879593086109735,1
522,201,58,0.0781104653451223,1
522,202,58,0.0531992428495067,1
523,198,58,0.0494117277874248,1
523,199,58,0.0740947103793824,1
523,200,58,0.0834082003903749,1
523,201,58,0.0732391270346516,1
523,202,58,0.0506549469850187,1
524,198,58,0.0459747745975508,1
524,199,58,0.0661315199490781,1
524,200,58,0.0716711036495287,1
524,201,58,0.0623207829609477,1
524,202,58,0.0467020561250217,1
525,199,58,0.0577846243621242,1
525,200,58,0.0628851541615811,1
525,201,58,0.0527273592546907,1
525,202,58,0.0415090279062778,1
526,199,58,0.0515805691725974,1
526,200,58,0.0547691748120208,1
526,201,58,0.0433696340427748,1
527,199,58,0.0415468939735842,1
527,200,58,0.0412464552365178,1
527,228,58,0.0425153564245029,1
528,193,58,0.0433959188840984,1
528,194,58,0.0517249884663533,1
528,195,58,0.0460671919158155,1
528,228,58,0.0492778462198316,1
528,229,58,0.0450786245214715,1
529,193,58,0.0467115016907509,1
529,194,58,0.054313792571873,1
529,195,58,0.0459016052552424,1
529,201,58,0.0534169828741458,1
529,202,58,0.0576264665551928,1
529,203,58,0.0411259958881133,1
529,228,58,0.0425389892623977,1
530,194,58,0.0410591253918693,1
530,200,58,0.0466806778955466,1
530,201,58,0.0801626023592222,1
530,202,58,0.0897652607685505,1
530,203,58,0.0586537137304333,1
531,200,58,0.0423430870396933,1
531,201,58,0.0741992874442555,1
531,202,58,0.0866321444485766,1
531,203,58,0.0601120993468924,1
532,201,58,0.0415746170063697,1
532,202,58,0.0501267630605303,1
532,203,58,0.0415149969415183,1
519,214,59,0.0581295632301201,1
519,215,59,0.0518169353986887,1
520,213,59,0.0413118848379325,1
520,214,59,0.0567202707658194,1
520,215,59,0.0519539961263557,1
521,199,59,0.0526424572978247,1
521,200,59,0.0590463075591257,1
521,201,59,0.0506287351346152,1
522,198,59,0.0446282975783797,1
522,199,59,0.0628712912935046,1
522,200,59,0.0733758687649642,1
522,201,59,0.0631446125520852,1
522,202,59,0.0475542332268163,1
523,199,59,0.0580588863925634,1
523,200,59,0.0691139613831102,1
523,201,59,0.0626451708298957,1
523,202,59,0.0477319093464451,1
524,199,59,0.0495576555601953,1
524,200,59,0.0574872160999241,1
524,201,59,0.0532539373789378,1
524,202,59,0.0428176577817145,1
525,199,59,0.0478160327334972,1
525,200,59,0.0523598256418854,1
525,201,59,0.0450856559801039,1
526,199,59,0.0493467280214283,1
526,200,59,0.0517415222614304,1
526,201,59,0.0412684714607016,1
527,194,59,0.041041369674723,1
528,193,59,0.0485715752638681,1
528,194,59,0.0608718645371571,1
528,195,59,0.0519292819414971,1
528,228,59,0.0437419066586491,1
529,193,59,0.0493695876962439,1
529,194,59,0.062762843006501,1
529,195,59,0.053465994925282,1
529,201,59,0.0481565110452672,1
529,202,59,0.0524834614469962,1
530,194,59,0.0447632361626301,1
530,200,59,0.0423555090129404,1
530,201,59,0.0674480923179641,1
530,202,59,0.0759501179403507,1
530,203,59,0.0551398172973471,1
530,206,59,0.0458636283498723,1
530,207,59,0.0503231681095728,1
531,201,59,0.062318679741103,1
531,202,59,0.0748835638029744,1
531,203,59,0.0604457002919723,1
531,206,59,0.0527325767537912,1
531,207,59,0.0557654413967473,1
532,202,59,0.0498905536297487,1
532,203,59,0.0489524743251465,1
532,207,59,0.0414239880776739,1
520,214,60,0.0717605851107866,1
520,215,60,0.064334780867633,1
521,199,60,0.0429731095178689,1
521,200,60,0.0440595388124405,1
521,214,60,0.0426378162647906,1
521,215,60,0.042107064141263,1
521,221,60,0.0410849587708355,1
522,199,60,0.05034119416346,1
522,200,60,0.0548902856719711,1
522,201,60,0.047807095400841,1
522,221,60,0.0415381729103208,1
523,199,60,0.0460317129219319,1
523,200,60,0.0544377960349516,1
523,201,60,0.0514378854407185,1
523,202,60,0.0420482875270434,1
524,200,60,0.04964229799379,1
524,201,60,0.0483054828097408,1
525,199,60,0.0413103763589179,1
525,200,60,0.0476299383277549,1
525,201,60,0.0434158805490509,1
526,199,60,0.0439730445721703,1
526,200,60,0.0474314841262159,1
527,194,60,0.0420911467139553,1
528,193,60,0.0521332185721428,1
528,194,60,0.0642122966970387,1
528,195,60,0.0524595853060346,1
529,193,60,0.0517442094086356,1
529,194,60,0.0666874782703328,1
529,195,60,0.0556801393415047,1
530,194,60,0.0459844039922638,1
530,201,60,0.0466427983114032,1
530,202,60,0.052447760776985,1
530,203,60,0.0445920859719281,1
530,206,60,0.0500488249781114,1
530,207,60,0.0550750878680916,1
531,201,60,0.0438969691098966,1
531,202,60,0.0543008218150417,1
531,203,60,0.05293806511733,1
531,204,60,0.0422283831605038,1
531,205,60,0.0430029979479495,1
531,206,60,0.0654772834090146,1
531,207,60,0.0707537213258144,1
532,202,60,0.0435345908187414,1
532,203,60,0.0492072396698276,1
532,204,60,0.0413376100822023,1
532,206,60,0.0519598191797559,1
532,207,60,0.0553608770571653,1
536,207,60,0.0428824142446441,1
521,214,61,0.0444903879933462,1
521,215,61,0.0435869631555677,1
522,220,61,0.0450121649370738,1
522,221,61,0.049232078209587,1
523,200,61,0.0410124977107885,1
523,221,61,0.0413810586032094,1
524,200,61,0.0424733542050599,1
524,201,61,0.0417891238035869,1
524,221,61,0.0420759835261548,1
525,200,61,0.0427207366533453,1
528,194,61,0.0549980473036527,1
528,195,61,0.0459668807647147,1
529,193,61,0.0487047755828741,1
529,194,61,0.0581236482622279,1
529,195,61,0.0490785756013349,1
530,194,61,0.0416731223080408,1
530,206,61,0.0468738713441065,1
530,207,61,0.0511482088093098,1
531,205,61,0.0437603382176478,1
531,206,61,0.0659910421650054,1
531,207,61,0.0729035634448323,1
531,208,61,0.0449692651996508,1
532,206,61,0.0542165308192103,1
532,207,61,0.0597779955754743,1
535,207,61,0.0565193186527939,1
536,206,61,0.043614315827018,1
536,207,61,0.0649891958299455,1
536,208,61,0.04776884815873,1
524,221,62,0.0416415334598596,1
529,194,62,0.0441836963674614,1
530,206,62,0.0411168044389206,1
530,207,62,0.0459881238258194,1
531,206,62,0.0562877319802828,1
531,207,62,0.0656392799976677,1
531,208,62,0.0482515506299192,1
532,206,62,0.0476950191947737,1
532,207,62,0.0549523658011652,1
535,207,62,0.0593544265630027,1
535,208,62,0.0435509921488155,1
536,206,62,0.0474681958556383,1
536,207,62,0.0706971939132796,1
536,208,62,0.0524593528164374,1
537,207,62,0.0422433571125856,1
531,206,63,0.0412019442921187,1
531,207,63,0.0493035444304273,1
