x,y,z,signal,cytoplasm.p
575,839,18,0.0418891673213141,1
576,839,18,0.0442750431522319,1
578,852,18,0.053515158364993,1
583,860,18,0.0880408205451079,1
584,859,18,0.0809248222070949,1
584,860,18,0.0835692075465561,1
588,844,18,0.0579156565804677,1
569,838,19,0.0505740892657974,1
571,839,19,0.043279895761613,1
572,839,19,0.042423828514116,1
573,847,19,0.0420535131362462,1
573,848,19,0.0414753250247823,1
576,839,19,0.0414188057223497,1
578,851,19,0.0414247990878968,1
578,852,19,0.0470342296921094,1
579,852,19,0.0424117363516928,1
580,853,19,0.0436455180936597,1
581,840,19,0.0448494979133031,1
581,854,19,0.0532114836971374,1
582,841,19,0.0410126193623219,1
582,854,19,0.0444135582915652,1
582,855,19,0.0572642261357755,1
582,856,19,0.0600505436709757,1
582,857,19,0.064765632751906,1
582,858,19,0.0728510964901467,1
582,859,19,0.075456872336264,1
582,860,19,0.0798758669915552,1
583,848,19,0.0434532221630798,1
583,849,19,0.0438191013150304,1
583,855,19,0.0442608748036382,1
583,856,19,0.0497411979871029,1
583,857,19,0.0572299636572262,1
583,858,19,0.0662277976760037,1
583,859,19,0.070473576767892,1
583,860,19,0.0758584629716954,1
584,842,19,0.0429905597544979,1
584,845,19,0.0441489553928806,1
584,855,19,0.041263721644163,1
584,856,19,0.047452683933442,1
584,857,19,0.056469614539601,1
584,858,19,0.06645893018279,1
584,859,19,0.0702012990091315,1
584,860,19,0.0733926728967823,1
585,848,19,0.0440937661472135,1
585,849,19,0.0446371429965439,1
585,855,19,0.0434508404963919,1
585,856,19,0.0482415589839733,1
585,857,19,0.0556098788225291,1
585,858,19,0.0645444864843308,1
585,859,19,0.0689177023159078,1
585,860,19,0.0722689803858367,1
586,855,19,0.0465101548860836,1
586,856,19,0.0535234144490619,1
586,857,19,0.0600710297892057,1
586,858,19,0.0654696545061847,1
586,859,19,0.0685834039020362,1
586,860,19,0.0715101235270216,1
587,845,19,0.0530509685538247,1
587,854,19,0.0421796144124346,1
587,855,19,0.0510980234967179,1
587,858,19,0.0727405936439117,1
587,859,19,0.0699770114286263,1
587,860,19,0.0700416867905337,1
587,861,19,0.0801412079095426,1
588,844,19,0.0549558261114495,1
588,845,19,0.0413459553773957,1
588,854,19,0.0497835921948203,1
588,859,19,0.0752372399544381,1
588,860,19,0.071090831241792,1
588,861,19,0.0753052080178504,1
589,853,19,0.0461114514470455,1
589,854,19,0.0617734267547904,1
589,859,19,0.0810670950271275,1
589,860,19,0.0742239691887052,1
589,861,19,0.072570362598129,1
589,862,19,0.0766117671138512,1
590,853,19,0.0480811303484178,1
590,859,19,0.0811420648121307,1
590,860,19,0.0726810492733478,1
591,852,19,0.0455830134060206,1
591,853,19,0.0507111283665251,1
591,860,19,0.065661431390222,1
592,852,19,0.0556636596137757,1
592,853,19,0.0589900558900666,1
592,854,19,0.062399964592375,1
593,852,19,0.0643635987642194,1
593,853,19,0.0691630491285338,1
568,837,20,0.0467651094664833,1
568,838,20,0.0424619297743869,1
569,838,20,0.0538086737781233,1
570,839,20,0.0428593680374772,1
572,839,20,0.0440835960790186,1
577,852,20,0.0421138658136656,1
577,853,20,0.0475421545812302,1
578,853,20,0.0466041293439762,1
578,863,20,0.0579462316658704,1
579,853,20,0.0434759845166686,1
579,862,20,0.0693887100196831,1
579,863,20,0.0611595352699479,1
580,861,20,0.0721636842252326,1
581,854,20,0.0439435373168944,1
581,859,20,0.0681337906479405,1
581,860,20,0.0679948159361476,1
581,861,20,0.0752728216762833,1
582,855,20,0.0450484630512826,1
582,856,20,0.0487263484548028,1
582,857,20,0.0538184059007979,1
582,858,20,0.0600821514427288,1
582,859,20,0.0633160330795282,1
582,860,20,0.0675081611418055,1
582,861,20,0.0768012136951814,1
583,857,20,0.0463092838740803,1
583,858,20,0.0540553993081283,1
583,859,20,0.0599484591108542,1
583,860,20,0.0652092120899435,1
583,861,20,0.0769774408098787,1
584,857,20,0.04486484222672,1
584,858,20,0.053635679890848,1
584,859,20,0.0591764530729588,1
584,860,20,0.0629722890999274,1
585,842,20,0.0451366441928164,1
585,857,20,0.0445076219605824,1
585,858,20,0.052270657771247,1
585,859,20,0.0573805844758197,1
585,860,20,0.0612402848544728,1
586,856,20,0.0434379859843592,1
586,857,20,0.0481034763834256,1
586,858,20,0.0522309344905303,1
586,859,20,0.056158294748711,1
586,860,20,0.0602445913836371,1
586,861,20,0.0744749119718691,1
587,845,20,0.0456463208640187,1
587,855,20,0.0444382913999957,1
587,856,20,0.0535930153463896,1
587,857,20,0.058754716943591,1
587,858,20,0.0583945418968746,1
587,859,20,0.057979110020306,1
587,860,20,0.0594107160792055,1
587,861,20,0.069526278980423,1
588,844,20,0.0478459319770474,1
588,855,20,0.0535495668253824,1
588,856,20,0.0651473103829984,1
588,857,20,0.0713788155652023,1
588,858,20,0.0682155837322855,1
588,859,20,0.0619847760188732,1
588,860,20,0.0593778863853832,1
588,861,20,0.0653635040814792,1
588,862,20,0.0877540311100926,1
589,844,20,0.0436864146358322,1
589,854,20,0.0498096039960355,1
589,855,20,0.0637067399577686,1
589,857,20,0.07622736448841,1
589,858,20,0.0742867251597517,1
589,859,20,0.0670331037936506,1
589,860,20,0.0623790405286247,1
589,861,20,0.0645941311234408,1
589,862,20,0.0704075497222798,1
590,853,20,0.0420450624097237,1
590,854,20,0.0539779964924565,1
590,857,20,0.0755207745350922,1
590,858,20,0.0767000699069185,1
590,859,20,0.0707472116170921,1
590,860,20,0.0641769853119344,1
590,861,20,0.0629331930004497,1
590,862,20,0.0618691151476207,1
590,863,20,0.062452420733591,1
591,844,20,0.0592545479506875,1
591,845,20,0.0422454630357977,1
591,852,20,0.0412679740410983,1
591,853,20,0.0465950352160103,1
591,854,20,0.0537734975613896,1
591,859,20,0.0725931357651875,1
591,860,20,0.0620695590275732,1
591,861,20,0.0573752101814094,1
592,843,20,0.0837330748654566,1
592,844,20,0.0624275767870967,1
592,845,20,0.0570213069470833,1
592,846,20,0.0427365729796308,1
592,851,20,0.0449577650746904,1
592,852,20,0.0557784121535786,1
592,853,20,0.062162154768087,1
592,854,20,0.0636452329424653,1
592,855,20,0.065823822670517,1
592,859,20,0.0684554481158048,1
592,860,20,0.0566939886278633,1
593,845,20,0.0582912300079492,1
593,850,20,0.0461568788329965,1
593,851,20,0.0574540403750734,1
593,852,20,0.0745261840381596,1
594,846,20,0.053966047608506,1
594,848,20,0.0488032538508712,1
594,849,20,0.0506310275901785,1
594,850,20,0.0564061773199672,1
594,851,20,0.0683489732870102,1
563,847,21,0.0438609034852851,1
568,838,21,0.0440893542516011,1
570,850,21,0.0411197727363364,1
570,851,21,0.0446523953954689,1
573,839,21,0.0423420624634451,1
574,858,21,0.054428182860443,1
575,857,21,0.0554810795856659,1
575,858,21,0.056532505679018,1
576,852,21,0.0414372670183899,1
576,853,21,0.0458436234310413,1
576,856,21,0.0545915203193313,1
577,853,21,0.0419976156083178,1
577,854,21,0.048444030389483,1
577,855,21,0.0526546657050464,1
577,863,21,0.0494885628959406,1
578,854,21,0.0492987108094989,1
578,862,21,0.0599435822360473,1
578,863,21,0.0489901214196926,1
578,864,21,0.047858145791004,1
579,861,21,0.0637854079493881,1
579,862,21,0.0571046085104428,1
579,863,21,0.0509386275475129,1
579,864,21,0.0491010135508346,1
580,859,21,0.0611464996322988,1
580,860,21,0.0580579077735611,1
580,861,21,0.0598705859092532,1
580,862,21,0.0604645589830217,1
580,863,21,0.0580180547312087,1
581,858,21,0.059238830572568,1
581,859,21,0.0568413545920956,1
581,860,21,0.0569547662616633,1
581,861,21,0.0630235719796876,1
581,862,21,0.0702485322445121,1
582,840,21,0.0439513040914622,1
582,856,21,0.0438190932049281,1
582,857,21,0.0475642410929667,1
582,858,21,0.0510595762054186,1
582,859,21,0.0535566063941171,1
582,860,21,0.05731448173592,1
582,861,21,0.0660657632402069,1
582,862,21,0.0893218814797013,1
583,858,21,0.045368695844522,1
583,859,21,0.0515328385176135,1
583,860,21,0.0566845646890734,1
583,861,21,0.0692480267796873,1
584,858,21,0.04376984325746,1
584,859,21,0.0502951179693307,1
584,860,21,0.0554673356657555,1
585,841,21,0.0448798269922715,1
585,842,21,0.0412959998510336,1
585,843,21,0.0535019010512163,1
585,845,21,0.04156503627227,1
585,858,21,0.0425932188126343,1
585,859,21,0.0478256405012709,1
585,860,21,0.0532699575342071,1
585,861,21,0.0698074670381656,1
586,841,21,0.0534590743047134,1
586,842,21,0.0531130054291403,1
586,845,21,0.0508378243835436,1
586,858,21,0.0424195869306503,1
586,859,21,0.0463449791373568,1
586,860,21,0.0523658433377392,1
586,861,21,0.0667780681122286,1
587,843,21,0.0632648907748733,1
587,844,21,0.0613826658092018,1
587,856,21,0.0444173457093061,1
587,857,21,0.0468589217223314,1
587,858,21,0.0464800015259968,1
587,859,21,0.0477831057184482,1
587,860,21,0.0514436273930965,1
587,861,21,0.061670055391782,1
587,862,21,0.0944706231335411,1
588,843,21,0.0619121311298423,1
588,844,21,0.0449672620044003,1
588,855,21,0.0474580852615264,1
588,856,21,0.0558381890137398,1
588,857,21,0.0575723721733266,1
588,858,21,0.0534146039108254,1
588,859,21,0.0504510265745774,1
588,860,21,0.0508568452766375,1
588,861,21,0.0572872534193705,1
588,862,21,0.0762649142617294,1
589,854,21,0.0422281398574369,1
589,855,21,0.054492539224996,1
589,856,21,0.0627749432790264,1
589,857,21,0.0641989312485656,1
589,858,21,0.0602008292720104,1
589,859,21,0.0547921858754114,1
589,860,21,0.0527828918280188,1
589,861,21,0.056571234120528,1
589,862,21,0.0636156256625953,1
589,863,21,0.0770324921838079,1
590,844,21,0.0483190104602585,1
590,854,21,0.0455007877828901,1
590,855,21,0.0551508632565828,1
590,856,21,0.0628258260604099,1
590,857,21,0.0671511490349584,1
590,858,21,0.0677706418970736,1
590,859,21,0.0614447513451307,1
590,860,21,0.0564685872599853,1
590,861,21,0.0567083489155431,1
590,862,21,0.058295782478667,1
590,863,21,0.0598301435328055,1
590,864,21,0.0621991260207807,1
591,844,21,0.050893075806661,1
591,853,21,0.0435230879904136,1
591,854,21,0.0485440928307821,1
591,855,21,0.0551704572635676,1
591,856,21,0.063899982066942,1
591,857,21,0.0728095078859174,1
591,858,21,0.0771552250642039,1
591,859,21,0.0678837616029611,1
591,860,21,0.0586666087929772,1
591,861,21,0.0547994417135387,1
591,863,21,0.0536537275716745,1
592,843,21,0.0754446585223074,1
592,844,21,0.0506246043892133,1
592,845,21,0.0424768172187116,1
592,851,21,0.0427352861767438,1
592,852,21,0.0581471891856307,1
592,853,21,0.0691646333018359,1
592,854,21,0.0700224658482514,1
592,855,21,0.0681750926952244,1
592,856,21,0.0702544309921999,1
592,857,21,0.0754496056846669,1
592,859,21,0.0656907196727377,1
592,860,21,0.0557743192553205,1
593,843,21,0.047901091485673,1
593,844,21,0.0499017239438852,1
593,845,21,0.0472779707044941,1
593,850,21,0.0427590893267854,1
593,851,21,0.0623979749139615,1
593,852,21,0.0992075716433455,1
594,844,21,0.0490399661079909,1
594,845,21,0.0504586771043466,1
594,846,21,0.0479347754435966,1
594,847,21,0.0455473397696835,1
594,848,21,0.045661443501308,1
594,849,21,0.0476002120997189,1
594,850,21,0.0548367211501172,1
594,851,21,0.0814138505580226,1
595,849,21,0.0596532081358469,1
595,850,21,0.067698316005397,1
568,838,22,0.0452743266949876,1
568,851,22,0.0411164016371766,1
569,839,22,0.0419679218206907,1
570,852,22,0.0438523797678426,1
571,833,22,0.0416452370732107,1
571,852,22,0.0462019439677146,1
572,852,22,0.0461728016670391,1
572,865,22,0.0655254357893145,1
572,866,22,0.065692622843394,1
573,839,22,0.0430308237086965,1
573,852,22,0.0422455603570244,1
573,853,22,0.0449772239133047,1
573,857,22,0.0474152747352279,1
573,858,22,0.0463157935828027,1
573,866,22,0.0575184940608532,1
573,867,22,0.051905897813404,1
574,853,22,0.0422401319952659,1
574,854,22,0.0481691087373959,1
574,856,22,0.0486401056277016,1
574,857,22,0.0464871005688145,1
574,858,22,0.0450751155505739,1
574,859,22,0.0461807820076322,1
574,867,22,0.0505703856524463,1
575,854,22,0.0461774352387791,1
575,855,22,0.0477123910337478,1
575,856,22,0.0469114319308955,1
575,857,22,0.0458983612143509,1
575,858,22,0.0462202998324258,1
575,859,22,0.0491785731618161,1
575,868,22,0.0544160447407739,1
576,854,22,0.044334106323397,1
576,855,22,0.0457523793742323,1
576,856,22,0.0457314012431338,1
576,857,22,0.0476721865536322,1
576,858,22,0.0524522808072938,1
576,862,22,0.0507937649015018,1
576,863,22,0.0434372101179127,1
577,855,22,0.04326712505397,1
577,856,22,0.045780380853861,1
577,862,22,0.0503410103344762,1
578,854,22,0.0411331408881769,1
578,861,22,0.0593895703393275,1
578,862,22,0.0470883457009148,1
579,859,22,0.0560119128102157,1
579,860,22,0.0539921675444176,1
579,861,22,0.0501473194663129,1
579,862,22,0.045246141386375,1
579,865,22,0.0431798954977643,1
580,858,22,0.0570657070534186,1
580,859,22,0.0498465265881159,1
580,860,22,0.0476003851152331,1
580,861,22,0.0479618577783061,1
580,862,22,0.0475675662348805,1
580,863,22,0.0452144200731908,1
580,864,22,0.04436197804139,1
580,865,22,0.0469758153291227,1
581,839,22,0.0411621426137471,1
581,857,22,0.0517081032335129,1
581,858,22,0.0493424134470426,1
581,859,22,0.0469602655597826,1
581,860,22,0.0464585638224387,1
581,861,22,0.049827803065437,1
581,862,22,0.0538622545201817,1
581,863,22,0.0566506860886962,1
581,864,22,0.0550750932748264,1
582,858,22,0.042575614484063,1
582,859,22,0.0443048531846576,1
582,860,22,0.0468665992857747,1
582,861,22,0.0536453471327047,1
582,862,22,0.0711666228504877,1
582,863,22,0.0976701774109733,1
583,840,22,0.0417896212231903,1
583,859,22,0.0429138706278223,1
583,860,22,0.0474085055032342,1
583,861,22,0.0594918441351677,1
583,862,22,0.115292705051716,1
584,840,22,0.0448371300074042,1
584,859,22,0.041806990358797,1
584,860,22,0.0472082778926745,1
584,861,22,0.0659376830990746,1
585,840,22,0.0487463858140428,1
585,843,22,0.044723028979147,1
585,844,22,0.0480759885436047,1
585,860,22,0.0447212826038004,1
585,861,22,0.0610142563053558,1
586,840,22,0.054029598369571,1
586,841,22,0.0487118421852828,1
586,842,22,0.0500561781374655,1
586,843,22,0.0613303934969697,1
586,844,22,0.0626133089416061,1
586,860,22,0.0438604520229277,1
586,861,22,0.0568048915724749,1
586,862,22,0.0920157492562279,1
587,840,22,0.0594287799802364,1
587,841,22,0.0564592173885436,1
587,842,22,0.0565026388758767,1
587,843,22,0.0581989694849942,1
587,844,22,0.0508926648948148,1
587,860,22,0.0435302708376209,1
587,861,22,0.0528822676139958,1
587,862,22,0.0764830976386237,1
587,863,22,0.125556904499848,1
588,842,22,0.0704198446372587,1
588,843,22,0.0570996937884922,1
588,856,22,0.0452114004117942,1
588,857,22,0.0435046780583542,1
588,860,22,0.0434870521028435,1
588,861,22,0.0495231605920487,1
588,862,22,0.0637665546650735,1
588,863,22,0.0964742725497824,1
589,843,22,0.0752447336888975,1
589,855,22,0.0456811348295196,1
589,856,22,0.0521779430825672,1
589,857,22,0.0509085769153877,1
589,858,22,0.0470606740321101,1
589,859,22,0.0444162724724445,1
589,860,22,0.0443497993712097,1
589,861,22,0.0482181153817972,1
589,862,22,0.0554067748290455,1
589,863,22,0.0680930509010778,1
590,844,22,0.0418577595987493,1
590,855,22,0.0453856459581802,1
590,856,22,0.0532539968530208,1
590,857,22,0.0570325529555072,1
590,858,22,0.0571466945342755,1
590,859,22,0.0523428971551665,1
590,860,22,0.0486812292527365,1
590,861,22,0.0497112500829393,1
590,862,22,0.0527882553089594,1
590,863,22,0.0561780942116189,1
590,864,22,0.0602283928061187,1
591,844,22,0.043082306637645,1
591,855,22,0.0466825053719154,1
591,856,22,0.0555635431051285,1
591,857,22,0.064117424721166,1
591,858,22,0.0677391044128731,1
591,859,22,0.0610337854315228,1
591,860,22,0.0540576376963434,1
591,864,22,0.054027414048704,1
592,843,22,0.0664941334331979,1
592,844,22,0.0424339553284323,1
592,852,22,0.0530500980695188,1
592,853,22,0.0667368958265803,1
592,854,22,0.0675670837378652,1
592,855,22,0.064369740814974,1
592,856,22,0.0639887173987948,1
592,857,22,0.0677802658850518,1
593,842,22,0.0503053150711998,1
593,843,22,0.0461244816779598,1
593,844,22,0.0438121861011966,1
593,851,22,0.0629551605640202,1
593,852,22,0.116569354090697,1
594,843,22,0.0426795292239207,1
594,844,22,0.0444932454526981,1
594,845,22,0.0447743740363577,1
594,846,22,0.0435240990498247,1
594,847,22,0.0413911908242606,1
594,849,22,0.0422932180210883,1
594,850,22,0.0492503043126626,1
594,851,22,0.0935601398034561,1
595,844,22,0.0454237472184512,1
595,848,22,0.0525429895973557,1
595,849,22,0.0543857724325211,1
595,850,22,0.0626259607010831,1
596,849,22,0.0598120309711612,1
596,850,22,0.0708300752349313,1
568,838,23,0.0462154013306796,1
569,834,23,0.0435833595668107,1
569,839,23,0.0439778241257504,1
571,833,23,0.0434093951706353,1
571,854,23,0.0410101863316533,1
572,854,23,0.0424879713126436,1
572,855,23,0.0435283190063511,1
572,856,23,0.043079824946363,1
572,857,23,0.0414336472094284,1
572,862,23,0.0426173652903369,1
572,863,23,0.0472645511886728,1
572,864,23,0.0537072109925061,1
572,865,23,0.0586504750962766,1
572,866,23,0.0607565767306071,1
573,839,23,0.0420844126257379,1
573,854,23,0.0424646466586336,1
573,855,23,0.0422805338212025,1
573,862,23,0.0416406143149403,1
573,863,23,0.0464544925511198,1
573,865,23,0.0567633462221241,1
573,866,23,0.0532628530846547,1
573,867,23,0.05141870234558,1
574,854,23,0.0412693608685794,1
574,855,23,0.0414028098973871,1
574,861,23,0.0410178882254032,1
574,862,23,0.0419763374034368,1
574,866,23,0.0513147524619459,1
574,867,23,0.0487994150691495,1
574,868,23,0.0529960956021446,1
575,860,23,0.0429146924515148,1
575,861,23,0.0428613009451751,1
575,862,23,0.041467977272163,1
575,863,23,0.0434248773557901,1
575,867,23,0.050353575586196,1
575,868,23,0.053101499897445,1
576,858,23,0.0424120472389449,1
576,859,23,0.0452158988151638,1
576,860,23,0.0490316127026952,1
576,861,23,0.046143405249827,1
576,865,23,0.0439267115581371,1
577,857,23,0.0435653524364953,1
577,858,23,0.0476819294897764,1
577,859,23,0.0505652979149814,1
577,860,23,0.0535528162730088,1
577,861,23,0.0477369592367663,1
578,856,23,0.0442158096689201,1
578,857,23,0.0486904315153988,1
578,858,23,0.0499879559575167,1
578,859,23,0.0489493600458906,1
578,860,23,0.0498168003600799,1
578,861,23,0.0445303924242735,1
579,858,23,0.0503889680723226,1
579,859,23,0.0451837179295199,1
579,860,23,0.0437578267893243,1
579,866,23,0.0460640235692114,1
580,857,23,0.0532093155964749,1
580,858,23,0.0464956323963592,1
580,859,23,0.0413559389132394,1
580,865,23,0.0417224425430616,1
580,866,23,0.0462401425492123,1
581,856,23,0.0459036057471255,1
581,857,23,0.0449457648267591,1
581,858,23,0.0415329878516292,1
581,862,23,0.0428747474946705,1
581,863,23,0.0453813638242034,1
581,864,23,0.0467544798258287,1
581,865,23,0.0477715515261396,1
581,866,23,0.0480469651910952,1
582,833,23,0.0596894062254615,1
582,861,23,0.0448507874195575,1
582,862,23,0.0575722748520998,1
582,863,23,0.0759254199756965,1
582,864,23,0.0721811587921683,1
582,865,23,0.0593220618483749,1
582,866,23,0.0521089747732134,1
582,867,23,0.0536451633037209,1
583,839,23,0.0443188701446764,1
583,861,23,0.0521851664802857,1
583,862,23,0.0925543465519781,1
583,863,23,0.153440203718847,1
583,865,23,0.0820701254371129,1
583,866,23,0.0599117041275533,1
583,867,23,0.0604270092097023,1
584,861,23,0.0589917319778606,1
584,862,23,0.12812366534751,1
584,865,23,0.10680890012567,1
584,866,23,0.0708713448418063,1
585,840,23,0.0436265728948532,1
585,861,23,0.0546256746631842,1
585,862,23,0.10712501028361,1
585,865,23,0.10526037883304,1
586,839,23,0.0612519742151519,1
586,840,23,0.048253351072614,1
586,841,23,0.0432033174730011,1
586,842,23,0.0445125745296768,1
586,843,23,0.0485257694064798,1
586,844,23,0.0438453158688013,1
586,861,23,0.0491442025485704,1
586,862,23,0.0730932857696383,1
586,863,23,0.115336640178857,1
586,864,23,0.121758597595067,1
587,839,23,0.067361876524537,1
587,840,23,0.053317212396527,1
587,841,23,0.050320021389908,1
587,842,23,0.052495999665042,1
587,843,23,0.050679012361699,1
587,861,23,0.0452750944513319,1
587,862,23,0.0606955833551117,1
587,863,23,0.091849621922173,1
587,864,23,0.115494884493545,1
588,841,23,0.0626876245116962,1
588,842,23,0.0615178720268257,1
588,843,23,0.0498513926494532,1
588,861,23,0.0425832596070973,1
588,862,23,0.0526048480504223,1
588,863,23,0.0742614216407978,1
589,842,23,0.0928822758322327,1
589,843,23,0.0580961387954677,1
589,856,23,0.0430280581638365,1
589,857,23,0.0413616646454129,1
589,861,23,0.0413571256915322,1
589,862,23,0.0479449671387308,1
589,863,23,0.0583564081961947,1
590,843,23,0.08390089450751,1
590,856,23,0.0459427018466032,1
590,857,23,0.048890702379837,1
590,858,23,0.047228839705192,1
590,859,23,0.0437614033444072,1
590,860,23,0.042300046727165,1
590,861,23,0.044394291392037,1
590,863,23,0.0526165211908969,1
591,843,23,0.0845436849899612,1
591,856,23,0.0491251275881283,1
591,857,23,0.055420486308547,1
591,858,23,0.0562680893126846,1
591,859,23,0.0524876408530115,1
591,864,23,0.0546615159083007,1
592,842,23,0.0879213046719293,1
592,843,23,0.0624676028449633,1
592,844,23,0.0418242729866466,1
592,852,23,0.0487926025832773,1
592,853,23,0.0628760167797366,1
592,854,23,0.0635861102972173,1
592,855,23,0.0598084246790368,1
592,856,23,0.0582651533259162,1
592,857,23,0.0607143176912602,1
593,841,23,0.0565640647901577,1
593,842,23,0.0536053318883078,1
593,843,23,0.0492110460111403,1
593,844,23,0.0431178532157139,1
593,851,23,0.063577627130286,1
594,842,23,0.0447085578534034,1
594,843,23,0.0440842232602576,1
594,844,23,0.043376551959976,1
594,845,23,0.0422492774872126,1
594,846,23,0.0415971576838309,1
594,850,23,0.0459121375746703,1
595,844,23,0.0432695121273927,1
595,845,23,0.0529900562793515,1
595,848,23,0.0500232240887424,1
595,849,23,0.0505417299579045,1
595,850,23,0.0586265935485802,1
596,849,23,0.0565758136249198,1
559,851,24,0.0412961458328738,1
561,844,24,0.0446268756071223,1
562,845,24,0.0429208588325761,1
566,848,24,0.0416505708171099,1
568,835,24,0.042271501870687,1
568,837,24,0.0539411387811939,1
569,834,24,0.0459289146728143,1
569,838,24,0.0727933850026865,1
569,839,24,0.0418536288533475,1
570,839,24,0.056332764674592,1
571,833,24,0.04555895884281,1
571,839,24,0.062313927221197,1
572,833,24,0.0476878174239945,1
572,839,24,0.0546286591808044,1
572,864,24,0.0462175207707287,1
572,865,24,0.0493878029858498,1
572,866,24,0.0525982248002687,1
573,864,24,0.0441139603017633,1
573,865,24,0.0467250996288212,1
573,866,24,0.0467468184825899,1
573,867,24,0.0489197095121421,1
574,838,24,0.0418383980813618,1
574,864,24,0.045915733053325,1
574,865,24,0.0469760207850458,1
574,866,24,0.0446894450458175,1
574,867,24,0.044745085753842,1
575,833,24,0.0526343093484521,1
575,865,24,0.042611425992138,1
575,866,24,0.0433925180478971,1
575,867,24,0.0453694960412753,1
575,868,24,0.0501422371355828,1
576,833,24,0.0630676368684642,1
576,866,24,0.0433570985280965,1
576,867,24,0.048032886053626,1
577,866,24,0.0438366569829883,1
578,866,24,0.0430845531359624,1
578,867,24,0.0512734558213968,1
579,838,24,0.0440566678362515,1
579,856,24,0.0419478574277766,1
579,866,24,0.0409969938986944,1
579,867,24,0.0499419392374705,1
580,838,24,0.044921694043344,1
580,855,24,0.0409988484087374,1
580,856,24,0.0458853580171107,1
580,867,24,0.0495115144852481,1
581,866,24,0.0417451508293023,1
581,867,24,0.0486502162218135,1
582,832,24,0.0627145284241565,1
582,833,24,0.0591203257588006,1
582,862,24,0.0418799812788563,1
582,863,24,0.0516025151092286,1
582,864,24,0.0522755778999325,1
582,865,24,0.0469568268764376,1
582,866,24,0.0441768487378129,1
582,867,24,0.0480409366817718,1
583,862,24,0.0627901416106031,1
583,863,24,0.0932926037511321,1
583,864,24,0.085005436363726,1
583,865,24,0.059629250893863,1
583,866,24,0.0486945298203917,1
583,867,24,0.0512468600928211,1
583,868,24,0.0580096094114211,1
584,839,24,0.0411563655175928,1
584,861,24,0.0460779296911664,1
584,862,24,0.0848944090642136,1
584,863,24,0.135080554293263,1
584,864,24,0.118274216527359,1
584,865,24,0.0733305170733007,1
584,866,24,0.0559313146142658,1
584,867,24,0.0597866896050635,1
585,839,24,0.0466159322460865,1
585,861,24,0.0432686713801283,1
585,862,24,0.0747658537792255,1
585,863,24,0.117195800013789,1
585,864,24,0.105472733749799,1
585,865,24,0.0730384344448975,1
585,866,24,0.0643026973032158,1
585,867,24,0.0706344163152938,1
586,839,24,0.0509206771879131,1
586,862,24,0.053395983116108,1
586,863,24,0.0761482152973916,1
586,864,24,0.0791018118011633,1
586,865,24,0.0713129399081651,1
586,866,24,0.0701637546425469,1
587,838,24,0.069974567584488,1
587,839,24,0.0561450266214646,1
587,840,24,0.0448926733942019,1
587,841,24,0.0419454135836383,1
587,842,24,0.0436751064499578,1
587,862,24,0.0460150709921583,1
587,863,24,0.0621082496219395,1
587,864,24,0.0764691807031991,1
587,865,24,0.0777869479604801,1
587,868,24,0.0689058183127752,1
588,838,24,0.071117897356297,1
588,839,24,0.0623970665825119,1
588,840,24,0.0534539541268396,1
588,841,24,0.0499558507661603,1
588,842,24,0.0485997119118673,1
588,862,24,0.0426835139874825,1
588,863,24,0.0550754825597334,1
588,864,24,0.0692563909984526,1
589,841,24,0.0689899416998273,1
589,842,24,0.0602521229652402,1
589,843,24,0.0416664287703346,1
589,863,24,0.0483444653677873,1
590,842,24,0.0856945517501081,1
590,843,24,0.0540778859182413,1
590,862,24,0.0433536057774033,1
590,863,24,0.0477448909167461,1
591,843,24,0.0617182996865737,1
591,856,24,0.0412223493093264,1
591,857,24,0.0447517117073629,1
591,858,24,0.0436804293803873,1
591,859,24,0.0428253083114836,1
591,860,24,0.0445758603607356,1
591,864,24,0.0526871385543706,1
592,842,24,0.0716437834184872,1
592,843,24,0.0566488964594711,1
592,852,24,0.0419308910939139,1
592,853,24,0.0541965259003792,1
592,854,24,0.0550359485147353,1
592,855,24,0.0516654657227286,1
592,856,24,0.0492516722165718,1
592,857,24,0.0509102584099165,1
592,858,24,0.052876817625298,1
593,840,24,0.0589151672060858,1
593,841,24,0.0560678076347767,1
593,842,24,0.0546829914590026,1
593,843,24,0.0508968875547086,1
593,844,24,0.0422831750111617,1
593,851,24,0.0546619105999425,1
593,852,24,0.111207678999472,1
593,855,24,0.10991490707726,1
593,856,24,0.0721324332979776,1
594,841,24,0.047823694076736,1
594,842,24,0.0470210264456809,1
594,843,24,0.0461709741906702,1
594,844,24,0.0430530913460495,1
594,851,24,0.0978126016195809,1
595,842,24,0.0421300238406728,1
595,843,24,0.0419610958179815,1
595,844,24,0.0427355565134848,1
595,845,24,0.048391455300101,1
595,849,24,0.0441440460776648,1
595,850,24,0.0516645141374004,1
596,844,24,0.0450079341670778,1
596,850,24,0.0580663314664094,1
558,847,25,0.0423762546544417,1
559,849,25,0.0411976837850812,1
559,851,25,0.041680429510149,1
560,850,25,0.0423123957094921,1
562,845,25,0.0459121808285488,1
563,847,25,0.0448755259347228,1
563,852,25,0.0418192528333669,1
564,852,25,0.0444521029040914,1
565,848,25,0.0447472403376675,1
566,853,25,0.0416455804008718,1
568,835,25,0.0443251068132904,1
568,836,25,0.0511901866984462,1
568,837,25,0.0485627460659084,1
569,834,25,0.0474379505810596,1
569,837,25,0.0856195981853095,1
569,838,25,0.0606756325036288,1
570,838,25,0.0882239088062907,1
570,839,25,0.0469071497969187,1
571,833,25,0.0483764570177126,1
571,839,25,0.0500742906991098,1
572,833,25,0.0498643417793452,1
572,839,25,0.0432387261793321,1
572,865,25,0.0432659788261884,1
572,866,25,0.0469229482760604,1
573,834,25,0.0579948436186299,1
573,838,25,0.0579158350027168,1
573,866,25,0.0421494772725523,1
573,867,25,0.0476214335338843,1
573,868,25,0.0540497708971815,1
574,834,25,0.0504200351705937,1
574,835,25,0.0598857139532773,1
574,837,25,0.0531302799468877,1
574,867,25,0.0429911247582865,1
574,868,25,0.0481288069360536,1
575,833,25,0.0517280540849958,1
575,834,25,0.0541088827289599,1
575,837,25,0.0534963429278222,1
575,867,25,0.0425605296939174,1
575,868,25,0.0488847982254145,1
576,833,25,0.057780893715099,1
576,834,25,0.0585464008577417,1
576,837,25,0.0589570153335865,1
576,867,25,0.044635137097926,1
577,833,25,0.0742687045125993,1
577,834,25,0.0586077240440612,1
577,837,25,0.0469665535923773,1
577,867,25,0.0472163123006158,1
578,834,25,0.0678663519168432,1
578,835,25,0.0557037451457253,1
578,836,25,0.0528134074393384,1
578,837,25,0.0445917913048804,1
578,867,25,0.0470460271874849,1
579,837,25,0.0526311626287873,1
579,867,25,0.0450799248411955,1
579,868,25,0.0512749534869417,1
580,837,25,0.0539751309230023,1
580,867,25,0.0446880663284386,1
581,837,25,0.0437306444300207,1
581,867,25,0.0446973659123277,1
581,868,25,0.0542053172511953,1
582,835,25,0.0597103356959467,1
582,836,25,0.0534343168659762,1
582,837,25,0.0419536237104613,1
582,867,25,0.0435011934177632,1
582,868,25,0.0522232353001477,1
583,832,25,0.0607350038586785,1
583,833,25,0.0581276600594637,1
583,863,25,0.0504553519624328,1
583,864,25,0.0489325234736636,1
583,865,25,0.0413100654716658,1
583,867,25,0.0437465726707981,1
583,868,25,0.051703015496048,1
584,862,25,0.049720619954381,1
584,863,25,0.0676150144420375,1
584,864,25,0.0623549913721488,1
584,865,25,0.0474013794267425,1
584,866,25,0.0435218849919163,1
584,867,25,0.0492130681299627,1
585,862,25,0.0472442434926919,1
585,863,25,0.0635882405507361,1
585,864,25,0.0592726226651881,1
585,865,25,0.047980132541995,1
585,866,25,0.0489658668072937,1
585,867,25,0.0581135484815856,1
586,838,25,0.056752581413099,1
586,839,25,0.0420453868138129,1
586,863,25,0.0479867557921485,1
586,864,25,0.0493495665572084,1
586,865,25,0.0484902850058613,1
586,866,25,0.0542541941339609,1
586,867,25,0.0640298734642386,1
586,868,25,0.0680509108098969,1
587,837,25,0.0654006159092783,1
587,838,25,0.0564596066734506,1
587,839,25,0.0458284575398734,1
587,863,25,0.0420406694376831,1
587,864,25,0.0482123301755407,1
587,865,25,0.0528835652303524,1
587,866,25,0.0590897344531936,1
587,867,25,0.0653260137822428,1
587,868,25,0.0658006710320211,1
588,837,25,0.0626588769026624,1
588,838,25,0.0591476838369858,1
588,839,25,0.0519832844088713,1
588,840,25,0.0441041551881686,1
588,864,25,0.0473797200470568,1
588,868,25,0.0654015945282806,1
589,838,25,0.0648496155638528,1
589,839,25,0.0633304312143518,1
589,840,25,0.0603613065681793,1
589,841,25,0.051369776802201,1
589,842,25,0.0429518313129879,1
590,841,25,0.0713270731129825,1
590,842,25,0.0533223055407267,1
590,863,25,0.0428571134290576,1
591,842,25,0.0619457069530696,1
591,843,25,0.0457877394199499,1
592,840,25,0.0757302314419883,1
592,841,25,0.0665856802671567,1
592,842,25,0.0582751449718621,1
592,843,25,0.0494780143563083,1
592,853,25,0.0467721814756268,1
592,854,25,0.0485173943742448,1
592,855,25,0.0461481469562635,1
592,856,25,0.0437987746954776,1
592,857,25,0.044116195986611,1
592,858,25,0.0455304329099038,1
592,859,25,0.0489837090321971,1
593,840,25,0.0555302213984377,1
593,841,25,0.0533343138987601,1
593,842,25,0.0530094556438829,1
593,843,25,0.0497327256336412,1
593,851,25,0.0476040130342968,1
593,852,25,0.0908262243421236,1
593,853,25,0.119951861460941,1
593,854,25,0.11962294815495,1
593,855,25,0.0893482879725584,1
593,856,25,0.0623234755148877,1
593,857,25,0.0589140371985086,1
594,840,25,0.0469292146817159,1
594,841,25,0.046623842299127,1
594,842,25,0.0478069656392054,1
594,843,25,0.0470371925827903,1
594,844,25,0.0423588206380172,1
594,851,25,0.0826905428508822,1
594,852,25,0.178280581768127,1
595,842,25,0.042834688996395,1
595,843,25,0.0430213862530696,1
595,844,25,0.0428425909393332,1
595,845,25,0.044962679796641,1
595,846,25,0.0472456600572145,1
595,850,25,0.047980581300985,1
595,851,25,0.101103064736263,1
596,843,25,0.0432059289259188,1
596,844,25,0.0455037236398969,1
596,845,25,0.0521486385798471,1
596,849,25,0.0497753415174862,1
596,850,25,0.0558298247949745,1
597,850,25,0.0650013285428798,1
559,847,26,0.0596589987488383,1
559,848,26,0.0472386204884799,1
560,849,26,0.0422639378486749,1
560,851,26,0.0471861210933854,1
561,850,26,0.041262989031595,1
562,845,26,0.043726270381552,1
562,846,26,0.0514546571321277,1
562,847,26,0.0539824948958261,1
563,848,26,0.048900272300467,1
563,850,26,0.0410012489989971,1
564,848,26,0.0445560122372143,1
565,854,26,0.0419351732278908,1
565,855,26,0.0411283721480663,1
565,863,26,0.0561414095158706,1
566,862,26,0.0532439024791133,1
566,863,26,0.055489481651575,1
567,832,26,0.0431293019766936,1
567,833,26,0.0456718460591002,1
567,861,26,0.0437840602666671,1
567,862,26,0.0481000863606939,1
568,835,26,0.0581199987162249,1
568,836,26,0.0485428655019781,1
568,837,26,0.0413793311514347,1
569,835,26,0.0722418980511273,1
569,836,26,0.0680969545636172,1
569,837,26,0.0603638423268095,1
569,838,26,0.0456114257974955,1
570,834,26,0.0707464492674826,1
570,837,26,0.0845396083119075,1
570,838,26,0.0607833130342881,1
571,833,26,0.0524850618405027,1
571,834,26,0.0680772037613227,1
571,838,26,0.0682736412507741,1
572,832,26,0.0497030859133623,1
572,833,26,0.0499461186434857,1
572,834,26,0.0612240159894018,1
572,838,26,0.0603466867572282,1
572,866,26,0.0443388804702423,1
573,833,26,0.048476059886552,1
573,834,26,0.0511949554385567,1
573,835,26,0.063183887073812,1
573,836,26,0.0698316513630119,1
573,837,26,0.0625704821951032,1
573,838,26,0.0423042099129758,1
573,867,26,0.0467604380475995,1
574,833,26,0.0484662034089766,1
574,834,26,0.0466065083072967,1
574,835,26,0.0508449558667701,1
574,836,26,0.0503692388969673,1
574,837,26,0.0418669780816161,1
574,867,26,0.0418917706641296,1
574,868,26,0.0472017952176263,1
575,833,26,0.0512892921476822,1
575,834,26,0.0492438054174099,1
575,835,26,0.0546211600396102,1
575,836,26,0.052869313077369,1
575,868,26,0.0484030203058793,1
576,833,26,0.0551700733853954,1
576,834,26,0.0527689911127986,1
576,835,26,0.0594192587202198,1
576,836,26,0.0581463349215292,1
576,837,26,0.0419977805137298,1
576,867,26,0.0417288522271898,1
577,833,26,0.0585808417585401,1
577,834,26,0.0521173660256528,1
577,835,26,0.0523807172652268,1
577,836,26,0.0492696604233153,1
577,867,26,0.0435681233880902,1
578,833,26,0.066773002001703,1
578,834,26,0.0563308939443445,1
578,835,26,0.0515061670947503,1
578,836,26,0.0466839705970515,1
578,867,26,0.0426425552678596,1
578,868,26,0.0518949059215165,1
579,834,26,0.0590032212893514,1
579,835,26,0.0554780950680457,1
579,836,26,0.0506023502686974,1
579,837,26,0.0427825410390637,1
579,868,26,0.0476907478742665,1
579,869,26,0.055261479644249,1
580,835,26,0.058732078944903,1
580,836,26,0.0509047381336661,1
580,868,26,0.0474871897150582,1
581,835,26,0.0563728177661327,1
581,836,26,0.0456433633800726,1
581,868,26,0.0488324285919556,1
581,869,26,0.0559950870514584,1
582,835,26,0.0555302268051725,1
582,836,26,0.045114392775668,1
582,868,26,0.0480489008021605,1
583,868,26,0.0470555376340319,1
584,867,26,0.0413744542766278,1
585,838,26,0.0449643991383135,1
585,867,26,0.0479619388793283,1
585,868,26,0.0588030369326702,1
586,837,26,0.066785323950356,1
586,838,26,0.0471297883233041,1
586,866,26,0.0418736526957504,1
586,867,26,0.0544491826184808,1
586,868,26,0.0642778749836608,1
587,837,26,0.0570113909954249,1
587,838,26,0.0460223538639598,1
587,866,26,0.0484335305104641,1
587,867,26,0.0592053574773023,1
587,868,26,0.0640277053635761,1
588,837,26,0.0550430908114315,1
588,838,26,0.0489978908976278,1
588,839,26,0.0426066221082511,1
588,865,26,0.0438465404942378,1
588,868,26,0.0658746676047568,1
589,838,26,0.0577471232494182,1
589,839,26,0.0533233274136075,1
589,840,26,0.0471371522961278,1
590,838,26,0.0681627761533063,1
590,839,26,0.0686385471904573,1
590,840,26,0.0654776186265734,1
590,841,26,0.0506811209882785,1
591,840,26,0.0750639811371566,1
591,841,26,0.0597269559987809,1
591,842,26,0.0440015029208912,1
591,862,26,0.043219545787561,1
591,863,26,0.0450206048501266,1
592,840,26,0.0640270619621326,1
592,841,26,0.0556291267984855,1
592,842,26,0.0476653632542903,1
592,859,26,0.0442570116916099,1
592,860,26,0.0483943100560856,1
592,864,26,0.0498997667058806,1
593,840,26,0.0510242323799054,1
593,841,26,0.0495097897368408,1
593,842,26,0.0488390302151699,1
593,843,26,0.044678201740761,1
593,852,26,0.0634931739324099,1
593,853,26,0.0812497291225856,1
593,854,26,0.0830389744695712,1
593,855,26,0.065549284896602,1
593,856,26,0.050472004705676,1
593,857,26,0.0484354931552035,1
593,858,26,0.0537283891727929,1
593,859,26,0.0584946151516433,1
594,840,26,0.0446568992055733,1
594,841,26,0.0450695168766686,1
594,842,26,0.0464818992899184,1
594,843,26,0.0445261184003989,1
594,851,26,0.061089463986691,1
594,852,26,0.116213266535504,1
594,853,26,0.161496498122738,1
594,854,26,0.168860297930985,1
594,855,26,0.117305632424907,1
594,856,26,0.0717673489360454,1
594,857,26,0.0659008956753648,1
595,841,26,0.041258085123114,1
595,842,26,0.0426657582703362,1
595,843,26,0.0425785530444372,1
595,844,26,0.0410637778871813,1
595,851,26,0.0783207927363243,1
595,852,26,0.154139067448109,1
596,843,26,0.0451179855509554,1
596,844,26,0.0454917044683938,1
596,845,26,0.0455045184299154,1
596,846,26,0.0481437511510938,1
596,849,26,0.0437327152094565,1
596,850,26,0.0491825903657868,1
596,851,26,0.0790352224551299,1
597,844,26,0.0514692985700181,1
597,845,26,0.0489853688997866,1
597,850,26,0.0568738923222376,1
597,851,26,0.0867815541585706,1
598,845,26,0.0566717723544911,1
598,850,26,0.0680022772301981,1
599,849,26,0.060823122822762,1
555,845,27,0.0425869415935092,1
556,845,27,0.0464873979392295,1
559,847,27,0.0547606916450895,1
559,848,27,0.0445542631585003,1
560,847,27,0.0646979350252347,1
560,848,27,0.0492847343999913,1
560,851,27,0.0435293949465802,1
560,858,27,0.0444113766740657,1
561,846,27,0.0631566317235883,1
561,847,27,0.0583372845751392,1
561,848,27,0.0464304920552574,1
561,851,27,0.0446000203552752,1
561,858,27,0.0475981845741617,1
562,846,27,0.0433151909265128,1
562,847,27,0.0441351871426635,1
562,848,27,0.04152758111681,1
562,853,27,0.0419153926885547,1
565,841,27,0.041381610090161,1
565,862,27,0.0490414962139448,1
565,863,27,0.0485920073147499,1
566,832,27,0.042965764468617,1
566,833,27,0.0452313215262356,1
566,861,27,0.044409676255965,1
566,862,27,0.0472397559027919,1
566,863,27,0.0493487068863721,1
567,862,27,0.044280679673281,1
568,836,27,0.0478442504825186,1
568,862,27,0.0415554149876592,1
569,836,27,0.0532830202055303,1
570,835,27,0.0781290536994307,1
570,836,27,0.0602633689736642,1
570,837,27,0.0500243595030545,1
571,834,27,0.0688092540289041,1
571,835,27,0.0674254921664198,1
571,836,27,0.0655904301485762,1
571,837,27,0.0581959579336999,1
572,832,27,0.0590477457505876,1
572,833,27,0.0564176341910491,1
572,834,27,0.0533502529530072,1
572,835,27,0.057376356409191,1
572,836,27,0.0603420099316096,1
572,837,27,0.0538409790186681,1
572,866,27,0.0445923481985668,1
573,832,27,0.0586935451458465,1
573,833,27,0.0503940558097874,1
573,834,27,0.0476325119335288,1
573,835,27,0.0479109533699832,1
573,836,27,0.0467330691559447,1
573,867,27,0.0470307693818251,1
574,833,27,0.0494014603980032,1
574,834,27,0.0454585449637476,1
574,835,27,0.0421938990058269,1
574,867,27,0.0421708852390689,1
574,868,27,0.0488180845244803,1
574,869,27,0.0559984878876596,1
575,833,27,0.051960354446503,1
575,834,27,0.0459194312599414,1
575,835,27,0.0419756399346451,1
575,868,27,0.0502365414042995,1
575,869,27,0.0612276439084654,1
576,833,27,0.0544657001933535,1
576,834,27,0.0475469395415452,1
576,835,27,0.0439262573924123,1
576,868,27,0.0558795397216371,1
577,833,27,0.054968250788064,1
577,834,27,0.0493846941133288,1
577,835,27,0.0442960077664934,1
577,868,27,0.055558893313184,1
577,870,27,0.0653351944179659,1
578,833,27,0.0550503250226196,1
578,834,27,0.0517451015198807,1
578,835,27,0.0465070352000929,1
578,868,27,0.0497401869276917,1
578,869,27,0.0575784871904071,1
578,870,27,0.0570548178894927,1
579,833,27,0.0567175511782054,1
579,834,27,0.05440494471419,1
579,835,27,0.0482233491011022,1
579,868,27,0.0442824747092409,1
579,869,27,0.051797487373544,1
579,870,27,0.0538510139184926,1
580,834,27,0.0561354567008346,1
580,835,27,0.0483878706349159,1
580,868,27,0.0421747429443625,1
580,869,27,0.0502959073526144,1
580,870,27,0.0537455771827832,1
581,835,27,0.0477345045791584,1
581,868,27,0.0431373255711653,1
581,869,27,0.0514634484829437,1
582,835,27,0.0486214740195146,1
582,868,27,0.0435640223797298,1
583,834,27,0.0574305913661625,1
583,835,27,0.05252461751244,1
583,836,27,0.0427844820568638,1
584,833,27,0.0568762550653536,1
584,837,27,0.0410347869750807,1
585,837,27,0.0499296821696353,1
585,868,27,0.0516273698691925,1
586,836,27,0.0594939635752168,1
586,837,27,0.0487527657611294,1
586,867,27,0.0454890822020065,1
586,868,27,0.0578258777487948,1
587,836,27,0.0527933484531591,1
587,837,27,0.0448285549259809,1
587,866,27,0.0410200752496376,1
587,867,27,0.0535684958039845,1
587,868,27,0.0627662600629067,1
588,837,27,0.0457385759802389,1
589,837,27,0.0522836501550176,1
589,838,27,0.0473296050220175,1
589,839,27,0.0415374970684684,1
590,838,27,0.0576685309520862,1
590,839,27,0.052936929703018,1
590,840,27,0.0451173745899208,1
591,838,27,0.0629972628080574,1
591,839,27,0.0585907955573422,1
591,840,27,0.0523430377302718,1
591,841,27,0.0422259933837137,1
591,863,27,0.0411550841214406,1
592,839,27,0.05738461249326,1
592,840,27,0.0508300278719343,1
592,841,27,0.044878734831838,1
592,860,27,0.0417314204262289,1
592,861,27,0.0462132440434868,1
592,862,27,0.0491032411255801,1
592,863,27,0.0494741701678519,1
592,864,27,0.0503685252079711,1
593,839,27,0.0530438911379464,1
593,840,27,0.0462638835218035,1
593,841,27,0.0451122895558233,1
593,842,27,0.0435124015790434,1
593,853,27,0.0488980068785778,1
593,854,27,0.0512777109216995,1
593,855,27,0.0448208232951895,1
593,858,27,0.0420936500321766,1
593,859,27,0.0478708624312988,1
593,860,27,0.0516601238687272,1
594,839,27,0.0500643531205121,1
594,840,27,0.0436024237137832,1
594,841,27,0.0441660325648071,1
594,842,27,0.0444776740564188,1
594,843,27,0.0411359172465065,1
594,851,27,0.0414174134881338,1
594,852,27,0.0651275758009083,1
594,853,27,0.0855530088392761,1
594,854,27,0.0892875270866601,1
594,855,27,0.0681554175872173,1
594,856,27,0.0504238955792546,1
594,857,27,0.0478286520525652,1
594,858,27,0.0523791222784551,1
594,861,27,0.0587785173902651,1
595,841,27,0.0424414869100355,1
595,842,27,0.0435410248331763,1
595,843,27,0.0431467630267922,1
595,851,27,0.0541256219799601,1
595,852,27,0.0892343896968569,1
595,853,27,0.122197451446873,1
595,854,27,0.12927143945534,1
595,855,27,0.0964200862534243,1
595,856,27,0.0671448069350155,1
595,857,27,0.0605543324079599,1
596,842,27,0.0439976695459043,1
596,843,27,0.0467231640177559,1
596,844,27,0.0465404758549497,1
596,845,27,0.0441804631400395,1
596,846,27,0.0439436778919997,1
596,850,27,0.0420306453513283,1
596,851,27,0.0599116716871443,1
596,852,27,0.0891970615996651,1
596,853,27,0.114531988276123,1
597,844,27,0.0529554477697738,1
597,845,27,0.0480681866252606,1
597,850,27,0.0488537040934692,1
597,851,27,0.0625518127397725,1
597,852,27,0.0818479032293086,1
598,845,27,0.0577176619513884,1
598,850,27,0.056377743301553,1
598,851,27,0.0681727245453736,1
599,849,27,0.0550552829984488,1
599,850,27,0.0604041333146823,1
555,844,28,0.0499986558857239,1
555,845,28,0.0552987050134792,1
555,846,28,0.0427154272397529,1
556,844,28,0.0515598938186488,1
556,845,28,0.0559012315417317,1
556,846,28,0.0425135127279296,1
558,855,28,0.0412194999600767,1
559,847,28,0.0482347897519797,1
559,848,28,0.0411518563007536,1
559,853,28,0.0435454394321562,1
559,857,28,0.044214706695017,1
560,846,28,0.0594876322887435,1
560,847,28,0.0526131582018394,1
560,848,28,0.0428333616429968,1
560,852,28,0.0418016322845911,1
560,858,28,0.0445812292484111,1
561,845,28,0.0449777375531125,1
561,846,28,0.0480014567041219,1
561,847,28,0.0447078468677747,1
561,852,28,0.0417940601524768,1
561,858,28,0.0478907970625772,1
562,841,28,0.0479496818114932,1
562,857,28,0.0482159202474606,1
563,857,28,0.0418216453135244,1
564,841,28,0.0638826264481723,1
564,862,28,0.0462974052776826,1
564,863,28,0.0421995436369782,1
565,839,28,0.0413220143556163,1
565,840,28,0.0472558950062273,1
565,861,28,0.0451456977702712,1
565,862,28,0.0432050962887567,1
565,863,28,0.0418072228483942,1
566,862,28,0.0421408643439853,1
566,863,28,0.0434742624716287,1
569,836,28,0.0464962595775982,1
570,836,28,0.0423378722439602,1
571,835,28,0.0513051825413159,1
571,865,28,0.0422072644543,1
571,866,28,0.0500572648911642,1
572,834,28,0.0495661116934525,1
572,866,28,0.0426843331078076,1
572,867,28,0.0538095388556944,1
573,832,28,0.0594657350127257,1
573,833,28,0.0489604546657397,1
573,834,28,0.0416368593376084,1
573,867,28,0.0461595443532624,1
573,868,28,0.054712468977237,1
574,833,28,0.0461170690445227,1
574,867,28,0.0413388725547826,1
574,868,28,0.0477805591463484,1
575,833,28,0.049230942795275,1
575,868,28,0.0498735170083334,1
575,869,28,0.0584103025288726,1
576,833,28,0.0527428225162736,1
576,834,28,0.0432789198459781,1
576,868,28,0.0530468972825059,1
576,869,28,0.0635167527029565,1
577,833,28,0.0540023700530215,1
577,834,28,0.0478501276032671,1
577,868,28,0.0513188886140826,1
577,869,28,0.0610555096920263,1
577,870,28,0.0606226356889309,1
578,833,28,0.0519382138674184,1
578,834,28,0.0500669050993468,1
578,835,28,0.0421644025640207,1
578,868,28,0.0450817388007274,1
578,869,28,0.0530441398477481,1
578,870,28,0.0534405670514272,1
579,833,28,0.0517975144072181,1
579,834,28,0.0506234906018405,1
579,835,28,0.0427261785319409,1
579,869,28,0.0468830519798295,1
580,833,28,0.0533280258661654,1
580,834,28,0.050478941546449,1
580,869,28,0.0444912017069365,1
581,834,28,0.0515864408866111,1
581,869,28,0.0463263907830483,1
582,834,28,0.0529637417009865,1
582,835,28,0.0409907815603871,1
583,833,28,0.0564341409524521,1
583,834,28,0.053711341737908,1
583,835,28,0.0448887832484995,1
584,832,28,0.0566016253769467,1
584,833,28,0.0545019847907252,1
584,834,28,0.0556620700337389,1
584,835,28,0.0511864073908075,1
584,868,28,0.0419015947012961,1
585,833,28,0.0547235690038208,1
585,834,28,0.0560833898445257,1
585,835,28,0.0544551786873953,1
585,836,28,0.0466091792342974,1
585,868,28,0.0454208978692015,1
586,835,28,0.0531544372380599,1
586,836,28,0.0462420132794598,1
586,868,28,0.0527315332539711,1
587,835,28,0.0533261443224483,1
587,836,28,0.0453195242947087,1
587,867,28,0.0503738400282984,1
588,836,28,0.0514672710444609,1
589,837,28,0.0456372159225832,1
590,837,28,0.0536230119111666,1
590,838,28,0.0482504098088724,1
591,837,28,0.0590732655389342,1
591,838,28,0.0553196615176385,1
591,839,28,0.0469273547649381,1
591,864,28,0.0432428974752452,1
592,838,28,0.0581489896283255,1
592,839,28,0.0492870971431073,1
592,862,28,0.0422575308679142,1
592,863,28,0.0462566925644939,1
592,864,28,0.0502190830575682,1
593,838,28,0.0554636050187302,1
593,839,28,0.0482574385641373,1
593,840,28,0.0415645118189926,1
593,860,28,0.0446173137965945,1
593,861,28,0.049067897300067,1
593,862,28,0.0512986512056543,1
594,839,28,0.0470785108502787,1
594,840,28,0.0421638159332928,1
594,841,28,0.0424513055404672,1
594,842,28,0.0420674679188145,1
594,853,28,0.043305285788324,1
594,854,28,0.0466438255910188,1
594,855,28,0.0428567809148662,1
594,861,28,0.056750726903056,1
595,840,28,0.0423101411010725,1
595,841,28,0.0434069999871103,1
595,842,28,0.0446064192259338,1
595,843,28,0.043311700879187,1
595,852,28,0.0489976854417047,1
595,853,28,0.0583589385480901,1
595,854,28,0.060713755390839,1
595,855,28,0.0540783671176403,1
595,856,28,0.0485048669696687,1
595,857,28,0.0465880929685024,1
596,842,28,0.0442623400287742,1
596,843,28,0.0465648656357191,1
596,844,28,0.0450544591201971,1
596,845,28,0.041304199164387,1
596,851,28,0.0440391662356418,1
596,852,28,0.055496029207441,1
596,853,28,0.0626326866791982,1
596,854,28,0.0641629278014045,1
596,855,28,0.0604284311809598,1
596,856,28,0.0595086753006599,1
596,857,28,0.0611946790462727,1
597,843,28,0.0537175108223367,1
597,844,28,0.0502259442040538,1
597,845,28,0.045512185179889,1
597,850,28,0.0410193101966607,1
597,851,28,0.0475708589363854,1
597,852,28,0.0564675978275134,1
597,853,28,0.0618854705204488,1
598,844,28,0.0932086479728594,1
598,845,28,0.0550369109135332,1
598,850,28,0.0488230425003095,1
598,851,28,0.0527019259741011,1
598,852,28,0.0595606448357421,1
599,849,28,0.0510731417030799,1
599,850,28,0.0544183101626631,1
599,851,28,0.0596789766339953,1
554,844,29,0.0434141909444199,1
554,845,29,0.048273658768595,1
555,844,29,0.0577720969575481,1
555,845,29,0.0650675069770669,1
555,846,29,0.0480455324063681,1
556,844,29,0.0559234694420431,1
556,845,29,0.0610636306077248,1
556,846,29,0.0457520387499387,1
557,845,29,0.0486583155105727,1
558,846,29,0.0418245757637965,1
559,853,29,0.0418765182652046,1
559,854,29,0.0495055021961292,1
559,856,29,0.0477523305838573,1
559,857,29,0.0416703216194045,1
560,846,29,0.0443477177783043,1
560,853,29,0.0490834903232855,1
560,857,29,0.0471297829165692,1
560,858,29,0.0422030850482847,1
560,859,29,0.0436791723145419,1
561,853,29,0.0466829325039662,1
561,857,29,0.0478352320488402,1
561,858,29,0.0441409534253482,1
561,859,29,0.0479710654477032,1
562,839,29,0.045141921166,1
562,840,29,0.0470431994651744,1
562,854,29,0.0441206592462043,1
562,855,29,0.051121526572977,1
562,856,29,0.0474734944557611,1
562,857,29,0.0429961476149336,1
562,858,29,0.0447329692611122,1
563,838,29,0.0432278451255085,1
563,839,29,0.0599783096937911,1
563,841,29,0.0488446856597908,1
563,858,29,0.0432358768300824,1
563,862,29,0.0457736116218673,1
564,839,29,0.0504069941262098,1
564,840,29,0.0581709571918959,1
564,861,29,0.0453455685363329,1
564,862,29,0.0426739819139962,1
568,836,29,0.0487301602028503,1
569,836,29,0.0464002143402698,1
570,866,29,0.0479649233969485,1
570,867,29,0.0511739610872537,1
571,835,29,0.0460962314885295,1
571,866,29,0.0454469529242952,1
571,867,29,0.0556387778201377,1
572,834,29,0.0494584636032021,1
572,867,29,0.0524833370920954,1
572,868,29,0.0656938880193418,1
573,832,29,0.0597964812018211,1
573,833,29,0.0471545836091849,1
573,867,29,0.0456806806637948,1
573,868,29,0.0544828016955866,1
574,833,29,0.0432633538564336,1
574,867,29,0.0410732369697475,1
574,868,29,0.0485743975794437,1
575,833,29,0.0464128120323985,1
575,868,29,0.0501133111043001,1
576,833,29,0.0505644977182281,1
576,868,29,0.0507348693391162,1
577,833,29,0.0524960375121857,1
577,834,29,0.0427641121834324,1
577,868,29,0.0479865557429602,1
577,869,29,0.0558446987224621,1
578,833,29,0.0503462656807205,1
578,834,29,0.0445950461592416,1
578,868,29,0.0426245616543813,1
578,869,29,0.0505584421752306,1
579,833,29,0.0477817215943345,1
579,834,29,0.043615153870915,1
579,869,29,0.045168552038352,1
580,833,29,0.0474745595825205,1
580,834,29,0.042980105832725,1
580,869,29,0.0424624001603162,1
581,833,29,0.0499033784047399,1
581,834,29,0.043914659946225,1
581,869,29,0.0442851564497113,1
582,834,29,0.0458301985084852,1
582,869,29,0.0486614622302375,1
583,833,29,0.0508417496730223,1
583,834,29,0.0464646626193147,1
584,832,29,0.0546993197981566,1
584,833,29,0.0500722307331437,1
584,834,29,0.0479310015426928,1
584,868,29,0.0421766109712425,1
585,833,29,0.0512868699304832,1
585,834,29,0.0490068660774277,1
585,835,29,0.0435219877198778,1
585,868,29,0.0438949713213809,1
585,869,29,0.0561211450737682,1
586,834,29,0.0503618587039391,1
586,835,29,0.0454972842187273,1
586,868,29,0.0490910381250932,1
587,833,29,0.0535989140940774,1
587,834,29,0.0519803539585993,1
587,835,29,0.0476862224372228,1
587,867,29,0.0490033138526515,1
588,833,29,0.0572912057425233,1
588,835,29,0.059765592525799,1
588,836,29,0.0458101827761844,1
588,866,29,0.0440466113094878,1
589,836,29,0.0568438687237865,1
590,837,29,0.045957543333682,1
591,836,29,0.0571817139556995,1
591,837,29,0.0505194812441234,1
591,838,29,0.0466933296550235,1
592,836,29,0.052416477409321,1
592,837,29,0.0522062527460806,1
592,838,29,0.0507387405612468,1
592,839,29,0.0434127689731624,1
592,863,29,0.0431955777321074,1
592,864,29,0.0492995542601307,1
593,837,29,0.0489408985058986,1
593,838,29,0.0494985275082124,1
593,839,29,0.0440324645878334,1
593,861,29,0.0411531214767013,1
593,862,29,0.0449035057874122,1
594,838,29,0.0472735101482682,1
594,839,29,0.0436914564160511,1
594,859,29,0.0416475268254067,1
594,860,29,0.0487169948035655,1
594,861,29,0.05099209474814,1
595,841,29,0.0442894142533814,1
595,842,29,0.0461751319697462,1
595,843,29,0.0446033157601476,1
595,858,29,0.0439946228508337,1
596,842,29,0.0463889358914369,1
596,843,29,0.0483938612970956,1
596,844,29,0.0466089683716394,1
596,845,29,0.0427440910443969,1
596,853,29,0.0433015983951773,1
596,854,29,0.044046276091929,1
596,855,29,0.0449542101465467,1
596,856,29,0.0470364031995067,1
596,857,29,0.0506667823275379,1
596,858,29,0.0588211224606405,1
596,861,29,0.0562588492028786,1
597,843,29,0.0543224703812578,1
597,844,29,0.0523760620665475,1
597,845,29,0.0478056788363184,1
597,846,29,0.0457137752876232,1
597,852,29,0.0449643504777002,1
597,853,29,0.0487240127453609,1
597,854,29,0.0511327509544617,1
597,855,29,0.0533854237630061,1
597,856,29,0.0560016400140592,1
597,857,29,0.0601544989613446,1
597,858,29,0.0662121559921717,1
598,844,29,0.087573597555706,1
598,845,29,0.0562130541589599,1
598,850,29,0.0437510359303914,1
598,851,29,0.0453869219475976,1
598,852,29,0.0503284072356126,1
598,853,29,0.0561345267424457,1
599,846,29,0.0456654877389528,1
599,849,29,0.0501612850623509,1
599,850,29,0.049613047558418,1
599,851,29,0.0511312695091212,1
599,852,29,0.0553950259942834,1
554,844,30,0.0476749602085944,1
554,845,30,0.0540684349457774,1
554,846,30,0.0422988004747892,1
555,843,30,0.0434644141041555,1
555,844,30,0.060267023926402,1
555,845,30,0.0659433817975741,1
555,846,30,0.0491052091770543,1
556,843,30,0.045075499428746,1
556,844,30,0.0559840356854879,1
556,845,30,0.0577155208843999,1
556,846,30,0.0454717752438502,1
557,845,30,0.0448127753704111,1
559,854,30,0.0430891299369869,1
559,855,30,0.0437667776388175,1
559,856,30,0.041496192317817,1
560,853,30,0.0435276810116425,1
560,854,30,0.0517979847931474,1
560,856,30,0.0458415256179314,1
561,854,30,0.0480529504465401,1
561,855,30,0.0482191048142691,1
561,856,30,0.0436555448833819,1
561,859,30,0.0417010075428709,1
561,860,30,0.0431528645270357,1
562,859,30,0.0436922268757628,1
562,861,30,0.0444588694327176,1
563,860,30,0.0426426390722493,1
563,861,30,0.0420401612046101,1
568,836,30,0.0425120583162632,1
569,866,30,0.0435294273869891,1
570,866,30,0.0420660513542919,1
572,834,30,0.0459953796639468,1
572,867,30,0.050645696061743,1
573,831,30,0.0647780628352554,1
573,832,30,0.0529841953788075,1
573,867,30,0.0442750053050882,1
574,832,30,0.0577131959884277,1
575,868,30,0.0482226245986364,1
576,833,30,0.0445846111610405,1
576,868,30,0.0478172762825056,1
577,833,30,0.0474046072474296,1
577,868,30,0.0448982909916791,1
578,832,30,0.0604911493048626,1
578,833,30,0.0458076524242891,1
579,832,30,0.0521936388337474,1
579,833,30,0.042146076436351,1
580,832,30,0.0465294028620399,1
581,833,30,0.0418389955255593,1
581,869,30,0.0422311487053638,1
582,833,30,0.0433579473854631,1
582,869,30,0.0463368690351279,1
583,832,30,0.0484713235868504,1
583,833,30,0.0434478857158132,1
583,869,30,0.0508546393288313,1
584,831,30,0.0523970780447897,1
584,832,30,0.0498201417221982,1
584,833,30,0.0445221363402046,1
584,868,30,0.0428923896703855,1
584,869,30,0.0537079949690549,1
585,832,30,0.053615583057525,1
585,833,30,0.0468104341244727,1
585,834,30,0.0423965272066464,1
585,868,30,0.0432111247980801,1
586,833,30,0.0489511658953203,1
586,834,30,0.044855245272416,1
586,868,30,0.0444415813981332,1
587,833,30,0.0491780324883342,1
587,834,30,0.0465130042353333,1
587,835,30,0.0418848284166217,1
587,867,30,0.0445472668436442,1
588,832,30,0.0527627355206128,1
588,833,30,0.0503972511900656,1
588,834,30,0.0524446140573202,1
588,835,30,0.0505685419558729,1
589,833,30,0.0528071896942963,1
589,835,30,0.0627201892755122,1
589,836,30,0.0472872216277698,1
590,836,30,0.051515207155368,1
590,865,30,0.0421095512392798,1
591,835,30,0.0569658014074293,1
591,836,30,0.0481129760165029,1
591,837,30,0.0421174180384418,1
592,836,30,0.044886450242425,1
592,837,30,0.0443056668982479,1
592,838,30,0.0436571371667862,1
592,864,30,0.0459226536738936,1
593,837,30,0.0433230712425118,1
593,838,30,0.0444548035681336,1
593,863,30,0.0481538779654102,1
594,860,30,0.0419266846542246,1
594,861,30,0.0442476093797593,1
594,862,30,0.0476496512829057,1
595,840,30,0.0418283794017418,1
595,841,30,0.0454216439986065,1
595,842,30,0.0475680960948928,1
595,843,30,0.0451935446700538,1
595,859,30,0.0457208743304408,1
595,860,30,0.052277924422844,1
595,861,30,0.0528532388547515,1
596,841,30,0.0452320838758451,1
596,842,30,0.047414853009912,1
596,843,30,0.048640570606896,1
596,844,30,0.0471790220505678,1
596,845,30,0.0441850696781055,1
596,857,30,0.0420302749899932,1
596,858,30,0.0500950904079593,1
596,859,30,0.0562242136596268,1
596,860,30,0.0569153025042179,1
596,861,30,0.0539693781571547,1
597,843,30,0.052399462414845,1
597,844,30,0.0523794412758095,1
597,845,30,0.0492381175323801,1
597,846,30,0.0453634188713385,1
597,847,30,0.0431038713994715,1
597,854,30,0.0423498806019936,1
597,855,30,0.0444783093477601,1
597,856,30,0.0449654074943573,1
597,857,30,0.0492635075590911,1
597,858,30,0.0585223949551444,1
597,859,30,0.0621349372650071,1
597,860,30,0.0576665953410209,1
598,844,30,0.0750347415152543,1
598,845,30,0.0545964566682212,1
598,846,30,0.047162834286519,1
598,849,30,0.0443183051408878,1
598,852,30,0.0442068236756506,1
598,853,30,0.049388754571178,1
598,854,30,0.0542334863396033,1
598,855,30,0.0558632330094223,1
598,856,30,0.0522093453983972,1
598,858,30,0.0586036419592727,1
599,847,30,0.0476258562429664,1
599,848,30,0.0512062771412681,1
599,849,30,0.0490245406935517,1
599,852,30,0.0483395127986929,1
599,853,30,0.0536382156494782,1
554,845,31,0.0524817421053237,1
555,844,31,0.0560953333217413,1
555,845,31,0.0578789178173712,1
555,846,31,0.0465680069486491,1
555,847,31,0.0411187373466185,1
556,844,31,0.054856704442009,1
556,845,31,0.0519672264064583,1
556,846,31,0.045917409141119,1
556,847,31,0.0452586201303378,1
557,845,31,0.0421149255336901,1
570,835,31,0.0572329049209678,1
572,834,31,0.0432363499193791,1
573,831,31,0.0531118267609497,1
573,832,31,0.0477844519954182,1
573,867,31,0.0413497914557499,1
574,832,31,0.0463717695083859,1
575,832,31,0.0543094617772828,1
576,868,31,0.0447522550842123,1
577,832,31,0.0574437405452428,1
577,868,31,0.0429781891452316,1
578,832,31,0.0517938270140714,1
579,832,31,0.0446375809420643,1
583,831,31,0.0455139585889097,1
583,832,31,0.0424747464392758,1
584,830,31,0.0422766598957045,1
584,831,31,0.0463502831442144,1
584,832,31,0.0445745870746857,1
584,868,31,0.0423987304510852,1
585,831,31,0.046419916481951,1
585,832,31,0.0465148479319066,1
585,833,31,0.0431481255239667,1
585,868,31,0.0423506105111942,1
586,832,31,0.0487581779026834,1
586,833,31,0.0457157487458322,1
586,834,31,0.0411768354156183,1
586,868,31,0.0427453400001401,1
587,832,31,0.0488692106089307,1
587,833,31,0.0456948246820818,1
587,834,31,0.0430491309127944,1
587,867,31,0.0427552883922075,1
588,833,31,0.0453743134419992,1
588,834,31,0.0455626192022826,1
588,835,31,0.041982806561648,1
589,833,31,0.0444335794306008,1
589,834,31,0.047741333285235,1
589,835,31,0.0468808514387581,1
590,834,31,0.0492816579678792,1
590,835,31,0.0497263186528804,1
590,836,31,0.0424200843502536,1
591,835,31,0.0463943642531954,1
591,836,31,0.0418288849314474,1
591,865,31,0.0443649166017642,1
592,864,31,0.0415909372354214,1
593,838,31,0.0420493418403332,1
593,863,31,0.0431159365282205,1
593,864,31,0.0494273586577872,1
594,862,31,0.0433283995796761,1
594,863,31,0.0517228798397738,1
595,840,31,0.0414998716008615,1
595,841,31,0.0449083583319124,1
595,842,31,0.0455999527062092,1
595,843,31,0.0433805826807837,1
595,860,31,0.0444183162182061,1
595,861,31,0.0467448882782595,1
595,862,31,0.0501963855847972,1
596,841,31,0.0455662146809373,1
596,842,31,0.0461744399076893,1
596,843,31,0.0469012780829051,1
596,844,31,0.0460009594142802,1
596,845,31,0.0431013302341064,1
596,858,31,0.0410244330779019,1
596,859,31,0.0468266489221955,1
596,860,31,0.0503788736984151,1
596,861,31,0.05095785389653,1
597,843,31,0.0494905904214978,1
597,844,31,0.0503513101643068,1
597,845,31,0.047964252961831,1
597,846,31,0.0420311671012384,1
597,857,31,0.0410441919902987,1
597,858,31,0.0490744232289937,1
597,859,31,0.0532112674277446,1
597,860,31,0.0526367477858556,1
598,845,31,0.0503835451172989,1
598,846,31,0.0448090933839992,1
598,847,31,0.0464866572165593,1
598,848,31,0.0475790555463713,1
598,849,31,0.0415122557269649,1
598,853,31,0.0430890299123927,1
598,854,31,0.0461482442774902,1
598,855,31,0.0462618073356329,1
599,848,31,0.0493118491751096,1
599,849,31,0.046584546150461,1
599,853,31,0.0483833397911374,1
599,854,31,0.0524988922681702,1
555,844,32,0.0484071997118946,1
555,845,32,0.0477262484950894,1
555,846,32,0.0422858513448972,1
556,845,32,0.0460331781470679,1
556,846,32,0.0444816696334502,1
556,847,32,0.044743158252879,1
569,835,32,0.0555835372104899,1
570,835,32,0.0412199595325363,1
573,830,32,0.0464445063119087,1
573,831,32,0.0463957105301654,1
573,832,32,0.044235865951732,1
574,831,32,0.0506773741210487,1
575,832,32,0.0442746484605901,1
576,832,32,0.0467380757923873,1
577,832,32,0.0472393233640064,1
578,831,32,0.0526929021336879,1
578,832,32,0.0436227719602753,1
583,869,32,0.0420907033617001,1
585,832,32,0.041057506074791,1
586,832,32,0.0425795641038484,1
586,833,32,0.0422560980831871,1
587,832,32,0.0423373802310916,1
587,833,32,0.0417915352073163,1
589,866,32,0.0430015732733246,1
590,866,32,0.0487251914135515,1
591,865,32,0.0418734959004406,1
591,866,32,0.0524964754577061,1
592,865,32,0.0478251917422809,1
593,864,32,0.0465091167929983,1
594,839,32,0.0413710507370591,1
594,840,32,0.0434667498135974,1
594,841,32,0.0427696432731525,1
594,862,32,0.0417342075980282,1
594,863,32,0.0489054789860979,1
595,840,32,0.0434076325750842,1
595,841,32,0.0451297830463309,1
595,842,32,0.0432771329201204,1
595,843,32,0.0417490382716373,1
595,861,32,0.0434187244915658,1
595,862,32,0.0488097148989801,1
596,842,32,0.0462495664880022,1
596,843,32,0.046221970513485,1
596,844,32,0.0449783295905752,1
596,860,32,0.0457160731499213,1
596,861,32,0.0494797823585942,1
597,844,32,0.050073030929897,1
597,845,32,0.0463709152442845,1
598,848,32,0.0433737728982789,1
556,846,33,0.041575833521704,1
571,834,33,0.0444951486233545,1
576,828,33,0.0488939085735848,1
577,831,33,0.0491600496883255,1
578,831,33,0.0460725716169606,1
582,869,33,0.041623518219442,1
583,868,33,0.0409864480624295,1
583,869,33,0.0415922726989218,1
588,867,33,0.0507226068645462,1
590,866,33,0.0446225799563084,1
591,866,33,0.0487999557426315,1
593,839,33,0.0464440413327143,1
593,840,33,0.0521639882999989,1
593,841,33,0.0440230163187368,1
594,839,33,0.0497232908813817,1
594,840,33,0.0582676512374026,1
594,841,33,0.0514736131444039,1
595,839,33,0.0448379707546686,1
595,840,33,0.050490603873454,1
595,841,33,0.049070887224422,1
595,842,33,0.044815751777929,1
595,843,33,0.044279676723972,1
595,861,33,0.0409951610155907,1
595,862,33,0.0457902048910275,1
596,842,33,0.0509908728260709,1
596,843,33,0.0495511674784122,1
596,844,33,0.0463002708471367,1
596,861,33,0.0474207355373953,1
597,844,33,0.0514291805976596,1
566,863,34,0.0429148762804986,1
566,864,34,0.0417651368245615,1
567,863,34,0.0415815403303057,1
567,864,34,0.0415092576925077,1
576,829,34,0.043803397453748,1
577,829,34,0.0425050511879375,1
577,830,34,0.0445372508673917,1
578,830,34,0.0445085005549905,1
578,831,34,0.0420591929111737,1
582,868,34,0.044102111442407,1
583,868,34,0.0462177857007349,1
588,867,34,0.0422684470655141,1
590,866,34,0.0415234909219192,1
593,839,34,0.0559013180494888,1
593,840,34,0.0693956306402517,1
593,841,34,0.0551032569564997,1
594,838,34,0.0414266292676331,1
594,839,34,0.0613035220249182,1
594,840,34,0.0784175084087703,1
594,841,34,0.0645757752587296,1
594,842,34,0.0451588253224122,1
595,839,34,0.049828370772593,1
595,840,34,0.0600957493807991,1
595,841,34,0.055633657642264,1
595,842,34,0.0494984626273946,1
595,843,34,0.049969497364844,1
595,844,34,0.0455197654221055,1
596,840,34,0.0498918728730446,1
596,843,34,0.0586377800829211,1
596,844,34,0.0516794583524407,1
565,862,35,0.0426576157276985,1
566,862,35,0.0522607364128538,1
566,863,35,0.0609429685067645,1
567,862,35,0.0483944073773123,1
567,863,35,0.0576108897521786,1
567,864,35,0.0495915990413902,1
568,863,35,0.0418159655385969,1
577,830,35,0.0421655217581283,1
578,830,35,0.0423191703482205,1
583,867,35,0.0420218810341864,1
583,868,35,0.0506179703255901,1
592,839,35,0.0438017051457496,1
592,840,35,0.0462919390687803,1
593,838,35,0.0423218169449145,1
593,839,35,0.0596863243866146,1
593,840,35,0.0760904227089091,1
593,841,35,0.0598641789284924,1
594,838,35,0.0446741277660747,1
594,839,35,0.0665177770845623,1
594,840,35,0.0883470147513892,1
594,841,35,0.0732766497742969,1
594,842,35,0.0514745431027928,1
594,843,35,0.0427602031141581,1
595,839,35,0.0521683947888765,1
595,840,35,0.0655429049495154,1
595,841,35,0.0614619501685906,1
595,842,35,0.055122596846948,1
595,843,35,0.0528499461532466,1
595,844,35,0.046109164398217,1
596,840,35,0.0511546374170099,1
596,841,35,0.0589022559233375,1
596,843,35,0.0662170058333046,1
565,862,36,0.0476072084145749,1
565,863,36,0.0561611495046955,1
566,862,36,0.0670136071078926,1
566,863,36,0.0805024372695487,1
566,864,36,0.0625460707873945,1
567,862,36,0.0630801858999796,1
567,863,36,0.0746656723897604,1
567,864,36,0.0574361440828218,1
568,862,36,0.0422296131926752,1
568,863,36,0.0495509241753453,1
568,864,36,0.042732125940242,1
583,867,36,0.0436530334550584,1
592,838,36,0.0413314166674669,1
592,839,36,0.0485655251276054,1
592,840,36,0.0504102327603665,1
593,839,36,0.057175182620038,1
593,840,36,0.0710877277760058,1
593,841,36,0.0580123452192396,1
593,842,36,0.0412960376981774,1
594,838,36,0.0447974418704638,1
594,839,36,0.0627799499154689,1
594,840,36,0.0829173391563435,1
594,841,36,0.0734822678994714,1
594,842,36,0.0547631679296367,1
594,843,36,0.0427441910689911,1
595,839,36,0.0513945612746122,1
595,840,36,0.0653235483111653,1
595,841,36,0.0655441160581149,1
595,842,36,0.059949064665154,1
595,843,36,0.0533651539141689,1
595,844,36,0.0443403673223176,1
596,840,36,0.0523891301446055,1
596,841,36,0.0624658672830863,1
565,862,37,0.0517596077894007,1
565,863,37,0.0628933669917715,1
566,861,37,0.0446500299489855,1
566,862,37,0.0750734591432946,1
566,863,37,0.090978315792588,1
566,864,37,0.0708127574633054,1
567,861,37,0.0439147815977585,1
567,862,37,0.072292386140869,1
567,863,37,0.0841837424328421,1
567,864,37,0.0635735342320278,1
568,862,37,0.0492045633360921,1
568,863,37,0.0547968843279692,1
568,864,37,0.0451960966488885,1
578,831,37,0.040987302326531,1
579,831,37,0.0415364751955875,1
585,832,37,0.0411097702769208,1
591,838,37,0.0419425047603056,1
591,839,37,0.042505708106218,1
592,838,37,0.0454824805787923,1
592,839,37,0.0515094760164597,1
592,840,37,0.052176185893751,1
593,839,37,0.0537267238984686,1
593,840,37,0.0613686191121415,1
593,841,37,0.0527473533600521,1
594,839,37,0.056150579338124,1
594,840,37,0.0682031428354665,1
594,841,37,0.065129408684012,1
594,842,37,0.0525453415270021,1
595,839,37,0.0507443149048454,1
595,840,37,0.0607438979374561,1
595,841,37,0.0646988163230103,1
595,842,37,0.060086271374661,1
596,840,37,0.0534975324094824,1
596,841,37,0.062671420527443,1
560,858,38,0.0419769159240625,1
560,859,38,0.0412008332081134,1
565,863,38,0.0626991246366566,1
566,861,38,0.0463198107867733,1
566,862,38,0.0720500562862722,1
566,863,38,0.0869567161465085,1
566,864,38,0.0709657896856282,1
567,861,38,0.0482445813487372,1
567,862,38,0.0728160013744352,1
567,863,38,0.0829826579196943,1
567,864,38,0.0648694582806393,1
568,862,38,0.0531646073062549,1
568,863,38,0.0562359841213282,1
579,831,38,0.0421193022855263,1
585,832,38,0.0418597033199168,1
591,837,38,0.0415353208577037,1
591,838,38,0.0437749336982923,1
591,839,38,0.0441552866793539,1
592,838,38,0.0468812299101954,1
592,839,38,0.0500176227114697,1
592,840,38,0.0496199357385777,1
593,839,38,0.0493163367650096,1
593,840,38,0.0522152549595546,1
593,841,38,0.0477322932246173,1
594,840,38,0.0547066513305715,1
594,841,38,0.0558380159982256,1
594,842,38,0.0483827126098984,1
595,840,38,0.0554186912725871,1
595,841,38,0.0617381261831558,1
595,842,38,0.0580536472665236,1
596,841,38,0.0608755951841824,1
559,858,39,0.0416643120336529,1
560,858,39,0.045750773573991,1
560,859,39,0.043334100981543,1
561,858,39,0.042060158013339,1
565,863,39,0.0586168884595797,1
566,861,39,0.044850354880772,1
566,862,39,0.0612446372760022,1
566,863,39,0.0726017865408982,1
566,864,39,0.0648191540198814,1
567,861,39,0.0479718548309868,1
567,862,39,0.0640240774445124,1
567,863,39,0.0721118714854602,1
568,861,39,0.043485319244334,1
568,862,39,0.0525162911408185,1
569,862,39,0.0442059261576706,1
569,863,39,0.0430658025796094,1
576,829,39,0.0436617653317914,1
577,830,39,0.0414913262564798,1
577,832,39,0.0418663211633356,1
578,831,39,0.0426905535562171,1
579,830,39,0.0432354334778272,1
579,831,39,0.0435008122429584,1
580,831,39,0.043288357301605,1
582,831,39,0.0438890428366516,1
582,832,39,0.0416254430170376,1
583,832,39,0.0438050951684812,1
584,832,39,0.0454629514526253,1
587,834,39,0.0420044497211293,1
587,835,39,0.0448403875651328,1
587,836,39,0.0452405075686934,1
588,835,39,0.0450886972684397,1
588,836,39,0.0470911680164905,1
588,837,39,0.0443086973731141,1
589,835,39,0.0414830674690434,1
589,836,39,0.0424807046610466,1
589,837,39,0.0422587581967181,1
590,837,39,0.0411442409147607,1
591,837,39,0.042548442938229,1
591,838,39,0.0438967122899927,1
591,839,39,0.0438301175372245,1
592,839,39,0.0469415312236341,1
592,840,39,0.0452906901779179,1
593,840,39,0.0467519224402593,1
593,841,39,0.0444127040274638,1
595,841,39,0.0568071083337507,1
560,857,40,0.0438892726228815,1
560,858,40,0.0469291119537543,1
561,857,40,0.0417097421229713,1
565,832,40,0.0428226076474414,1
566,863,40,0.0605994462032913,1
567,861,40,0.0471554973473694,1
568,861,40,0.0460901867590016,1
568,862,40,0.0510315260651765,1
569,861,40,0.0435778365871929,1
569,862,40,0.0467662935414087,1
577,830,40,0.0424672094509379,1
577,832,40,0.0434203654355834,1
578,831,40,0.0439315019251869,1
578,832,40,0.0421009139804062,1
579,830,40,0.0431963022345732,1
579,831,40,0.0445377834307713,1
579,832,40,0.0421469685475962,1
580,830,40,0.0483329057687438,1
580,831,40,0.0445271402732797,1
580,832,40,0.0425584075505009,1
581,831,40,0.0456137128463241,1
581,832,40,0.044270344699674,1
581,833,40,0.0417721142158457,1
582,831,40,0.0471789571697499,1
582,832,40,0.0460146546735773,1
582,833,40,0.0424615458962147,1
583,831,40,0.0476924564024694,1
583,832,40,0.0461834853750418,1
583,833,40,0.0417115885229121,1
584,832,40,0.0451700605173666,1
584,833,40,0.0412233738855746,1
585,833,40,0.0413240499912757,1
585,835,40,0.0417927949765292,1
586,834,40,0.0421946289150275,1
586,835,40,0.0449627122370499,1
586,836,40,0.0441300750748919,1
587,834,40,0.0440109295630485,1
587,835,40,0.0488807593945045,1
587,836,40,0.0524440787905731,1
587,837,40,0.0471903870071577,1
588,835,40,0.0483656922086875,1
588,836,40,0.0528692806369601,1
588,837,40,0.0505893957320706,1
588,838,40,0.0420158498214956,1
589,836,40,0.0453585311830619,1
589,837,40,0.0449511391211694,1
589,838,40,0.0424302003511004,1
590,837,40,0.041692778492476,1
590,838,40,0.0424913559286404,1
590,839,40,0.0421586984587864,1
591,838,40,0.0440648725563397,1
591,839,40,0.0440894353526234,1
591,840,40,0.041806422651641,1
592,839,40,0.0447588891478354,1
592,840,40,0.0423988575093534,1
560,856,41,0.0416407197462693,1
561,856,41,0.0414940079969501,1
561,857,41,0.0423717562510722,1
562,857,41,0.0413046262964377,1
565,832,41,0.043212068273306,1
566,860,41,0.0412178887531005,1
567,860,41,0.0429240596195891,1
567,861,41,0.0458918190652197,1
568,833,41,0.043045716559756,1
568,860,41,0.0416951033884483,1
568,861,41,0.0466240856021939,1
568,862,41,0.0493960861035929,1
569,833,41,0.0436324094650905,1
569,861,41,0.0447753850957688,1
569,862,41,0.0470258654733441,1
570,862,41,0.0415226069207763,1
577,830,41,0.0428533260113168,1
577,831,41,0.0445519436692629,1
577,832,41,0.0429151331004025,1
578,831,41,0.0429017189913161,1
578,832,41,0.041891786884334,1
579,830,41,0.0424451310493036,1
579,831,41,0.0433436465718663,1
579,832,41,0.0424799179811304,1
580,831,41,0.0451378877418249,1
580,832,41,0.0437936599243386,1
580,833,41,0.0422929179473059,1
581,831,41,0.0485144368902987,1
581,832,41,0.0462966321146034,1
581,833,41,0.0442285209024801,1
582,831,41,0.0498396384079562,1
582,832,41,0.0481382795354568,1
582,833,41,0.0448254325366228,1
582,834,41,0.0411509236389972,1
583,832,41,0.0464686473828765,1
583,833,41,0.0429772456700056,1
584,833,41,0.0418675214584654,1
584,834,41,0.0409899272962857,1
584,835,41,0.0418807868823443,1
585,833,41,0.0415783963140083,1
585,834,41,0.0411609233950454,1
585,835,41,0.0426401465674976,1
586,834,41,0.0423103871075067,1
586,835,41,0.0447947520198912,1
586,836,41,0.0459481464285662,1
587,835,41,0.0488210041612826,1
587,836,41,0.053877885390544,1
587,837,41,0.049810366345645,1
588,835,41,0.0486642358851997,1
588,836,41,0.0535217005141242,1
588,837,41,0.0515423543708953,1
588,838,41,0.0444107440860918,1
589,836,41,0.0460606497666843,1
589,837,41,0.0455321792852504,1
589,838,41,0.0436847196244664,1
590,838,41,0.0422949968368439,1
590,839,41,0.0419237731275245,1
591,839,41,0.0427747391207196,1
591,840,41,0.0416610761028636,1
592,840,41,0.041087337734156,1
560,855,42,0.0413800691707375,1
560,856,42,0.0432574794390526,1
561,855,42,0.0412266638837121,1
561,856,42,0.0434549036576085,1
561,857,42,0.0429753587195537,1
562,856,42,0.043141983473212,1
562,857,42,0.0427014264999385,1
563,856,42,0.0410196508209543,1
563,857,42,0.0421552732922785,1
565,832,42,0.0477657338794741,1
566,859,42,0.0410538727489925,1
566,860,42,0.0425994500745135,1
567,859,42,0.0411127845315826,1
567,860,42,0.0447063654224342,1
568,860,42,0.0431399478375526,1
568,861,42,0.0471477278694342,1
569,833,42,0.0448802406074852,1
569,861,42,0.0448393765057216,1
569,862,42,0.046912643039495,1
570,862,42,0.0418567782763797,1
576,830,42,0.0463600639275023,1
577,830,42,0.0418459161461279,1
577,831,42,0.0437236616320017,1
577,832,42,0.0423198624102774,1
578,831,42,0.0417230480973614,1
578,832,42,0.0415478266353405,1
578,833,42,0.0412942156285433,1
579,831,42,0.041942507463673,1
579,832,42,0.0422804013561994,1
579,833,42,0.0421520211412847,1
580,832,42,0.0443369745962186,1
580,833,42,0.0439186420064194,1
580,834,42,0.0430742100522533,1
581,832,42,0.0471382174228872,1
581,833,42,0.0454248447856195,1
581,834,42,0.0454075216072588,1
581,835,42,0.0412559900133715,1
582,832,42,0.0484839969732666,1
582,833,42,0.0457193280042825,1
582,834,42,0.0440858642042753,1
582,835,42,0.0411896818175487,1
583,833,42,0.0435203575893299,1
583,834,42,0.0415492891571091,1
584,833,42,0.0422734834389982,1
584,834,42,0.0413064591795414,1
584,835,42,0.0424157427421938,1
585,834,42,0.0414228878071382,1
585,835,42,0.0427183117327789,1
585,836,42,0.0417782995204789,1
586,835,42,0.044301806489587,1
586,836,42,0.0459270871964454,1
586,837,42,0.0419633504264011,1
587,835,42,0.0476473317936683,1
587,836,42,0.0521876157311588,1
587,837,42,0.0494194756384208,1
587,838,42,0.041646275166296,1
588,836,42,0.0512028384579231,1
588,837,42,0.0498826706103823,1
588,838,42,0.0439955149620789,1
589,837,42,0.0451241951858952,1
589,838,42,0.0431434595118177,1
592,850,42,0.0416792995025717,1
593,849,42,0.0472464170000892,1
593,850,42,0.0607330898745525,1
593,851,42,0.0552606956677002,1
594,849,42,0.0515033772195836,1
594,850,42,0.0640599619435075,1
594,851,42,0.0583653293086464,1
559,854,43,0.0413947700827109,1
560,854,43,0.0420234084367728,1
560,855,43,0.0444139259495329,1
561,855,43,0.0446469427034037,1
561,856,43,0.0451300641965415,1
562,855,43,0.0424592993978974,1
562,856,43,0.0446638847069597,1
563,856,43,0.043321660084724,1
563,857,43,0.04300230858926,1
564,857,43,0.0414771660179883,1
565,833,43,0.0634351704812695,1
566,859,43,0.0429968072365815,1
567,859,43,0.0436501381485627,1
567,860,43,0.0471571734351633,1
568,860,43,0.0456879797558007,1
569,833,43,0.0480001050204171,1
569,860,43,0.0411989138172525,1
569,861,43,0.0460730203759506,1
577,831,43,0.0422650327124758,1
577,832,43,0.0421101838272537,1
577,833,43,0.0421507235249281,1
578,833,43,0.0430554054285521,1
578,834,43,0.0418813897332767,1
579,832,43,0.0416788020829684,1
579,833,43,0.0440651455964481,1
579,834,43,0.0437249862820324,1
580,832,43,0.0442536189655108,1
580,833,43,0.0464775090212452,1
580,834,43,0.0484017172827879,1
580,835,43,0.0447740847760448,1
581,832,43,0.0467744685244554,1
581,833,43,0.0482447813979256,1
581,834,43,0.0516856760974828,1
581,835,43,0.049508675949468,1
582,833,43,0.0468390087179922,1
582,834,43,0.0479703409452374,1
582,835,43,0.0463035040745586,1
583,833,43,0.0435583155711281,1
583,834,43,0.0430517207387728,1
583,835,43,0.042422779607561,1
584,834,43,0.0415456477212083,1
584,835,43,0.0417508603412714,1
585,835,43,0.0419330321609023,1
585,836,43,0.0415569937542264,1
586,835,43,0.0436697700026913,1
586,836,43,0.0447498517905851,1
586,837,43,0.04177512576714,1
587,836,43,0.0483454439867896,1
587,837,43,0.0462950749749755,1
588,837,43,0.0468902375304042,1
588,838,43,0.0421919552846594,1
589,838,43,0.0421566195692485,1
592,849,43,0.0416794454844119,1
592,850,43,0.0545425244883996,1
592,851,43,0.0482681222721401,1
593,849,43,0.0635061609094457,1
593,850,43,0.0904424380844518,1
593,851,43,0.0770551247757611,1
556,845,44,0.0410286665512653,1
560,854,44,0.044693962372759,1
561,854,44,0.0435685424100386,1
561,855,44,0.0470793110470319,1
562,855,44,0.0445067649931135,1
562,856,44,0.0450972831633326,1
563,855,44,0.0421571980898741,1
563,856,44,0.0440190612922165,1
564,856,44,0.0419030815533714,1
564,857,44,0.0420313698537941,1
567,858,44,0.0412762247184324,1
567,859,44,0.0454795122813765,1
568,859,44,0.0436562612757455,1
568,860,44,0.0472093430194339,1
569,860,44,0.0424468125438324,1
576,834,44,0.0428800190611192,1
577,832,44,0.042071477012683,1
577,833,44,0.0436178356113854,1
577,834,44,0.0418721766571448,1
578,833,44,0.0448938736893318,1
578,834,44,0.0448427611217184,1
579,832,44,0.0423184458457548,1
579,833,44,0.0480329725613831,1
579,834,44,0.0494975164488012,1
579,835,44,0.043044746050856,1
580,833,44,0.0535576985545505,1
580,834,44,0.057312719140369,1
580,835,44,0.050372537005207,1
581,832,44,0.0487976903207422,1
581,833,44,0.0552967153350657,1
581,834,44,0.0604431320929332,1
581,835,44,0.0540747986726596,1
582,833,44,0.0499725359498124,1
582,834,44,0.0528033509125747,1
582,835,44,0.0485018283847003,1
583,834,44,0.0443694204118686,1
583,835,44,0.0420930174442027,1
586,836,44,0.0421052204446897,1
587,837,44,0.0423963974450107,1
590,844,44,0.0413691502697701,1
590,845,44,0.0438962202771241,1
591,845,44,0.0417188065138957,1
592,849,44,0.0453719182584743,1
592,850,44,0.0607482341387811,1
592,851,44,0.0519080334736576,1
559,840,45,0.0440605552785866,1
560,840,45,0.0452180371787848,1
560,853,45,0.0430160308822312,1
561,840,45,0.0463587338707368,1
561,841,45,0.0413816479373047,1
561,851,45,0.0433952754826549,1
561,852,45,0.0417368136442111,1
561,853,45,0.0423016065701603,1
561,854,45,0.0474174158022163,1
562,841,45,0.0424706048804043,1
562,842,45,0.0415706295394405,1
562,850,45,0.0497818241925344,1
562,851,45,0.0597199002098419,1
562,852,45,0.048513890810082,1
562,854,45,0.0453080701269943,1
562,855,45,0.0485316897811068,1
563,840,45,0.0430410072937285,1
563,846,45,0.0441339273734506,1
563,847,45,0.0423925586632891,1
563,850,45,0.0557877874317551,1
563,851,45,0.0677158500464157,1
563,852,45,0.0519984286730999,1
563,854,45,0.0430856615166004,1
563,855,45,0.0476021260838449,1
563,856,45,0.0462899007297535,1
564,840,45,0.0416720761048533,1
564,845,45,0.0448233455369826,1
564,846,45,0.0590849494928786,1
564,847,45,0.0524855700735757,1
564,850,45,0.0434296082487569,1
564,851,45,0.0517306060638304,1
564,852,45,0.0425852546922456,1
564,855,45,0.0449142435627631,1
564,856,45,0.0458676077066993,1
565,840,45,0.0425219985982283,1
565,845,45,0.0443560333364563,1
565,846,45,0.0590437231398821,1
565,847,45,0.0519464591380177,1
565,855,45,0.0411160096489022,1
565,856,45,0.0444993983169224,1
565,857,45,0.0439015513176559,1
566,856,45,0.0410814092494267,1
566,857,45,0.0426675533062962,1
566,858,45,0.0435004229580514,1
567,857,45,0.0421145146218439,1
567,858,45,0.0453377260674776,1
568,858,45,0.0447796185691323,1
568,859,45,0.0475787257355473,1
569,839,45,0.0411346223335173,1
569,859,45,0.041714835267171,1
570,838,45,0.041513926408024,1
577,832,45,0.042821693909257,1
577,833,45,0.0450215591388222,1
577,834,45,0.044651570868409,1
578,832,45,0.0435529439800852,1
578,833,45,0.0486836028093221,1
578,834,45,0.0492569113426116,1
578,835,45,0.0425082681951549,1
579,832,45,0.0481184260052007,1
579,833,45,0.0573968803745647,1
579,834,45,0.0580396167896677,1
579,835,45,0.0467484459097705,1
580,833,45,0.06427550683381,1
580,834,45,0.065425416601894,1
580,835,45,0.0516347608756903,1
581,833,45,0.0618283267401446,1
581,834,45,0.0643101207501226,1
581,835,45,0.0533706471567452,1
582,834,45,0.053410219048887,1
582,835,45,0.0484405484522594,1
583,835,45,0.0419544536442561,1
587,843,45,0.0412775061145845,1
587,844,45,0.0428200529652394,1
588,842,45,0.0414876361599656,1
588,843,45,0.0463266124591759,1
588,844,45,0.0503771922038863,1
588,845,45,0.0427669480158451,1
589,842,45,0.0431179424268384,1
589,843,45,0.0448019997479164,1
589,844,45,0.0492127869797521,1
589,845,45,0.0472443245937142,1
590,843,45,0.0419164551119467,1
590,844,45,0.0466382134002765,1
590,845,45,0.0494024714574144,1
590,846,45,0.0419924116260543,1
591,845,45,0.04474985719732,1
560,840,46,0.0456381350675024,1
560,850,46,0.0412520566137905,1
560,851,46,0.0425759848453981,1
560,852,46,0.0428458512004292,1
561,840,46,0.0466557582547648,1
561,841,46,0.043234811703323,1
561,842,46,0.0436102445556992,1
561,843,46,0.0415524872407546,1
561,849,46,0.0423399430233959,1
561,850,46,0.0496172972519859,1
561,851,46,0.054410719106977,1
561,852,46,0.0487245101649642,1
561,853,46,0.0485186919906015,1
562,840,46,0.0462001056778761,1
562,841,46,0.044396053987588,1
562,842,46,0.045534314945504,1
562,843,46,0.0429623068617001,1
562,846,46,0.0438626958178776,1
562,847,46,0.0445894772223778,1
562,849,46,0.0463695635605797,1
562,850,46,0.069070934587419,1
562,851,46,0.084045968016179,1
562,852,46,0.0635092968156408,1
562,853,46,0.051372707252473,1
562,854,46,0.0531225158756873,1
563,840,46,0.0444063673342557,1
563,841,46,0.0419658564479898,1
563,842,46,0.0416563614301013,1
563,845,46,0.0497435715436885,1
563,846,46,0.0674813869909808,1
563,847,46,0.058545973725691,1
563,849,46,0.0458958795230689,1
563,850,46,0.0793440335210638,1
563,852,46,0.073936520132042,1
563,853,46,0.0525332736948856,1
563,854,46,0.0528709513180192,1
563,855,46,0.0559473347695351,1
564,840,46,0.0457779424164575,1
564,845,46,0.0676612852786203,1
564,846,46,0.104053119828728,1
564,847,46,0.0838883454759947,1
564,848,46,0.0437680698484393,1
564,850,46,0.055826040080601,1
564,851,46,0.07115578775391,1
564,852,46,0.0575338870348835,1
564,853,46,0.047811820887073,1
564,854,46,0.0499212314431129,1
564,855,46,0.0547020393857707,1
564,856,46,0.0522073340930445,1
565,845,46,0.0653161464911978,1
565,846,46,0.100874738324848,1
565,847,46,0.0812406079609456,1
565,848,46,0.0439187609545854,1
565,851,46,0.0426322959885401,1
565,852,46,0.0433897227659956,1
565,853,46,0.0429796678872046,1
565,854,46,0.0450209454744202,1
565,855,46,0.0504836562192113,1
565,856,46,0.0515452199403494,1
566,845,46,0.0431336300679164,1
566,846,46,0.0576671954885859,1
566,847,46,0.049219188553778,1
566,855,46,0.0434799584667607,1
566,856,46,0.0475411975891672,1
566,857,46,0.0473182130317535,1
567,856,46,0.0425479401118909,1
567,857,46,0.0463616318805999,1
567,858,46,0.0488778721981111,1
568,857,46,0.0428390414179244,1
568,858,46,0.047620903673872,1
569,833,46,0.049640859802328,1
569,840,46,0.0436712108975206,1
569,858,46,0.0411543298819333,1
570,839,46,0.0420256414182532,1
573,836,46,0.0417462889469817,1
575,835,46,0.0470349650080448,1
576,832,46,0.0452389179886566,1
576,834,46,0.0472929473599433,1
576,835,46,0.0431101972792099,1
577,833,46,0.0451307535552309,1
577,834,46,0.0457829544596349,1
577,835,46,0.042711758770178,1
578,833,46,0.0540284899889331,1
578,834,46,0.0521098939181327,1
578,835,46,0.0441492635767653,1
579,833,46,0.070656481200091,1
579,834,46,0.0644240893133767,1
579,835,46,0.0471198885918501,1
580,834,46,0.0690472044282975,1
580,835,46,0.0492059204265317,1
581,834,46,0.0604347462472286,1
581,835,46,0.0486057944885389,1
582,835,46,0.0454679040217197,1
587,843,46,0.0459759100118628,1
587,844,46,0.049206509760627,1
587,845,46,0.0419063958818155,1
588,842,46,0.045670386240699,1
588,843,46,0.0517303627607636,1
588,844,46,0.056932555395026,1
588,845,46,0.0508207553217193,1
589,843,46,0.050288592040404,1
589,844,46,0.055291443768617,1
589,845,46,0.0542768159124445,1
560,845,47,0.0466285299382153,1
560,846,47,0.0439242920443055,1
560,847,47,0.0434327252313801,1
560,848,47,0.044370815349452,1
560,850,47,0.0476322470035227,1
561,840,47,0.0457187332634524,1
561,841,47,0.0443609913122855,1
561,842,47,0.0456554203987194,1
561,843,47,0.0467394815434403,1
561,844,47,0.0482141576519096,1
561,845,47,0.0481281148739967,1
561,846,47,0.0492382418872809,1
561,847,47,0.0471547187775554,1
561,848,47,0.0457846900215119,1
561,849,47,0.0517306601311786,1
561,850,47,0.062463126068533,1
561,851,47,0.068679108515071,1
561,852,47,0.0633532206016147,1
562,840,47,0.0453727292686972,1
562,841,47,0.0448506900983308,1
562,842,47,0.0468451507687469,1
562,843,47,0.0470608092004806,1
562,844,47,0.0471342434727951,1
562,845,47,0.0508977039716663,1
562,846,47,0.0575272529712603,1
562,847,47,0.0537083842539619,1
562,848,47,0.0483207784625443,1
562,849,47,0.0596234116202583,1
562,850,47,0.0883100651256348,1
562,852,47,0.0904827128521201,1
562,853,47,0.0733229638647583,1
563,840,47,0.0454639679187713,1
563,841,47,0.042761865685115,1
563,842,47,0.0435664445969288,1
563,843,47,0.0440691168431728,1
563,844,47,0.0467159460267722,1
563,845,47,0.0636567384741606,1
563,846,47,0.0907157971901761,1
563,847,47,0.0728213053812929,1
563,848,47,0.0511036302807255,1
563,849,47,0.0607752515926727,1
564,840,47,0.0486151968003895,1
564,841,47,0.0413098167618641,1
564,844,47,0.0469267113634946,1
564,845,47,0.0903695444856192,1
564,846,47,0.143716515550591,1
564,847,47,0.110288047474073,1
564,848,47,0.058596067123791,1
564,849,47,0.0492565382779091,1
564,850,47,0.0730597153531459,1
565,841,47,0.0412543274424146,1
565,844,47,0.0448708193720627,1
565,845,47,0.0845995906279918,1
565,846,47,0.135407196770631,1
565,847,47,0.104780249967624,1
565,848,47,0.058012961587009,1
565,849,47,0.0434577881506346,1
565,850,47,0.0496205142592034,1
565,851,47,0.0584620666080317,1
565,852,47,0.0587291052407524,1
565,853,47,0.0562830713748686,1
565,855,47,0.0591245376052248,1
566,841,47,0.0413049479971594,1
566,844,47,0.042198875905228,1
566,845,47,0.053732303648802,1
566,846,47,0.074049953428549,1
566,847,47,0.0609784961612615,1
566,848,47,0.0452415024079002,1
566,852,47,0.0431580225520532,1
566,853,47,0.0447671398251696,1
566,854,47,0.0472458709198725,1
566,855,47,0.0515332278025204,1
566,856,47,0.0527573125655891,1
567,841,47,0.0418482194151608,1
567,844,47,0.041231765138014,1
567,855,47,0.0432086377000632,1
567,856,47,0.047053142450507,1
567,857,47,0.0496613567340277,1
568,841,47,0.0437392059946069,1
568,857,47,0.0450551890293977,1
569,834,47,0.0492283637827662,1
569,840,47,0.0533232192789111,1
569,841,47,0.0447033052105266,1
570,834,47,0.0513842290043727,1
570,839,47,0.0489935763232421,1
570,840,47,0.0481387066675075,1
570,841,47,0.0412026904215238,1
571,838,47,0.0446797480669193,1
571,839,47,0.0414908964210616,1
572,837,47,0.0461262821206546,1
572,838,47,0.0414731380005479,1
573,836,47,0.0469777076863094,1
573,837,47,0.0422431138095187,1
574,836,47,0.0445035479858961,1
575,835,47,0.0486662255636132,1
575,836,47,0.0426107663704901,1
576,833,47,0.0458445912365739,1
576,834,47,0.047350404730867,1
576,835,47,0.0454309381757608,1
576,836,47,0.0425096496159012,1
577,834,47,0.0458261596775752,1
577,835,47,0.0448049842655366,1
577,836,47,0.0431341923683376,1
577,837,47,0.0413270372122633,1
578,834,47,0.0512251736794612,1
578,835,47,0.0453067292567591,1
578,836,47,0.0427557587781368,1
579,834,47,0.0626577739287593,1
579,835,47,0.0466179381447045,1
579,836,47,0.0412486801078959,1
580,835,47,0.0461413344703913,1
581,835,47,0.043939019989953,1
586,843,47,0.0425140506980441,1
586,844,47,0.0443921476216812,1
587,843,47,0.0481260170608868,1
587,844,47,0.0507859467629533,1
587,845,47,0.0464277940945826,1
588,844,47,0.0564776165071334,1
588,845,47,0.0536539870949458,1
561,845,48,0.0580236507017466,1
561,846,48,0.0578036452552182,1
561,847,48,0.0517642575813452,1
561,848,48,0.0499508008758391,1
562,843,48,0.0508107258286297,1
562,844,48,0.0540197797391393,1
562,845,48,0.0630515788660511,1
562,846,48,0.0726820657394938,1
562,847,48,0.062538160734354,1
562,848,48,0.0555516320683217,1
562,849,48,0.0678611938918257,1
562,850,48,0.0989242371118797,1
563,840,48,0.0472209783127648,1
563,841,48,0.0437115072921281,1
563,842,48,0.04518244464347,1
563,843,48,0.0469405363844273,1
563,844,48,0.0522318806691237,1
563,845,48,0.075443501481056,1
563,846,48,0.105683639661627,1
563,847,48,0.0824445580435475,1
563,848,48,0.0603807491865892,1
563,849,48,0.0717242140056578,1
564,841,48,0.0426513736523497,1
564,842,48,0.0415965359093267,1
564,843,48,0.0431713285264433,1
564,844,48,0.0541584895209261,1
564,845,48,0.101330861287666,1
564,846,48,0.156964551370339,1
564,847,48,0.121224314873703,1
564,848,48,0.0703304550904927,1
564,849,48,0.0618724348827997,1
565,841,48,0.0431942801157508,1
565,843,48,0.0421142605053074,1
565,844,48,0.0516495645156253,1
565,845,48,0.0920934981029281,1
565,846,48,0.144425749397236,1
565,847,48,0.115260026746468,1
565,848,48,0.0695680027530229,1
565,849,48,0.053347565805802,1
565,850,48,0.063771474793759,1
566,841,48,0.0449201531239205,1
566,842,48,0.0413504078235193,1
566,843,48,0.0429581490826242,1
566,844,48,0.0477253834175184,1
566,845,48,0.0604932363045028,1
566,846,48,0.081612531842424,1
566,847,48,0.0696884215509163,1
566,848,48,0.053325706376928,1
566,849,48,0.0454194380508003,1
566,850,48,0.0458262678122716,1
566,851,48,0.0497800183431048,1
566,852,48,0.0534421133775855,1
567,841,48,0.0485242284870563,1
567,842,48,0.0439053630657034,1
567,843,48,0.0431834342057035,1
567,844,48,0.0451139169830039,1
567,845,48,0.0464119739885016,1
567,846,48,0.0455147533789281,1
567,847,48,0.0411931205008938,1
567,852,48,0.042334393010104,1
567,853,48,0.0488474268743441,1
567,854,48,0.0524858782574604,1
567,855,48,0.0523654540528322,1
568,840,48,0.0561829927133651,1
568,841,48,0.0508459398925072,1
568,842,48,0.0444558146275447,1
568,843,48,0.041244265508916,1
568,844,48,0.0418283631815373,1
568,845,48,0.0416870419468328,1
569,839,48,0.0602553940398058,1
569,840,48,0.0578741166368518,1
569,841,48,0.0500566971840081,1
569,842,48,0.0426385137335822,1
570,835,48,0.0526318655043138,1
570,838,48,0.0546811910163078,1
570,839,48,0.0547161347434444,1
570,840,48,0.0529014777428085,1
570,841,48,0.0460560486353531,1
571,835,48,0.0554993759762941,1
571,837,48,0.0510742663039223,1
571,838,48,0.0485329873974634,1
571,839,48,0.0474718886555198,1
571,840,48,0.0462376230107866,1
571,841,48,0.0429167632309505,1
572,835,48,0.058681596261896,1
572,836,48,0.055091016108869,1
572,837,48,0.0496917425837116,1
572,838,48,0.0456918726048705,1
572,839,48,0.0426239669135512,1
572,840,48,0.0414996364078969,1
573,835,48,0.0575843264640119,1
573,836,48,0.0521147545727352,1
573,837,48,0.048126968646215,1
573,838,48,0.0442890709257204,1
574,835,48,0.0538289274067561,1
574,836,48,0.0492686655841086,1
574,837,48,0.0477103581014558,1
574,838,48,0.0446516087155527,1
575,834,48,0.0520291875874864,1
575,835,48,0.0497163810742827,1
575,836,48,0.047592372334231,1
575,837,48,0.0476652875600029,1
575,838,48,0.0450018732173455,1
576,834,48,0.047423465938479,1
576,835,48,0.0474667144102978,1
576,836,48,0.0475582774644611,1
576,837,48,0.0487634927230107,1
576,838,48,0.0457971525452702,1
577,835,48,0.0460108267053253,1
577,836,48,0.0465233527257772,1
577,837,48,0.0471002891781305,1
577,838,48,0.0442664302236649,1
578,835,48,0.0456996420828057,1
578,836,48,0.0452737860215057,1
578,837,48,0.0447442233796383,1
578,838,48,0.0426700512177827,1
578,846,48,0.043867364533394,1
578,847,48,0.0497722542719044,1
578,848,48,0.0526319520120709,1
578,849,48,0.0491325672552395,1
579,836,48,0.0428037029991461,1
579,837,48,0.0414601699470841,1
579,847,48,0.049418989032287,1
579,848,48,0.0559457451894983,1
579,849,48,0.0516288080606544,1
580,847,48,0.0413596263063861,1
580,848,48,0.0457037512012683,1
580,849,48,0.0424869413296606,1
585,844,48,0.0426137671083147,1
585,845,48,0.0425377538234915,1
586,844,48,0.0472824096337807,1
562,845,49,0.0748634561561818,1
562,846,49,0.0822366853099534,1
563,845,49,0.0834447877648965,1
563,846,49,0.107130514339656,1
563,847,49,0.0859083124179204,1
564,845,49,0.0971899944782099,1
564,846,49,0.136309537558078,1
564,847,49,0.111380045705508,1
565,845,49,0.0896102334610793,1
565,846,49,0.126250977862059,1
565,847,49,0.109842500084561,1
565,848,49,0.0770255445295652,1
565,850,49,0.0798909409682312,1
566,845,49,0.0647912823018884,1
566,846,49,0.0794433984935712,1
566,847,49,0.0732388675113803,1
567,840,49,0.0571274789987281,1
567,841,49,0.0533545621206581,1
568,839,49,0.0622298470880235,1
568,840,49,0.0585333003392748,1
568,841,49,0.055879301825305,1
569,838,49,0.0626186507956075,1
569,839,49,0.0610646200401967,1
569,840,49,0.0576733591662798,1
569,841,49,0.0532422858654024,1
570,837,49,0.0542441646408713,1
570,838,49,0.0563435943644349,1
570,839,49,0.0568320225677976,1
570,840,49,0.0540743715406089,1
571,836,49,0.0528492486844549,1
571,837,49,0.0514994735570441,1
571,838,49,0.0519268435040936,1
571,839,49,0.0520480733122099,1
571,840,49,0.0505389292692681,1
571,841,49,0.0485231687670318,1
572,835,49,0.0582657642869507,1
572,836,49,0.0562587735085911,1
572,837,49,0.0529539068503503,1
572,838,49,0.0500055873197622,1
572,839,49,0.0469654614319439,1
572,840,49,0.0456070355288224,1
572,841,49,0.0458759773321994,1
573,836,49,0.0558956355711938,1
573,837,49,0.0548250588231121,1
573,838,49,0.0505066240287233,1
574,836,49,0.0536524461755223,1
574,837,49,0.0549528686275034,1
575,836,49,0.0525839834607549,1
576,836,49,0.0526477180508038,1
564,846,50,0.107096408656416,1
565,846,50,0.102617739868925,1
